399.26312622,0.00017700
401.19193359,-0.00002082
403.12074097,0.00016477
405.04954834,0.00077703
406.97835571,0.00034221
408.90716309,0.00012698
410.83597046,0.00029863
412.76477783,0.00050797
414.69358521,0.00077422
416.62239258,0.00044991
418.55119995,0.00058981
420.48000732,0.00073719
422.40881470,0.00019586
424.33762207,0.00037690
426.26642944,0.00046517
428.19523682,0.00035628
430.12404419,0.00017878
432.05285156,0.00010293
433.98165894,0.00033882
435.91046631,-0.00001666
437.83927368,0.00041290
439.76808105,0.00069441
441.69688843,0.00040040
443.62569580,0.00086584
445.55450317,0.00080774
447.48331055,0.00036177
449.41211792,0.00019247
451.34092529,0.00070820
453.26973267,0.00050714
455.19854004,-0.00008960
457.12734741,0.00040252
459.05615479,0.00010962
460.98496216,0.00016566
462.91376953,0.00056513
464.84257690,0.00026746
466.77138428,0.00043924
468.70019165,0.00046581
470.62899902,0.00040020
472.55780640,0.00048599
474.48661377,0.00066231
476.41542114,0.00064228
478.34422852,0.00019982
480.27303589,0.00002877
482.20184326,0.00033242
484.13065063,0.00031274
486.05945801,-0.00005260
487.98826538,0.00033477
489.91707275,0.00033410
491.84588013,-0.00001642
493.77468750,0.00007393
495.70349487,-0.00007179
497.63230225,0.00018850
499.56110962,0.00028046
501.48991699,0.00012220
503.41872437,0.00020997
505.34753174,0.00019524
507.27633911,0.00035372
509.20514648,0.00031446
511.13395386,-0.00003835
513.06276123,-0.00023323
514.99156860,0.00032092
516.92037598,0.00071293
518.84918335,0.00014327
520.77799072,0.00002792
522.70679810,0.00030280
524.63560547,0.00017963
526.56441284,0.00023193
528.49322021,0.00032274
530.42202759,0.00018790
532.35083496,0.00015194
534.27964233,0.00027849
536.20844971,-0.00001698
538.13725708,0.00004554
540.06606445,0.00037255
541.99487183,0.00021513
543.92367920,0.00046582
545.85248657,0.00033020
547.78129395,0.00003950
549.71010132,0.00003418
551.63890869,0.00029874
553.56771606,0.00043483
555.49652344,0.00013340
557.42533081,0.00043417
559.35413818,0.00014170
561.28294556,-0.00011617
563.21175293,0.00024042
565.14056030,0.00002676
567.06936768,-0.00000304
568.99817505,0.00022356
570.92698242,0.00035543
572.85578979,0.00024654
574.78459717,0.00010087
576.71340454,0.00048504
578.64221191,0.00031423
580.57101929,0.00004076
582.49982666,0.00048365
584.42863403,0.00026632
586.35744141,0.00014906
588.28624878,0.00010074
590.21505615,0.00013433
592.14386353,0.00037723
594.07267090,0.00028405
596.00147827,0.00039862
597.93028564,0.00005916
599.85909302,0.00010526
601.78790039,0.00019738
603.71670776,0.00029372
605.64551514,0.00028229
607.57432251,-0.00009216
609.50312988,-0.00000344
611.43193726,0.00033869
613.36074463,0.00019304
615.28955200,0.00012665
617.21835938,0.00051518
619.14716675,0.00000090
621.07597412,0.00016865
623.00478149,0.00037470
624.93358887,0.00020772
626.86239624,0.00005519
628.79120361,0.00010266
630.72001099,0.00035537
632.64881836,0.00032577
634.57762573,0.00030214
636.50643311,0.00057937
638.43524048,0.00050001
640.36404785,0.00019744
642.29285522,0.00067326
644.22166260,0.00041513
646.15046997,0.00032395
648.07927734,0.00077227
650.00808472,0.00050756
651.93689209,0.00081926
653.86569946,0.00060710
655.79450684,0.00065679
657.72331421,0.00108591
659.65212158,0.00063625
661.58092896,0.00071943
663.50973633,0.00078634
665.43854370,0.00101084
667.36735107,0.00097270
669.29615845,0.00067275
671.22496582,0.00106535
673.15377319,0.00083034
675.08258057,0.00083309
677.01138794,0.00129157
678.94019531,0.00100833
680.86900269,0.00086879
682.79781006,0.00114655
684.72661743,0.00104985
686.65542480,0.00081182
688.58423218,0.00086567
690.51303955,0.00094864
692.44184692,0.00116915
694.37065430,0.00119531
696.29946167,0.00131421
698.22826904,0.00185201
700.15707642,0.00192848
702.08588379,0.00186620
704.01469116,0.00169530
705.94349854,0.00150809
707.87230591,0.00142203
709.80111328,0.00081263
711.72992065,0.00058917
713.65872803,0.00057367
715.58753540,0.00039099
717.51634277,0.00032405
719.44515015,-0.00002219
721.37395752,0.00009327
723.30276489,0.00027376
725.23157227,0.00014785
727.16037964,0.00021682
729.08918701,0.00023098
731.01799438,0.00034589
732.94680176,0.00032613
734.87560913,0.00028795
736.80441650,0.00027631
738.73322388,0.00001063
740.66203125,-0.00009659
742.59083862,-0.00007973
744.51964600,0.00008692
746.44845337,0.00021724
748.37726074,0.00014008
750.30606812,0.00017836
752.23487549,0.00009201
754.16368286,0.00019439
756.09249023,0.00022614
758.02129761,0.00002508
759.95010498,0.00001929
761.87891235,0.00004299
763.80771973,0.00022230
765.73652710,0.00039469
767.66533447,0.00042939
769.59414185,0.00020359
771.52294922,0.00006810
773.45175659,0.00017560
775.38056396,0.00024527
777.30937134,0.00029029
779.23817871,0.00021500
781.16698608,0.00029527
783.09579346,0.00017724
785.02460083,-0.00007758
786.95340820,0.00014401
788.88221558,0.00043656
790.81102295,0.00012389
792.73983032,0.00003859
794.66863770,0.00042519
796.59744507,0.00016220
798.52625244,0.00019191
800.45505981,0.00025840
802.38386719,0.00001836
804.31267456,0.00020110
806.24148193,0.00017882
808.17028931,0.00037778
810.09909668,0.00038723
812.02790405,0.00021013
813.95671143,0.00043530
815.88551880,0.00031457
817.81432617,0.00034909
819.74313354,0.00043875
821.67194092,0.00028732
823.60074829,0.00029362
825.52955566,0.00022730
827.45836304,0.00045634
829.38717041,0.00052242
831.31597778,0.00028512
833.24478516,0.00055212
835.17359253,0.00057193
837.10239990,0.00042590
839.03120728,0.00052456
840.96001465,0.00031966
842.88882202,0.00026834
844.81762939,0.00044341
846.74643677,0.00047433
848.67524414,0.00040609
850.60405151,0.00041249
852.53285889,0.00037325
854.46166626,0.00014491
856.39047363,0.00032275
858.31928101,0.00036980
860.24808838,0.00024019
862.17689575,0.00057798
864.10570313,0.00036293
866.03451050,0.00022448
867.96331787,0.00041071
869.89212524,0.00014837
871.82093262,0.00033630
873.74973999,0.00040160
875.67854736,0.00021311
877.60735474,0.00052959
879.53616211,0.00056952
881.46496948,0.00044014
883.39377686,0.00043027
885.32258423,0.00039170
887.25139160,0.00032892
889.18019897,0.00028724
891.10900635,0.00044885
893.03781372,0.00028503
894.96662109,0.00022952
896.89542847,0.00039266
898.82423584,0.00017238
900.75304321,0.00039996
902.68185059,0.00045881
904.61065796,0.00016957
906.53946533,0.00039527
908.46827271,0.00035563
910.39708008,0.00033818
912.32588745,0.00061448
914.25469482,0.00056268
916.18350220,0.00048243
918.11230957,0.00052767
920.04111694,0.00053687
921.96992432,0.00056016
923.89873169,0.00067432
925.82753906,0.00060863
927.75634644,0.00052132
929.68515381,0.00069861
931.61396118,0.00056508
933.54276855,0.00050985
935.47157593,0.00067489
937.40038330,0.00058272
939.32919067,0.00082087
941.25799805,0.00079253
943.18680542,0.00062529
945.11561279,0.00077376
947.04442017,0.00055682
948.97322754,0.00069836
950.90203491,0.00087868
952.83084229,0.00078883
954.75964966,0.00081621
956.68845703,0.00080299
958.61726440,0.00088830
960.54607178,0.00092641
962.47487915,0.00088140
964.40368652,0.00060765
966.33249390,0.00066836
968.26130127,0.00101448
970.19010864,0.00099840
972.11891602,0.00088966
974.04772339,0.00081143
975.97653076,0.00085431
977.90533813,0.00077198
979.83414551,0.00094006
981.76295288,0.00117676
983.69176025,0.00119131
985.62056763,0.00132059
987.54937500,0.00131321
989.47818237,0.00157184
991.40698975,0.00184319
993.33579712,0.00209662
995.26460449,0.00215319
997.19341187,0.00195485
999.12221924,0.00227482
1001.05102661,0.00254957
1002.97983398,0.00274388
1004.90864136,0.00288601
1006.83744873,0.00301096
1008.76625610,0.00318907
1010.69506348,0.00336489
1012.62387085,0.00369528
1014.55267822,0.00379991
1016.48148560,0.00391373
1018.41029297,0.00396727
1020.33910034,0.00425754
1022.26790771,0.00447520
1024.19671509,0.00438839
1026.12552246,0.00473082
1028.05432983,0.00483565
1029.98313721,0.00490116
1031.91194458,0.00508483
1033.84075195,0.00512675
1035.76955933,0.00516234
1037.69836670,0.00535090
1039.62717407,0.00550734
1041.55598145,0.00514826
1043.48478882,0.00520746
1045.41359619,0.00539220
1047.34240356,0.00520486
1049.27121094,0.00503556
1051.20001831,0.00496531
1053.12882568,0.00502000
1055.05763306,0.00477567
1056.98644043,0.00468337
1058.91524780,0.00459687
1060.84405518,0.00451155
1062.77286255,0.00446669
1064.70166992,0.00408494
1066.63047729,0.00398583
1068.55928467,0.00392314
1070.48809204,0.00381291
1072.41689941,0.00365204
1074.34570679,0.00350625
1076.27451416,0.00345614
1078.20332153,0.00316755
1080.13212891,0.00304731
1082.06093628,0.00300688
1083.98974365,0.00298740
1085.91855103,0.00279979
1087.84735840,0.00255865
1089.77616577,0.00263798
1091.70497314,0.00254628
1093.63378052,0.00238391
1095.56258789,0.00217294
1097.49139526,0.00202403
1099.42020264,0.00214445
1101.34901001,0.00214385
1103.27781738,0.00199783
1105.20662476,0.00201599
1107.13543213,0.00210705
1109.06423950,0.00201598
1110.99304687,0.00199693
1112.92185425,0.00194407
1114.85066162,0.00193923
1116.77946899,0.00193518
1118.70827637,0.00176124
1120.63708374,0.00204800
1122.56589111,0.00216153
1124.49469849,0.00193556
1126.42350586,0.00202110
1128.35231323,0.00215582
1130.28112061,0.00227780
1132.20992798,0.00220863
1134.13873535,0.00224061
1136.06754272,0.00231495
1137.99635010,0.00240419
1139.92515747,0.00255750
1141.85396484,0.00246853
1143.78277222,0.00278047
1145.71157959,0.00281985
1147.64038696,0.00296110
1149.56919434,0.00347902
1151.49800171,0.00330565
1153.42680908,0.00360055
1155.35561646,0.00383270
1157.28442383,0.00381164
1159.21323120,0.00406005
1161.14203857,0.00407045
1163.07084595,0.00435159
1164.99965332,0.00435419
1166.92846069,0.00446881
1168.85726807,0.00471289
1170.78607544,0.00480524
1172.71488281,0.00517423
1174.64369019,0.00510968
1176.57249756,0.00533885
1178.50130493,0.00569988
1180.43011230,0.00571436
1182.35891968,0.00590806
1184.28772705,0.00605605
1186.21653442,0.00639250
1188.14534180,0.00677922
1190.07414917,0.00711504
1192.00295654,0.00739945
1193.93176392,0.00766012
1195.86057129,0.00805870
1197.78937866,0.00835861
1199.71818604,0.00874404
1201.64699341,0.00906203
1203.57580078,0.00923537
1205.50460815,0.00968346
1207.43341553,0.01005338
1209.36222290,0.01019686
1211.29103027,0.01054614
1213.21983765,0.01079298
1215.14864502,0.01103743
1217.07745239,0.01137799
1219.00625977,0.01154901
1220.93506714,0.01196272
1222.86387451,0.01195042
1224.79268188,0.01180871
1226.72148926,0.01220424
1228.65029663,0.01205216
1230.57910400,0.01204933
1232.50791138,0.01240318
1234.43671875,0.01220453
1236.36552612,0.01218098
1238.29433350,0.01217722
1240.22314087,0.01200237
1242.15194824,0.01202142
1244.08075562,0.01182045
1246.00956299,0.01193064
1247.93837036,0.01217570
1249.86717773,0.01183858
1251.79598511,0.01168713
1253.72479248,0.01179245
1255.65359985,0.01172199
1257.58240723,0.01150862
1259.51121460,0.01127749
1261.44002197,0.01107655
1263.36882935,0.01098724
1265.29763672,0.01093919
1267.22644409,0.01070331
1269.15525146,0.01053452
1271.08405884,0.01042994
1273.01286621,0.01046769
1274.94167358,0.01015511
1276.87048096,0.00962167
1278.79928833,0.00977200
1280.72809570,0.00960265
1282.65690308,0.00930595
1284.58571045,0.00935053
1286.51451782,0.00904499
1288.44332520,0.00893170
1290.37213257,0.00893426
1292.30093994,0.00866960
1294.22974731,0.00865085
1296.15855469,0.00869671
1298.08736206,0.00863291
1300.01616943,0.00882329
1301.94497681,0.00876899
1303.87378418,0.00872508
1305.80259155,0.00885937
1307.73139893,0.00877385
1309.66020630,0.00902573
1311.58901367,0.00924750
1313.51782104,0.00930612
1315.44662842,0.00957214
1317.37543579,0.01004865
1319.30424316,0.01023093
1321.23305054,0.01034828
1323.16185791,0.01084230
1325.09066528,0.01081895
1327.01947266,0.01112946
1328.94828003,0.01152686
1330.87708740,0.01176119
1332.80589478,0.01231256
1334.73470215,0.01234546
1336.66350952,0.01256479
1338.59231689,0.01234937
1340.52112427,0.01238623
1342.44993164,0.01304310
1344.37873901,0.01301094
1346.30754639,0.01328776
1348.23635376,0.01316844
1350.16516113,0.01294237
1352.09396851,0.01296712
1354.02277588,0.01257021
1355.95158325,0.01256705
1357.88039062,0.01258961
1359.80919800,0.01248429
1361.73800537,0.01199700
1363.66681274,0.01180714
1365.59562012,0.01229928
1367.52442749,0.01208513
1369.45323486,0.01217570
1371.38204224,0.01222899
1373.31084961,0.01137695
1375.23965698,0.01148012
1377.16846436,0.01187590
1379.09727173,0.01169377
1381.02607910,0.01174189
1382.95488647,0.01182323
1384.88369385,0.01169647
1386.81250122,0.01115857
1388.74130859,0.01132516
1390.67011597,0.01226242
1392.59892334,0.01192363
1394.52773071,0.01142006
1396.45653809,0.01197619
1398.38534546,0.01173293
1400.31415283,0.01164696
1402.24296021,0.01235851
1404.17176758,0.01184366
1406.10057495,0.01199038
1408.02938232,0.01245745
1409.95818970,0.01208154
1411.88699707,0.01217127
1413.81580444,0.01179188
1415.74461182,0.01188105
1417.67341919,0.01088251
1419.60222656,0.00980642
1421.53103394,0.01107389
1423.45984131,0.01085874
1425.38864868,0.01053280
1427.31745605,0.01078835
1429.24626343,0.00988771
1431.17507080,0.00953681
1433.10387817,0.00987252
1435.03268555,0.00907248
1436.96149292,0.00784425
1438.89030029,0.00876077
1440.81910767,0.00890270
1442.74791504,0.00835202
1444.67672241,0.00870966
1446.60552979,0.00808069
1448.53433716,0.00824992
1450.46314453,0.00849252
1452.39195190,0.00865126
1454.32075928,0.00878730
1456.24956665,0.00728129
1458.17837402,0.00780899
1460.10718140,0.01011553
1462.03598877,0.01058484
1463.96479614,0.01048979
1465.89360352,0.01100733
1467.82241089,0.01253369
1469.75121826,0.01326063
1471.68002563,0.01191236
1473.60883301,0.01259421
1475.53764038,0.01421759
1477.46644775,0.01516639
1479.39525513,0.01664052
1481.32406250,0.01691322
1483.25286987,0.01776729
1485.18167725,0.01837506
1487.11048462,0.01795650
1489.03929199,0.01776975
1490.96809937,0.01830638
1492.89690674,0.02108815
1494.82571411,0.02028186
1496.75452148,0.01848003
1498.68332886,0.02095498
1500.61213623,0.02155840
1502.54094360,0.02294106
1504.46975098,0.02148482
1506.39855835,0.01610488
1508.32736572,0.01965472
1510.25617310,0.02262278
1512.18498047,0.02190057
1514.11378784,0.02357522
1516.04259521,0.02164787
1517.97140259,0.02249165
1519.90020996,0.02131075
1521.82901733,0.01889996
1523.75782471,0.02288418
1525.68663208,0.02246208
1527.61543945,0.02249519
1529.54424683,0.02445493
1531.47305420,0.02364623
1533.40186157,0.02179584
1535.33066895,0.02300598
1537.25947632,0.02456216
1539.18828369,0.01789200
1541.11709106,0.01869138
1543.04589844,0.02214584
1544.97470581,0.02136117
1546.90351318,0.02490260
1548.83232056,0.02340477
1550.76112793,0.02407915
1552.68993530,0.02382929
1554.61874268,0.02207312
1556.54755005,0.02313536
1558.47635742,0.01659486
1560.40516479,0.01832370
1562.33397217,0.02525888
1564.26277954,0.02404624
1566.19158691,0.02461903
1568.12039429,0.02406655
1570.04920166,0.02176541
1571.97800903,0.02497989
1573.90681641,0.02501149
1575.83562378,0.02015537
1577.76443115,0.02281660
1579.69323853,0.02596586
1581.62204590,0.02456512
1583.55085327,0.02465464
1585.47966064,0.02469933
1587.40846802,0.02475825
1589.33727539,0.02456991
1591.26608276,0.02462106
1593.19489014,0.02443103
1595.12369751,0.02433959
1597.05250488,0.02450171
1598.98131226,0.02445716
1600.91011963,0.02465788
1602.83892700,0.02409714
1604.76773437,0.02457125
1606.69654175,0.02415644
1608.62534912,0.02415773
1610.55415649,0.02407884
1612.48296387,0.02430442
1614.41177124,0.02457474
1616.34057861,0.02027715
1618.26938599,0.02197884
1620.19819336,0.02519723
1622.12700073,0.02272197
1624.05580811,0.02285915
1625.98461548,0.02372385
1627.91342285,0.02364816
1629.84223022,0.02363078
1631.77103760,0.02508637
1633.69984497,0.02286877
1635.62865234,0.01921699
1637.55745972,0.02243908
1639.48626709,0.02440859
1641.41507446,0.02376566
1643.34388184,0.02424050
1645.27268921,0.02176847
1647.20149658,0.01955718
1649.13030396,0.02418274
1651.05911133,0.02262016
1652.98791870,0.01521696
1654.91672607,0.02030341
1656.84553345,0.02498620
1658.77434082,0.02397075
1660.70314819,0.02434040
1662.63195557,0.02234105
1664.56076294,0.02355703
1666.48957031,0.02527081
1668.41837769,0.02216480
1670.34718506,0.02163684
1672.27599243,0.02452796
1674.20479980,0.02246528
1676.13360718,0.02187497
1678.06241455,0.02487942
1679.99122192,0.02380749
1681.92002930,0.02358307
1683.84883667,0.01925219
1685.77764404,0.01962533
1687.70645142,0.02596152
1689.63525879,0.02252647
1691.56406616,0.02514084
1693.49287354,0.02507682
1695.42168091,0.01887650
1697.35048828,0.02305563
1699.27929565,0.02018161
1701.20810303,0.01882448
1703.13691040,0.02467260
1705.06571777,0.02256690
1706.99452515,0.02300412
1708.92333252,0.02473354
1710.85213989,0.02392018
1712.78094727,0.02410633
1714.70975464,0.02233450
1716.63856201,0.02028775
1718.56736938,0.02015117
1720.49617676,0.02369735
1722.42498413,0.02414314
1724.35379150,0.02272703
1726.28259888,0.02462722
1728.21140625,0.02266318
1730.14021362,0.02319366
1732.06902100,0.02226795
1733.99782837,0.01725696
1735.92663574,0.02142058
1737.85544312,0.02324423
1739.78425049,0.02087083
1741.71305786,0.02268803
1743.64186523,0.02302197
1745.57067261,0.02302386
1747.49947998,0.02318154
1749.42828735,0.02204491
1751.35709473,0.02110858
1753.28590210,0.02364071
1755.21470947,0.02433558
1757.14351685,0.02234365
1759.07232422,0.02471758
1761.00113159,0.02312378
1762.92993896,0.02263008
1764.85874634,0.02543972
1766.78755371,0.02287641
1768.71636108,0.02329060
1770.64516846,0.02294173
1772.57397583,0.02092874
1774.50278320,0.02330219
1776.43159058,0.02428520
1778.36039795,0.02388303
1780.28920532,0.02369932
1782.21801270,0.02396612
1784.14682007,0.02390747
1786.07562744,0.02348444
1788.00443481,0.02452100
1789.93324219,0.02396135
1791.86204956,0.02184820
1793.79085693,0.02272561
1795.71966431,0.02438850
1797.64847168,0.02386886
1799.57727905,0.02357301
1801.50608643,0.02337684
1803.43489380,0.02400318
1805.36370117,0.02446083
1807.29250854,0.02407015
1809.22131592,0.02421495
1811.15012329,0.02355782
1813.07893066,0.02415195
1815.00773804,0.02425768
1816.93654541,0.02384583
1818.86535278,0.02410600
1820.79416016,0.02406951
1822.72296753,0.02430953
1824.65177490,0.02291904
1826.58058228,0.02379028
1828.50938965,0.02372738
1830.43819702,0.02238341
1832.36700439,0.02422547
1834.29581177,0.02397541
1836.22461914,0.02406672
1838.15342651,0.02396460
1840.08223389,0.02416557
1842.01104126,0.02411406
1843.93984863,0.02129259
1845.86865601,0.02270505
1847.79746338,0.02378597
1849.72627075,0.02350249
1851.65507812,0.02438515
1853.58388550,0.02371335
1855.51269287,0.02407832
1857.44150024,0.02385562
1859.37030762,0.02363302
1861.29911499,0.02393872
1863.22792236,0.02352845
1865.15672974,0.02361636
1867.08553711,0.02289999
1869.01434448,0.02229029
1870.94315186,0.02307622
1872.87195923,0.02362665
1874.80076660,0.02331122
1876.72957397,0.02328800
1878.65838135,0.02321996
1880.58718872,0.02337528
1882.51599609,0.02341744
1884.44480347,0.02295505
1886.37361084,0.02348653
1888.30241821,0.02296245
1890.23122559,0.02249416
1892.16003296,0.02324265
1894.08884033,0.02286995
1896.01764771,0.02289988
1897.94645508,0.02309315
1899.87526245,0.02303808
1901.80406982,0.02311320
1903.73287720,0.02285757
1905.66168457,0.02309071
1907.59049194,0.02277415
1909.51929932,0.02255100
1911.44810669,0.02284305
1913.37691406,0.02276487
1915.30572144,0.02282330
1917.23452881,0.02196479
1919.16333618,0.02198257
1921.09214355,0.02269556
1923.02095093,0.02214770
1924.94975830,0.02261357
1926.87856567,0.02280182
1928.80737305,0.02245468
1930.73618042,0.02264742
1932.66498779,0.02255300
1934.59379517,0.02267002
1936.52260254,0.02241431
1938.45140991,0.02252246
1940.38021729,0.02244552
1942.30902466,0.02179522
1944.23783203,0.02209561
1946.16663940,0.02231925
1948.09544678,0.02221566
1950.02425415,0.02225669
1951.95306152,0.02235911
1953.88186890,0.02227727
1955.81067627,0.02219749
1957.73948364,0.02227317
1959.66829102,0.02221337
1961.59709839,0.02225085
1963.52590576,0.02230872
1965.45471313,0.02216250
1967.38352051,0.02183639
1969.31232788,0.02210846
1971.24113525,0.02226333
1973.16994263,0.02206538
1975.09875000,0.02210789
1977.02755737,0.02189955
1978.95636475,0.02208799
1980.88517212,0.02199181
1982.81397949,0.02187671
1984.74278687,0.02204332
1986.67159424,0.02173938
1988.60040161,0.02174987
1990.52920898,0.02166333
1992.45801636,0.02154677
1994.38682373,0.02163472
1996.31563110,0.02176433
1998.24443848,0.02166072
2000.17324585,0.02147355
2002.10205322,0.02160264
2004.03086060,0.02144560
2005.95966797,0.02141484
2007.88847534,0.02130887
2009.81728271,0.02124420
2011.74609009,0.02133694
2013.67489746,0.02121367
2015.60370483,0.02110206
2017.53251221,0.02090023
2019.46131958,0.02113653
2021.39012695,0.02110899
2023.31893433,0.02089675
2025.24774170,0.02100216
2027.17654907,0.02092571
2029.10535645,0.02096178
2031.03416382,0.02074832
2032.96297119,0.02059047
2034.89177856,0.02063900
2036.82058594,0.02064107
2038.74939331,0.02069309
2040.67820068,0.02061401
2042.60700806,0.02055889
2044.53581543,0.02045358
2046.46462280,0.02037248
2048.39343018,0.02037719
2050.32223755,0.02040636
2052.25104492,0.02035469
2054.17985229,0.02025595
2056.10865967,0.02027665
2058.03746704,0.02029300
2059.96627441,0.02017196
2061.89508179,0.02005775
2063.82388916,0.02005844
2065.75269653,0.01990808
2067.68150391,0.01997261
2069.61031128,0.02005369
2071.53911865,0.01991658
2073.46792603,0.01991130
2075.39673340,0.01980695
2077.32554077,0.01978836
2079.25434814,0.01969765
2081.18315552,0.01967751
2083.11196289,0.01985940
2085.04077026,0.01970265
2086.96957764,0.01948179
2088.89838501,0.01947702
2090.82719238,0.01944656
2092.75599976,0.01940088
2094.68480713,0.01956761
2096.61361450,0.01955094
2098.54242187,0.01939227
2100.47122925,0.01937042
2102.40003662,0.01935055
2104.32884399,0.01923516
2106.25765137,0.01912086
2108.18645874,0.01923533
2110.11526611,0.01910430
2112.04407349,0.01907463
2113.97288086,0.01911273
2115.90168823,0.01893947
2117.83049561,0.01904345
2119.75930298,0.01903306
2121.68811035,0.01909236
2123.61691772,0.01899681
2125.54572510,0.01879919
2127.47453247,0.01893738
2129.40333984,0.01891146
2131.33214722,0.01884035
2133.26095459,0.01878800
2135.18976196,0.01882404
2137.11856934,0.01882396
2139.04737671,0.01879312
2140.97618408,0.01879966
2142.90499146,0.01864040
2144.83379883,0.01858871
2146.76260620,0.01868058
2148.69141357,0.01874799
2150.62022095,0.01857058
2152.54902832,0.01852087
2154.47783569,0.01861710
2156.40664307,0.01852280
2158.33545044,0.01851982
2160.26425781,0.01851665
2162.19306519,0.01848223
2164.12187256,0.01840395
2166.05067993,0.01838303
2167.97948730,0.01843873
2169.90829468,0.01841723
2171.83710205,0.01833834
2173.76590942,0.01827786
2175.69471680,0.01836956
2177.62352417,0.01836167
2179.55233154,0.01827091
2181.48113892,0.01820349
2183.40994629,0.01817124
2185.33875366,0.01810535
2187.26756104,0.01806322
2189.19636841,0.01813088
2191.12517578,0.01796773
2193.05398315,0.01800446
2194.98279053,0.01818091
2196.91159790,0.01800858
2198.84040527,0.01790096
2200.76921265,0.01796674
2202.69802002,0.01802022
2204.62682739,0.01802298
2206.55563477,0.01796523
2208.48444214,0.01793008
2210.41324951,0.01800802
2212.34205688,0.01795267
2214.27086426,0.01784560
2216.19967163,0.01786848
2218.12847900,0.01780431
2220.05728638,0.01772805
2221.98609375,0.01778296
2223.91490112,0.01782871
2225.84370850,0.01771738
2227.77251587,0.01774844
2229.70132324,0.01765809
2231.63013062,0.01744951
2233.55893799,0.01753049
2235.48774536,0.01751484
2237.41655273,0.01760709
2239.34536011,0.01756190
2241.27416748,0.01738236
2243.20297485,0.01751765
2245.13178223,0.01740257
2247.06058960,0.01723352
2248.98939697,0.01733948
2250.91820435,0.01739711
2252.84701172,0.01731503
2254.77581909,0.01733372
2256.70462646,0.01729044
2258.63343384,0.01713914
2260.56224121,0.01720127
2262.49104858,0.01722830
2264.41985596,0.01719921
2266.34866333,0.01713565
2268.27747070,0.01706288
2270.20627808,0.01702450
2272.13508545,0.01698954
2274.06389282,0.01701808
2275.99270020,0.01698846
2277.92150757,0.01701150
2279.85031494,0.01700203
2281.77912231,0.01698340
2283.70792969,0.01695145
2285.63673706,0.01690477
2287.56554443,0.01690952
2289.49435181,0.01678825
2291.42315918,0.01679610
2293.35196655,0.01669150
2295.28077393,0.01650374
2297.20958130,0.01661545
2299.13838867,0.01662988
2301.06719604,0.01648220
2302.99600342,0.01638068
2304.92481079,0.01624047
2306.85361816,0.01609951
2308.78242554,0.01614466
2310.71123291,0.01601466
2312.64004028,0.01579616
2314.56884766,0.01568960
2316.49765503,0.01540769
2318.42646240,0.01526870
2320.35526978,0.01502856
2322.28407715,0.01471780
2324.21288452,0.01465602
2326.14169189,0.01448721
2328.07049927,0.01442247
2329.99930664,0.01432031
2331.92811401,0.01413548
2333.85692139,0.01409264
2335.78572876,0.01382963
2337.71453613,0.01374504
2339.64334351,0.01398963
2341.57215088,0.01407144
2343.50095825,0.01423031
2345.42976562,0.01448890
2347.35857300,0.01498359
2349.28738037,0.01545971
2351.21618774,0.01496067
2353.14499512,0.01417622
2355.07380249,0.01371069
2357.00260986,0.01333522
2358.93141724,0.01304982
2360.86022461,0.01276004
2362.78903198,0.01285341
2364.71783936,0.01296297
2366.64664673,0.01298383
2368.57545410,0.01338391
2370.50426147,0.01371849
2372.43306885,0.01404255
2374.36187622,0.01440895
2376.29068359,0.01475339
2378.21949097,0.01516536
2380.14829834,0.01541216
2382.07710571,0.01554946
2384.00591309,0.01559285
2385.93472046,0.01561729
2387.86352783,0.01568568
2389.79233521,0.01563209
2391.72114258,0.01560222
2393.64994995,0.01573260
2395.57875732,0.01568567
2397.50756470,0.01559096
2399.43637207,0.01572968
2401.36517944,0.01559203
2403.29398682,0.01546131
2405.22279419,0.01549626
2407.15160156,0.01531863
2409.08040894,0.01541380
2411.00921631,0.01544339
2412.93802368,0.01524733
2414.86683105,0.01532636
2416.79563843,0.01532208
2418.72444580,0.01527411
2420.65325317,0.01534874
2422.58206055,0.01530743
2424.51086792,0.01523316
2426.43967529,0.01525937
2428.36848267,0.01522844
2430.29729004,0.01509743
2432.22609741,0.01509305
2434.15490479,0.01515093
2436.08371216,0.01509564
2438.01251953,0.01503164
2439.94132690,0.01508857
2441.87013428,0.01516646
2443.79894165,0.01515232
2445.72774902,0.01506199
2447.65655640,0.01505751
2449.58536377,0.01514024
2451.51417114,0.01505806
2453.44297852,0.01494657
2455.37178589,0.01490019
2457.30059326,0.01491589
2459.22940063,0.01492387
2461.15820801,0.01485029
2463.08701538,0.01486589
2465.01582275,0.01478881
2466.94463013,0.01478335
2468.87343750,0.01483883
2470.80224487,0.01478119
2472.73105225,0.01481982
2474.65985962,0.01470733
2476.58866699,0.01467407
2478.51747437,0.01477658
2480.44628174,0.01466766
2482.37508911,0.01454590
2484.30389648,0.01453770
2486.23270386,0.01457781
2488.16151123,0.01457193
2490.09031860,0.01457830
2492.01912598,0.01450591
2493.94793335,0.01440401
2495.87674072,0.01437362
2497.80554810,0.01441327
2499.73435547,0.01451388
2501.66316284,0.01439410
2503.59197021,0.01434796
2505.52077759,0.01433552
2507.44958496,0.01426171
2509.37839233,0.01436747
2511.30719971,0.01429859
2513.23600708,0.01431434
2515.16481445,0.01430628
2517.09362183,0.01417558
2519.02242920,0.01425797
2520.95123657,0.01407217
2522.88004395,0.01406497
2524.80885132,0.01423695
2526.73765869,0.01410720
2528.66646606,0.01410919
2530.59527344,0.01399759
2532.52408081,0.01407018
2534.45288818,0.01416570
2536.38169556,0.01394903
2538.31050293,0.01404576
2540.23931030,0.01394649
2542.16811768,0.01387584
2544.09692505,0.01394073
2546.02573242,0.01384691
2547.95453979,0.01400389
2549.88334717,0.01393684
2551.81215454,0.01388550
2553.74096191,0.01390305
2555.66976929,0.01376576
2557.59857666,0.01380550
2559.52738403,0.01383631
2561.45619141,0.01382665
2563.38499878,0.01379300
2565.31380615,0.01376292
2567.24261353,0.01367501
2569.17142090,0.01374587
2571.10022827,0.01372346
2573.02903564,0.01358589
2574.95784302,0.01369753
2576.88665039,0.01355327
2578.81545776,0.01354999
2580.74426514,0.01355753
2582.67307251,0.01352191
2584.60187988,0.01359140
2586.53068726,0.01341533
2588.45949463,0.01348724
2590.38830200,0.01349391
2592.31710937,0.01347303
2594.24591675,0.01338261
2596.17472412,0.01334020
2598.10353149,0.01347516
2600.03233887,0.01333209
2601.96114624,0.01342687
2603.88995361,0.01328264
2605.81876099,0.01314192
2607.74756836,0.01328098
2609.67637573,0.01332195
2611.60518311,0.01336487
2613.53399048,0.01318590
2615.46279785,0.01328358
2617.39160522,0.01317609
2619.32041260,0.01305748
2621.24921997,0.01318548
2623.17802734,0.01306885
2625.10683472,0.01317693
2627.03564209,0.01312078
2628.96444946,0.01307138
2630.89325684,0.01305354
2632.82206421,0.01300292
2634.75087158,0.01308604
2636.67967895,0.01299139
2638.60848633,0.01303488
2640.53729370,0.01299615
2642.46610107,0.01291742
2644.39490845,0.01292805
2646.32371582,0.01287691
2648.25252319,0.01286918
2650.18133057,0.01288292
2652.11013794,0.01279594
2654.03894531,0.01271223
2655.96775269,0.01285077
2657.89656006,0.01273485
2659.82536743,0.01269694
2661.75417480,0.01280330
2663.68298218,0.01269373
2665.61178955,0.01273459
2667.54059692,0.01266370
2669.46940430,0.01258529
2671.39821167,0.01257001
2673.32701904,0.01258352
2675.25582642,0.01260542
2677.18463379,0.01242768
2679.11344116,0.01244330
2681.04224854,0.01254896
2682.97105591,0.01245928
2684.89986328,0.01245045
2686.82867065,0.01252659
2688.75747803,0.01243086
2690.68628540,0.01239766
2692.61509277,0.01241028
2694.54390015,0.01239492
2696.47270752,0.01238680
2698.40151489,0.01235894
2700.33032227,0.01249958
2702.25912964,0.01236255
2704.18793701,0.01226415
2706.11674438,0.01223910
2708.04555176,0.01211811
2709.97435913,0.01236672
2711.90316650,0.01228490
2713.83197388,0.01221749
2715.76078125,0.01225651
2717.68958862,0.01199730
2719.61839600,0.01203469
2721.54720337,0.01209433
2723.47601074,0.01204488
2725.40481812,0.01200940
2727.33362549,0.01209245
2729.26243286,0.01210982
2731.19124023,0.01190784
2733.12004761,0.01189645
2735.04885498,0.01191012
2736.97766235,0.01189302
2738.90646973,0.01188641
2740.83527710,0.01184683
2742.76408447,0.01188982
2744.69289185,0.01187417
2746.62169922,0.01174340
2748.55050659,0.01170243
2750.47931396,0.01180868
2752.40812134,0.01182889
2754.33692871,0.01173350
2756.26573608,0.01170295
2758.19454346,0.01174409
2760.12335083,0.01172080
2762.05215820,0.01164441
2763.98096558,0.01162576
2765.90977295,0.01163956
2767.83858032,0.01159247
2769.76738770,0.01157339
2771.69619507,0.01154252
2773.62500244,0.01149517
2775.55380981,0.01157097
2777.48261719,0.01149296
2779.41142456,0.01151037
2781.34023193,0.01153500
2783.26903931,0.01134646
2785.19784668,0.01141205
2787.12665405,0.01135023
2789.05546143,0.01132667
2790.98426880,0.01143002
2792.91307617,0.01129139
2794.84188354,0.01125855
2796.77069092,0.01123241
2798.69949829,0.01124477
2800.62830566,0.01132075
2802.55711304,0.01117907
2804.48592041,0.01105980
2806.41472778,0.01124300
2808.34353516,0.01120431
2810.27234253,0.01097347
2812.20114990,0.01102743
2814.12995728,0.01102558
2816.05876465,0.01107176
2817.98757202,0.01101998
2819.91637939,0.01095504
2821.84518677,0.01108960
2823.77399414,0.01103197
2825.70280151,0.01097357
2827.63160889,0.01081816
2829.56041626,0.01074237
2831.48922363,0.01079282
2833.41803101,0.01077103
2835.34683838,0.01086269
2837.27564575,0.01082714
2839.20445312,0.01071420
2841.13326050,0.01069090
2843.06206787,0.01070610
2844.99087524,0.01063040
2846.91968262,0.01057339
2848.84848999,0.01052545
2850.77729736,0.01046616
2852.70610474,0.01047100
2854.63491211,0.01035204
2856.56371948,0.01039253
2858.49252686,0.01038761
2860.42133423,0.01027323
2862.35014160,0.01029316
2864.27894897,0.01034298
2866.20775635,0.01041507
2868.13656372,0.01032263
2870.06537109,0.01033539
2871.99417847,0.01031960
2873.92298584,0.01017863
2875.85179321,0.01012678
2877.78060059,0.01015547
2879.70940796,0.01030624
2881.63821533,0.01015463
2883.56702270,0.01003674
2885.49583008,0.01015240
2887.42463745,0.01010252
2889.35344482,0.01004139
2891.28225220,0.01005046
2893.21105957,0.01006313
2895.13986694,0.01004307
2897.06867432,0.01001071
2898.99748169,0.00995130
2900.92628906,0.00991865
2902.85509644,0.00984490
2904.78390381,0.00989783
2906.71271118,0.00992834
2908.64151855,0.00970527
2910.57032593,0.00970979
2912.49913330,0.00965789
2914.42794067,0.00960535
2916.35674805,0.00965802
2918.28555542,0.00956118
2920.21436279,0.00965738
2922.14317017,0.00966028
2924.07197754,0.00950943
2926.00078491,0.00949130
2927.92959229,0.00959677
2929.85839966,0.00964064
2931.78720703,0.00957790
2933.71601440,0.00956401
2935.64482178,0.00945502
2937.57362915,0.00949056
2939.50243652,0.00956775
2941.43124390,0.00947630
2943.36005127,0.00953031
2945.28885864,0.00952699
2947.21766602,0.00943547
2949.14647339,0.00944021
2951.07528076,0.00938896
2953.00408813,0.00937036
2954.93289551,0.00941364
2956.86170288,0.00943412
2958.79051025,0.00946412
2960.71931763,0.00937094
2962.64812500,0.00930765
2964.57693237,0.00927074
2966.50573975,0.00917940
2968.43454712,0.00926415
2970.36335449,0.00926434
2972.29216187,0.00920043
2974.22096924,0.00923273
2976.14977661,0.00923748
2978.07858398,0.00929273
2980.00739136,0.00925500
2981.93619873,0.00917415
2983.86500610,0.00925951
2985.79381348,0.00928407
2987.72262085,0.00922270
2989.65142822,0.00924859
2991.58023560,0.00919408
2993.50904297,0.00913528
2995.43785034,0.00914705
2997.36665771,0.00907503
2999.29546509,0.00900752
3001.22427246,0.00906023
3003.15307983,0.00912285
3005.08188721,0.00902744
3007.01069458,0.00900315
3008.93950195,0.00897125
3010.86830933,0.00897900
3012.79711670,0.00901243
3014.72592407,0.00880506
3016.65473145,0.00887827
3018.58353882,0.00891886
3020.51234619,0.00886903
3022.44115356,0.00893376
3024.36996094,0.00884426
3026.29876831,0.00890613
3028.22757568,0.00878647
3030.15638306,0.00873726
3032.08519043,0.00877662
3034.01399780,0.00864039
3035.94280518,0.00878230
3037.87161255,0.00879197
3039.80041992,0.00872788
3041.72922729,0.00872816
3043.65803467,0.00866657
3045.58684204,0.00867422
3047.51564941,0.00864000
3049.44445679,0.00862671
3051.37326416,0.00864041
3053.30207153,0.00864590
3055.23087891,0.00862840
3057.15968628,0.00856353
3059.08849365,0.00848573
3061.01730103,0.00854485
3062.94610840,0.00854123
3064.87491577,0.00848551
3066.80372314,0.00851269
3068.73253052,0.00833185
3070.66133789,0.00837665
3072.59014526,0.00845309
3074.51895264,0.00829205
3076.44776001,0.00838503
3078.37656738,0.00842129
3080.30537476,0.00829702
3082.23418213,0.00827369
3084.16298950,0.00831232
3086.09179687,0.00828431
3088.02060425,0.00827493
3089.94941162,0.00831441
3091.87821899,0.00829134
3093.80702637,0.00822422
3095.73583374,0.00814039
3097.66464111,0.00817244
3099.59344849,0.00816520
3101.52225586,0.00809318
3103.45106323,0.00809450
3105.37987061,0.00803674
3107.30867798,0.00797296
3109.23748535,0.00807810
3111.16629272,0.00810525
3113.09510010,0.00798158
3115.02390747,0.00805612
3116.95271484,0.00799689
3118.88152222,0.00788482
3120.81032959,0.00794556
3122.73913696,0.00792443
3124.66794434,0.00791554
3126.59675171,0.00784032
3128.52555908,0.00786591
3130.45436645,0.00789544
3132.38317383,0.00785400
3134.31198120,0.00781803
3136.24078857,0.00770452
3138.16959595,0.00775484
3140.09840332,0.00770563
3142.02721069,0.00765932
3143.95601807,0.00765693
3145.88482544,0.00756357
3147.81363281,0.00761352
3149.74244019,0.00760118
3151.67124756,0.00759241
3153.60005493,0.00756595
3155.52886230,0.00749703
3157.45766968,0.00751402
3159.38647705,0.00747118
3161.31528442,0.00742509
3163.24409180,0.00745946
3165.17289917,0.00747025
3167.10170654,0.00742666
3169.03051392,0.00734365
3170.95932129,0.00724090
3172.88812866,0.00727601
3174.81693604,0.00726281
3176.74574341,0.00728128
3178.67455078,0.00729825
3180.60335815,0.00719624
3182.53216553,0.00732464
3184.46097290,0.00722777
3186.38978027,0.00715731
3188.31858765,0.00723418
3190.24739502,0.00703864
3192.17620239,0.00707542
3194.10500977,0.00704502
3196.03381714,0.00696774
3197.96262451,0.00707600
3199.89143188,0.00699895
3201.82023926,0.00695600
3203.74904663,0.00707061
3205.67785400,0.00705292
3207.60666138,0.00692290
3209.53546875,0.00696042
3211.46427612,0.00695266
3213.39308350,0.00691756
3215.32189087,0.00685398
3217.25069824,0.00676998
3219.17950562,0.00690830
3221.10831299,0.00684586
3223.03712036,0.00682401
3224.96592773,0.00693446
3226.89473511,0.00684848
3228.82354248,0.00681124
3230.75234985,0.00676064
3232.68115723,0.00681373
3234.60996460,0.00686980
3236.53877197,0.00675882
3238.46757935,0.00671023
3240.39638672,0.00671603
3242.32519409,0.00679232
3244.25400146,0.00672149
3246.18280884,0.00654027
3248.11161621,0.00666426
3250.04042358,0.00673326
3251.96923096,0.00657789
3253.89803833,0.00662802
3255.82684570,0.00665721
3257.75565308,0.00659744
3259.68446045,0.00662996
3261.61326782,0.00657807
3263.54207520,0.00663009
3265.47088257,0.00670232
3267.39968994,0.00663418
3269.32849731,0.00669732
3271.25730469,0.00665669
3273.18611206,0.00646497
3275.11491943,0.00655357
3277.04372681,0.00663563
3278.97253418,0.00654361
3280.90134155,0.00659340
3282.83014893,0.00658570
3284.75895630,0.00658769
3286.68776367,0.00660965
3288.61657104,0.00654911
3290.54537842,0.00658601
3292.47418579,0.00645059
3294.40299316,0.00647291
3296.33180054,0.00664163
3298.26060791,0.00648592
3300.18941528,0.00642034
3302.11822266,0.00643230
3304.04703003,0.00646988
3305.97583740,0.00651536
3307.90464478,0.00643681
3309.83345215,0.00646090
3311.76225952,0.00650295
3313.69106689,0.00645011
3315.61987427,0.00641904
3317.54868164,0.00647902
3319.47748901,0.00643660
3321.40629639,0.00640224
3323.33510376,0.00640581
3325.26391113,0.00630760
3327.19271851,0.00636894
3329.12152588,0.00636341
3331.05033325,0.00634534
3332.97914062,0.00643676
3334.90794800,0.00639545
3336.83675537,0.00632592
3338.76556274,0.00634510
3340.69437012,0.00642932
3342.62317749,0.00628522
3344.55198486,0.00622083
3346.48079224,0.00629973
3348.40959961,0.00625731
3350.33840698,0.00631250
3352.26721436,0.00627391
3354.19602173,0.00629066
3356.12482910,0.00629440
3358.05363647,0.00625226
3359.98244385,0.00630012
3361.91125122,0.00617215
3363.84005859,0.00613856
3365.76886597,0.00612079
3367.69767334,0.00618446
3369.62648071,0.00629121
3371.55528809,0.00614225
3373.48409546,0.00615849
3375.41290283,0.00614970
3377.34171020,0.00604236
3379.27051758,0.00614464
3381.19932495,0.00617619
3383.12813232,0.00610726
3385.05693970,0.00605706
3386.98574707,0.00600266
3388.91455444,0.00603194
3390.84336182,0.00599900
3392.77216919,0.00594031
3394.70097656,0.00603744
3396.62978394,0.00605611
3398.55859131,0.00597932
3400.48739868,0.00594949
3402.41620605,0.00597722
3404.34501343,0.00596701
3406.27382080,0.00595125
3408.20262817,0.00595608
3410.13143555,0.00587151
3412.06024292,0.00583210
3413.98905029,0.00581246
3415.91785767,0.00589551
3417.84666504,0.00592784
3419.77547241,0.00585813
3421.70427979,0.00588504
3423.63308716,0.00584863
3425.56189453,0.00589637
3427.49070190,0.00579064
3429.41950928,0.00570357
3431.34831665,0.00578757
3433.27712402,0.00573275
3435.20593140,0.00578988
3437.13473877,0.00576120
3439.06354614,0.00576246
3440.99235352,0.00575353
3442.92116089,0.00567472
3444.84996826,0.00571044
3446.77877563,0.00561874
3448.70758301,0.00565373
3450.63639038,0.00571221
3452.56519775,0.00574136
3454.49400513,0.00570066
3456.42281250,0.00557701
3458.35161987,0.00562163
3460.28042725,0.00554054
3462.20923462,0.00552250
3464.13804199,0.00562969
3466.06684937,0.00565752
3467.99565674,0.00563777
3469.92446411,0.00560980
3471.85327148,0.00561188
3473.78207886,0.00553962
3475.71088623,0.00555878
3477.63969360,0.00559477
3479.56850098,0.00552635
3481.49730835,0.00545438
3483.42611572,0.00550402
3485.35492310,0.00558030
3487.28373047,0.00544197
3489.21253784,0.00552090
3491.14134521,0.00564620
3493.07015259,0.00549056
3494.99895996,0.00554950
3496.92776733,0.00563509
3498.85657471,0.00560147
3500.78538208,0.00552474
3502.71418945,0.00535373
3504.64299683,0.00542034
3506.57180420,0.00547418
3508.50061157,0.00541946
3510.42941895,0.00545465
3512.35822632,0.00544644
3514.28703369,0.00548229
3516.21584106,0.00546896
3518.14464844,0.00550545
3520.07345581,0.00557227
3522.00226318,0.00550811
3523.93107056,0.00540351
3525.85987793,0.00534694
3527.78868530,0.00540610
3529.71749268,0.00537767
3531.64630005,0.00552329
3533.57510742,0.00554411
3535.50391479,0.00527369
3537.43272217,0.00540240
3539.36152954,0.00551064
3541.29033691,0.00539842
3543.21914429,0.00538155
3545.14795166,0.00532866
3547.07675903,0.00523774
3549.00556641,0.00540700
3550.93437378,0.00545946
3552.86318115,0.00531275
3554.79198853,0.00547224
3556.72079590,0.00540507
3558.64960327,0.00537160
3560.57841064,0.00541969
3562.50721802,0.00533559
3564.43602539,0.00536083
3566.36483276,0.00492704
3568.29364014,0.00484829
3570.22244751,0.00533604
3572.15125488,0.00543469
3574.08006226,0.00541890
3576.00886963,0.00544641
3577.93767700,0.00536142
3579.86648437,0.00535293
3581.79529175,0.00540973
3583.72409912,0.00538442
3585.65290649,0.00521654
3587.58171387,0.00483777
3589.51052124,0.00503942
3591.43932861,0.00546622
3593.36813599,0.00526784
3595.29694336,0.00523846
3597.22575073,0.00530414
3599.15455811,0.00522668
3601.08336548,0.00525632
3603.01217285,0.00533793
3604.94098022,0.00539390
3606.86978760,0.00526472
3608.79859497,0.00499058
3610.72740234,0.00508756
3612.65620972,0.00516198
3614.58501709,0.00502589
3616.51382446,0.00536047
3618.44263184,0.00492460
3620.37143921,0.00486946
3622.30024658,0.00545672
3624.22905395,0.00526019
3626.15786133,0.00550144
3628.08666870,0.00464207
3630.01547607,0.00428502
3631.94428345,0.00532037
3633.87309082,0.00526267
3635.80189819,0.00539466
3637.73070557,0.00533545
3639.65951294,0.00527610
3641.58832031,0.00534437
3643.51712769,0.00529787
3645.44593506,0.00533392
3647.37474243,0.00475916
3649.30354980,0.00449031
3651.23235718,0.00457932
3653.16116455,0.00530914
3655.08997192,0.00516320
3657.01877930,0.00473197
3658.94758667,0.00543501
3660.87639404,0.00523115
3662.80520142,0.00533668
3664.73400879,0.00532543
3666.66281616,0.00526024
3668.59162354,0.00507043
3670.52043091,0.00428512
3672.44923828,0.00512060
3674.37804565,0.00479667
3676.30685303,0.00417132
3678.23566040,0.00512922
3680.16446777,0.00519138
3682.09327515,0.00514702
3684.02208252,0.00527207
3685.95088989,0.00519858
3687.87969727,0.00455659
3689.80850464,0.00427067
3691.73731201,0.00495489
3693.66611938,0.00507397
3695.59492676,0.00508046
3697.52373413,0.00505565
3699.45254150,0.00516252
3701.38134888,0.00505154
3703.31015625,0.00480637
3705.23896362,0.00522885
3707.16777100,0.00500966
3709.09657837,0.00481420
3711.02538574,0.00458086
3712.95419312,0.00444143
3714.88300049,0.00511736
3716.81180786,0.00501903
3718.74061523,0.00494302
3720.66942261,0.00493537
3722.59822998,0.00478816
3724.52703735,0.00486728
3726.45584473,0.00466599
3728.38465210,0.00489677
3730.31345947,0.00485424
3732.24226685,0.00458636
3734.17107422,0.00438092
3736.09988159,0.00417366
3738.02868896,0.00444127
3739.95749634,0.00484787
3741.88630371,0.00498335
3743.81511108,0.00387992
3745.74391846,0.00373569
3747.67272583,0.00474092
3749.60153320,0.00413748
3751.53034058,0.00384054
3753.45914795,0.00441051
3755.38795532,0.00474997
3757.31676270,0.00480972
3759.24557007,0.00448630
3761.17437744,0.00468876
3763.10318481,0.00487696
3765.03199219,0.00458466
3766.96079956,0.00464329
3768.88960693,0.00455685
3770.81841431,0.00446710
3772.74722168,0.00481330
3774.67602905,0.00487188
3776.60483643,0.00484181
3778.53364380,0.00463711
3780.46245117,0.00455146
3782.39125854,0.00476628
3784.32006592,0.00467375
3786.24887329,0.00465649
3788.17768066,0.00464130
3790.10648804,0.00469387
3792.03529541,0.00464306
3793.96410278,0.00463758
3795.89291016,0.00447179
3797.82171753,0.00447812
3799.75052490,0.00461984
3801.67933228,0.00376473
3803.60813965,0.00439601
3805.53694702,0.00458520
3807.46575439,0.00381769
3809.39456177,0.00464120
3811.32336914,0.00452383
3813.25217651,0.00457901
3815.18098389,0.00412136
3817.10979126,0.00390926
3819.03859863,0.00479024
3820.96740601,0.00381163
3822.89621338,0.00409987
3824.82502075,0.00467179
3826.75382812,0.00419839
3828.68263550,0.00447680
3830.61144287,0.00433938
3832.54025024,0.00424395
3834.46905762,0.00430413
3836.39786499,0.00408742
3838.32667236,0.00374807
3840.25547974,0.00406196
3842.18428711,0.00428993
3844.11309448,0.00418820
3846.04190186,0.00453597
3847.97070923,0.00439649
3849.89951660,0.00437968
3851.82832397,0.00388445
3853.75713135,0.00300438
3855.68593872,0.00359245
3857.61474609,0.00440724
3859.54355347,0.00428576
3861.47236084,0.00426855
3863.40116821,0.00417593
3865.32997559,0.00394100
3867.25878296,0.00436515
3869.18759033,0.00384538
3871.11639770,0.00362176
3873.04520508,0.00430778
3874.97401245,0.00401150
3876.90281982,0.00429505
3878.83162720,0.00422927
3880.76043457,0.00381623
3882.68924194,0.00429706
3884.61804932,0.00398535
3886.54685669,0.00382657
3888.47566406,0.00419953
3890.40447144,0.00394083
3892.33327881,0.00385377
3894.26208618,0.00414736
3896.19089355,0.00417906
3898.11970093,0.00400037
3900.04850830,0.00380228
3901.97731567,0.00381736
3903.90612305,0.00378987
3905.83493042,0.00380663
3907.76373779,0.00410428
3909.69254517,0.00410235
3911.62135254,0.00408341
3913.55015991,0.00407406
3915.47896728,0.00400304
3917.40777466,0.00395526
3919.33658203,0.00392683
3921.26538940,0.00404900
3923.19419678,0.00395060
3925.12300415,0.00398873
3927.05181152,0.00402091
3928.98061890,0.00406852
3930.90942627,0.00406562
3932.83823364,0.00381759
3934.76704102,0.00398414
3936.69584839,0.00396569
3938.62465576,0.00397970
3940.55346313,0.00410715
3942.48227051,0.00386471
3944.41107788,0.00389783
3946.33988525,0.00400751
3948.26869263,0.00388400
3950.19750000,0.00387540
3952.12630737,0.00398108
3954.05511475,0.00389922
3955.98392212,0.00393746
3957.91272949,0.00391996
3959.84153687,0.00380145
3961.77034424,0.00392704
3963.69915161,0.00387784
3965.62795898,0.00386598
3967.55676636,0.00388761
3969.48557373,0.00384529
3971.41438110,0.00383791
3973.34318848,0.00382844
3975.27199585,0.00380919
3977.20080322,0.00375694
3979.12961060,0.00389019
3981.05841797,0.00380020
3982.98722534,0.00370594
3984.91603271,0.00383921
3986.84484009,0.00382944
3988.77364746,0.00379399
3990.70245483,0.00377544
3992.63126221,0.00374652
3994.56006958,0.00367563
3996.48887695,0.00378202
3998.41768433,0.00378076
4000.34649170,0.00367334
4002.27529907,0.00380716
4004.20410645,0.00382924
4006.13291382,0.00376074
4008.06172119,0.00370401
4009.99052856,0.00367759
4011.91933594,0.00364632
4013.84814331,0.00369567
4015.77695068,0.00369792
4017.70575806,0.00358366
4019.63456543,0.00368360
4021.56337280,0.00372358
4023.49218018,0.00365027
4025.42098755,0.00358573
4027.34979492,0.00359198
4029.27860229,0.00364786
4031.20740967,0.00366265
4033.13621704,0.00363148
4035.06502441,0.00352574
4036.99383179,0.00361234
4038.92263916,0.00358203
4040.85144653,0.00348549
4042.78025391,0.00357487
4044.70906128,0.00348952
4046.63786865,0.00352219
4048.56667603,0.00363752
4050.49548340,0.00350785
4052.42429077,0.00346461
4054.35309814,0.00350838
4056.28190552,0.00345565
4058.21071289,0.00351128
4060.13952026,0.00350912
4062.06832764,0.00338493
4063.99713501,0.00340432
4065.92594238,0.00343372
4067.85474976,0.00346657
4069.78355713,0.00348055
4071.71236450,0.00340861
4073.64117187,0.00342849
4075.56997925,0.00345526
4077.49878662,0.00339081
4079.42759399,0.00341130
4081.35640137,0.00338790
4083.28520874,0.00333003
4085.21401611,0.00340194
4087.14282349,0.00338293
4089.07163086,0.00339099
4091.00043823,0.00338147
4092.92924561,0.00333621
4094.85805298,0.00341859
4096.78686035,0.00339998
4098.71566772,0.00330417
4100.64447510,0.00331141
4102.57328247,0.00340120
4104.50208984,0.00331307
4106.43089722,0.00330055
4108.35970459,0.00338230
4110.28851196,0.00330701
4112.21731934,0.00329675
4114.14612671,0.00322297
4116.07493408,0.00327032
4118.00374145,0.00336566
4119.93254883,0.00333921
4121.86135620,0.00325863
4123.79016357,0.00317160
4125.71897095,0.00326191
4127.64777832,0.00324755
4129.57658569,0.00325364
4131.50539307,0.00323278
4133.43420044,0.00320232
4135.36300781,0.00327809
4137.29181519,0.00319025
4139.22062256,0.00313000
4141.14942993,0.00316326
4143.07823730,0.00324500
4145.00704468,0.00318034
4146.93585205,0.00319772
4148.86465942,0.00321544
4150.79346680,0.00311601
4152.72227417,0.00323950
4154.65108154,0.00314770
4156.57988892,0.00315428
4158.50869629,0.00322343
4160.43750366,0.00311570
4162.36631103,0.00317363
4164.29511841,0.00313741
4166.22392578,0.00312308
4168.15273315,0.00309021
4170.08154053,0.00302636
4172.01034790,0.00309108
4173.93915527,0.00309738
4175.86796265,0.00304738
4177.79677002,0.00308444
4179.72557739,0.00308171
4181.65438477,0.00299392
4183.58319214,0.00303847
4185.51199951,0.00308572
4187.44080688,0.00304561
4189.36961426,0.00297293
4191.29842163,0.00308446
4193.22722900,0.00305581
4195.15603638,0.00294447
4197.08484375,0.00310281
4199.01365112,0.00296021
4200.94245850,0.00296417
4202.87126587,0.00297135
4204.80007324,0.00285754
4206.72888062,0.00296786
4208.65768799,0.00283657
4210.58649536,0.00291849
4212.51530273,0.00294355
4214.44411011,0.00290017
4216.37291748,0.00300370
4218.30172485,0.00291631
4220.23053223,0.00294485
4222.15933960,0.00285865
4224.08814697,0.00284758
4226.01695435,0.00291152
4227.94576172,0.00282550
4229.87456909,0.00282706
4231.80337646,0.00290587
4233.73218384,0.00297333
4235.66099121,0.00281790
4237.58979858,0.00282054
4239.51860596,0.00291459
4241.44741333,0.00278072
4243.37622070,0.00275944
4245.30502808,0.00280793
4247.23383545,0.00283969
4249.16264282,0.00285951
4251.09145020,0.00278159
4253.02025757,0.00272302
4254.94906494,0.00275740
4256.87787231,0.00282029
4258.80667969,0.00289462
4260.73548706,0.00278267
4262.66429443,0.00271746
4264.59310181,0.00281312
4266.52190918,0.00271142
4268.45071655,0.00273194
4270.37952393,0.00273694
4272.30833130,0.00265705
4274.23713867,0.00279541
4276.16594604,0.00277406
4278.09475342,0.00266364
4280.02356079,0.00271062
4281.95236816,0.00270618
4283.88117554,0.00261245
4285.80998291,0.00268541
4287.73879028,0.00274727
4289.66759766,0.00268684
4291.59640503,0.00272953
4293.52521240,0.00268919
4295.45401978,0.00266965
4297.38282715,0.00274092
4299.31163452,0.00268224
4301.24044189,0.00258767
4303.16924927,0.00257724
4305.09805664,0.00256691
4307.02686401,0.00255432
4308.95567139,0.00260176
4310.88447876,0.00255575
4312.81328613,0.00258564
4314.74209351,0.00266112
4316.67090088,0.00258697
4318.59970825,0.00258777
4320.52851562,0.00257473
4322.45732300,0.00256591
4324.38613037,0.00259483
4326.31493774,0.00257150
4328.24374512,0.00259539
4330.17255249,0.00254085
4332.10135986,0.00251404
4334.03016724,0.00257426
4335.95897461,0.00252434
4337.88778198,0.00251065
4339.81658936,0.00251993
4341.74539673,0.00249706
4343.67420410,0.00250676
4345.60301147,0.00247653
4347.53181885,0.00252179
4349.46062622,0.00248486
4351.38943359,0.00235353
4353.31824097,0.00244100
4355.24704834,0.00251435
4357.17585571,0.00248967
4359.10466309,0.00246473
4361.03347046,0.00246009
4362.96227783,0.00248938
4364.89108520,0.00244329
4366.81989258,0.00243748
4368.74869995,0.00243714
4370.67750732,0.00242789
4372.60631470,0.00244568
4374.53512207,0.00237726
4376.46392944,0.00233921
4378.39273682,0.00239416
4380.32154419,0.00244256
4382.25035156,0.00237374
4384.17915894,0.00237792
4386.10796631,0.00246120
4388.03677368,0.00240098
4389.96558105,0.00237871
4391.89438843,0.00237204
4393.82319580,0.00238577
4395.75200317,0.00236120
4397.68081055,0.00225114
4399.60961792,0.00228203
4401.53842529,0.00229985
4403.46723267,0.00236968
4405.39604004,0.00239742
4407.32484741,0.00231757
4409.25365478,0.00232800
4411.18246216,0.00224491
4413.11126953,0.00230094
4415.04007690,0.00236093
4416.96888428,0.00226012
4418.89769165,0.00230215
4420.82649902,0.00227206
4422.75530640,0.00225907
4424.68411377,0.00231474
4426.61292114,0.00228935
4428.54172852,0.00230110
4430.47053589,0.00224512
4432.39934326,0.00219432
4434.32815063,0.00225323
4436.25695801,0.00224061
4438.18576538,0.00220653
4440.11457275,0.00221184
4442.04338013,0.00218642
4443.97218750,0.00218438
4445.90099487,0.00221219
4447.82980225,0.00224839
4449.75860962,0.00220735
4451.68741699,0.00215908
4453.61622437,0.00214637
4455.54503174,0.00213785
4457.47383911,0.00222206
4459.40264648,0.00218949
4461.33145386,0.00222154
4463.26026123,0.00222958
4465.18906860,0.00207671
4467.11787598,0.00217453
4469.04668335,0.00219061
4470.97549072,0.00216756
4472.90429810,0.00216645
4474.83310547,0.00206957
4476.76191284,0.00212085
4478.69072021,0.00213234
4480.61952759,0.00214467
4482.54833496,0.00209257
4484.47714233,0.00203748
4486.40594971,0.00208062
4488.33475708,0.00205368
4490.26356445,0.00203605
4492.19237183,0.00202831
4494.12117920,0.00208172
4496.04998657,0.00209823
4497.97879395,0.00211396
4499.90760132,0.00215595
4501.83640869,0.00215233
4503.76521606,0.00209104
4505.69402344,0.00202276
4507.62283081,0.00207728
4509.55163818,0.00200304
4511.48044556,0.00203507
4513.40925293,0.00210380
4515.33806030,0.00199780
4517.26686768,0.00204033
4519.19567505,0.00209499
4521.12448242,0.00210533
4523.05328979,0.00197921
4524.98209717,0.00196910
4526.91090454,0.00198047
4528.83971191,0.00185478
4530.76851929,0.00203012
4532.69732666,0.00207247
4534.62613403,0.00200077
4536.55494141,0.00194906
4538.48374878,0.00189904
4540.41255615,0.00202624
4542.34136353,0.00196603
4544.27017090,0.00190809
4546.19897827,0.00187745
4548.12778564,0.00188271
4550.05659302,0.00199498
4551.98540039,0.00191018
4553.91420776,0.00194075
4555.84301514,0.00200481
4557.77182251,0.00194554
4559.70062988,0.00197659
4561.62943726,0.00192066
4563.55824463,0.00185573
4565.48705200,0.00188851
4567.41585937,0.00188148
4569.34466675,0.00185849
4571.27347412,0.00190028
4573.20228149,0.00191458
4575.13108887,0.00185644
4577.05989624,0.00190306
4578.98870361,0.00193797
4580.91751099,0.00187541
4582.84631836,0.00186867
4584.77512573,0.00187797
4586.70393311,0.00188221
4588.63274048,0.00183750
4590.56154785,0.00179339
4592.49035522,0.00180523
4594.41916260,0.00178304
4596.34796997,0.00176872
4598.27677734,0.00181182
4600.20558472,0.00188227
4602.13439209,0.00187104
4604.06319946,0.00182250
4605.99200684,0.00185244
4607.92081421,0.00186256
4609.84962158,0.00174942
4611.77842895,0.00171241
4613.70723633,0.00180221
4615.63604370,0.00176903
4617.56485107,0.00174663
4619.49365845,0.00178318
4621.42246582,0.00186634
4623.35127319,0.00189337
4625.28008057,0.00176296
4627.20888794,0.00177514
4629.13769531,0.00177703
4631.06650269,0.00173267
4632.99531006,0.00171775
4634.92411743,0.00169447
4636.85292480,0.00170966
4638.78173218,0.00172523
4640.71053955,0.00178891
4642.63934692,0.00170648
4644.56815430,0.00168504
4646.49696167,0.00169385
4648.42576904,0.00167045
4650.35457642,0.00180851
4652.28338379,0.00171134
4654.21219116,0.00162309
4656.14099853,0.00168336
4658.06980591,0.00174097
4659.99861328,0.00177497
4661.92742065,0.00170727
4663.85622803,0.00171802
4665.78503540,0.00170441
4667.71384277,0.00167417
4669.64265015,0.00162442
4671.57145752,0.00165659
4673.50026489,0.00170503
4675.42907227,0.00166333
4677.35787964,0.00167556
4679.28668701,0.00155786
4681.21549438,0.00159118
4683.14430176,0.00164106
4685.07310913,0.00161256
4687.00191650,0.00174271
4688.93072388,0.00167449
4690.85953125,0.00157255
4692.78833862,0.00160958
4694.71714600,0.00166765
4696.64595337,0.00158165
4698.57476074,0.00150002
4700.50356812,0.00155425
4702.43237549,0.00152871
4704.36118286,0.00164222
4706.28999023,0.00165918
4708.21879761,0.00157042
4710.14760498,0.00160749
4712.07641235,0.00153324
4714.00521973,0.00157071
4715.93402710,0.00161156
4717.86283447,0.00153290
4719.79164185,0.00157115
4721.72044922,0.00155099
4723.64925659,0.00150125
4725.57806396,0.00154593
4727.50687134,0.00154693
4729.43567871,0.00152682
4731.36448608,0.00154364
4733.29329346,0.00156384
4735.22210083,0.00156321
4737.15090820,0.00153854
4739.07971558,0.00151253
4741.00852295,0.00148405
4742.93733032,0.00146730
4744.86613770,0.00147018
4746.79494507,0.00150511
4748.72375244,0.00148327
4750.65255981,0.00144734
4752.58136719,0.00153233
4754.51017456,0.00153553
4756.43898193,0.00146859
4758.36778931,0.00146987
4760.29659668,0.00153462
4762.22540405,0.00156366
4764.15421143,0.00145830
4766.08301880,0.00149705
4768.01182617,0.00155405
4769.94063354,0.00143342
4771.86944092,0.00143050
4773.79824829,0.00144063
4775.72705566,0.00137953
4777.65586304,0.00146609
4779.58467041,0.00149887
4781.51347778,0.00138642
4783.44228516,0.00142568
4785.37109253,0.00145330
4787.29989990,0.00138512
4789.22870728,0.00139700
4791.15751465,0.00142923
4793.08632202,0.00145955
4795.01512939,0.00142025
4796.94393677,0.00146723
4798.87274414,0.00148453
4800.80155151,0.00138731
4802.73035889,0.00149082
4804.65916626,0.00147607
4806.58797363,0.00143226
4808.51678101,0.00147994
4810.44558838,0.00135080
4812.37439575,0.00134158
4814.30320312,0.00139210
4816.23201050,0.00140878
4818.16081787,0.00140810
4820.08962524,0.00134438
4822.01843262,0.00135601
4823.94723999,0.00137235
4825.87604736,0.00141492
4827.80485474,0.00137690
4829.73366211,0.00129886
4831.66246948,0.00138777
4833.59127686,0.00147080
4835.52008423,0.00141967
4837.44889160,0.00133776
4839.37769897,0.00135605
4841.30650635,0.00135629
4843.23531372,0.00137251
4845.16412109,0.00138113
4847.09292847,0.00130052
4849.02173584,0.00129466
4850.95054321,0.00129584
4852.87935059,0.00135012
4854.80815796,0.00135924
4856.73696533,0.00129188
4858.66577270,0.00127686
4860.59458008,0.00123659
4862.52338745,0.00128430
4864.45219482,0.00129837
4866.38100220,0.00122734
4868.30980957,0.00121641
4870.23861694,0.00128281
4872.16742432,0.00133375
4874.09623169,0.00132836
4876.02503906,0.00136361
4877.95384644,0.00130718
4879.88265381,0.00122402
4881.81146118,0.00122083
4883.74026855,0.00128360
4885.66907593,0.00131269
4887.59788330,0.00125631
4889.52669067,0.00124801
4891.45549805,0.00122510
4893.38430542,0.00127098
4895.31311279,0.00122800
4897.24192017,0.00114957
4899.17072754,0.00125399
4901.09953491,0.00129702
4903.02834228,0.00130643
4904.95714966,0.00124625
4906.88595703,0.00124125
4908.81476440,0.00126165
4910.74357178,0.00122568
4912.67237915,0.00133983
4914.60118652,0.00128462
4916.52999390,0.00117693
4918.45880127,0.00121889
4920.38760864,0.00124016
4922.31641602,0.00123835
4924.24522339,0.00114493
4926.17403076,0.00120745
4928.10283813,0.00131614
4930.03164551,0.00118346
4931.96045288,0.00116649
4933.88926025,0.00121010
4935.81806763,0.00120935
4937.74687500,0.00125302
4939.67568237,0.00113638
4941.60448975,0.00106935
4943.53329712,0.00116247
4945.46210449,0.00121451
4947.39091187,0.00113899
4949.31971924,0.00116144
4951.24852661,0.00128605
4953.17733398,0.00114764
4955.10614136,0.00113461
4957.03494873,0.00116035
4958.96375610,0.00114095
4960.89256348,0.00126985
4962.82137085,0.00114253
4964.75017822,0.00107677
4966.67898560,0.00109247
4968.60779297,0.00108365
4970.53660034,0.00108110
4972.46540771,0.00104428
4974.39421509,0.00116602
4976.32302246,0.00117851
4978.25182983,0.00115390
4980.18063721,0.00110660
4982.10944458,0.00114153
4984.03825195,0.00112309
4985.96705933,0.00101043
4987.89586670,0.00116353
4989.82467407,0.00107601
4991.75348145,0.00109667
4993.68228882,0.00120013
4995.61109619,0.00102404
4997.53990356,0.00107373
4999.46871094,0.00111593
5001.39751831,0.00109388
5003.32632568,0.00108097
5005.25513306,0.00108623
5007.18394043,0.00108492
5009.11274780,0.00106359
5011.04155518,0.00108387
5012.97036255,0.00100044
5014.89916992,0.00102601
5016.82797729,0.00108082
5018.75678467,0.00107220
5020.68559204,0.00105303
5022.61439941,0.00103408
5024.54320679,0.00108018
5026.47201416,0.00107302
5028.40082153,0.00109041
5030.32962891,0.00106557
5032.25843628,0.00105365
5034.18724365,0.00111412
5036.11605103,0.00104587
5038.04485840,0.00102392
5039.97366577,0.00106004
5041.90247314,0.00099801
5043.83128052,0.00102501
5045.76008789,0.00105316
5047.68889526,0.00102462
5049.61770264,0.00105778
5051.54651001,0.00099214
5053.47531738,0.00100333
5055.40412476,0.00104443
5057.33293213,0.00104164
5059.26173950,0.00107476
5061.19054687,0.00098048
5063.11935425,0.00098298
5065.04816162,0.00101562
5066.97696899,0.00102136
5068.90577637,0.00099412
5070.83458374,0.00094546
5072.76339111,0.00100099
5074.69219849,0.00098892
5076.62100586,0.00102925
5078.54981323,0.00098106
5080.47862061,0.00091584
5082.40742798,0.00098731
5084.33623535,0.00102088
5086.26504272,0.00098153
5088.19385010,0.00095381
5090.12265747,0.00108759
5092.05146484,0.00097962
5093.98027222,0.00089262
5095.90907959,0.00098973
5097.83788696,0.00094794
5099.76669434,0.00097579
5101.69550171,0.00095857
5103.62430908,0.00096854
5105.55311645,0.00094751
5107.48192383,0.00093079
5109.41073120,0.00093101
5111.33953857,0.00090226
5113.26834595,0.00100916
5115.19715332,0.00094976
5117.12596069,0.00089541
5119.05476807,0.00089182
5120.98357544,0.00092015
5122.91238281,0.00095252
5124.84119019,0.00088997
5126.76999756,0.00094420
5128.69880493,0.00091126
5130.62761230,0.00093807
5132.55641968,0.00091052
5134.48522705,0.00081430
5136.41403442,0.00089380
5138.34284180,0.00085025
5140.27164917,0.00089167
5142.20045654,0.00098425
5144.12926392,0.00090135
5146.05807129,0.00089085
5147.98687866,0.00095393
5149.91568603,0.00090606
5151.84449341,0.00088152
5153.77330078,0.00090900
5155.70210815,0.00088301
5157.63091553,0.00086763
5159.55972290,0.00084503
5161.48853027,0.00086292
5163.41733765,0.00081961
5165.34614502,0.00084275
5167.27495239,0.00088660
5169.20375977,0.00082940
5171.13256714,0.00090219
5173.06137451,0.00087175
5174.99018188,0.00083855
5176.91898926,0.00082960
5178.84779663,0.00081869
5180.77660400,0.00088461
5182.70541138,0.00081308
5184.63421875,0.00081945
5186.56302612,0.00088102
5188.49183350,0.00087775
5190.42064087,0.00084463
5192.34944824,0.00086616
5194.27825562,0.00086587
5196.20706299,0.00082172
5198.13587036,0.00086719
5200.06467773,0.00079197
5201.99348511,0.00080243
5203.92229248,0.00083784
5205.85109985,0.00081571
5207.77990723,0.00081097
5209.70871460,0.00075003
5211.63752197,0.00083722
5213.56632935,0.00080606
5215.49513672,0.00072812
5217.42394409,0.00075555
5219.35275146,0.00080913
5221.28155884,0.00082757
5223.21036621,0.00075249
5225.13917358,0.00076307
5227.06798096,0.00072470
5228.99678833,0.00079885
5230.92559570,0.00085306
5232.85440308,0.00080831
5234.78321045,0.00083530
5236.71201782,0.00078758
5238.64082520,0.00081329
5240.56963257,0.00072930
5242.49843994,0.00076579
5244.42724731,0.00089222
5246.35605469,0.00079939
5248.28486206,0.00076437
5250.21366943,0.00075021
5252.14247681,0.00081836
5254.07128418,0.00074112
5256.00009155,0.00067368
5257.92889893,0.00080849
5259.85770630,0.00080648
5261.78651367,0.00079304
5263.71532104,0.00076553
5265.64412842,0.00077790
5267.57293579,0.00075626
5269.50174316,0.00074552
5271.43055054,0.00079537
5273.35935791,0.00073591
5275.28816528,0.00072612
5277.21697266,0.00071655
5279.14578003,0.00083121
5281.07458740,0.00086200
5283.00339478,0.00075151
5284.93220215,0.00080581
5286.86100952,0.00073936
5288.78981689,0.00070368
5290.71862427,0.00072357
5292.64743164,0.00068109
5294.57623901,0.00072409
5296.50504639,0.00071652
5298.43385376,0.00073528
5300.36266113,0.00078757
5302.29146851,0.00072208
5304.22027588,0.00065194
5306.14908325,0.00065158
5308.07789062,0.00064854
5310.00669800,0.00071831
5311.93550537,0.00078696
5313.86431274,0.00075238
5315.79312012,0.00072521
5317.72192749,0.00067101
5319.65073486,0.00068187
5321.57954224,0.00074809
5323.50834961,0.00069513
5325.43715698,0.00058922
5327.36596436,0.00062958
5329.29477173,0.00077110
5331.22357910,0.00076525
5333.15238647,0.00074883
5335.08119385,0.00078469
5337.01000122,0.00069780
5338.93880859,0.00060999
5340.86761597,0.00069736
5342.79642334,0.00071650
5344.72523071,0.00065085
5346.65403809,0.00072367
5348.58284546,0.00066659
5350.51165283,0.00065997
5352.44046020,0.00073083
5354.36926758,0.00065227
5356.29807495,0.00065732
5358.22688232,0.00066368
5360.15568970,0.00068547
5362.08449707,0.00068238
5364.01330444,0.00067360
5365.94211182,0.00066214
5367.87091919,0.00064526
5369.79972656,0.00071606
5371.72853394,0.00062695
5373.65734131,0.00067328
5375.58614868,0.00069116
5377.51495605,0.00060141
5379.44376343,0.00072915
5381.37257080,0.00069275
5383.30137817,0.00064378
5385.23018555,0.00060868
5387.15899292,0.00058678
5389.08780029,0.00063891
5391.01660767,0.00064864
5392.94541504,0.00070977
5394.87422241,0.00059257
5396.80302978,0.00059258
5398.73183716,0.00070310
5400.66064453,0.00064120
5402.58945190,0.00063680
5404.51825928,0.00062412
5406.44706665,0.00062474
5408.37587402,0.00062595
5410.30468140,0.00061143
5412.23348877,0.00062875
5414.16229614,0.00062904
5416.09110352,0.00062049
5418.01991089,0.00061246
5419.94871826,0.00061736
5421.87752563,0.00058895
5423.80633301,0.00061213
5425.73514038,0.00063009
5427.66394775,0.00056547
5429.59275513,0.00054056
5431.52156250,0.00057585
5433.45036987,0.00063040
5435.37917725,0.00060566
5437.30798462,0.00056704
5439.23679199,0.00059437
5441.16559936,0.00062954
5443.09440674,0.00065785
5445.02321411,0.00057369
5446.95202148,0.00049515
5448.88082886,0.00058442
5450.80963623,0.00061420
5452.73844360,0.00062040
5454.66725098,0.00062864
5456.59605835,0.00057124
5458.52486572,0.00060289
5460.45367310,0.00055695
5462.38248047,0.00058669
5464.31128784,0.00062692
5466.24009521,0.00050412
5468.16890259,0.00061889
5470.09770996,0.00063795
5472.02651733,0.00051673
5473.95532471,0.00055182
5475.88413208,0.00058038
5477.81293945,0.00059401
5479.74174683,0.00055709
5481.67055420,0.00055816
5483.59936157,0.00055201
5485.52816895,0.00053354
5487.45697632,0.00056967
5489.38578369,0.00059540
5491.31459106,0.00062290
5493.24339844,0.00060821
5495.17220581,0.00059317
5497.10101318,0.00055746
5499.02982056,0.00057905
5500.95862793,0.00059624
5502.88743530,0.00052930
5504.81624268,0.00054657
5506.74505005,0.00055565
5508.67385742,0.00052210
5510.60266479,0.00050865
5512.53147217,0.00050647
5514.46027954,0.00047464
5516.38908691,0.00048498
5518.31789429,0.00055670
5520.24670166,0.00057379
5522.17550903,0.00053747
5524.10431641,0.00053288
5526.03312378,0.00059635
5527.96193115,0.00054078
5529.89073853,0.00049130
5531.81954590,0.00051459
5533.74835327,0.00053767
5535.67716064,0.00053721
5537.60596802,0.00050259
5539.53477539,0.00057834
5541.46358276,0.00046805
5543.39239014,0.00048133
5545.32119751,0.00056517
5547.25000488,0.00046923
5549.17881226,0.00058514
5551.10761963,0.00047531
5553.03642700,0.00047663
5554.96523437,0.00055601
5556.89404175,0.00044340
5558.82284912,0.00050685
5560.75165649,0.00043242
5562.68046387,0.00050951
5564.60927124,0.00051176
5566.53807861,0.00043714
5568.46688599,0.00058949
5570.39569336,0.00054886
5572.32450073,0.00049836
5574.25330811,0.00047332
5576.18211548,0.00052822
5578.11092285,0.00051359
5580.03973022,0.00045884
5581.96853760,0.00052200
5583.89734497,0.00050629
5585.82615234,0.00052791
5587.75495972,0.00043624
5589.68376709,0.00047136
5591.61257446,0.00054437
5593.54138184,0.00045405
5595.47018921,0.00045331
5597.39899658,0.00045778
5599.32780395,0.00051958
5601.25661133,0.00043874
5603.18541870,0.00041974
5605.11422607,0.00048029
5607.04303345,0.00044304
5608.97184082,0.00053314
5610.90064819,0.00049382
5612.82945557,0.00051032
5614.75826294,0.00052549
5616.68707031,0.00042262
5618.61587769,0.00048638
5620.54468506,0.00050194
5622.47349243,0.00050523
5624.40229980,0.00049716
5626.33110718,0.00045214
5628.25991455,0.00049495
5630.18872192,0.00053102
5632.11752930,0.00053851
5634.04633667,0.00047955
5635.97514404,0.00041041
5637.90395142,0.00040328
5639.83275879,0.00042435
5641.76156616,0.00047313
5643.69037353,0.00043742
5645.61918091,0.00039975
5647.54798828,0.00051006
5649.47679565,0.00049300
5651.40560303,0.00039071
5653.33441040,0.00045955
5655.26321777,0.00042733
5657.19202515,0.00037755
5659.12083252,0.00050360
5661.04963989,0.00045250
5662.97844727,0.00038683
5664.90725464,0.00045662
5666.83606201,0.00042648
5668.76486938,0.00049372
5670.69367676,0.00050304
5672.62248413,0.00041199
5674.55129150,0.00044964
5676.48009888,0.00041588
5678.40890625,0.00041360
5680.33771362,0.00041237
5682.26652100,0.00040523
5684.19532837,0.00043473
5686.12413574,0.00034648
5688.05294311,0.00040132
5689.98175049,0.00046296
5691.91055786,0.00039757
5693.83936523,0.00042947
5695.76817261,0.00041573
5697.69697998,0.00039365
5699.62578735,0.00048743
5701.55459473,0.00044660
5703.48340210,0.00036976
5705.41220947,0.00045851
5707.34101685,0.00043898
5709.26982422,0.00042841
5711.19863159,0.00046822
5713.12743896,0.00039360
5715.05624634,0.00040068
5716.98505371,0.00042499
5718.91386108,0.00043132
5720.84266846,0.00045740
5722.77147583,0.00042081
5724.70028320,0.00037287
5726.62909058,0.00037922
5728.55789795,0.00040171
5730.48670532,0.00041029
5732.41551270,0.00040025
5734.34432007,0.00038673
5736.27312744,0.00039879
5738.20193481,0.00038093
5740.13074219,0.00048678
5742.05954956,0.00049538
5743.98835693,0.00038341
5745.91716431,0.00046467
5747.84597168,0.00040777
5749.77477905,0.00040398
5751.70358643,0.00047476
5753.63239380,0.00041815
5755.56120117,0.00036838
5757.49000854,0.00029130
5759.41881592,0.00041229
5761.34762329,0.00044007
5763.27643066,0.00031901
5765.20523804,0.00034005
5767.13404541,0.00041076
5769.06285278,0.00043386
5770.99166016,0.00035610
5772.92046753,0.00038451
5774.84927490,0.00039551
5776.77808228,0.00037815
5778.70688965,0.00039613
5780.63569702,0.00039793
5782.56450439,0.00042994
5784.49331177,0.00038137
5786.42211914,0.00036978
5788.35092651,0.00034895
5790.27973389,0.00036951
5792.20854126,0.00038168
5794.13734863,0.00031535
5796.06615601,0.00032495
5797.99496338,0.00035687
5799.92377075,0.00045094
5801.85257812,0.00041402
5803.78138550,0.00036674
5805.71019287,0.00042311
5807.63900024,0.00040418
5809.56780762,0.00036844
5811.49661499,0.00033110
5813.42542236,0.00037603
5815.35422974,0.00039342
5817.28303711,0.00038288
5819.21184448,0.00037074
5821.14065186,0.00038358
5823.06945923,0.00044066
5824.99826660,0.00038601
5826.92707397,0.00030865
5828.85588135,0.00029381
5830.78468872,0.00040069
5832.71349609,0.00039296
5834.64230347,0.00033172
5836.57111084,0.00037550
5838.49991821,0.00034964
5840.42872559,0.00037775
5842.35753296,0.00034075
5844.28634033,0.00031954
5846.21514770,0.00033740
5848.14395508,0.00034067
5850.07276245,0.00041568
5852.00156982,0.00034066
5853.93037720,0.00032445
5855.85918457,0.00039938
5857.78799194,0.00038977
5859.71679932,0.00037442
5861.64560669,0.00035168
5863.57441406,0.00031386
5865.50322144,0.00030541
5867.43202881,0.00034571
5869.36083618,0.00033725
5871.28964355,0.00032959
5873.21845093,0.00027596
5875.14725830,0.00022086
5877.07606567,0.00029095
5879.00487305,0.00030290
5880.93368042,0.00026979
5882.86248779,0.00031873
5884.79129517,0.00032344
5886.72010254,0.00027322
5888.64890991,0.00031943
5890.57771728,0.00031346
5892.50652466,0.00031233
5894.43533203,0.00034033
5896.36413940,0.00029154
5898.29294678,0.00032807
5900.22175415,0.00031064
5902.15056152,0.00030979
5904.07936890,0.00033668
5906.00817627,0.00030412
5907.93698364,0.00034149
5909.86579102,0.00030445
5911.79459839,0.00025663
5913.72340576,0.00028492
5915.65221313,0.00031952
5917.58102051,0.00032883
5919.50982788,0.00034091
5921.43863525,0.00032575
5923.36744263,0.00028611
5925.29625000,0.00032127
5927.22505737,0.00032490
5929.15386475,0.00031786
5931.08267212,0.00031536
5933.01147949,0.00028399
5934.94028686,0.00028587
5936.86909424,0.00033303
5938.79790161,0.00030992
5940.72670898,0.00024621
5942.65551636,0.00027189
5944.58432373,0.00028157
5946.51313110,0.00034144
5948.44193848,0.00031137
5950.37074585,0.00024590
5952.29955322,0.00030794
5954.22836060,0.00027216
5956.15716797,0.00029765
5958.08597534,0.00033744
5960.01478271,0.00031023
5961.94359009,0.00031002
5963.87239746,0.00031730
5965.80120483,0.00032494
5967.73001221,0.00030471
5969.65881958,0.00028972
5971.58762695,0.00025199
5973.51643433,0.00031620
5975.44524170,0.00030630
5977.37404907,0.00022446
5979.30285645,0.00025145
5981.23166382,0.00022036
5983.16047119,0.00027575
5985.08927856,0.00031115
5987.01808594,0.00026695
5988.94689331,0.00027979
5990.87570068,0.00031753
5992.80450806,0.00030350
5994.73331543,0.00021869
5996.66212280,0.00027905
5998.59093018,0.00028400
6000.51973755,0.00023000
