399.26312622,0.00155490
401.19193359,0.00190360
403.12074097,0.00199439
405.04954834,0.00191020
406.97835571,0.00204139
408.90716309,0.00179630
410.83597046,0.00246055
412.76477783,0.00269311
414.69358521,0.00233680
416.62239258,0.00225393
418.55119995,0.00186303
420.48000732,0.00234772
422.40881470,0.00272956
424.33762207,0.00234660
426.26642944,0.00236469
428.19523682,0.00291402
430.12404419,0.00296607
432.05285156,0.00277354
433.98165894,0.00259862
435.91046631,0.00214437
437.83927368,0.00260443
439.76808105,0.00258424
441.69688843,0.00237244
443.62569580,0.00277882
445.55450317,0.00234640
447.48331055,0.00206462
449.41211792,0.00207654
451.34092529,0.00237749
453.26973267,0.00242698
455.19854004,0.00195088
457.12734741,0.00199696
459.05615479,0.00196867
460.98496216,0.00158736
462.91376953,0.00143342
464.84257690,0.00173706
466.77138428,0.00155609
468.70019165,0.00136342
470.62899902,0.00131251
472.55780640,0.00098782
474.48661377,0.00114860
476.41542114,0.00109179
478.34422852,0.00103099
480.27303589,0.00073481
482.20184326,0.00084650
484.13065063,0.00104161
486.05945801,0.00032025
487.98826538,0.00067039
489.91707275,0.00066520
491.84588013,0.00067039
493.77468750,0.00080024
495.70349487,0.00028754
497.63230225,0.00112446
499.56110962,0.00097786
501.48991699,0.00058704
503.41872437,0.00075485
505.34753174,0.00018548
507.27633911,0.00043331
509.20514648,0.00042347
511.13395386,0.00027491
513.06276123,0.00057466
514.99156860,0.00053026
516.92037598,0.00014015
518.84918335,0.00000317
520.77799072,0.00028468
522.70679810,0.00028742
524.63560547,0.00039993
526.56441284,0.00019295
528.49322021,0.00033048
530.42202759,0.00042184
532.35083496,0.00024450
534.27964233,0.00072941
536.20844971,0.00037045
538.13725708,0.00032970
540.06606445,0.00036911
541.99487183,0.00034615
543.92367920,0.00047525
545.85248657,-0.00000173
547.78129395,0.00083986
549.71010132,0.00076367
551.63890869,0.00002276
553.56771606,0.00065492
555.49652344,0.00055556
557.42533081,0.00014408
559.35413818,-0.00000029
561.28294556,0.00050498
563.21175293,0.00090759
565.14056030,0.00046195
567.06936768,0.00041085
568.99817505,0.00026965
570.92698242,0.00031523
572.85578979,0.00023590
574.78459717,0.00009763
576.71340454,0.00048486
578.64221191,0.00015889
580.57101929,-0.00005752
582.49982666,0.00014120
584.42863403,0.00031913
586.35744141,0.00033614
588.28624878,-0.00012559
590.21505615,-0.00022377
592.14386353,-0.00003954
594.07267090,0.00010755
596.00147827,0.00030483
597.93028564,0.00050192
599.85909302,0.00021105
601.78790039,0.00016987
603.71670776,0.00057818
605.64551514,0.00006583
607.57432251,-0.00007274
609.50312988,0.00015305
611.43193726,0.00015859
613.36074463,0.00040380
615.28955200,-0.00004804
617.21835938,-0.00008766
619.14716675,0.00001953
621.07597412,0.00011514
623.00478149,0.00054668
624.93358887,0.00017142
626.86239624,0.00000065
628.79120361,0.00016696
630.72001099,0.00064656
632.64881836,0.00133870
634.57762573,0.00164020
636.50643311,0.00177298
638.43524048,0.00168976
640.36404785,0.00194881
642.29285522,0.00243509
644.22166260,0.00255153
646.15046997,0.00258746
648.07927734,0.00282240
650.00808472,0.00328033
651.93689209,0.00314942
653.86569946,0.00294553
655.79450684,0.00355187
657.72331421,0.00356750
659.65212158,0.00356618
661.58092896,0.00390757
663.50973633,0.00382744
665.43854370,0.00403976
667.36735107,0.00385124
669.29615845,0.00399701
671.22496582,0.00465199
673.15377319,0.00473431
675.08258057,0.00505384
677.01138794,0.00524739
678.94019531,0.00525477
680.86900269,0.00532566
682.79781006,0.00508313
684.72661743,0.00487443
686.65542480,0.00513060
688.58423218,0.00516179
690.51303955,0.00528753
692.44184692,0.00592715
694.37065430,0.00596191
696.29946167,0.00675664
698.22826904,0.00784775
700.15707642,0.00819540
702.08588379,0.00821356
704.01469116,0.00724847
705.94349854,0.00673583
707.87230591,0.00594210
709.80111328,0.00455365
711.72992065,0.00348223
713.65872803,0.00208405
715.58753540,0.00130173
717.51634277,0.00088639
719.44515015,0.00078686
721.37395752,0.00084231
723.30276489,0.00062683
725.23157227,0.00046380
727.16037964,0.00004734
729.08918701,0.00001437
731.01799438,0.00004734
732.94680176,0.00002528
734.87560913,0.00018326
736.80441650,0.00013348
738.73322388,0.00017412
740.66203125,0.00004922
742.59083862,0.00013981
744.51964600,0.00025521
746.44845337,0.00011539
748.37726074,0.00035769
750.30606812,0.00043280
752.23487549,0.00025565
754.16368286,0.00024561
756.09249023,0.00023366
758.02129761,0.00004137
759.95010498,0.00013849
761.87891235,0.00063959
763.80771973,0.00055228
765.73652710,0.00026709
767.66533447,0.00043333
769.59414185,0.00041755
771.52294922,0.00035726
773.45175659,0.00024767
775.38056396,0.00027413
777.30937134,0.00045939
779.23817871,0.00034245
781.16698608,0.00057433
783.09579346,0.00065525
785.02460083,0.00043135
786.95340820,0.00060717
788.88221558,0.00079764
790.81102295,0.00084876
792.73983032,0.00070352
794.66863770,0.00064706
796.59744507,0.00079150
798.52625244,0.00097570
800.45505981,0.00129403
802.38386719,0.00123694
804.31267456,0.00074175
806.24148193,0.00073454
808.17028931,0.00083669
810.09909668,0.00055761
812.02790405,0.00065510
813.95671143,0.00064339
815.88551880,0.00051110
817.81432617,0.00058292
819.74313354,0.00054895
821.67194092,0.00061921
823.60074829,0.00062849
825.52955566,0.00068499
827.45836304,0.00085091
829.38717041,0.00102925
831.31597778,0.00109131
833.24478516,0.00136955
835.17359253,0.00166962
837.10239990,0.00174751
839.03120728,0.00196778
840.96001465,0.00162080
842.88882202,0.00163673
844.81762939,0.00171689
846.74643677,0.00134938
848.67524414,0.00130248
850.60405151,0.00098489
852.53285889,0.00125367
854.46166626,0.00120676
856.39047363,0.00068988
858.31928101,0.00070593
860.24808838,0.00046808
862.17689575,0.00052071
864.10570313,0.00051462
866.03451050,0.00050560
867.96331787,0.00077516
869.89212524,0.00066227
871.82093262,0.00053377
873.74973999,0.00041919
875.67854736,0.00034553
877.60735474,0.00048637
879.53616211,0.00049798
881.46496948,0.00036075
883.39377686,0.00042241
885.32258423,0.00051624
887.25139160,0.00042150
889.18019897,0.00033403
891.10900635,0.00040942
893.03781372,0.00046236
894.96662109,0.00038501
896.89542847,0.00051900
898.82423584,0.00047972
900.75304321,0.00050309
902.68185059,0.00058895
904.61065796,0.00049395
906.53946533,0.00075071
908.46827271,0.00081420
910.39708008,0.00084584
912.32588745,0.00071177
914.25469482,0.00065270
916.18350220,0.00103448
918.11230957,0.00110347
920.04111694,0.00129933
921.96992432,0.00150897
923.89873169,0.00147208
925.82753906,0.00143195
927.75634644,0.00172467
929.68515381,0.00197376
931.61396118,0.00187943
933.54276855,0.00207589
935.47157593,0.00229447
937.40038330,0.00231562
939.32919067,0.00233602
941.25799805,0.00275263
943.18680542,0.00282296
945.11561279,0.00260837
947.04442017,0.00272756
948.97322754,0.00248855
950.90203491,0.00256184
952.83084229,0.00269068
954.75964966,0.00246378
956.68845703,0.00233297
958.61726440,0.00255624
960.54607178,0.00280166
962.47487915,0.00250056
964.40368652,0.00263859
966.33249390,0.00268251
968.26130127,0.00259178
970.19010864,0.00301499
972.11891602,0.00302427
974.04772339,0.00298288
975.97653076,0.00331997
977.90533813,0.00366706
979.83414551,0.00389072
981.76295288,0.00430550
983.69176025,0.00487865
985.62056763,0.00548646
987.54937500,0.00614984
989.47818237,0.00679567
991.40698975,0.00742657
993.33579712,0.00782827
995.26460449,0.00857835
997.19341187,0.00937344
999.12221924,0.00990817
1001.05102661,0.01075265
1002.97983398,0.01154900
1004.90864136,0.01251058
1006.83744873,0.01340754
1008.76625610,0.01394119
1010.69506348,0.01475503
1012.62387085,0.01555144
1014.55267822,0.01628361
1016.48148560,0.01736280
1018.41029297,0.01834798
1020.33910034,0.01900848
1022.26790771,0.01963809
1024.19671509,0.02038819
1026.12552246,0.02104029
1028.05432983,0.02173471
1029.98313721,0.02262433
1031.91194458,0.02307479
1033.84075195,0.02346063
1035.76955933,0.02393172
1037.69836670,0.02408379
1039.62717407,0.02423943
1041.55598145,0.02432289
1043.48478882,0.02421456
1045.41359619,0.02363683
1047.34240356,0.02320913
1049.27121094,0.02307395
1051.20001831,0.02263620
1053.12882568,0.02232565
1055.05763306,0.02173477
1056.98644043,0.02115722
1058.91524780,0.02081726
1060.84405518,0.02016759
1062.77286255,0.01958710
1064.70166992,0.01912007
1066.63047729,0.01842416
1068.55928467,0.01747999
1070.48809204,0.01684012
1072.41689941,0.01609936
1074.34570679,0.01517322
1076.27451416,0.01470228
1078.20332153,0.01398991
1080.13212891,0.01322931
1082.06093628,0.01271983
1083.98974365,0.01211952
1085.91855103,0.01168952
1087.84735840,0.01112949
1089.77616577,0.01058544
1091.70497314,0.01021975
1093.63378052,0.00963462
1095.56258789,0.00924882
1097.49139526,0.00905642
1099.42020264,0.00892785
1101.34901001,0.00858039
1103.27781738,0.00824622
1105.20662476,0.00850634
1107.13543213,0.00818039
1109.06423950,0.00782105
1110.99304687,0.00786323
1112.92185425,0.00767238
1114.85066162,0.00767680
1116.77946899,0.00743183
1118.70827637,0.00747107
1120.63708374,0.00761460
1122.56589111,0.00759070
1124.49469849,0.00775822
1126.42350586,0.00774703
1128.35231323,0.00808178
1130.28112061,0.00833888
1132.20992798,0.00848748
1134.13873535,0.00868398
1136.06754272,0.00902423
1137.99635010,0.00971183
1139.92515747,0.01014880
1141.85396484,0.01073689
1143.78277222,0.01145634
1145.71157959,0.01226637
1147.64038696,0.01287516
1149.56919434,0.01340842
1151.49800171,0.01438997
1153.42680908,0.01494762
1155.35561646,0.01554350
1157.28442383,0.01639767
1159.21323120,0.01690781
1161.14203857,0.01751680
1163.07084595,0.01814738
1164.99965332,0.01860600
1166.92846069,0.01937386
1168.85726807,0.02013215
1170.78607544,0.02075735
1172.71488281,0.02181018
1174.64369019,0.02273695
1176.57249756,0.02342885
1178.50130493,0.02427039
1180.43011230,0.02526890
1182.35891968,0.02627497
1184.28772705,0.02726833
1186.21653442,0.02858300
1188.14534180,0.03000063
1190.07414917,0.03126773
1192.00295654,0.03261751
1193.93176392,0.03437801
1195.86057129,0.03583732
1197.78937866,0.03718782
1199.71818604,0.03903140
1201.64699341,0.04054280
1203.57580078,0.04204535
1205.50460815,0.04378594
1207.43341553,0.04552128
1209.36222290,0.04698213
1211.29103027,0.04827427
1213.21983765,0.04963262
1215.14864502,0.05079498
1217.07745239,0.05206913
1219.00625977,0.05297367
1220.93506714,0.05368691
1222.86387451,0.05446250
1224.79268188,0.05484848
1226.72148926,0.05507731
1228.65029663,0.05547009
1230.57910400,0.05586929
1232.50791138,0.05573744
1234.43671875,0.05587278
1236.36552612,0.05594447
1238.29433350,0.05578087
1240.22314087,0.05587523
1242.15194824,0.05527893
1244.08075562,0.05491991
1246.00956299,0.05480167
1247.93837036,0.05437387
1249.86717773,0.05432217
1251.79598511,0.05396461
1253.72479248,0.05327585
1255.65359985,0.05269277
1257.58240723,0.05190382
1259.51121460,0.05104652
1261.44002197,0.05036510
1263.36882935,0.04970957
1265.29763672,0.04903615
1267.22644409,0.04846791
1269.15525146,0.04790286
1271.08405884,0.04695639
1273.01286621,0.04613865
1274.94167358,0.04557585
1276.87048096,0.04457317
1278.79928833,0.04374025
1280.72809570,0.04302105
1282.65690308,0.04207432
1284.58571045,0.04133153
1286.51451782,0.04065763
1288.44332520,0.03993605
1290.37213257,0.03935871
1292.30093994,0.03892935
1294.22974731,0.03858004
1296.15855469,0.03841671
1298.08736206,0.03835753
1300.01616943,0.03856807
1301.94497681,0.03862784
1303.87378418,0.03887141
1305.80259155,0.03945539
1307.73139893,0.03971389
1309.66020630,0.04065559
1311.58901367,0.04119918
1313.51782104,0.04164801
1315.44662842,0.04308862
1317.37543579,0.04373741
1319.30424316,0.04471694
1321.23305054,0.04658205
1323.16185791,0.04795178
1325.09066528,0.04911011
1327.01947266,0.05054353
1328.94828003,0.05176540
1330.87708740,0.05309124
1332.80589478,0.05443326
1334.73470215,0.05505935
1336.66350952,0.05565677
1338.59231689,0.05531252
1340.52112427,0.05600549
1342.44993164,0.05826286
1344.37873901,0.05857200
1346.30754639,0.05861992
1348.23635376,0.05846667
1350.16516113,0.05803681
1352.09396851,0.05796149
1354.02277588,0.05705766
1355.95158325,0.05684274
1357.88039062,0.05653925
1359.80919800,0.05547663
1361.73800537,0.05290715
1363.66681274,0.05220271
1365.59562012,0.05486231
1367.52442749,0.05346814
1369.45323486,0.05295445
1371.38204224,0.05372889
1373.31084961,0.05085514
1375.23965698,0.05141281
1377.16846436,0.05274471
1379.09727173,0.05253626
1381.02607910,0.05258163
1382.95488647,0.05240642
1384.88369385,0.05233888
1386.81250122,0.05007153
1388.74130859,0.05083212
1390.67011597,0.05491151
1392.59892334,0.05336507
1394.52773071,0.04988809
1396.45653809,0.05228347
1398.38534546,0.05233686
1400.31415283,0.05233657
1402.24296021,0.05624665
1404.17176758,0.05305867
1406.10057495,0.05351029
1408.02938232,0.05566747
1409.95818970,0.05367079
1411.88699707,0.05451063
1413.81580444,0.05268829
1415.74461182,0.05354831
1417.67341919,0.04815342
1419.60222656,0.04349361
1421.53103394,0.05006903
1423.45984131,0.04843976
1425.38864868,0.04709115
1427.31745605,0.04757228
1429.24626343,0.04395463
1431.17507080,0.04274918
1433.10387817,0.04333971
1435.03268555,0.03935459
1436.96149292,0.03335436
1438.89030029,0.03817808
1440.81910767,0.03913127
1442.74791504,0.03641647
1444.67672241,0.03799579
1446.60552979,0.03468031
1448.53433716,0.03546578
1450.46314453,0.03646003
1452.39195190,0.03720921
1454.32075928,0.03839218
1456.24956665,0.03147972
1458.17837402,0.03347223
1460.10718140,0.04426052
1462.03598877,0.04686615
1463.96479614,0.04652585
1465.89360352,0.04855729
1467.82241089,0.05564380
1469.75121826,0.05934209
1471.68002563,0.05277131
1473.60883301,0.05575921
1475.53764038,0.06354956
1477.46644775,0.06866977
1479.39525513,0.07513589
1481.32406250,0.07605780
1483.25286987,0.08105440
1485.18167725,0.08356564
1487.11048462,0.08214552
1489.03929199,0.08145837
1490.96809937,0.08222800
1492.89690674,0.09582119
1494.82571411,0.09309252
1496.75452148,0.08402237
1498.68332886,0.09508429
1500.61213623,0.09795605
1502.54094360,0.10522732
1504.46975098,0.09845744
1506.39855835,0.07172106
1508.32736572,0.08847673
1510.25617310,0.10317697
1512.18498047,0.10025498
1514.11378784,0.10841209
1516.04259521,0.09748708
1517.97140259,0.10227209
1519.90020996,0.09790251
1521.82901733,0.08534808
1523.75782471,0.10474472
1525.68663208,0.10203519
1527.61543945,0.10239575
1529.54424683,0.11318266
1531.47305420,0.10831104
1533.40186157,0.09921944
1535.33066895,0.10585745
1537.25947632,0.11251901
1539.18828369,0.07991315
1541.11709106,0.08496587
1543.04589844,0.10105179
1544.97470581,0.09709717
1546.90351318,0.11497620
1548.83232056,0.10676539
1550.76112793,0.11071651
1552.68993530,0.10930963
1554.61874268,0.09992624
1556.54755005,0.10638303
1558.47635742,0.07443038
1560.40516479,0.08230064
1562.33397217,0.11592506
1564.26277954,0.10922854
1566.19158691,0.11282190
1568.12039429,0.11101414
1570.04920166,0.09867504
1571.97800903,0.11425974
1573.90681641,0.11451584
1575.83562378,0.09082215
1577.76443115,0.10374236
1579.69323853,0.11677180
1581.62204590,0.11165488
1583.55085327,0.11422483
1585.47966064,0.11258592
1587.40846802,0.11351489
1589.33727539,0.11239634
1591.26608276,0.11262393
1593.19489014,0.11243802
1595.12369751,0.11122140
1597.05250488,0.11264162
1598.98131226,0.11188425
1600.91011963,0.11261748
1602.83892700,0.11044110
1604.76773437,0.11248899
1606.69654175,0.11050734
1608.62534912,0.11039340
1610.55415649,0.11036468
1612.48296387,0.11124050
1614.41177124,0.11209404
1616.34057861,0.09132712
1618.26938599,0.10037313
1620.19819336,0.11599956
1622.12700073,0.10261034
1624.05580811,0.10343919
1625.98461548,0.10820945
1627.91342285,0.10778437
1629.84223022,0.10744648
1631.77103760,0.11480072
1633.69984497,0.10472710
1635.62865234,0.08669705
1637.55745972,0.10177787
1639.48626709,0.11134949
1641.41507446,0.10889654
1643.34388184,0.11155666
1645.27268921,0.09984356
1647.20149658,0.08841684
1649.13030396,0.11031377
1651.05911133,0.10285679
1652.98791870,0.06632819
1654.91672607,0.09196419
1656.84553345,0.11407331
1658.77434082,0.10895599
1660.70314819,0.11207259
1662.63195557,0.10160813
1664.56076294,0.10769376
1666.48957031,0.11510216
1668.41837769,0.10018034
1670.34718506,0.09811743
1672.27599243,0.11094174
1674.20479980,0.10180777
1676.13360718,0.09827137
1678.06241455,0.11312713
1679.99122192,0.10876189
1681.92002930,0.10716154
1683.84883667,0.08655648
1685.77764404,0.08724757
1687.70645142,0.11873821
1689.63525879,0.10250314
1691.56406616,0.11402927
1693.49287354,0.11440448
1695.42168091,0.08375715
1697.35048828,0.10422643
1699.27929565,0.09026330
1701.20810303,0.08263714
1703.13691040,0.11224429
1705.06571777,0.10210046
1706.99452515,0.10383445
1708.92333252,0.11235841
1710.85213989,0.10794504
1712.78094727,0.10982707
1714.70975464,0.10139778
1716.63856201,0.09096732
1718.56736938,0.08996159
1720.49617676,0.10692208
1722.42498413,0.11034583
1724.35379150,0.10289808
1726.28259888,0.11161134
1728.21140625,0.10272402
1730.14021362,0.10437638
1732.06902100,0.10045516
1733.99782837,0.07690523
1735.92663574,0.09657601
1737.85544312,0.10555407
1739.78425049,0.09430686
1741.71305786,0.10270258
1743.64186523,0.10385869
1745.57067261,0.10406764
1747.49947998,0.10477026
1749.42828735,0.10001208
1751.35709473,0.09568880
1753.28590210,0.10675026
1755.21470947,0.11082388
1757.14351685,0.10130648
1759.07232422,0.11176293
1761.00113159,0.10418864
1762.92993896,0.10155893
1764.85874634,0.11555286
1766.78755371,0.10375625
1768.71636108,0.10534037
1770.64516846,0.10377224
1772.57397583,0.09372263
1774.50278320,0.10485694
1776.43159058,0.11039962
1778.36039795,0.10876670
1780.28920532,0.10742454
1782.21801270,0.10849474
1784.14682007,0.10813900
1786.07562744,0.10626405
1788.00443481,0.11180191
1789.93324219,0.10841316
1791.86204956,0.09807709
1793.79085693,0.10278954
1795.71966431,0.11009584
1797.64847168,0.10837132
1799.57727905,0.10679860
1801.50608643,0.10478227
1803.43489380,0.10826075
1805.36370117,0.11074659
1807.29250854,0.10924082
1809.22131592,0.10941702
1811.15012329,0.10673417
1813.07893066,0.11018208
1815.00773804,0.11019798
1816.93654541,0.10919349
1818.86535278,0.11020734
1820.79416016,0.10973436
1822.72296753,0.11092670
1824.65177490,0.10356726
1826.58058228,0.10786577
1828.50938965,0.10750872
1830.43819702,0.10106123
1832.36700439,0.11015297
1834.29581177,0.10930571
1836.22461914,0.10935073
1838.15342651,0.10854553
1840.08223389,0.10935134
1842.01104126,0.10906981
1843.93984863,0.09683447
1845.86865601,0.10374280
1847.79746338,0.10906370
1849.72627075,0.10697500
1851.65507812,0.10995618
1853.58388550,0.10750976
1855.51269287,0.10881993
1857.44150024,0.10808225
1859.37030762,0.10738377
1861.29911499,0.10802643
1863.22792236,0.10685308
1865.15672974,0.10793678
1867.08553711,0.10412346
1869.01434448,0.09977818
1870.94315186,0.10391365
1872.87195923,0.10795304
1874.80076660,0.10592828
1876.72957397,0.10650035
1878.65838135,0.10613370
1880.58718872,0.10547951
1882.51599609,0.10652227
1884.44480347,0.10469452
1886.37361084,0.10616280
1888.30241821,0.10370313
1890.23122559,0.10174909
1892.16003296,0.10552251
1894.08884033,0.10393031
1896.01764771,0.10355673
1897.94645508,0.10452364
1899.87526245,0.10405395
1901.80406982,0.10417363
1903.73287720,0.10338035
1905.66168457,0.10401373
1907.59049194,0.10293280
1909.51929932,0.10237036
1911.44810669,0.10291015
1913.37691406,0.10300791
1915.30572144,0.10379032
1917.23452881,0.09911570
1919.16333618,0.09954781
1921.09214355,0.10316895
1923.02095093,0.09984641
1924.94975830,0.10195199
1926.87856567,0.10284828
1928.80737305,0.10153644
1930.73618042,0.10263650
1932.66498779,0.10136141
1934.59379517,0.10226496
1936.52260254,0.10126495
1938.45140991,0.10175917
1940.38021729,0.10180648
1942.30902466,0.09853183
1944.23783203,0.10037155
1946.16663940,0.10119703
1948.09544678,0.10091260
1950.02425415,0.10137849
1951.95306152,0.10098949
1953.88186890,0.10095488
1955.81067627,0.10062227
1957.73948364,0.10091431
1959.66829102,0.10071284
1961.59709839,0.10061658
1963.52590576,0.10056655
1965.45471313,0.09981831
1967.38352051,0.09901290
1969.31232788,0.09986767
1971.24113525,0.10044990
1973.16994263,0.09967559
1975.09875000,0.10020466
1977.02755737,0.09961011
1978.95636475,0.09956926
1980.88517212,0.09956504
1982.81397949,0.09903467
1984.74278687,0.09943581
1986.67159424,0.09860350
1988.60040161,0.09875789
1990.52920898,0.09775442
1992.45801636,0.09667337
1994.38682373,0.09813730
1996.31563110,0.09835095
1998.24443848,0.09784243
2000.17324585,0.09766124
2002.10205322,0.09754287
2004.03086060,0.09744661
2005.95966797,0.09716248
2007.88847534,0.09673700
2009.81728271,0.09655550
2011.74609009,0.09638174
2013.67489746,0.09619133
2015.60370483,0.09563057
2017.53251221,0.09486297
2019.46131958,0.09532268
2021.39012695,0.09531929
2023.31893433,0.09504808
2025.24774170,0.09492382
2027.17654907,0.09456626
2029.10535645,0.09448719
2031.03416382,0.09407829
2032.96297119,0.09406209
2034.89177856,0.09369364
2036.82058594,0.09347588
2038.74939331,0.09346698
2040.67820068,0.09278746
2042.60700806,0.09266962
2044.53581543,0.09260297
2046.46462280,0.09241863
2048.39343018,0.09220387
2050.32223755,0.09201936
2052.25104492,0.09192111
2054.17985229,0.09160759
2056.10865967,0.09148414
2058.03746704,0.09135614
2059.96627441,0.09094684
2061.89508179,0.09078260
2063.82388916,0.09046537
2065.75269653,0.09004913
2067.68150391,0.09046388
2069.61031128,0.09018548
2071.53911865,0.08977690
2073.46792603,0.08983462
2075.39673340,0.08945782
2077.32554077,0.08945514
2079.25434814,0.08920035
2081.18315552,0.08908515
2083.11196289,0.08894029
2085.04077026,0.08861824
2086.96957764,0.08863568
2088.89838501,0.08830252
2090.82719238,0.08811522
2092.75599976,0.08802913
2094.68480713,0.08787149
2096.61361450,0.08760084
2098.54242187,0.08743052
2100.47122925,0.08714406
2102.40003662,0.08699697
2104.32884399,0.08710539
2106.25765137,0.08673920
2108.18645874,0.08667758
2110.11526611,0.08646856
2112.04407349,0.08634166
2113.97288086,0.08622201
2115.90168823,0.08588349
2117.83049561,0.08592279
2119.75930298,0.08564182
2121.68811035,0.08558957
2123.61691772,0.08546235
2125.54572510,0.08529320
2127.47453247,0.08528170
2129.40333984,0.08504818
2131.33214722,0.08495886
2133.26095459,0.08479798
2135.18976196,0.08476475
2137.11856934,0.08463705
2139.04737671,0.08439857
2140.97618408,0.08437890
2142.90499146,0.08443625
2144.83379883,0.08411495
2146.76260620,0.08398743
2148.69141357,0.08404194
2150.62022095,0.08366245
2152.54902832,0.08372891
2154.47783569,0.08349708
2156.40664307,0.08324896
2158.33545044,0.08335187
2160.26425781,0.08320075
2162.19306519,0.08306944
2164.12187256,0.08283355
2166.05067993,0.08281710
2167.97948730,0.08261523
2169.90829468,0.08260134
2171.83710205,0.08260481
2173.76590942,0.08245168
2175.69471680,0.08247337
2177.62352417,0.08219606
2179.55233154,0.08216053
2181.48113892,0.08186992
2183.40994629,0.08176801
2185.33875366,0.08191924
2187.26756104,0.08173226
2189.19636841,0.08161703
2191.12517578,0.08138159
2193.05398315,0.08137395
2194.98279053,0.08133987
2196.91159790,0.08115505
2198.84040527,0.08091801
2200.76921265,0.08089350
2202.69802002,0.08085699
2204.62682739,0.08063506
2206.55563477,0.08068489
2208.48444214,0.08047079
2210.41324951,0.08026820
2212.34205688,0.08008908
2214.27086426,0.08006459
2216.19967163,0.08006845
2218.12847900,0.07990994
2220.05728638,0.07985222
2221.98609375,0.07961639
2223.91490112,0.07963561
2225.84370850,0.07948452
2227.77251587,0.07941226
2229.70132324,0.07925616
2231.63013062,0.07889850
2233.55893799,0.07905626
2235.48774536,0.07899546
2237.41655273,0.07887652
2239.34536011,0.07861535
2241.27416748,0.07841499
2243.20297485,0.07831304
2245.13178223,0.07813261
2247.06058960,0.07809430
2248.98939697,0.07778022
2250.91820435,0.07780042
2252.84701172,0.07774529
2254.77581909,0.07740291
2256.70462646,0.07728738
2258.63343384,0.07725202
2260.56224121,0.07718375
2262.49104858,0.07697335
2264.41985596,0.07693577
2266.34866333,0.07677501
2268.27747070,0.07667316
2270.20627808,0.07668839
2272.13508545,0.07648519
2274.06389282,0.07641963
2275.99270020,0.07626317
2277.92150757,0.07604267
2279.85031494,0.07606880
2281.77912231,0.07611708
2283.70792969,0.07599133
2285.63673706,0.07574157
2287.56554443,0.07545170
2289.49435181,0.07528012
2291.42315918,0.07516357
2293.35196655,0.07489236
2295.28077393,0.07460418
2297.20958130,0.07454973
2299.13838867,0.07440415
2301.06719604,0.07399252
2302.99600342,0.07363676
2304.92481079,0.07315871
2306.85361816,0.07270572
2308.78242554,0.07221697
2310.71123291,0.07158343
2312.64004028,0.07085799
2314.56884766,0.07011764
2316.49765503,0.06941675
2318.42646240,0.06837557
2320.35526978,0.06746404
2322.28407715,0.06639926
2324.21288452,0.06560178
2326.14169189,0.06506035
2328.07049927,0.06410992
2329.99930664,0.06347322
2331.92811401,0.06275478
2333.85692139,0.06255933
2335.78572876,0.06236268
2337.71453613,0.06216095
2339.64334351,0.06219015
2341.57215088,0.06215560
2343.50095825,0.06332166
2345.42976562,0.06437815
2347.35857300,0.06710806
2349.28738037,0.06935658
2351.21618774,0.06673912
2353.14499512,0.06332634
2355.07380249,0.06089798
2357.00260986,0.05925563
2358.93141724,0.05806679
2360.86022461,0.05729160
2362.78903198,0.05742728
2364.71783936,0.05760896
2366.64664673,0.05835943
2368.57545410,0.05954238
2370.50426147,0.06108891
2372.43306885,0.06283948
2374.36187622,0.06454907
2376.29068359,0.06611972
2378.21949097,0.06754081
2380.14829834,0.06882910
2382.07710571,0.06957247
2384.00591309,0.07004534
2385.93472046,0.07004273
2387.86352783,0.07018679
2389.79233521,0.07018341
2391.72114258,0.07006393
2393.64994995,0.07020269
2395.57875732,0.06989445
2397.50756470,0.06992321
2399.43637207,0.06974380
2401.36517944,0.06951933
2403.29398682,0.06954931
2405.22279419,0.06936899
2407.15160156,0.06924216
2409.08040894,0.06910434
2411.00921631,0.06912812
2412.93802368,0.06899446
2414.86683105,0.06900937
2416.79563843,0.06880423
2418.72444580,0.06866834
2420.65325317,0.06867068
2422.58206055,0.06832753
2424.51086792,0.06841991
2426.43967529,0.06815171
2428.36848267,0.06807110
2430.29729004,0.06817424
2432.22609741,0.06800896
2434.15490479,0.06801731
2436.08371216,0.06781456
2438.01251953,0.06781036
2439.94132690,0.06756513
2441.87013428,0.06748160
2443.79894165,0.06750412
2445.72774902,0.06728812
2447.65655640,0.06731972
2449.58536377,0.06708676
2451.51417114,0.06693730
2453.44297852,0.06685339
2455.37178589,0.06678312
2457.30059326,0.06666461
2459.22940063,0.06657091
2461.15820801,0.06667092
2463.08701538,0.06640927
2465.01582275,0.06629866
2466.94463013,0.06630032
2468.87343750,0.06607737
2470.80224487,0.06604534
2472.73105225,0.06597897
2474.65985962,0.06567210
2476.58866699,0.06561577
2478.51747437,0.06561708
2480.44628174,0.06544095
2482.37508911,0.06544088
2484.30389648,0.06534291
2486.23270386,0.06518695
2488.16151123,0.06512400
2490.09031860,0.06509523
2492.01912598,0.06500731
2493.94793335,0.06495602
2495.87674072,0.06485413
2497.80554810,0.06458651
2499.73435547,0.06457217
2501.66316284,0.06441602
2503.59197021,0.06434488
2505.52077759,0.06428239
2507.44958496,0.06404191
2509.37839233,0.06414402
2511.30719971,0.06399483
2513.23600708,0.06392632
2515.16481445,0.06396119
2517.09362183,0.06368259
2519.02242920,0.06353688
2520.95123657,0.06352987
2522.88004395,0.06353052
2524.80885132,0.06340668
2526.73765869,0.06329569
2528.66646606,0.06315435
2530.59527344,0.06302967
2532.52408081,0.06296769
2534.45288818,0.06290963
2536.38169556,0.06290083
2538.31050293,0.06271921
2540.23931030,0.06267496
2542.16811768,0.06256804
2544.09692505,0.06225845
2546.02573242,0.06232240
2547.95453979,0.06230520
2549.88334717,0.06210980
2551.81215454,0.06212008
2553.74096191,0.06199746
2555.66976929,0.06190151
2557.59857666,0.06175184
2559.52738403,0.06155556
2561.45619141,0.06170543
2563.38499878,0.06157141
2565.31380615,0.06135872
2567.24261353,0.06137713
2569.17142090,0.06131163
2571.10022827,0.06121956
2573.02903564,0.06101435
2574.95784302,0.06102151
2576.88665039,0.06098998
2578.81545776,0.06073274
2580.74426514,0.06067735
2582.67307251,0.06064457
2584.60187988,0.06049337
2586.53068726,0.06040189
2588.45949463,0.06036092
2590.38830200,0.06021143
2592.31710937,0.06012474
2594.24591675,0.06000327
2596.17472412,0.05987212
2598.10353149,0.05981810
2600.03233887,0.05976988
2601.96114624,0.05977688
2603.88995361,0.05952890
2605.81876099,0.05938581
2607.74756836,0.05947571
2609.67637573,0.05940430
2611.60518311,0.05923680
2613.53399048,0.05914519
2615.46279785,0.05911408
2617.39160522,0.05900687
2619.32041260,0.05894826
2621.24921997,0.05878204
2623.17802734,0.05867226
2625.10683472,0.05862371
2627.03564209,0.05847342
2628.96444946,0.05845632
2630.89325684,0.05830857
2632.82206421,0.05819131
2634.75087158,0.05822454
2636.67967895,0.05812298
2638.60848633,0.05794710
2640.53729370,0.05794214
2642.46610107,0.05786422
2644.39490845,0.05758670
2646.32371582,0.05762371
2648.25252319,0.05767364
2650.18133057,0.05749007
2652.11013794,0.05732660
2654.03894531,0.05724358
2655.96775269,0.05712556
2657.89656006,0.05700131
2659.82536743,0.05703685
2661.75417480,0.05697739
2663.68298218,0.05685428
2665.61178955,0.05678309
2667.54059692,0.05668148
2669.46940430,0.05649528
2671.39821167,0.05646360
2673.32701904,0.05644208
2675.25582642,0.05621053
2677.18463379,0.05617243
2679.11344116,0.05603585
2681.04224854,0.05592622
2682.97105591,0.05592763
2684.89986328,0.05578802
2686.82867065,0.05572560
2688.75747803,0.05560524
2690.68628540,0.05551608
2692.61509277,0.05544346
2694.54390015,0.05535110
2696.47270752,0.05522975
2698.40151489,0.05513766
2700.33032227,0.05510417
2702.25912964,0.05502217
2704.18793701,0.05494500
2706.11674438,0.05480181
2708.04555176,0.05476266
2709.97435913,0.05463430
2711.90316650,0.05452362
2713.83197388,0.05445176
2715.76078125,0.05433585
2717.68958862,0.05437873
2719.61839600,0.05425337
2721.54720337,0.05423985
2723.47601074,0.05408841
2725.40481812,0.05382673
2727.33362549,0.05379457
2729.26243286,0.05365919
2731.19124023,0.05366820
2733.12004761,0.05361649
2735.04885498,0.05346235
2736.97766235,0.05339309
2738.90646973,0.05336931
2740.83527710,0.05322713
2742.76408447,0.05306555
2744.69289185,0.05307521
2746.62169922,0.05292787
2748.55050659,0.05287388
2750.47931396,0.05280216
2752.40812134,0.05268245
2754.33692871,0.05258766
2756.26573608,0.05240672
2758.19454346,0.05239563
2760.12335083,0.05226164
2762.05215820,0.05211553
2763.98096558,0.05202480
2765.90977295,0.05197591
2767.83858032,0.05196084
2769.76738770,0.05172930
2771.69619507,0.05167161
2773.62500244,0.05164945
2775.55380981,0.05142232
2777.48261719,0.05133298
2779.41142456,0.05127760
2781.34023193,0.05120610
2783.26903931,0.05127188
2785.19784668,0.05113246
2787.12665405,0.05089924
2789.05546143,0.05083124
2790.98426880,0.05073413
2792.91307617,0.05061867
2794.84188354,0.05044349
2796.77069092,0.05036712
2798.69949829,0.05037366
2800.62830566,0.05028997
2802.55711304,0.05011158
2804.48592041,0.05002875
2806.41472778,0.05001920
2808.34353516,0.04986532
2810.27234253,0.04984737
2812.20114990,0.04968259
2814.12995728,0.04955838
2816.05876465,0.04951771
2817.98757202,0.04924303
2819.91637939,0.04920352
2821.84518677,0.04904111
2823.77399414,0.04887834
2825.70280151,0.04890572
2827.63160889,0.04883615
2829.56041626,0.04874348
2831.48922363,0.04855926
2833.41803101,0.04845620
2835.34683838,0.04842102
2837.27564575,0.04835365
2839.20445312,0.04820068
2841.13326050,0.04802515
2843.06206787,0.04778032
2844.99087524,0.04754680
2846.91968262,0.04727705
2848.84848999,0.04688186
2850.77729736,0.04681968
2852.70610474,0.04681972
2854.63491211,0.04685399
2856.56371948,0.04679886
2858.49252686,0.04661376
2860.42133423,0.04664928
2862.35014160,0.04655493
2864.27894897,0.04651166
2866.20775635,0.04641824
2868.13656372,0.04624772
2870.06537109,0.04620413
2871.99417847,0.04615856
2873.92298584,0.04608915
2875.85179321,0.04595435
2877.78060059,0.04585679
2879.70940796,0.04574283
2881.63821533,0.04580981
2883.56702270,0.04572683
2885.49583008,0.04555878
2887.42463745,0.04556470
2889.35344482,0.04532155
2891.28225220,0.04525486
2893.21105957,0.04520298
2895.13986694,0.04496303
2897.06867432,0.04486520
2898.99748169,0.04481670
2900.92628906,0.04469534
2902.85509644,0.04456129
2904.78390381,0.04443382
2906.71271118,0.04425794
2908.64151855,0.04420669
2910.57032593,0.04399701
2912.49913330,0.04371155
2914.42794067,0.04344273
2916.35674805,0.04325732
2918.28555542,0.04321589
2920.21436279,0.04297628
2922.14317017,0.04299569
2924.07197754,0.04297633
2926.00078491,0.04288170
2927.92959229,0.04293833
2929.85839966,0.04284079
2931.78720703,0.04279002
2933.71601440,0.04272536
2935.64482178,0.04284643
2937.57362915,0.04279114
2939.50243652,0.04269790
2941.43124390,0.04276027
2943.36005127,0.04257891
2945.28885864,0.04263133
2947.21766602,0.04255836
2949.14647339,0.04246268
2951.07528076,0.04246540
2953.00408813,0.04221082
2954.93289551,0.04209458
2956.86170288,0.04200356
2958.79051025,0.04191298
2960.71931763,0.04177934
2962.64812500,0.04164268
2964.57693237,0.04154908
2966.50573975,0.04138664
2968.43454712,0.04152888
2970.36335449,0.04167841
2972.29216187,0.04155739
2974.22096924,0.04158986
2976.14977661,0.04166112
2978.07858398,0.04162239
2980.00739136,0.04159034
2981.93619873,0.04152483
2983.86500610,0.04159033
2985.79381348,0.04156955
2987.72262085,0.04141744
2989.65142822,0.04147870
2991.58023560,0.04138407
2993.50904297,0.04120461
2995.43785034,0.04121730
2997.36665771,0.04110330
2999.29546509,0.04097364
3001.22427246,0.04092296
3003.15307983,0.04079063
3005.08188721,0.04075100
3007.01069458,0.04065055
3008.93950195,0.04047402
3010.86830933,0.04045589
3012.79711670,0.04033285
3014.72592407,0.04027218
3016.65473145,0.04025756
3018.58353882,0.04015224
3020.51234619,0.04014216
3022.44115356,0.04002792
3024.36996094,0.03984034
3026.29876831,0.03966664
3028.22757568,0.03962285
3030.15638306,0.03953671
3032.08519043,0.03934864
3034.01399780,0.03936185
3035.94280518,0.03929876
3037.87161255,0.03915820
3039.80041992,0.03906779
3041.72922729,0.03898857
3043.65803467,0.03894224
3045.58684204,0.03887861
3047.51564941,0.03874198
3049.44445679,0.03861197
3051.37326416,0.03862590
3053.30207153,0.03855896
3055.23087891,0.03844471
3057.15968628,0.03840368
3059.08849365,0.03832726
3061.01730103,0.03816318
3062.94610840,0.03805820
3064.87491577,0.03801234
3066.80372314,0.03789979
3068.73253052,0.03789179
3070.66133789,0.03779757
3072.59014526,0.03776698
3074.51895264,0.03780058
3076.44776001,0.03761293
3078.37656738,0.03747637
3080.30537476,0.03740507
3082.23418213,0.03738584
3084.16298950,0.03726675
3086.09179687,0.03716884
3088.02060425,0.03714197
3089.94941162,0.03709666
3091.87821899,0.03712717
3093.80702637,0.03691060
3095.73583374,0.03670849
3097.66464111,0.03670077
3099.59344849,0.03668233
3101.52225586,0.03651252
3103.45106323,0.03642736
3105.37987061,0.03654907
3107.30867798,0.03628666
3109.23748535,0.03606068
3111.16629272,0.03613579
3113.09510010,0.03601147
3115.02390747,0.03575847
3116.95271484,0.03568146
3118.88152222,0.03566377
3120.81032959,0.03551430
3122.73913696,0.03550659
3124.66794434,0.03544801
3126.59675171,0.03525081
3128.52555908,0.03519138
3130.45436645,0.03517983
3132.38317383,0.03498475
3134.31198120,0.03483642
3136.24078857,0.03492733
3138.16959595,0.03476975
3140.09840332,0.03460710
3142.02721069,0.03458010
3143.95601807,0.03448210
3145.88482544,0.03439667
3147.81363281,0.03430921
3149.74244019,0.03429641
3151.67124756,0.03404351
3153.60005493,0.03388690
3155.52886230,0.03388111
3157.45766968,0.03370406
3159.38647705,0.03374195
3161.31528442,0.03361211
3163.24409180,0.03338764
3165.17289917,0.03332314
3167.10170654,0.03318083
3169.03051392,0.03314333
3170.95932129,0.03300939
3172.88812866,0.03294468
3174.81693604,0.03294007
3176.74574341,0.03265926
3178.67455078,0.03260259
3180.60335815,0.03256655
3182.53216553,0.03244342
3184.46097290,0.03242905
3186.38978027,0.03227611
3188.31858765,0.03223972
3190.24739502,0.03216425
3192.17620239,0.03210285
3194.10500977,0.03197798
3196.03381714,0.03177845
3197.96262451,0.03179867
3199.89143188,0.03160860
3201.82023926,0.03166049
3203.74904663,0.03165337
3205.67785400,0.03148055
3207.60666138,0.03150415
3209.53546875,0.03121688
3211.46427612,0.03123459
3213.39308350,0.03117871
3215.32189087,0.03096734
3217.25069824,0.03103809
3219.17950562,0.03094397
3221.10831299,0.03094710
3223.03712036,0.03090200
3224.96592773,0.03083627
3226.89473511,0.03075041
3228.82354248,0.03056463
3230.75234985,0.03053844
3232.68115723,0.03052674
3234.60996460,0.03043940
3236.53877197,0.03041732
3238.46757935,0.03041542
3240.39638672,0.03032520
3242.32519409,0.03038085
3244.25400146,0.03020821
3246.18280884,0.03012738
3248.11161621,0.03020653
3250.04042358,0.02998768
3251.96923096,0.03007733
3253.89803833,0.02995599
3255.82684570,0.02986774
3257.75565308,0.03001017
3259.68446045,0.02978044
3261.61326782,0.02977734
3263.54207520,0.02985885
3265.47088257,0.02981096
3267.39968994,0.02973774
3269.32849731,0.02966314
3271.25730469,0.02959049
3273.18611206,0.02955855
3275.11491943,0.02953396
3277.04372681,0.02941339
3278.97253418,0.02945441
3280.90134155,0.02944217
3282.83014893,0.02942529
3284.75895630,0.02941155
3286.68776367,0.02931665
3288.61657104,0.02931083
3290.54537842,0.02920325
3292.47418579,0.02902834
3294.40299316,0.02904275
3296.33180054,0.02917900
3298.26060791,0.02905796
3300.18941528,0.02901584
3302.11822266,0.02901212
3304.04703003,0.02884558
3305.97583740,0.02885517
3307.90464478,0.02880522
3309.83345215,0.02877647
3311.76225952,0.02877739
3313.69106689,0.02873002
3315.61987427,0.02868644
3317.54868164,0.02867298
3319.47748901,0.02870864
3321.40629639,0.02866177
3323.33510376,0.02857096
3325.26391113,0.02848909
3327.19271851,0.02846848
3329.12152588,0.02833151
3331.05033325,0.02841042
3332.97914062,0.02843803
3334.90794800,0.02819671
3336.83675537,0.02822255
3338.76556274,0.02812703
3340.69437012,0.02811583
3342.62317749,0.02812237
3344.55198486,0.02803096
3346.48079224,0.02805216
3348.40959961,0.02790211
3350.33840698,0.02778994
3352.26721436,0.02778289
3354.19602173,0.02778263
3356.12482910,0.02765778
3358.05363647,0.02763494
3359.98244385,0.02763504
3361.91125122,0.02759906
3363.84005859,0.02756607
3365.76886597,0.02738479
3367.69767334,0.02731475
3369.62648071,0.02718454
3371.55528809,0.02730747
3373.48409546,0.02730060
3375.41290283,0.02710759
3377.34171020,0.02719301
3379.27051758,0.02712153
3381.19932495,0.02711689
3383.12813232,0.02697718
3385.05693970,0.02694384
3386.98574707,0.02698914
3388.91455444,0.02686612
3390.84336182,0.02673588
3392.77216919,0.02654810
3394.70097656,0.02662116
3396.62978394,0.02653008
3398.55859131,0.02646548
3400.48739868,0.02637122
3402.41620605,0.02627402
3404.34501343,0.02646136
3406.27382080,0.02638343
3408.20262817,0.02622795
3410.13143555,0.02619461
3412.06024292,0.02627600
3413.98905029,0.02613955
3415.91785767,0.02611442
3417.84666504,0.02609949
3419.77547241,0.02584465
3421.70427979,0.02580570
3423.63308716,0.02577472
3425.56189453,0.02584879
3427.49070190,0.02565552
3429.41950928,0.02564757
3431.34831665,0.02568712
3433.27712402,0.02552707
3435.20593140,0.02558022
3437.13473877,0.02532960
3439.06354614,0.02544336
3440.99235352,0.02536469
3442.92116089,0.02520312
3444.84996826,0.02527080
3446.77877563,0.02492518
3448.70758301,0.02498338
3450.63639038,0.02511108
3452.56519775,0.02515812
3454.49400513,0.02517032
3456.42281250,0.02501053
3458.35161987,0.02496636
3460.28042725,0.02503136
3462.20923462,0.02493876
3464.13804199,0.02483829
3466.06684937,0.02489780
3467.99565674,0.02474805
3469.92446411,0.02484120
3471.85327148,0.02475758
3473.78207886,0.02467641
3475.71088623,0.02477452
3477.63969360,0.02469251
3479.56850098,0.02465700
3481.49730835,0.02433253
3483.42611572,0.02450801
3485.35492310,0.02461734
3487.28373047,0.02445185
3489.21253784,0.02452006
3491.14134521,0.02454391
3493.07015259,0.02453509
3494.99895996,0.02433706
3496.92776733,0.02448672
3498.85657471,0.02436914
3500.78538208,0.02434706
3502.71418945,0.02406895
3504.64299683,0.02389928
3506.57180420,0.02453345
3508.50061157,0.02403938
3510.42941895,0.02402119
3512.35822632,0.02430002
3514.28703369,0.02423105
3516.21584106,0.02437986
3518.14464844,0.02408854
3520.07345581,0.02429984
3522.00226318,0.02399644
3523.93107056,0.02361345
3525.85987793,0.02380222
3527.78868530,0.02377477
3529.71749268,0.02380906
3531.64630005,0.02398744
3533.57510742,0.02423333
3535.50391479,0.02388407
3537.43272217,0.02382639
3539.36152954,0.02408985
3541.29033691,0.02399746
3543.21914429,0.02394904
3545.14795166,0.02332866
3547.07675903,0.02296828
3549.00556641,0.02384463
3550.93437378,0.02392213
3552.86318115,0.02331954
3554.79198853,0.02382442
3556.72079590,0.02392720
3558.64960327,0.02377201
3560.57841064,0.02365219
3562.50721802,0.02352273
3564.43602539,0.02358676
3566.36483276,0.02200123
3568.29364014,0.02159810
3570.22244751,0.02342559
3572.15125488,0.02387686
3574.08006226,0.02356473
3576.00886963,0.02369289
3577.93767700,0.02358522
3579.86648437,0.02353423
3581.79529175,0.02353055
3583.72409912,0.02366001
3585.65290649,0.02306087
3587.58171387,0.02118849
3589.51052124,0.02197351
3591.43932861,0.02374201
3593.36813599,0.02300103
3595.29694336,0.02265809
3597.22575073,0.02307286
3599.15455811,0.02326625
3601.08336548,0.02309392
3603.01217285,0.02330126
3604.94098022,0.02367677
3606.86978760,0.02274118
3608.79859497,0.02144883
3610.72740234,0.02214510
3612.65620972,0.02245111
3614.58501709,0.02178548
3616.51382446,0.02337864
3618.44263184,0.02152637
3620.37143921,0.02102305
3622.30024658,0.02357174
3624.22905395,0.02285049
3626.15786133,0.02390630
3628.08666870,0.02021135
3630.01547607,0.01864969
3631.94428345,0.02334859
3633.87309082,0.02256713
3635.80189819,0.02297103
3637.73070557,0.02345324
3639.65951294,0.02313854
3641.58832031,0.02336540
3643.51712769,0.02296039
3645.44593506,0.02322206
3647.37474243,0.02088514
3649.30354980,0.01912171
3651.23235718,0.01948538
3653.16116455,0.02304322
3655.08997192,0.02266856
3657.01877930,0.02040955
3658.94758667,0.02338580
3660.87639404,0.02284121
3662.80520142,0.02322898
3664.73400879,0.02315542
3666.66281616,0.02291742
3668.59162354,0.02208797
3670.52043091,0.01809651
3672.44923828,0.02200404
3674.37804565,0.02069172
3676.30685303,0.01735822
3678.23566040,0.02188219
3680.16446777,0.02219767
3682.09327515,0.02231920
3684.02208252,0.02287040
3685.95088989,0.02255883
3687.87969727,0.02026034
3689.80850464,0.01870224
3691.73731201,0.02140916
3693.66611938,0.02179847
3695.59492676,0.02238945
3697.52373413,0.02229128
3699.45254150,0.02213641
3701.38134888,0.02159880
3703.31015625,0.02074663
3705.23896362,0.02285581
3707.16777100,0.02164856
3709.09657837,0.02118078
3711.02538574,0.01983641
3712.95419312,0.01876587
3714.88300049,0.02196099
3716.81180786,0.02149582
3718.74061523,0.02175649
3720.66942261,0.02119166
3722.59822998,0.02056831
3724.52703735,0.02118427
3726.45584473,0.01973581
3728.38465210,0.02146704
3730.31345947,0.02107215
3732.24226685,0.01948222
3734.17107422,0.01887156
3736.09988159,0.01802551
3738.02868896,0.01909310
3739.95749634,0.02070572
3741.88630371,0.02160645
3743.81511108,0.01660106
3745.74391846,0.01602068
3747.67272583,0.02051966
3749.60153320,0.01756728
3751.53034058,0.01639566
3753.45914795,0.01875602
3755.38795532,0.02031014
3757.31676270,0.02083514
3759.24557007,0.01930014
3761.17437744,0.02028476
3763.10318481,0.02125428
3765.03199219,0.01983267
3766.96079956,0.02031154
3768.88960693,0.01994858
3770.81841431,0.01908861
3772.74722168,0.02063314
3774.67602905,0.02070615
3776.60483643,0.02071381
3778.53364380,0.02011712
3780.46245117,0.01935133
3782.39125854,0.02059734
3784.32006592,0.02018904
3786.24887329,0.01997139
3788.17768066,0.02046478
3790.10648804,0.02034994
3792.03529541,0.02007863
3793.96410278,0.02052982
3795.89291016,0.01928627
3797.82171753,0.01909226
3799.75052490,0.01995569
3801.67933228,0.01594030
3803.60813965,0.01876225
3805.53694702,0.01992834
3807.46575439,0.01654873
3809.39456177,0.02003776
3811.32336914,0.01947087
3813.25217651,0.02021722
3815.18098389,0.01810708
3817.10979126,0.01622976
3819.03859863,0.02025238
3820.96740601,0.01624173
3822.89621338,0.01736899
3824.82502075,0.02003688
3826.75382812,0.01818614
3828.68263550,0.01953536
3830.61144287,0.01869010
3832.54025024,0.01820471
3834.46905762,0.01848081
3836.39786499,0.01754804
3838.32667236,0.01593251
3840.25547974,0.01723959
3842.18428711,0.01848000
3844.11309448,0.01762202
3846.04190186,0.01908221
3847.97070923,0.01870998
3849.89951660,0.01883610
3851.82832397,0.01689001
3853.75713135,0.01265410
3855.68593872,0.01518042
3857.61474609,0.01883119
3859.54355347,0.01831139
3861.47236084,0.01819310
3863.40116821,0.01771181
3865.32997559,0.01652763
3867.25878296,0.01845048
3869.18759033,0.01672675
3871.11639770,0.01565017
3873.04520508,0.01853316
3874.97401245,0.01679645
3876.90281982,0.01824460
3878.83162720,0.01856013
3880.76043457,0.01598165
3882.68924194,0.01844488
3884.61804932,0.01707595
3886.54685669,0.01586688
3888.47566406,0.01843479
3890.40447144,0.01727365
3892.33327881,0.01635328
3894.26208618,0.01787285
3896.19089355,0.01818026
3898.11970093,0.01730686
3900.04850830,0.01636677
3901.97731567,0.01620751
3903.90612305,0.01601541
3905.83493042,0.01630088
3907.76373779,0.01785796
3909.69254517,0.01775911
3911.62135254,0.01752828
3913.55015991,0.01788183
3915.47896728,0.01724029
3917.40777466,0.01679783
3919.33658203,0.01669303
3921.26538940,0.01734039
3923.19419678,0.01726151
3925.12300415,0.01681659
3927.05181152,0.01721133
3928.98061890,0.01733009
3930.90942627,0.01693188
3932.83823364,0.01643401
3934.76704102,0.01703236
3936.69584839,0.01721835
3938.62465576,0.01709065
3940.55346313,0.01720209
3942.48227051,0.01649190
3944.41107788,0.01668424
3946.33988525,0.01699717
3948.26869263,0.01652534
3950.19750000,0.01661982
3952.12630737,0.01677367
3954.05511475,0.01661726
3955.98392212,0.01670466
3957.91272949,0.01672590
3959.84153687,0.01668246
3961.77034424,0.01657564
3963.69915161,0.01653144
3965.62795898,0.01668491
3967.55676636,0.01647019
3969.48557373,0.01658209
3971.41438110,0.01664325
3973.34318848,0.01645309
3975.27199585,0.01640751
3977.20080322,0.01626368
3979.12961060,0.01639466
3981.05841797,0.01630573
3982.98722534,0.01623731
3984.91603271,0.01621910
3986.84484009,0.01623459
3988.77364746,0.01619379
3990.70245483,0.01606490
3992.63126221,0.01617613
3994.56006958,0.01592510
3996.48887695,0.01602129
3998.41768433,0.01607238
4000.34649170,0.01599026
4002.27529907,0.01600214
4004.20410645,0.01584287
4006.13291382,0.01593776
4008.06172119,0.01568994
4009.99052856,0.01577221
4011.91933594,0.01581677
4013.84814331,0.01565744
4015.77695068,0.01573346
4017.70575806,0.01553275
4019.63456543,0.01557176
4021.56337280,0.01555868
4023.49218018,0.01552608
4025.42098755,0.01548256
4027.34979492,0.01542740
4029.27860229,0.01540913
4031.20740967,0.01534535
4033.13621704,0.01542584
4035.06502441,0.01537767
4036.99383179,0.01539146
4038.92263916,0.01529360
4040.85144653,0.01523987
4042.78025391,0.01521406
4044.70906128,0.01516523
4046.63786865,0.01512948
4048.56667603,0.01505863
4050.49548340,0.01515887
4052.42429077,0.01496660
4054.35309814,0.01502695
4056.28190552,0.01508515
4058.21071289,0.01486879
4060.13952026,0.01487272
4062.06832764,0.01487447
4063.99713501,0.01485336
4065.92594238,0.01472709
4067.85474976,0.01480068
4069.78355713,0.01472087
4071.71236450,0.01468724
4073.64117187,0.01477658
4075.56997925,0.01455905
4077.49878662,0.01455059
4079.42759399,0.01454674
4081.35640137,0.01454834
4083.28520874,0.01453629
4085.21401611,0.01446014
4087.14282349,0.01440942
4089.07163086,0.01441886
4091.00043823,0.01437018
4092.92924561,0.01425423
4094.85805298,0.01437942
4096.78686035,0.01428242
4098.71566772,0.01418138
4100.64447510,0.01417599
4102.57328247,0.01415471
4104.50208984,0.01412877
4106.43089722,0.01402100
4108.35970459,0.01401957
4110.28851196,0.01392026
4112.21731934,0.01394925
4114.14612671,0.01394190
4116.07493408,0.01394643
4118.00374145,0.01390907
4119.93254883,0.01374139
4121.86135620,0.01376661
4123.79016357,0.01374601
4125.71897095,0.01377915
4127.64777832,0.01369713
4129.57658569,0.01368304
4131.50539307,0.01360460
4133.43420044,0.01353047
4135.36300781,0.01363821
4137.29181519,0.01349930
4139.22062256,0.01356669
4141.14942993,0.01352797
4143.07823730,0.01347028
4145.00704468,0.01347964
4146.93585205,0.01337776
4148.86465942,0.01341541
4150.79346680,0.01330524
4152.72227417,0.01327197
4154.65108154,0.01329806
4156.57988892,0.01332340
4158.50869629,0.01325956
4160.43750366,0.01319749
4162.36631103,0.01314714
4164.29511841,0.01306560
4166.22392578,0.01320236
4168.15273315,0.01315206
4170.08154053,0.01305770
4172.01034790,0.01301630
4173.93915527,0.01301340
4175.86796265,0.01299850
4177.79677002,0.01292639
4179.72557739,0.01287371
4181.65438477,0.01280941
4183.58319214,0.01285995
4185.51199951,0.01269295
4187.44080688,0.01270333
4189.36961426,0.01274601
4191.29842163,0.01263086
4193.22722900,0.01268243
4195.15603638,0.01261907
4197.08484375,0.01257708
4199.01365112,0.01254102
4200.94245850,0.01261210
4202.87126587,0.01249029
4204.80007324,0.01242714
4206.72888062,0.01253321
4208.65768799,0.01239140
4210.58649536,0.01243095
4212.51530273,0.01237196
4214.44411011,0.01234265
4216.37291748,0.01234785
4218.30172485,0.01236037
4220.23053223,0.01239131
4222.15933960,0.01221885
4224.08814697,0.01215062
4226.01695435,0.01202055
4227.94576172,0.01205511
4229.87456909,0.01209662
4231.80337646,0.01206380
4233.73218384,0.01206705
4235.66099121,0.01200518
4237.58979858,0.01200844
4239.51860596,0.01193868
4241.44741333,0.01193354
4243.37622070,0.01183177
4245.30502808,0.01186115
4247.23383545,0.01186972
4249.16264282,0.01178209
4251.09145020,0.01184580
4253.02025757,0.01171540
4254.94906494,0.01171441
4256.87787231,0.01170731
4258.80667969,0.01168898
4260.73548706,0.01163226
4262.66429443,0.01156542
4264.59310181,0.01159563
4266.52190918,0.01152047
4268.45071655,0.01163035
4270.37952393,0.01153981
4272.30833130,0.01146023
4274.23713867,0.01148141
4276.16594604,0.01141180
4278.09475342,0.01146235
4280.02356079,0.01138661
4281.95236816,0.01132011
4283.88117554,0.01126922
4285.80998291,0.01130626
4287.73879028,0.01126867
4289.66759766,0.01122069
4291.59640503,0.01126899
4293.52521240,0.01115290
4295.45401978,0.01118283
4297.38282715,0.01118035
4299.31163452,0.01109088
4301.24044189,0.01110948
4303.16924927,0.01106922
4305.09805664,0.01095668
4307.02686401,0.01098539
4308.95567139,0.01101507
4310.88447876,0.01093936
4312.81328613,0.01095311
4314.74209351,0.01086616
4316.67090088,0.01086009
4318.59970825,0.01088628
4320.52851562,0.01075947
4322.45732300,0.01072080
4324.38613037,0.01081415
4326.31493774,0.01080115
4328.24374512,0.01069371
4330.17255249,0.01071052
4332.10135986,0.01060411
4334.03016724,0.01065921
4335.95897461,0.01067360
4337.88778198,0.01051906
4339.81658936,0.01061962
4341.74539673,0.01054112
4343.67420410,0.01041234
4345.60301147,0.01041955
4347.53181885,0.01047251
4349.46062622,0.01044075
4351.38943359,0.01042033
4353.31824097,0.01040190
4355.24704834,0.01027034
4357.17585571,0.01033601
4359.10466309,0.01028733
4361.03347046,0.01026538
4362.96227783,0.01021697
4364.89108520,0.01016316
4366.81989258,0.01023248
4368.74869995,0.01009086
4370.67750732,0.01016302
4372.60631470,0.01016821
4374.53512207,0.01010345
4376.46392944,0.01011894
4378.39273682,0.01007067
4380.32154419,0.01009354
4382.25035156,0.00997410
4384.17915894,0.00997545
4386.10796631,0.00997055
4388.03677368,0.00990955
4389.96558105,0.00990149
4391.89438843,0.00982843
4393.82319580,0.00986132
4395.75200317,0.00982811
4397.68081055,0.00976586
4399.60961792,0.00975362
4401.53842529,0.00969191
4403.46723267,0.00970811
4405.39604004,0.00977260
4407.32484741,0.00969817
4409.25365478,0.00971116
4411.18246216,0.00968192
4413.11126953,0.00948569
4415.04007690,0.00960360
4416.96888428,0.00965594
4418.89769165,0.00950726
4420.82649902,0.00951952
4422.75530640,0.00950551
4424.68411377,0.00944097
4426.61292114,0.00944621
4428.54172852,0.00940728
4430.47053589,0.00935065
4432.39934326,0.00936985
4434.32815063,0.00926915
4436.25695801,0.00925885
4438.18576538,0.00929387
4440.11457275,0.00923186
4442.04338013,0.00927154
4443.97218750,0.00921601
4445.90099487,0.00914250
4447.82980225,0.00914259
4449.75860962,0.00915743
4451.68741699,0.00910555
4453.61622437,0.00904815
4455.54503174,0.00909717
4457.47383911,0.00908017
4459.40264648,0.00899927
4461.33145386,0.00897244
4463.26026123,0.00902596
4465.18906860,0.00893839
4467.11787598,0.00890655
4469.04668335,0.00897022
4470.97549072,0.00891082
4472.90429810,0.00886406
4474.83310547,0.00877764
4476.76191284,0.00882841
4478.69072021,0.00886195
4480.61952759,0.00879720
4482.54833496,0.00876300
4484.47714233,0.00866270
4486.40594971,0.00862377
4488.33475708,0.00865782
4490.26356445,0.00873811
4492.19237183,0.00862526
4494.12117920,0.00856913
4496.04998657,0.00865040
4497.97879395,0.00854408
4499.90760132,0.00854849
4501.83640869,0.00854444
4503.76521606,0.00850178
4505.69402344,0.00853689
4507.62283081,0.00847344
4509.55163818,0.00847613
4511.48044556,0.00854681
4513.40925293,0.00843807
4515.33806030,0.00831306
4517.26686768,0.00832063
4519.19567505,0.00832525
4521.12448242,0.00835761
4523.05328979,0.00836997
4524.98209717,0.00834976
4526.91090454,0.00827336
4528.83971191,0.00822541
4530.76851929,0.00823905
4532.69732666,0.00818660
4534.62613403,0.00819928
4536.55494141,0.00816336
4538.48374878,0.00817461
4540.41255615,0.00820251
4542.34136353,0.00806148
4544.27017090,0.00802326
4546.19897827,0.00806247
4548.12778564,0.00808019
4550.05659302,0.00803463
4551.98540039,0.00792213
4553.91420776,0.00790461
4555.84301514,0.00796281
4557.77182251,0.00792141
4559.70062988,0.00788190
4561.62943726,0.00790392
4563.55824463,0.00787167
4565.48705200,0.00780258
4567.41585937,0.00776692
4569.34466675,0.00782670
4571.27347412,0.00770924
4573.20228149,0.00766524
4575.13108887,0.00776246
4577.05989624,0.00766981
4578.98870361,0.00769120
4580.91751099,0.00766898
4582.84631836,0.00762592
4584.77512573,0.00762240
4586.70393311,0.00759881
4588.63274048,0.00764859
4590.56154785,0.00757027
4592.49035522,0.00753569
4594.41916260,0.00752373
4596.34796997,0.00745758
4598.27677734,0.00743588
4600.20558472,0.00746979
4602.13439209,0.00742843
4604.06319946,0.00738454
4605.99200684,0.00742659
4607.92081421,0.00732132
4609.84962158,0.00732575
4611.77842895,0.00738868
4613.70723633,0.00742249
4615.63604370,0.00738230
4617.56485107,0.00727131
4619.49365845,0.00728207
4621.42246582,0.00716854
4623.35127319,0.00717597
4625.28008057,0.00721188
4627.20888794,0.00721728
4629.13769531,0.00726627
4631.06650269,0.00715691
4632.99531006,0.00719832
4634.92411743,0.00719853
4636.85292480,0.00710612
4638.78173218,0.00714283
4640.71053955,0.00713407
4642.63934692,0.00697921
4644.56815430,0.00700432
4646.49696167,0.00714677
4648.42576904,0.00703388
4650.35457642,0.00700406
4652.28338379,0.00700359
4654.21219116,0.00700420
4656.14099853,0.00698800
4658.06980591,0.00689841
4659.99861328,0.00694501
4661.92742065,0.00684162
4663.85622803,0.00678999
4665.78503540,0.00684529
4667.71384277,0.00682909
4669.64265015,0.00683862
4671.57145752,0.00676774
4673.50026489,0.00672845
4675.42907227,0.00671781
4677.35787964,0.00668381
4679.28668701,0.00670622
4681.21549438,0.00672530
4683.14430176,0.00668159
4685.07310913,0.00669208
4687.00191650,0.00668744
4688.93072388,0.00657718
4690.85953125,0.00657599
4692.78833862,0.00664441
4694.71714600,0.00662908
4696.64595337,0.00657668
4698.57476074,0.00658338
4700.50356812,0.00653645
4702.43237549,0.00643579
4704.36118286,0.00645443
4706.28999023,0.00651386
4708.21879761,0.00649989
4710.14760498,0.00641863
4712.07641235,0.00641069
4714.00521973,0.00642390
4715.93402710,0.00638702
4717.86283447,0.00637214
4719.79164185,0.00631723
4721.72044922,0.00630739
4723.64925659,0.00639822
4725.57806396,0.00636169
4727.50687134,0.00624099
4729.43567871,0.00627180
4731.36448608,0.00626927
4733.29329346,0.00625970
4735.22210083,0.00629071
4737.15090820,0.00616005
4739.07971558,0.00613325
4741.00852295,0.00620671
4742.93733032,0.00613886
4744.86613770,0.00611017
4746.79494507,0.00612585
4748.72375244,0.00611808
4750.65255981,0.00615137
4752.58136719,0.00607638
4754.51017456,0.00605618
4756.43898193,0.00606789
4758.36778931,0.00597985
4760.29659668,0.00606957
4762.22540405,0.00604062
4764.15421143,0.00601272
4766.08301880,0.00603907
4768.01182617,0.00591464
4769.94063354,0.00599017
4771.86944092,0.00597525
4773.79824829,0.00592541
4775.72705566,0.00598794
4777.65586304,0.00592867
4779.58467041,0.00582785
4781.51347778,0.00580358
4783.44228516,0.00590966
4785.37109253,0.00590329
4787.29989990,0.00582703
4789.22870728,0.00576830
4791.15751465,0.00573508
4793.08632202,0.00575060
4795.01512939,0.00574999
4796.94393677,0.00574189
4798.87274414,0.00569922
4800.80155151,0.00572354
4802.73035889,0.00569286
4804.65916626,0.00563195
4806.58797363,0.00562045
4808.51678101,0.00562594
4810.44558838,0.00564101
4812.37439575,0.00562411
4814.30320312,0.00563849
4816.23201050,0.00557527
4818.16081787,0.00555462
4820.08962524,0.00557822
4822.01843262,0.00557623
4823.94723999,0.00553192
4825.87604736,0.00547179
4827.80485474,0.00548599
4829.73366211,0.00544911
4831.66246948,0.00550060
4833.59127686,0.00552179
4835.52008423,0.00544541
4837.44889160,0.00532553
4839.37769897,0.00533112
4841.30650635,0.00542051
4843.23531372,0.00538648
4845.16412109,0.00552185
4847.09292847,0.00543363
4849.02173584,0.00534055
4850.95054321,0.00545633
4852.87935059,0.00534484
4854.80815796,0.00524844
4856.73696533,0.00528224
4858.66577270,0.00532815
4860.59458008,0.00522470
4862.52338745,0.00530211
4864.45219482,0.00528651
4866.38100220,0.00517906
4868.30980957,0.00528080
4870.23861694,0.00515963
4872.16742432,0.00518821
4874.09623169,0.00517083
4876.02503906,0.00511904
4877.95384644,0.00517585
4879.88265381,0.00509723
4881.81146118,0.00506778
4883.74026855,0.00502122
4885.66907593,0.00505261
4887.59788330,0.00500628
4889.52669067,0.00507052
4891.45549805,0.00509951
4893.38430542,0.00503338
4895.31311279,0.00507630
4897.24192017,0.00498261
4899.17072754,0.00508663
4901.09953491,0.00503062
4903.02834228,0.00491085
4904.95714966,0.00497839
4906.88595703,0.00493089
4908.81476440,0.00490179
4910.74357178,0.00490604
4912.67237915,0.00495041
4914.60118652,0.00485332
4916.52999390,0.00480317
4918.45880127,0.00480580
4920.38760864,0.00488425
4922.31641602,0.00489808
4924.24522339,0.00471376
4926.17403076,0.00476181
4928.10283813,0.00480990
4930.03164551,0.00481584
4931.96045288,0.00466936
4933.88926025,0.00469987
4935.81806763,0.00481249
4937.74687500,0.00465939
4939.67568237,0.00480492
4941.60448975,0.00477635
4943.53329712,0.00465831
4945.46210449,0.00464862
4947.39091187,0.00461085
4949.31971924,0.00461532
4951.24852661,0.00459527
4953.17733398,0.00468093
4955.10614136,0.00455594
4957.03494873,0.00455491
4958.96375610,0.00461028
4960.89256348,0.00455325
4962.82137085,0.00458437
4964.75017822,0.00450614
4966.67898560,0.00453084
4968.60779297,0.00448465
4970.53660034,0.00443095
4972.46540771,0.00447255
4974.39421509,0.00451803
4976.32302246,0.00450816
4978.25182983,0.00444659
4980.18063721,0.00451590
4982.10944458,0.00443674
4984.03825195,0.00440358
4985.96705933,0.00444204
4987.89586670,0.00439487
4989.82467407,0.00441332
4991.75348145,0.00437818
4993.68228882,0.00435936
4995.61109619,0.00439707
4997.53990356,0.00436432
4999.46871094,0.00431970
5001.39751831,0.00436221
5003.32632568,0.00428482
5005.25513306,0.00427627
5007.18394043,0.00434045
5009.11274780,0.00422612
5011.04155518,0.00422484
5012.97036255,0.00426080
5014.89916992,0.00426047
5016.82797729,0.00422294
5018.75678467,0.00421635
5020.68559204,0.00424967
5022.61439941,0.00420246
5024.54320679,0.00420459
5026.47201416,0.00415268
5028.40082153,0.00412435
5030.32962891,0.00415578
5032.25843628,0.00416737
5034.18724365,0.00414845
5036.11605103,0.00410741
5038.04485840,0.00409695
5039.97366577,0.00412373
5041.90247314,0.00415284
5043.83128052,0.00402972
5045.76008789,0.00404575
5047.68889526,0.00408774
5049.61770264,0.00402459
5051.54651001,0.00410945
5053.47531738,0.00405248
5055.40412476,0.00397833
5057.33293213,0.00400944
5059.26173950,0.00400951
5061.19054687,0.00401195
5063.11935425,0.00401524
5065.04816162,0.00401174
5066.97696899,0.00396888
5068.90577637,0.00392139
5070.83458374,0.00385218
5072.76339111,0.00384443
5074.69219849,0.00384934
5076.62100586,0.00387225
5078.54981323,0.00390967
5080.47862061,0.00383535
5082.40742798,0.00381935
5084.33623535,0.00379570
5086.26504272,0.00375713
5088.19385010,0.00381124
5090.12265747,0.00381719
5092.05146484,0.00379851
5093.98027222,0.00380127
5095.90907959,0.00375988
5097.83788696,0.00376132
5099.76669434,0.00377968
5101.69550171,0.00376020
5103.62430908,0.00380103
5105.55311645,0.00375677
5107.48192383,0.00374685
5109.41073120,0.00379075
5111.33953857,0.00371065
5113.26834595,0.00369258
5115.19715332,0.00365509
5117.12596069,0.00363725
5119.05476807,0.00366999
5120.98357544,0.00364473
5122.91238281,0.00366836
5124.84119019,0.00365820
5126.76999756,0.00362782
5128.69880493,0.00362369
5130.62761230,0.00358262
5132.55641968,0.00354230
5134.48522705,0.00354151
5136.41403442,0.00359451
5138.34284180,0.00363509
5140.27164917,0.00356054
5142.20045654,0.00350295
5144.12926392,0.00355678
5146.05807129,0.00354860
5147.98687866,0.00349298
5149.91568603,0.00346418
5151.84449341,0.00348054
5153.77330078,0.00352352
5155.70210815,0.00346780
5157.63091553,0.00342744
5159.55972290,0.00345958
5161.48853027,0.00340861
5163.41733765,0.00337869
5165.34614502,0.00343614
5167.27495239,0.00344956
5169.20375977,0.00342043
5171.13256714,0.00337557
5173.06137451,0.00335565
5174.99018188,0.00336411
5176.91898926,0.00339515
5178.84779663,0.00335077
5180.77660400,0.00326387
5182.70541138,0.00332323
5184.63421875,0.00327410
5186.56302612,0.00321593
5188.49183350,0.00330413
5190.42064087,0.00330313
5192.34944824,0.00328945
5194.27825562,0.00330735
5196.20706299,0.00333528
5198.13587036,0.00328988
5200.06467773,0.00324074
5201.99348511,0.00325940
5203.92229248,0.00327470
5205.85109985,0.00322367
5207.77990723,0.00313214
5209.70871460,0.00316812
5211.63752197,0.00316635
5213.56632935,0.00319131
5215.49513672,0.00316993
5217.42394409,0.00312481
5219.35275146,0.00320660
5221.28155884,0.00314157
5223.21036621,0.00316100
5225.13917358,0.00309218
5227.06798096,0.00300893
5228.99678833,0.00314865
5230.92559570,0.00311822
5232.85440308,0.00306130
5234.78321045,0.00308367
5236.71201782,0.00315476
5238.64082520,0.00312009
5240.56963257,0.00307093
5242.49843994,0.00308950
5244.42724731,0.00304332
5246.35605469,0.00306419
5248.28486206,0.00298967
5250.21366943,0.00299680
5252.14247681,0.00303372
5254.07128418,0.00296325
5256.00009155,0.00300310
5257.92889893,0.00299879
5259.85770630,0.00301375
5261.78651367,0.00301803
5263.71532104,0.00290910
5265.64412842,0.00289129
5267.57293579,0.00299610
5269.50174316,0.00298506
5271.43055054,0.00295514
5273.35935791,0.00296531
5275.28816528,0.00286055
5277.21697266,0.00291764
5279.14578003,0.00298722
5281.07458740,0.00291951
5283.00339478,0.00294988
5284.93220215,0.00293675
5286.86100952,0.00284223
5288.78981689,0.00287679
5290.71862427,0.00289728
5292.64743164,0.00281844
5294.57623901,0.00290440
5296.50504639,0.00289954
5298.43385376,0.00283465
5300.36266113,0.00284148
5302.29146851,0.00277021
5304.22027588,0.00285980
5306.14908325,0.00281033
5308.07789062,0.00272065
5310.00669800,0.00282014
5311.93550537,0.00276822
5313.86431274,0.00274773
5315.79312012,0.00275328
5317.72192749,0.00275976
5319.65073486,0.00277955
5321.57954224,0.00271832
5323.50834961,0.00273483
5325.43715698,0.00270686
5327.36596436,0.00268363
5329.29477173,0.00272165
5331.22357910,0.00268283
5333.15238647,0.00269328
5335.08119385,0.00271177
5337.01000122,0.00265944
5338.93880859,0.00257817
5340.86761597,0.00264706
5342.79642334,0.00270048
5344.72523071,0.00252837
5346.65403809,0.00256531
5348.58284546,0.00262880
5350.51165283,0.00263203
5352.44046020,0.00262648
5354.36926758,0.00243755
5356.29807495,0.00254648
5358.22688232,0.00267682
5360.15568970,0.00259191
5362.08449707,0.00257685
5364.01330444,0.00258683
5365.94211182,0.00256938
5367.87091919,0.00252996
5369.79972656,0.00262231
5371.72853394,0.00257809
5373.65734131,0.00248226
5375.58614868,0.00242815
5377.51495605,0.00238199
5379.44376343,0.00249437
5381.37257080,0.00247523
5383.30137817,0.00252880
5385.23018555,0.00254032
5387.15899292,0.00245724
5389.08780029,0.00250509
5391.01660767,0.00246864
5392.94541504,0.00241324
5394.87422241,0.00237008
5396.80302978,0.00239091
5398.73183716,0.00237745
5400.66064453,0.00242279
5402.58945190,0.00242384
5404.51825928,0.00234348
5406.44706665,0.00244047
5408.37587402,0.00241400
5410.30468140,0.00242968
5412.23348877,0.00237094
5414.16229614,0.00226411
5416.09110352,0.00236979
5418.01991089,0.00238711
5419.94871826,0.00235789
5421.87752563,0.00232122
5423.80633301,0.00239844
5425.73514038,0.00237230
5427.66394775,0.00227017
5429.59275513,0.00227770
5431.52156250,0.00228915
5433.45036987,0.00236265
5435.37917725,0.00223861
5437.30798462,0.00225515
5439.23679199,0.00230724
5441.16559936,0.00221246
5443.09440674,0.00232338
5445.02321411,0.00224752
5446.95202148,0.00219017
5448.88082886,0.00226480
5450.80963623,0.00223352
5452.73844360,0.00230451
5454.66725098,0.00230332
5456.59605835,0.00220381
5458.52486572,0.00221959
5460.45367310,0.00222760
5462.38248047,0.00220914
5464.31128784,0.00222378
5466.24009521,0.00221033
5468.16890259,0.00219710
5470.09770996,0.00214531
5472.02651733,0.00220559
5473.95532471,0.00222672
5475.88413208,0.00209355
5477.81293945,0.00215922
5479.74174683,0.00216342
5481.67055420,0.00212291
5483.59936157,0.00215142
5485.52816895,0.00212657
5487.45697632,0.00216987
5489.38578369,0.00211150
5491.31459106,0.00207487
5493.24339844,0.00209530
5495.17220581,0.00206289
5497.10101318,0.00210446
5499.02982056,0.00207844
5500.95862793,0.00202926
5502.88743530,0.00211214
5504.81624268,0.00210294
5506.74505005,0.00200858
5508.67385742,0.00209676
5510.60266479,0.00209194
5512.53147217,0.00197449
5514.46027954,0.00206704
5516.38908691,0.00209277
5518.31789429,0.00200404
5520.24670166,0.00205768
5522.17550903,0.00208198
5524.10431641,0.00200807
5526.03312378,0.00199038
5527.96193115,0.00200156
5529.89073853,0.00207577
5531.81954590,0.00210212
5533.74835327,0.00204604
5535.67716064,0.00202411
5537.60596802,0.00196832
5539.53477539,0.00200325
5541.46358276,0.00201355
5543.39239014,0.00197626
5545.32119751,0.00197851
5547.25000488,0.00195512
5549.17881226,0.00199894
5551.10761963,0.00195613
5553.03642700,0.00194934
5554.96523437,0.00195554
5556.89404175,0.00189582
5558.82284912,0.00192138
5560.75165649,0.00187496
5562.68046387,0.00190427
5564.60927124,0.00192056
5566.53807861,0.00184636
5568.46688599,0.00187387
5570.39569336,0.00191540
5572.32450073,0.00189629
5574.25330811,0.00183532
5576.18211548,0.00185384
5578.11092285,0.00187557
5580.03973022,0.00192791
5581.96853760,0.00192167
5583.89734497,0.00183464
5585.82615234,0.00189601
5587.75495972,0.00186011
5589.68376709,0.00182580
5591.61257446,0.00190598
5593.54138184,0.00187111
5595.47018921,0.00179549
5597.39899658,0.00178808
5599.32780395,0.00180457
5601.25661133,0.00183421
5603.18541870,0.00186347
5605.11422607,0.00180177
5607.04303345,0.00184325
5608.97184082,0.00185534
5610.90064819,0.00178627
5612.82945557,0.00181104
5614.75826294,0.00175689
5616.68707031,0.00178774
5618.61587769,0.00175503
5620.54468506,0.00168437
5622.47349243,0.00175777
5624.40229980,0.00174077
5626.33110718,0.00172510
5628.25991455,0.00171434
5630.18872192,0.00173321
5632.11752930,0.00172864
5634.04633667,0.00171425
5635.97514404,0.00175056
5637.90395142,0.00176074
5639.83275879,0.00171781
5641.76156616,0.00164296
5643.69037353,0.00174197
5645.61918091,0.00171597
5647.54798828,0.00167437
5649.47679565,0.00171858
5651.40560303,0.00163329
5653.33441040,0.00168469
5655.26321777,0.00165706
5657.19202515,0.00164723
5659.12083252,0.00164012
5661.04963989,0.00159522
5662.97844727,0.00169754
5664.90725464,0.00168977
5666.83606201,0.00169228
5668.76486938,0.00165679
5670.69367676,0.00163179
5672.62248413,0.00161178
5674.55129150,0.00159015
5676.48009888,0.00166670
5678.40890625,0.00164296
5680.33771362,0.00165359
5682.26652100,0.00163170
5684.19532837,0.00165688
5686.12413574,0.00165983
5688.05294311,0.00159331
5689.98175049,0.00158766
5691.91055786,0.00149415
5693.83936523,0.00157642
5695.76817261,0.00162296
5697.69697998,0.00159332
5699.62578735,0.00159692
5701.55459473,0.00150366
5703.48340210,0.00155369
5705.41220947,0.00157935
5707.34101685,0.00156110
5709.26982422,0.00157806
5711.19863159,0.00153408
5713.12743896,0.00148642
5715.05624634,0.00146252
5716.98505371,0.00145720
5718.91386108,0.00153901
5720.84266846,0.00157183
5722.77147583,0.00146747
5724.70028320,0.00149689
5726.62909058,0.00148791
5728.55789795,0.00149595
5730.48670532,0.00151407
5732.41551270,0.00147052
5734.34432007,0.00153387
5736.27312744,0.00138340
5738.20193481,0.00140296
5740.13074219,0.00152943
5742.05954956,0.00141327
5743.98835693,0.00146039
5745.91716431,0.00149163
5747.84597168,0.00141896
5749.77477905,0.00138791
5751.70358643,0.00142276
5753.63239380,0.00144561
5755.56120117,0.00143054
5757.49000854,0.00140755
5759.41881592,0.00137265
5761.34762329,0.00141157
5763.27643066,0.00138696
5765.20523804,0.00137410
5767.13404541,0.00141480
5769.06285278,0.00139275
5770.99166016,0.00136978
5772.92046753,0.00140882
5774.84927490,0.00137870
5776.77808228,0.00132070
5778.70688965,0.00143602
5780.63569702,0.00139820
5782.56450439,0.00134637
5784.49331177,0.00139867
5786.42211914,0.00134524
5788.35092651,0.00137422
5790.27973389,0.00132477
5792.20854126,0.00131218
5794.13734863,0.00138161
5796.06615601,0.00132832
5797.99496338,0.00131170
5799.92377075,0.00131196
5801.85257812,0.00136296
5803.78138550,0.00138923
5805.71019287,0.00131122
5807.63900024,0.00129701
5809.56780762,0.00128178
5811.49661499,0.00127152
5813.42542236,0.00130587
5815.35422974,0.00128967
5817.28303711,0.00134104
5819.21184448,0.00134505
5821.14065186,0.00126271
5823.06945923,0.00131068
5824.99826660,0.00128747
5826.92707397,0.00123090
5828.85588135,0.00124750
5830.78468872,0.00124448
5832.71349609,0.00125607
5834.64230347,0.00121800
5836.57111084,0.00123342
5838.49991821,0.00129307
5840.42872559,0.00129026
5842.35753296,0.00128419
5844.28634033,0.00125456
5846.21514770,0.00124413
5848.14395508,0.00123337
5850.07276245,0.00118759
5852.00156982,0.00123922
5853.93037720,0.00129264
5855.85918457,0.00127428
5857.78799194,0.00126759
5859.71679932,0.00118313
5861.64560669,0.00116877
5863.57441406,0.00122061
5865.50322144,0.00118763
5867.43202881,0.00120787
5869.36083618,0.00122555
5871.28964355,0.00119140
5873.21845093,0.00118883
5875.14725830,0.00120621
5877.07606567,0.00114185
5879.00487305,0.00114234
5880.93368042,0.00120162
5882.86248779,0.00112937
5884.79129517,0.00113061
5886.72010254,0.00116979
5888.64890991,0.00120061
5890.57771728,0.00121710
5892.50652466,0.00114826
5894.43533203,0.00115828
5896.36413940,0.00123373
5898.29294678,0.00121426
5900.22175415,0.00111206
5902.15056152,0.00108854
5904.07936890,0.00114219
5906.00817627,0.00119732
5907.93698364,0.00108767
5909.86579102,0.00105774
5911.79459839,0.00118102
5913.72340576,0.00112034
5915.65221313,0.00113290
5917.58102051,0.00111928
5919.50982788,0.00112455
5921.43863525,0.00111685
5923.36744263,0.00101606
5925.29625000,0.00114153
5927.22505737,0.00113375
5929.15386475,0.00109979
5931.08267212,0.00111942
5933.01147949,0.00110214
5934.94028686,0.00108512
5936.86909424,0.00104171
5938.79790161,0.00109453
5940.72670898,0.00102684
5942.65551636,0.00106752
5944.58432373,0.00109973
5946.51313110,0.00103163
5948.44193848,0.00104135
5950.37074585,0.00100388
5952.29955322,0.00106509
5954.22836060,0.00107995
5956.15716797,0.00107186
5958.08597534,0.00104192
5960.01478271,0.00102543
5961.94359009,0.00100110
5963.87239746,0.00097455
5965.80120483,0.00109255
5967.73001221,0.00106874
5969.65881958,0.00107524
5971.58762695,0.00111205
5973.51643433,0.00107033
5975.44524170,0.00099329
5977.37404907,0.00102632
5979.30285645,0.00110288
5981.23166382,0.00096506
5983.16047119,0.00102857
5985.08927856,0.00105312
5987.01808594,0.00101463
5988.94689331,0.00106860
5990.87570068,0.00099212
5992.80450806,0.00095418
5994.73331543,0.00095071
5996.66212280,0.00100738
5998.59093018,0.00098174
6000.51973755,0.00098815
