399.26312622,0.00211940
401.19193359,0.00201194
403.12074097,0.00228150
405.04954834,0.00294737
406.97835571,0.00259120
408.90716309,0.00333340
410.83597046,0.00317278
412.76477783,0.00290764
414.69358521,0.00340333
416.62239258,0.00291961
418.55119995,0.00276188
420.48000732,0.00291794
422.40881470,0.00309536
424.33762207,0.00327825
426.26642944,0.00334775
428.19523682,0.00359992
430.12404419,0.00386470
432.05285156,0.00344089
433.98165894,0.00290599
435.91046631,0.00288388
437.83927368,0.00297879
439.76808105,0.00346972
441.69688843,0.00314683
443.62569580,0.00266214
445.55450317,0.00285166
447.48331055,0.00262770
449.41211792,0.00240471
451.34092529,0.00242413
453.26973267,0.00246127
455.19854004,0.00212089
457.12734741,0.00214941
459.05615479,0.00206271
460.98496216,0.00180022
462.91376953,0.00200936
464.84257690,0.00154694
466.77138428,0.00151303
468.70019165,0.00170116
470.62899902,0.00151515
472.55780640,0.00125065
474.48661377,0.00091489
476.41542114,0.00056248
478.34422852,0.00029882
480.27303589,0.00098113
482.20184326,0.00095096
484.13065063,0.00071125
486.05945801,0.00065980
487.98826538,0.00034361
489.91707275,0.00063283
491.84588013,0.00045326
493.77468750,0.00062695
495.70349487,0.00060247
497.63230225,0.00072839
499.56110962,0.00070303
501.48991699,0.00011111
503.41872437,0.00078611
505.34753174,0.00049046
507.27633911,0.00033166
509.20514648,0.00065723
511.13395386,0.00035827
513.06276123,0.00041821
514.99156860,0.00038782
516.92037598,0.00078470
518.84918335,0.00038594
520.77799072,0.00024191
522.70679810,0.00062658
524.63560547,0.00001160
526.56441284,-0.00019734
528.49322021,0.00014394
530.42202759,0.00050019
532.35083496,0.00049248
534.27964233,0.00035437
536.20844971,0.00002647
538.13725708,0.00027933
540.06606445,0.00049649
541.99487183,-0.00012915
543.92367920,0.00040927
545.85248657,0.00066207
547.78129395,0.00019510
549.71010132,0.00013475
551.63890869,0.00009243
553.56771606,0.00024547
555.49652344,0.00010395
557.42533081,0.00016960
559.35413818,0.00033730
561.28294556,0.00004929
563.21175293,0.00023858
565.14056030,0.00032213
567.06936768,0.00037322
568.99817505,0.00054959
570.92698242,0.00008210
572.85578979,0.00005560
574.78459717,0.00012622
576.71340454,0.00018915
578.64221191,0.00069090
580.57101929,0.00013171
582.49982666,-0.00020817
584.42863403,0.00013025
586.35744141,0.00020666
588.28624878,0.00011456
590.21505615,-0.00023928
592.14386353,0.00009934
594.07267090,0.00029520
596.00147827,0.00008304
597.93028564,0.00009414
599.85909302,0.00025394
601.78790039,0.00036296
603.71670776,0.00007257
605.64551514,0.00005673
607.57432251,0.00019123
609.50312988,0.00040305
611.43193726,0.00030472
613.36074463,-0.00003795
615.28955200,-0.00010234
617.21835938,0.00029123
619.14716675,0.00033937
621.07597412,-0.00030007
623.00478149,0.00003116
624.93358887,0.00018828
626.86239624,-0.00001838
628.79120361,0.00018341
630.72001099,0.00084998
632.64881836,0.00192403
634.57762573,0.00210312
636.50643311,0.00241676
638.43524048,0.00251467
640.36404785,0.00251488
642.29285522,0.00298202
644.22166260,0.00307493
646.15046997,0.00356674
648.07927734,0.00395813
650.00808472,0.00403788
651.93689209,0.00403986
653.86569946,0.00430108
655.79450684,0.00432264
657.72331421,0.00431592
659.65212158,0.00510682
661.58092896,0.00493087
663.50973633,0.00520284
665.43854370,0.00542378
667.36735107,0.00452482
669.29615845,0.00509973
671.22496582,0.00577044
673.15377319,0.00584425
675.08258057,0.00639728
677.01138794,0.00699450
678.94019531,0.00694852
680.86900269,0.00677327
682.79781006,0.00714982
684.72661743,0.00679299
686.65542480,0.00633045
688.58423218,0.00654056
690.51303955,0.00681720
692.44184692,0.00723813
694.37065430,0.00752760
696.29946167,0.00844931
698.22826904,0.00996466
700.15707642,0.01048497
702.08588379,0.01037157
704.01469116,0.00976884
705.94349854,0.00835929
707.87230591,0.00742484
709.80111328,0.00630026
711.72992065,0.00429700
713.65872803,0.00279316
715.58753540,0.00175044
717.51634277,0.00096638
719.44515015,0.00058097
721.37395752,0.00029579
723.30276489,0.00031467
725.23157227,0.00039385
727.16037964,0.00008187
729.08918701,0.00011914
731.01799438,0.00050368
732.94680176,0.00040170
734.87560913,0.00023106
736.80441650,0.00013117
738.73322388,-0.00014672
740.66203125,-0.00045926
742.59083862,-0.00010858
744.51964600,0.00033036
746.44845337,0.00007200
748.37726074,0.00003356
750.30606812,-0.00005236
752.23487549,0.00003487
754.16368286,0.00037032
756.09249023,0.00025525
758.02129761,0.00021317
759.95010498,0.00033670
761.87891235,0.00054146
763.80771973,0.00048299
765.73652710,0.00038787
767.66533447,0.00040920
769.59414185,0.00037417
771.52294922,0.00076600
773.45175659,0.00068054
775.38056396,0.00048240
777.30937134,0.00069327
779.23817871,0.00046269
781.16698608,0.00050156
783.09579346,0.00075761
785.02460083,0.00068104
786.95340820,0.00071742
788.88221558,0.00096584
790.81102295,0.00085386
792.73983032,0.00055071
794.66863770,0.00072975
796.59744507,0.00095878
798.52625244,0.00130123
800.45505981,0.00158772
802.38386719,0.00148618
804.31267456,0.00122664
806.24148193,0.00080836
808.17028931,0.00083419
810.09909668,0.00080130
812.02790405,0.00059176
813.95671143,0.00075922
815.88551880,0.00044877
817.81432617,0.00022817
819.74313354,0.00046372
821.67194092,0.00052678
823.60074829,0.00078073
825.52955566,0.00092299
827.45836304,0.00103841
829.38717041,0.00130462
831.31597778,0.00143235
833.24478516,0.00192836
835.17359253,0.00228644
837.10239990,0.00223877
839.03120728,0.00231654
840.96001465,0.00226941
842.88882202,0.00208827
844.81762939,0.00180754
846.74643677,0.00157529
848.67524414,0.00158791
850.60405151,0.00137314
852.53285889,0.00107571
854.46166626,0.00130327
856.39047363,0.00129471
858.31928101,0.00098464
860.24808838,0.00097876
862.17689575,0.00067885
864.10570313,0.00060910
866.03451050,0.00068999
867.96331787,0.00051824
869.89212524,0.00036100
871.82093262,0.00009007
873.74973999,0.00033983
875.67854736,0.00041866
877.60735474,0.00031632
879.53616211,0.00050968
881.46496948,0.00053439
883.39377686,0.00052821
885.32258423,0.00038864
887.25139160,0.00047244
889.18019897,0.00028807
891.10900635,0.00037122
893.03781372,0.00069731
894.96662109,0.00034614
896.89542847,0.00054425
898.82423584,0.00045664
900.75304321,0.00049247
902.68185059,0.00077697
904.61065796,0.00027469
906.53946533,0.00056514
908.46827271,0.00061099
910.39708008,0.00036893
912.32588745,0.00075628
914.25469482,0.00084135
916.18350220,0.00109242
918.11230957,0.00138978
920.04111694,0.00152834
921.96992432,0.00164535
923.89873169,0.00149617
925.82753906,0.00175636
927.75634644,0.00228038
929.68515381,0.00222860
931.61396118,0.00233908
933.54276855,0.00269900
935.47157593,0.00288452
937.40038330,0.00296622
939.32919067,0.00291268
941.25799805,0.00321690
943.18680542,0.00335170
945.11561279,0.00336337
947.04442017,0.00335881
948.97322754,0.00298551
950.90203491,0.00304283
952.83084229,0.00310488
954.75964966,0.00305941
956.68845703,0.00332032
958.61726440,0.00320876
960.54607178,0.00296732
962.47487915,0.00318547
964.40368652,0.00327909
966.33249390,0.00341727
968.26130127,0.00368145
970.19010864,0.00360935
972.11891602,0.00392800
974.04772339,0.00418938
975.97653076,0.00431206
977.90533813,0.00478796
979.83414551,0.00536824
981.76295288,0.00593199
983.69176025,0.00625712
985.62056763,0.00693150
987.54937500,0.00751148
989.47818237,0.00830896
991.40698975,0.00965470
993.33579712,0.01050907
995.26460449,0.01140247
997.19341187,0.01248694
999.12221924,0.01350493
1001.05102661,0.01434599
1002.97983398,0.01538397
1004.90864136,0.01657407
1006.83744873,0.01749397
1008.76625610,0.01860768
1010.69506348,0.01973827
1012.62387085,0.02089503
1014.55267822,0.02199995
1016.48148560,0.02306929
1018.41029297,0.02406480
1020.33910034,0.02506677
1022.26790771,0.02623647
1024.19671509,0.02708379
1026.12552246,0.02815808
1028.05432983,0.02922227
1029.98313721,0.02980742
1031.91194458,0.03076579
1033.84075195,0.03178059
1035.76955933,0.03191741
1037.69836670,0.03209218
1039.62717407,0.03246938
1041.55598145,0.03238342
1043.48478882,0.03214394
1045.41359619,0.03143299
1047.34240356,0.03123269
1049.27121094,0.03097593
1051.20001831,0.03000738
1053.12882568,0.02962025
1055.05763306,0.02914084
1056.98644043,0.02861959
1058.91524780,0.02774645
1060.84405518,0.02690911
1062.77286255,0.02647100
1064.70166992,0.02543155
1066.63047729,0.02448059
1068.55928467,0.02356719
1070.48809204,0.02253079
1072.41689941,0.02134459
1074.34570679,0.02030179
1076.27451416,0.01943696
1078.20332153,0.01835289
1080.13212891,0.01763715
1082.06093628,0.01697401
1083.98974365,0.01617895
1085.91855103,0.01540582
1087.84735840,0.01457794
1089.77616577,0.01383141
1091.70497314,0.01340891
1093.63378052,0.01275811
1095.56258789,0.01211257
1097.49139526,0.01200875
1099.42020264,0.01151928
1101.34901001,0.01112138
1103.27781738,0.01086369
1105.20662476,0.01070928
1107.13543213,0.01055963
1109.06423950,0.01011021
1110.99304687,0.01012639
1112.92185425,0.01001719
1114.85066162,0.00989338
1116.77946899,0.00991993
1118.70827637,0.00996633
1120.63708374,0.00996065
1122.56589111,0.00983990
1124.49469849,0.01014550
1126.42350586,0.01040136
1128.35231323,0.01064680
1130.28112061,0.01074353
1132.20992798,0.01086985
1134.13873535,0.01148123
1136.06754272,0.01202982
1137.99635010,0.01243386
1139.92515747,0.01306419
1141.85396484,0.01426790
1143.78277222,0.01546651
1145.71157959,0.01609870
1147.64038696,0.01692329
1149.56919434,0.01817465
1151.49800171,0.01880320
1153.42680908,0.01975584
1155.35561646,0.02092541
1157.28442383,0.02145609
1159.21323120,0.02252347
1161.14203857,0.02323586
1163.07084595,0.02418981
1164.99965332,0.02523933
1166.92846069,0.02579194
1168.85726807,0.02698501
1170.78607544,0.02789473
1172.71488281,0.02896648
1174.64369019,0.02990961
1176.57249756,0.03098373
1178.50130493,0.03247346
1180.43011230,0.03348397
1182.35891968,0.03505506
1184.28772705,0.03663932
1186.21653442,0.03803209
1188.14534180,0.03984853
1190.07414917,0.04194541
1192.00295654,0.04393431
1193.93176392,0.04579360
1195.86057129,0.04792192
1197.78937866,0.05024330
1199.71818604,0.05242826
1201.64699341,0.05455358
1203.57580078,0.05707869
1205.50460815,0.05908836
1207.43341553,0.06130329
1209.36222290,0.06371861
1211.29103027,0.06541596
1213.21983765,0.06725772
1215.14864502,0.06879869
1217.07745239,0.07029341
1219.00625977,0.07163571
1220.93506714,0.07281268
1222.86387451,0.07360613
1224.79268188,0.07421221
1226.72148926,0.07505316
1228.65029663,0.07510930
1230.57910400,0.07560556
1232.50791138,0.07587679
1234.43671875,0.07582784
1236.36552612,0.07601874
1238.29433350,0.07567896
1240.22314087,0.07568818
1242.15194824,0.07515553
1244.08075562,0.07461704
1246.00956299,0.07456727
1247.93837036,0.07409868
1249.86717773,0.07353437
1251.79598511,0.07290982
1253.72479248,0.07226081
1255.65359985,0.07134259
1257.58240723,0.07030977
1259.51121460,0.06933564
1261.44002197,0.06834822
1263.36882935,0.06740157
1265.29763672,0.06653081
1267.22644409,0.06547543
1269.15525146,0.06461719
1271.08405884,0.06362054
1273.01286621,0.06212885
1274.94167358,0.06137992
1276.87048096,0.06033740
1278.79928833,0.05896892
1280.72809570,0.05777827
1282.65690308,0.05661785
1284.58571045,0.05581582
1286.51451782,0.05451099
1288.44332520,0.05339558
1290.37213257,0.05270896
1292.30093994,0.05243788
1294.22974731,0.05210643
1296.15855469,0.05147123
1298.08736206,0.05140419
1300.01616943,0.05150131
1301.94497681,0.05177930
1303.87378418,0.05213895
1305.80259155,0.05287645
1307.73139893,0.05345610
1309.66020630,0.05430445
1311.58901367,0.05533384
1313.51782104,0.05583216
1315.44662842,0.05757146
1317.37543579,0.05888504
1319.30424316,0.06007255
1321.23305054,0.06228231
1323.16185791,0.06428164
1325.09066528,0.06641953
1327.01947266,0.06797282
1328.94828003,0.06964717
1330.87708740,0.07165843
1332.80589478,0.07319856
1334.73470215,0.07459757
1336.66350952,0.07529481
1338.59231689,0.07442524
1340.52112427,0.07534476
1342.44993164,0.07876675
1344.37873901,0.07924251
1346.30754639,0.07911950
1348.23635376,0.07913236
1350.16516113,0.07834668
1352.09396851,0.07867546
1354.02277588,0.07729872
1355.95158325,0.07670113
1357.88039062,0.07662390
1359.80919800,0.07505448
1361.73800537,0.07190263
1363.66681274,0.07039393
1365.59562012,0.07406472
1367.52442749,0.07280122
1369.45323486,0.07149018
1371.38204224,0.07287920
1373.31084961,0.06897107
1375.23965698,0.06912363
1377.16846436,0.07105064
1379.09727173,0.07087959
1381.02607910,0.07101028
1382.95488647,0.07079072
1384.88369385,0.07069459
1386.81250122,0.06738877
1388.74130859,0.06818885
1390.67011597,0.07402444
1392.59892334,0.07235777
1394.52773071,0.06731485
1396.45653809,0.07061435
1398.38534546,0.07088464
1400.31415283,0.07021104
1402.24296021,0.07623044
1404.17176758,0.07206666
1406.10057495,0.07209672
1408.02938232,0.07542676
1409.95818970,0.07232803
1411.88699707,0.07396205
1413.81580444,0.07149668
1415.74461182,0.07251732
1417.67341919,0.06551948
1419.60222656,0.05777671
1421.53103394,0.06723160
1423.45984131,0.06545366
1425.38864868,0.06302838
1427.31745605,0.06444231
1429.24626343,0.05934207
1431.17507080,0.05748163
1433.10387817,0.05846869
1435.03268555,0.05332407
1436.96149292,0.04460705
1438.89030029,0.05081411
1440.81910767,0.05271535
1442.74791504,0.04855673
1444.67672241,0.05126322
1446.60552979,0.04675978
1448.53433716,0.04707997
1450.46314453,0.04898638
1452.39195190,0.04988413
1454.32075928,0.05201138
1456.24956665,0.04227923
1458.17837402,0.04340737
1460.10718140,0.05902943
1462.03598877,0.06357703
1463.96479614,0.06277815
1465.89360352,0.06520288
1467.82241089,0.07479984
1469.75121826,0.08072722
1471.68002563,0.07125700
1473.60883301,0.07483932
1475.53764038,0.08600131
1477.46644775,0.09269451
1479.39525513,0.10242239
1481.32406250,0.10372101
1483.25286987,0.11041456
1485.18167725,0.11429725
1487.11048462,0.11201604
1489.03929199,0.11173242
1490.96809937,0.11170562
1492.89690674,0.13107166
1494.82571411,0.12896815
1496.75452148,0.11436829
1498.68332886,0.13028693
1500.61213623,0.13480198
1502.54094360,0.14461845
1504.46975098,0.13772330
1506.39855835,0.09799089
1508.32736572,0.11953324
1510.25617310,0.14282098
1512.18498047,0.13792637
1514.11378784,0.15038833
1516.04259521,0.13502803
1517.97140259,0.14041302
1519.90020996,0.13644812
1521.82901733,0.11625682
1523.75782471,0.14384925
1525.68663208,0.14197889
1527.61543945,0.14076373
1529.54424683,0.15720803
1531.47305420,0.15095548
1533.40186157,0.13736551
1535.33066895,0.14553592
1537.25947632,0.15779024
1539.18828369,0.11110477
1541.11709106,0.11449763
1543.04589844,0.14031544
1544.97470581,0.13350269
1546.90351318,0.15988103
1548.83232056,0.14939420
1550.76112793,0.15321288
1552.68993530,0.15342644
1554.61874268,0.13767019
1556.54755005,0.14877379
1558.47635742,0.10324692
1560.40516479,0.10959956
1562.33397217,0.16098866
1564.26277954,0.15221761
1566.19158691,0.15623283
1568.12039429,0.15533625
1570.04920166,0.13619593
1571.97800903,0.15798214
1573.90681641,0.16133651
1575.83562378,0.12599683
1577.76443115,0.14235306
1579.69323853,0.16287178
1581.62204590,0.15564558
1583.55085327,0.15962332
1585.47966064,0.15717065
1587.40846802,0.15850896
1589.33727539,0.15712196
1591.26608276,0.15704435
1593.19489014,0.15743124
1595.12369751,0.15525207
1597.05250488,0.15782687
1598.98131226,0.15667242
1600.91011963,0.15750188
1602.83892700,0.15443771
1604.76773437,0.15738413
1606.69654175,0.15519837
1608.62534912,0.15451047
1610.55415649,0.15472668
1612.48296387,0.15537952
1614.41177124,0.15831834
1616.34057861,0.12805519
1618.26938599,0.13813639
1620.19819336,0.16353753
1622.12700073,0.14423063
1624.05580811,0.14417677
1625.98461548,0.15206888
1627.91342285,0.15134613
1629.84223022,0.15007055
1631.77103760,0.16102673
1633.69984497,0.14879489
1635.62865234,0.12046133
1637.55745972,0.14098603
1639.48626709,0.15700451
1641.41507446,0.15294939
1643.34388184,0.15732120
1645.27268921,0.14133072
1647.20149658,0.12199762
1649.13030396,0.15367624
1651.05911133,0.14763671
1652.98791870,0.09136178
1654.91672607,0.12516426
1656.84553345,0.16100660
1658.77434082,0.15351841
1660.70314819,0.15834191
1662.63195557,0.14309701
1664.56076294,0.15059759
1666.48957031,0.16328317
1668.41837769,0.14145070
1670.34718506,0.13629207
1672.27599243,0.15630092
1674.20479980,0.14405915
1676.13360718,0.13666365
1678.06241455,0.15947075
1679.99122192,0.15347646
1681.92002930,0.15142526
1683.84883667,0.12237710
1685.77764404,0.11925316
1687.70645142,0.16775249
1689.63525879,0.14507157
1691.56406616,0.15889126
1693.49287354,0.16404894
1695.42168091,0.11679450
1697.35048828,0.14540777
1699.27929565,0.12830108
1701.20810303,0.11286628
1703.13691040,0.15772414
1705.06571777,0.14470232
1706.99452515,0.14476866
1708.92333252,0.15895241
1710.85213989,0.15229866
1712.78094727,0.15508595
1714.70975464,0.14362262
1716.63856201,0.12806316
1718.56736938,0.12534046
1720.49617676,0.14972621
1722.42498413,0.15694943
1724.35379150,0.14443144
1726.28259888,0.15805683
1728.21140625,0.14578493
1730.14021362,0.14600900
1732.06902100,0.14374661
1733.99782837,0.10686582
1735.92663574,0.13370818
1737.85544312,0.15033841
1739.78425049,0.13225256
1741.71305786,0.14464727
1743.64186523,0.14704317
1745.57067261,0.14712478
1747.49947998,0.14827508
1749.42828735,0.14159966
1751.35709473,0.13491623
1753.28590210,0.14991251
1755.21470947,0.15820295
1757.14351685,0.14295460
1759.07232422,0.15812337
1761.00113159,0.14865071
1762.92993896,0.14195475
1764.85874634,0.16462889
1766.78755371,0.14751987
1768.71636108,0.14837568
1770.64516846,0.14792550
1772.57397583,0.13164249
1774.50278320,0.14765906
1776.43159058,0.15687880
1778.36039795,0.15477142
1780.28920532,0.15250972
1782.21801270,0.15369448
1784.14682007,0.15371442
1786.07562744,0.15033239
1788.00443481,0.15855524
1789.93324219,0.15472814
1791.86204956,0.13893990
1793.79085693,0.14482509
1795.71966431,0.15641637
1797.64847168,0.15417372
1799.57727905,0.15162802
1801.50608643,0.14885344
1803.43489380,0.15374632
1805.36370117,0.15767062
1807.29250854,0.15529782
1809.22131592,0.15595555
1811.15012329,0.15137459
1813.07893066,0.15620407
1815.00773804,0.15729210
1816.93654541,0.15508118
1818.86535278,0.15672946
1820.79416016,0.15587389
1822.72296753,0.15845954
1824.65177490,0.14742821
1826.58058228,0.15256743
1828.50938965,0.15359578
1830.43819702,0.14286447
1832.36700439,0.15638760
1834.29581177,0.15579802
1836.22461914,0.15532768
1838.15342651,0.15496464
1840.08223389,0.15555070
1842.01104126,0.15643159
1843.93984863,0.13748816
1845.86865601,0.14654867
1847.79746338,0.15585534
1849.72627075,0.15201777
1851.65507812,0.15702386
1853.58388550,0.15361144
1855.51269287,0.15516314
1857.44150024,0.15437269
1859.37030762,0.15316591
1861.29911499,0.15448733
1863.22792236,0.15251522
1865.15672974,0.15434092
1867.08553711,0.14905384
1869.01434448,0.14224480
1870.94315186,0.14797014
1872.87195923,0.15428996
1874.80076660,0.15175205
1876.72957397,0.15250865
1878.65838135,0.15225902
1880.58718872,0.15114948
1882.51599609,0.15263411
1884.44480347,0.14986335
1886.37361084,0.15229788
1888.30241821,0.14898136
1890.23122559,0.14553927
1892.16003296,0.15163280
1894.08884033,0.14914867
1896.01764771,0.14835063
1897.94645508,0.15044284
1899.87526245,0.14951625
1901.80406982,0.15003851
1903.73287720,0.14886165
1905.66168457,0.14949954
1907.59049194,0.14816841
1909.51929932,0.14716618
1911.44810669,0.14817601
1913.37691406,0.14822260
1915.30572144,0.14969677
1917.23452881,0.14291781
1919.16333618,0.14265484
1921.09214355,0.14855033
1923.02095093,0.14363968
1924.94975830,0.14648427
1926.87856567,0.14842753
1928.80737305,0.14636025
1930.73618042,0.14811468
1932.66498779,0.14616394
1934.59379517,0.14782742
1936.52260254,0.14650995
1938.45140991,0.14683101
1940.38021729,0.14724109
1942.30902466,0.14186770
1944.23783203,0.14445004
1946.16663940,0.14623013
1948.09544678,0.14587976
1950.02425415,0.14648360
1951.95306152,0.14588559
1953.88186890,0.14628255
1955.81067627,0.14549369
1957.73948364,0.14582780
1959.66829102,0.14576043
1961.59709839,0.14546828
1963.52590576,0.14596541
1965.45471313,0.14497760
1967.38352051,0.14332224
1969.31232788,0.14452749
1971.24113525,0.14565077
1973.16994263,0.14457995
1975.09875000,0.14521198
1977.02755737,0.14452261
1978.95636475,0.14468649
1980.88517212,0.14459048
1982.81397949,0.14379576
1984.74278687,0.14463064
1986.67159424,0.14319983
1988.60040161,0.14348429
1990.52920898,0.14239484
1992.45801636,0.14047332
1994.38682373,0.14261639
1996.31563110,0.14302072
1998.24443848,0.14221406
2000.17324585,0.14230832
2002.10205322,0.14208081
2004.03086060,0.14182857
2005.95966797,0.14155565
2007.88847534,0.14107689
2009.81728271,0.14102566
2011.74609009,0.14071289
2013.67489746,0.14060734
2015.60370483,0.13984881
2017.53251221,0.13851176
2019.46131958,0.13948736
2021.39012695,0.13944301
2023.31893433,0.13897683
2025.24774170,0.13904303
2027.17654907,0.13842893
2029.10535645,0.13848117
2031.03416382,0.13798121
2032.96297119,0.13781705
2034.89177856,0.13751614
2036.82058594,0.13727458
2038.74939331,0.13711014
2040.67820068,0.13623166
2042.60700806,0.13608432
2044.53581543,0.13615134
2046.46462280,0.13609308
2048.39343018,0.13564181
2050.32223755,0.13537434
2052.25104492,0.13512598
2054.17985229,0.13479877
2056.10865967,0.13469875
2058.03746704,0.13436550
2059.96627441,0.13406149
2061.89508179,0.13380656
2063.82388916,0.13341278
2065.75269653,0.13270716
2067.68150391,0.13303502
2069.61031128,0.13301495
2071.53911865,0.13250929
2073.46792603,0.13250194
2075.39673340,0.13212430
2077.32554077,0.13212201
2079.25434814,0.13159183
2081.18315552,0.13156256
2083.11196289,0.13137746
2085.04077026,0.13086116
2086.96957764,0.13101718
2088.89838501,0.13031280
2090.82719238,0.13019353
2092.75599976,0.13021094
2094.68480713,0.13003895
2096.61361450,0.12982967
2098.54242187,0.12944289
2100.47122925,0.12923670
2102.40003662,0.12901461
2104.32884399,0.12908372
2106.25765137,0.12859142
2108.18645874,0.12839237
2110.11526611,0.12826025
2112.04407349,0.12808645
2113.97288086,0.12788096
2115.90168823,0.12751913
2117.83049561,0.12778330
2119.75930298,0.12738460
2121.68811035,0.12713042
2123.61691772,0.12704830
2125.54572510,0.12689839
2127.47453247,0.12682289
2129.40333984,0.12640537
2131.33214722,0.12629609
2133.26095459,0.12613869
2135.18976196,0.12599911
2137.11856934,0.12575120
2139.04737671,0.12569129
2140.97618408,0.12549543
2142.90499146,0.12526493
2144.83379883,0.12523322
2146.76260620,0.12492327
2148.69141357,0.12489974
2150.62022095,0.12473196
2152.54902832,0.12466326
2154.47783569,0.12443820
2156.40664307,0.12429352
2158.33545044,0.12424673
2160.26425781,0.12387827
2162.19306519,0.12386308
2164.12187256,0.12366076
2166.05067993,0.12352970
2167.97948730,0.12339117
2169.90829468,0.12335657
2171.83710205,0.12332790
2173.76590942,0.12312986
2175.69471680,0.12286310
2177.62352417,0.12254464
2179.55233154,0.12266045
2181.48113892,0.12243579
2183.40994629,0.12233545
2185.33875366,0.12213492
2187.26756104,0.12209904
2189.19636841,0.12205172
2191.12517578,0.12159658
2193.05398315,0.12184853
2194.98279053,0.12150957
2196.91159790,0.12132715
2198.84040527,0.12127893
2200.76921265,0.12103269
2202.69802002,0.12101872
2204.62682739,0.12070040
2206.55563477,0.12079082
2208.48444214,0.12048491
2210.41324951,0.12028560
2212.34205688,0.12029815
2214.27086426,0.12020817
2216.19967163,0.12014535
2218.12847900,0.11983134
2220.05728638,0.11969680
2221.98609375,0.11945449
2223.91490112,0.11943719
2225.84370850,0.11910558
2227.77251587,0.11889389
2229.70132324,0.11884132
2231.63013062,0.11859576
2233.55893799,0.11859463
2235.48774536,0.11816825
2237.41655273,0.11805301
2239.34536011,0.11790034
2241.27416748,0.11778504
2243.20297485,0.11780596
2245.13178223,0.11743177
2247.06058960,0.11728358
2248.98939697,0.11720456
2250.91820435,0.11707823
2252.84701172,0.11682890
2254.77581909,0.11665682
2256.70462646,0.11636361
2258.63343384,0.11626573
2260.56224121,0.11607347
2262.49104858,0.11575970
2264.41985596,0.11587010
2266.34866333,0.11562571
2268.27747070,0.11557831
2270.20627808,0.11542831
2272.13508545,0.11524752
2274.06389282,0.11518061
2275.99270020,0.11497675
2277.92150757,0.11493103
2279.85031494,0.11469088
2281.77912231,0.11470134
2283.70792969,0.11450927
2285.63673706,0.11432514
2287.56554443,0.11411940
2289.49435181,0.11376720
2291.42315918,0.11350498
2293.35196655,0.11306196
2295.28077393,0.11289141
2297.20958130,0.11246321
2299.13838867,0.11214997
2301.06719604,0.11174457
2302.99600342,0.11110444
2304.92481079,0.11053143
2306.85361816,0.10968402
2308.78242554,0.10892233
2310.71123291,0.10793541
2312.64004028,0.10686976
2314.56884766,0.10574446
2316.49765503,0.10462972
2318.42646240,0.10306212
2320.35526978,0.10144760
2322.28407715,0.10016096
2324.21288452,0.09866349
2326.14169189,0.09762377
2328.07049927,0.09635292
2329.99930664,0.09511761
2331.92811401,0.09423609
2333.85692139,0.09384055
2335.78572876,0.09343136
2337.71453613,0.09307542
2339.64334351,0.09328526
2341.57215088,0.09342510
2343.50095825,0.09503638
2345.42976562,0.09678043
2347.35857300,0.10106790
2349.28738037,0.10503736
2351.21618774,0.10090747
2353.14499512,0.09549367
2355.07380249,0.09187259
2357.00260986,0.08874966
2358.93141724,0.08703920
2360.86022461,0.08588167
2362.78903198,0.08587544
2364.71783936,0.08626352
2366.64664673,0.08761419
2368.57545410,0.08936226
2370.50426147,0.09164063
2372.43306885,0.09461607
2374.36187622,0.09729283
2376.29068359,0.10023730
2378.21949097,0.10249784
2380.14829834,0.10449135
2382.07710571,0.10588189
2384.00591309,0.10644792
2385.93472046,0.10702899
2387.86352783,0.10713319
2389.79233521,0.10696693
2391.72114258,0.10689777
2393.64994995,0.10685471
2395.57875732,0.10655801
2397.50756470,0.10646889
2399.43637207,0.10631449
2401.36517944,0.10618663
2403.29398682,0.10617596
2405.22279419,0.10589574
2407.15160156,0.10584949
2409.08040894,0.10561195
2411.00921631,0.10549971
2412.93802368,0.10546376
2414.86683105,0.10523214
2416.79563843,0.10515618
2418.72444580,0.10505949
2420.65325317,0.10496861
2422.58206055,0.10472247
2424.51086792,0.10454902
2426.43967529,0.10449297
2428.36848267,0.10435130
2430.29729004,0.10417969
2432.22609741,0.10413527
2434.15490479,0.10397941
2436.08371216,0.10380773
2438.01251953,0.10378379
2439.94132690,0.10350884
2441.87013428,0.10341517
2443.79894165,0.10331173
2445.72774902,0.10314787
2447.65655640,0.10305583
2449.58536377,0.10286687
2451.51417114,0.10276473
2453.44297852,0.10262230
2455.37178589,0.10253414
2457.30059326,0.10237622
2459.22940063,0.10222328
2461.15820801,0.10202025
2463.08701538,0.10191935
2465.01582275,0.10187723
2466.94463013,0.10175870
2468.87343750,0.10174382
2470.80224487,0.10147335
2472.73105225,0.10141796
2474.65985962,0.10126832
2476.58866699,0.10104741
2478.51747437,0.10101487
2480.44628174,0.10082860
2482.37508911,0.10078925
2484.30389648,0.10050702
2486.23270386,0.10038009
2488.16151123,0.10037306
2490.09031860,0.10012706
2492.01912598,0.09996980
2493.94793335,0.09991369
2495.87674072,0.09981214
2497.80554810,0.09950453
2499.73435547,0.09946533
2501.66316284,0.09943043
2503.59197021,0.09926610
2505.52077759,0.09916855
2507.44958496,0.09904681
2509.37839233,0.09889486
2511.30719971,0.09877777
2513.23600708,0.09874438
2515.16481445,0.09859376
2517.09362183,0.09854950
2519.02242920,0.09823118
2520.95123657,0.09802594
2522.88004395,0.09805264
2524.80885132,0.09786108
2526.73765869,0.09784248
2528.66646606,0.09766096
2530.59527344,0.09761438
2532.52408081,0.09750278
2534.45288818,0.09730004
2536.38169556,0.09730196
2538.31050293,0.09707488
2540.23931030,0.09689581
2542.16811768,0.09686833
2544.09692505,0.09683400
2546.02573242,0.09658647
2547.95453979,0.09648566
2549.88334717,0.09632778
2551.81215454,0.09610790
2553.74096191,0.09609376
2555.66976929,0.09594974
2557.59857666,0.09592067
2559.52738403,0.09573618
2561.45619141,0.09566969
2563.38499878,0.09550867
2565.31380615,0.09525084
2567.24261353,0.09531049
2569.17142090,0.09513006
2571.10022827,0.09497994
2573.02903564,0.09484529
2574.95784302,0.09474076
2576.88665039,0.09457604
2578.81545776,0.09451330
2580.74426514,0.09445995
2582.67307251,0.09415624
2584.60187988,0.09410183
2586.53068726,0.09391710
2588.45949463,0.09384142
2590.38830200,0.09375037
2592.31710937,0.09356356
2594.24591675,0.09355745
2596.17472412,0.09342633
2598.10353149,0.09327918
2600.03233887,0.09310709
2601.96114624,0.09306537
2603.88995361,0.09288236
2605.81876099,0.09282395
2607.74756836,0.09282068
2609.67637573,0.09253742
2611.60518311,0.09236661
2613.53399048,0.09224564
2615.46279785,0.09221968
2617.39160522,0.09205140
2619.32041260,0.09197915
2621.24921997,0.09178413
2623.17802734,0.09162723
2625.10683472,0.09171049
2627.03564209,0.09140746
2628.96444946,0.09134410
2630.89325684,0.09114617
2632.82206421,0.09091002
2634.75087158,0.09100606
2636.67967895,0.09087500
2638.60848633,0.09072219
2640.53729370,0.09051044
2642.46610107,0.09036984
2644.39490845,0.09036991
2646.32371582,0.09026772
2648.25252319,0.09007950
2650.18133057,0.09006926
2652.11013794,0.08991326
2654.03894531,0.08969024
2655.96775269,0.08967047
2657.89656006,0.08938096
2659.82536743,0.08924878
2661.75417480,0.08925417
2663.68298218,0.08913076
2665.61178955,0.08897878
2667.54059692,0.08893190
2669.46940430,0.08889035
2671.39821167,0.08866200
2673.32701904,0.08855440
2675.25582642,0.08836898
2677.18463379,0.08832158
2679.11344116,0.08814244
2681.04224854,0.08794819
2682.97105591,0.08803429
2684.89986328,0.08775023
2686.82867065,0.08770911
2688.75747803,0.08769884
2690.68628540,0.08739927
2692.61509277,0.08724692
2694.54390015,0.08712146
2696.47270752,0.08705934
2698.40151489,0.08693482
2700.33032227,0.08676766
2702.25912964,0.08669154
2704.18793701,0.08659332
2706.11674438,0.08645540
2708.04555176,0.08641949
2709.97435913,0.08620107
2711.90316650,0.08602457
2713.83197388,0.08604659
2715.76078125,0.08588834
2717.68958862,0.08577341
2719.61839600,0.08560449
2721.54720337,0.08549860
2723.47601074,0.08543316
2725.40481812,0.08526877
2727.33362549,0.08507523
2729.26243286,0.08493823
2731.19124023,0.08489425
2733.12004761,0.08459502
2735.04885498,0.08453557
2736.97766235,0.08453186
2738.90646973,0.08430882
2740.83527710,0.08420251
2742.76408447,0.08410300
2744.69289185,0.08404528
2746.62169922,0.08382025
2748.55050659,0.08362372
2750.47931396,0.08348940
2752.40812134,0.08335431
2754.33692871,0.08329630
2756.26573608,0.08324637
2758.19454346,0.08312162
2760.12335083,0.08290674
2762.05215820,0.08281891
2763.98096558,0.08259182
2765.90977295,0.08251490
2767.83858032,0.08241361
2769.76738770,0.08218069
2771.69619507,0.08218960
2773.62500244,0.08196694
2775.55380981,0.08182347
2777.48261719,0.08177267
2779.41142456,0.08163917
2781.34023193,0.08150935
2783.26903931,0.08135539
2785.19784668,0.08125095
2787.12665405,0.08105165
2789.05546143,0.08089435
2790.98426880,0.08075232
2792.91307617,0.08067138
2794.84188354,0.08049954
2796.77069092,0.08027580
2798.69949829,0.08022007
2800.62830566,0.08009254
2802.55711304,0.07991926
2804.48592041,0.07979614
2806.41472778,0.07963739
2808.34353516,0.07942811
2810.27234253,0.07938057
2812.20114990,0.07917115
2814.12995728,0.07905310
2816.05876465,0.07907771
2817.98757202,0.07880144
2819.91637939,0.07872363
2821.84518677,0.07849330
2823.77399414,0.07823054
2825.70280151,0.07815268
2827.63160889,0.07804307
2829.56041626,0.07800760
2831.48922363,0.07778409
2833.41803101,0.07762162
2835.34683838,0.07745452
2837.27564575,0.07730424
2839.20445312,0.07707681
2841.13326050,0.07672440
2843.06206787,0.07652102
2844.99087524,0.07619613
2846.91968262,0.07581273
2848.84848999,0.07539283
2850.77729736,0.07513142
2852.70610474,0.07506194
2854.63491211,0.07506244
2856.56371948,0.07498439
2858.49252686,0.07477782
2860.42133423,0.07478523
2862.35014160,0.07474279
2864.27894897,0.07464885
2866.20775635,0.07452023
2868.13656372,0.07430542
2870.06537109,0.07420491
2871.99417847,0.07418399
2873.92298584,0.07406245
2875.85179321,0.07387547
2877.78060059,0.07384408
2879.70940796,0.07374674
2881.63821533,0.07366866
2883.56702270,0.07348618
2885.49583008,0.07326718
2887.42463745,0.07332033
2889.35344482,0.07321542
2891.28225220,0.07290558
2893.21105957,0.07272499
2895.13986694,0.07270716
2897.06867432,0.07246004
2898.99748169,0.07226107
2900.92628906,0.07211815
2902.85509644,0.07184407
2904.78390381,0.07175870
2906.71271118,0.07156545
2908.64151855,0.07134733
2910.57032593,0.07102227
2912.49913330,0.07067288
2914.42794067,0.07026150
2916.35674805,0.06980544
2918.28555542,0.06983557
2920.21436279,0.06973819
2922.14317017,0.06955793
2924.07197754,0.06950101
2926.00078491,0.06938334
2927.92959229,0.06938425
2929.85839966,0.06934385
2931.78720703,0.06922303
2933.71601440,0.06918480
2935.64482178,0.06928046
2937.57362915,0.06924000
2939.50243652,0.06924069
2941.43124390,0.06925265
2943.36005127,0.06920864
2945.28885864,0.06923411
2947.21766602,0.06898399
2949.14647339,0.06882084
2951.07528076,0.06883408
2953.00408813,0.06861044
2954.93289551,0.06832930
2956.86170288,0.06822158
2958.79051025,0.06800328
2960.71931763,0.06772625
2962.64812500,0.06765373
2964.57693237,0.06757316
2966.50573975,0.06751050
2968.43454712,0.06748147
2970.36335449,0.06761459
2972.29216187,0.06767268
2974.22096924,0.06757143
2976.14977661,0.06761213
2978.07858398,0.06760575
2980.00739136,0.06766973
2981.93619873,0.06764840
2983.86500610,0.06749135
2985.79381348,0.06746265
2987.72262085,0.06751695
2989.65142822,0.06748343
2991.58023560,0.06735776
2993.50904297,0.06723547
2995.43785034,0.06709248
2997.36665771,0.06707413
2999.29546509,0.06696674
3001.22427246,0.06684916
3003.15307983,0.06673411
3005.08188721,0.06651446
3007.01069458,0.06638166
3008.93950195,0.06626657
3010.86830933,0.06608133
3012.79711670,0.06581773
3014.72592407,0.06590097
3016.65473145,0.06578289
3018.58353882,0.06552387
3020.51234619,0.06557435
3022.44115356,0.06541458
3024.36996094,0.06534514
3026.29876831,0.06515779
3028.22757568,0.06502278
3030.15638306,0.06480145
3032.08519043,0.06453016
3034.01399780,0.06461183
3035.94280518,0.06446633
3037.87161255,0.06446370
3039.80041992,0.06428939
3041.72922729,0.06417288
3043.65803467,0.06420106
3045.58684204,0.06390452
3047.51564941,0.06377934
3049.44445679,0.06349055
3051.37326416,0.06340444
3053.30207153,0.06345515
3055.23087891,0.06320638
3057.15968628,0.06301975
3059.08849365,0.06298156
3061.01730103,0.06292246
3062.94610840,0.06278563
3064.87491577,0.06260798
3066.80372314,0.06232508
3068.73253052,0.06243153
3070.66133789,0.06238063
3072.59014526,0.06222481
3074.51895264,0.06225840
3076.44776001,0.06194294
3078.37656738,0.06187008
3080.30537476,0.06172403
3082.23418213,0.06158163
3084.16298950,0.06159203
3086.09179687,0.06145289
3088.02060425,0.06135369
3089.94941162,0.06117619
3091.87821899,0.06118821
3093.80702637,0.06099639
3095.73583374,0.06072601
3097.66464111,0.06076260
3099.59344849,0.06055336
3101.52225586,0.06019566
3103.45106323,0.06023863
3105.37987061,0.06032580
3107.30867798,0.06007027
3109.23748535,0.05992047
3111.16629272,0.05982783
3113.09510010,0.05975334
3115.02390747,0.05941569
3116.95271484,0.05910723
3118.88152222,0.05913777
3120.81032959,0.05893220
3122.73913696,0.05890203
3124.66794434,0.05886859
3126.59675171,0.05864535
3128.52555908,0.05855621
3130.45436645,0.05852453
3132.38317383,0.05829883
3134.31198120,0.05802076
3136.24078857,0.05798450
3138.16959595,0.05781645
3140.09840332,0.05761734
3142.02721069,0.05738646
3143.95601807,0.05741262
3145.88482544,0.05738736
3147.81363281,0.05710494
3149.74244019,0.05706409
3151.67124756,0.05676993
3153.60005493,0.05660891
3155.52886230,0.05652281
3157.45766968,0.05642329
3159.38647705,0.05627447
3161.31528442,0.05600528
3163.24409180,0.05599809
3165.17289917,0.05579260
3167.10170654,0.05566388
3169.03051392,0.05546221
3170.95932129,0.05531997
3172.88812866,0.05520874
3174.81693604,0.05503207
3176.74574341,0.05498666
3178.67455078,0.05461175
3180.60335815,0.05463701
3182.53216553,0.05453159
3184.46097290,0.05427108
3186.38978027,0.05427491
3188.31858765,0.05414329
3190.24739502,0.05408309
3192.17620239,0.05380338
3194.10500977,0.05370371
3196.03381714,0.05356563
3197.96262451,0.05341753
3199.89143188,0.05343228
3201.82023926,0.05333178
3203.74904663,0.05313936
3205.67785400,0.05296705
3207.60666138,0.05304829
3209.53546875,0.05270014
3211.46427612,0.05260514
3213.39308350,0.05259468
3215.32189087,0.05242921
3217.25069824,0.05252645
3219.17950562,0.05216990
3221.10831299,0.05215485
3223.03712036,0.05214616
3224.96592773,0.05196671
3226.89473511,0.05190888
3228.82354248,0.05175997
3230.75234985,0.05173010
3232.68115723,0.05154201
3234.60996460,0.05156352
3236.53877197,0.05152477
3238.46757935,0.05138600
3240.39638672,0.05130102
3242.32519409,0.05123030
3244.25400146,0.05110693
3246.18280884,0.05096081
3248.11161621,0.05108465
3250.04042358,0.05095167
3251.96923096,0.05096621
3253.89803833,0.05086557
3255.82684570,0.05067734
3257.75565308,0.05079309
3259.68446045,0.05068428
3261.61326782,0.05068856
3263.54207520,0.05059794
3265.47088257,0.05047352
3267.39968994,0.05037450
3269.32849731,0.05030011
3271.25730469,0.05019620
3273.18611206,0.05004355
3275.11491943,0.05007790
3277.04372681,0.04997554
3278.97253418,0.05010536
3280.90134155,0.05001206
3282.83014893,0.04979169
3284.75895630,0.04988892
3286.68776367,0.04979027
3288.61657104,0.04976082
3290.54537842,0.04960494
3292.47418579,0.04940522
3294.40299316,0.04951094
3296.33180054,0.04948264
3298.26060791,0.04934446
3300.18941528,0.04945857
3302.11822266,0.04936191
3304.04703003,0.04920877
3305.97583740,0.04917279
3307.90464478,0.04894921
3309.83345215,0.04901876
3311.76225952,0.04903957
3313.69106689,0.04891380
3315.61987427,0.04882520
3317.54868164,0.04880941
3319.47748901,0.04875178
3321.40629639,0.04866153
3323.33510376,0.04866928
3325.26391113,0.04837196
3327.19271851,0.04843390
3329.12152588,0.04837381
3331.05033325,0.04827996
3332.97914062,0.04844761
3334.90794800,0.04813991
3336.83675537,0.04799101
3338.76556274,0.04787073
3340.69437012,0.04794003
3342.62317749,0.04787761
3344.55198486,0.04771937
3346.48079224,0.04780387
3348.40959961,0.04764000
3350.33840698,0.04760348
3352.26721436,0.04756726
3354.19602173,0.04752349
3356.12482910,0.04727338
3358.05363647,0.04721258
3359.98244385,0.04712778
3361.91125122,0.04693548
3363.84005859,0.04705562
3365.76886597,0.04686486
3367.69767334,0.04679759
3369.62648071,0.04660098
3371.55528809,0.04667282
3373.48409546,0.04669888
3375.41290283,0.04652458
3377.34171020,0.04654076
3379.27051758,0.04626600
3381.19932495,0.04641292
3383.12813232,0.04610815
3385.05693970,0.04593774
3386.98574707,0.04595459
3388.91455444,0.04591554
3390.84336182,0.04602020
3392.77216919,0.04547813
3394.70097656,0.04561811
3396.62978394,0.04549045
3398.55859131,0.04530752
3400.48739868,0.04533945
3402.41620605,0.04512160
3404.34501343,0.04526480
3406.27382080,0.04505709
3408.20262817,0.04511598
3410.13143555,0.04494940
3412.06024292,0.04487890
3413.98905029,0.04486931
3415.91785767,0.04477099
3417.84666504,0.04480727
3419.77547241,0.04427663
3421.70427979,0.04427732
3423.63308716,0.04432507
3425.56189453,0.04442810
3427.49070190,0.04434932
3429.41950928,0.04419196
3431.34831665,0.04420356
3433.27712402,0.04389803
3435.20593140,0.04396479
3437.13473877,0.04367405
3439.06354614,0.04381870
3440.99235352,0.04368538
3442.92116089,0.04338382
3444.84996826,0.04366015
3446.77877563,0.04307551
3448.70758301,0.04308969
3450.63639038,0.04347435
3452.56519775,0.04346791
3454.49400513,0.04336508
3456.42281250,0.04324135
3458.35161987,0.04315732
3460.28042725,0.04300246
3462.20923462,0.04287067
3464.13804199,0.04278142
3466.06684937,0.04296388
3467.99565674,0.04272864
3469.92446411,0.04279219
3471.85327148,0.04286104
3473.78207886,0.04265048
3475.71088623,0.04267909
3477.63969360,0.04261412
3479.56850098,0.04260514
3481.49730835,0.04205909
3483.42611572,0.04225684
3485.35492310,0.04254470
3487.28373047,0.04223724
3489.21253784,0.04228291
3491.14134521,0.04234580
3493.07015259,0.04249229
3494.99895996,0.04220651
3496.92776733,0.04220216
3498.85657471,0.04224247
3500.78538208,0.04214042
3502.71418945,0.04144283
3504.64299683,0.04135242
3506.57180420,0.04241769
3508.50061157,0.04170290
3510.42941895,0.04160938
3512.35822632,0.04208958
3514.28703369,0.04206591
3516.21584106,0.04220421
3518.14464844,0.04178549
3520.07345581,0.04201610
3522.00226318,0.04159112
3523.93107056,0.04103804
3525.85987793,0.04120722
3527.78868530,0.04116339
3529.71749268,0.04128613
3531.64630005,0.04175635
3533.57510742,0.04210731
3535.50391479,0.04150071
3537.43272217,0.04134628
3539.36152954,0.04185363
3541.29033691,0.04181628
3543.21914429,0.04146292
3545.14795166,0.04055073
3547.07675903,0.03987507
3549.00556641,0.04128680
3550.93437378,0.04160945
3552.86318115,0.04052568
3554.79198853,0.04144778
3556.72079590,0.04156472
3558.64960327,0.04141586
3560.57841064,0.04111127
3562.50721802,0.04080075
3564.43602539,0.04114876
3566.36483276,0.03827552
3568.29364014,0.03735793
3570.22244751,0.04052558
3572.15125488,0.04164903
3574.08006226,0.04105404
3576.00886963,0.04127896
3577.93767700,0.04118349
3579.86648437,0.04095688
3581.79529175,0.04110689
3583.72409912,0.04112455
3585.65290649,0.04028849
3587.58171387,0.03700597
3589.51052124,0.03795641
3591.43932861,0.04136184
3593.36813599,0.04014789
3595.29694336,0.03947293
3597.22575073,0.04020099
3599.15455811,0.04060480
3601.08336548,0.04021095
3603.01217285,0.04053577
3604.94098022,0.04135862
3606.86978760,0.03982633
3608.79859497,0.03742383
3610.72740234,0.03821752
3612.65620972,0.03909657
3614.58501709,0.03790725
3616.51382446,0.04074722
3618.44263184,0.03768849
3620.37143921,0.03621740
3622.30024658,0.04111758
3624.22905395,0.03992087
3626.15786133,0.04182382
3628.08666870,0.03541619
3630.01547607,0.03187963
3631.94428345,0.04056940
3633.87309082,0.03953293
3635.80189819,0.04011048
3637.73070557,0.04110860
3639.65951294,0.04043896
3641.58832031,0.04078329
3643.51712769,0.04013096
3645.44593506,0.04063219
3647.37474243,0.03641213
3649.30354980,0.03329080
3651.23235718,0.03368738
3653.16116455,0.04014995
3655.08997192,0.03981514
3657.01877930,0.03545573
3658.94758667,0.04090925
3660.87639404,0.04002257
3662.80520142,0.04057264
3664.73400879,0.04045866
3666.66281616,0.03999157
3668.59162354,0.03898012
3670.52043091,0.03152720
3672.44923828,0.03838262
3674.37804565,0.03659190
3676.30685303,0.02989331
3678.23566040,0.03801563
3680.16446777,0.03905068
3682.09327515,0.03914092
3684.02208252,0.04027430
3685.95088989,0.03948704
3687.87969727,0.03555299
3689.80850464,0.03247374
3691.73731201,0.03715781
3693.66611938,0.03838864
3695.59492676,0.03928599
3697.52373413,0.03921832
3699.45254150,0.03881579
3701.38134888,0.03784950
3703.31015625,0.03635257
3705.23896362,0.04008025
3707.16777100,0.03809276
3709.09657837,0.03708667
3711.02538574,0.03496438
3712.95419312,0.03263085
3714.88300049,0.03839121
3716.81180786,0.03797175
3718.74061523,0.03816157
3720.66942261,0.03735268
3722.59822998,0.03604201
3724.52703735,0.03739323
3726.45584473,0.03462589
3728.38465210,0.03756843
3730.31345947,0.03723779
3732.24226685,0.03409518
3734.17107422,0.03331894
3736.09988159,0.03159387
3738.02868896,0.03340044
3739.95749634,0.03630758
3741.88630371,0.03803240
3743.81511108,0.02948691
3745.74391846,0.02768659
3747.67272583,0.03623976
3749.60153320,0.03110852
3751.53034058,0.02835025
3753.45914795,0.03297998
3755.38795532,0.03553510
3757.31676270,0.03690293
3759.24557007,0.03418206
3761.17437744,0.03531764
3763.10318481,0.03771920
3765.03199219,0.03509831
3766.96079956,0.03581527
3768.88960693,0.03550973
3770.81841431,0.03366403
3772.74722168,0.03660649
3774.67602905,0.03680019
3776.60483643,0.03667476
3778.53364380,0.03561720
3780.46245117,0.03416176
3782.39125854,0.03659601
3784.32006592,0.03574613
3786.24887329,0.03546204
3788.17768066,0.03634065
3790.10648804,0.03614250
3792.03529541,0.03588919
3793.96410278,0.03645495
3795.89291016,0.03427720
3797.82171753,0.03371964
3799.75052490,0.03561161
3801.67933228,0.02814754
3803.60813965,0.03286914
3805.53694702,0.03597780
3807.46575439,0.02919298
3809.39456177,0.03549732
3811.32336914,0.03483432
3813.25217651,0.03590864
3815.18098389,0.03256731
3817.10979126,0.02828268
3819.03859863,0.03593180
3820.96740601,0.02894570
3822.89621338,0.03034379
3824.82502075,0.03586420
3826.75382812,0.03225842
3828.68263550,0.03482607
3830.61144287,0.03354295
3832.54025024,0.03227607
3834.46905762,0.03301749
3836.39786499,0.03135638
3838.32667236,0.02828514
3840.25547974,0.03055327
3842.18428711,0.03300245
3844.11309448,0.03157062
3846.04190186,0.03420850
3847.97070923,0.03365281
3849.89951660,0.03374435
3851.82832397,0.03028616
3853.75713135,0.02243275
3855.68593872,0.02665823
3857.61474609,0.03368144
3859.54355347,0.03292745
3861.47236084,0.03245373
3863.40116821,0.03174511
3865.32997559,0.02943660
3867.25878296,0.03293448
3869.18759033,0.03013981
3871.11639770,0.02773526
3873.04520508,0.03314453
3874.97401245,0.03030199
3876.90281982,0.03270691
3878.83162720,0.03355781
3880.76043457,0.02855922
3882.68924194,0.03299491
3884.61804932,0.03083917
3886.54685669,0.02810548
3888.47566406,0.03304160
3890.40447144,0.03131980
3892.33327881,0.02929723
3894.26208618,0.03217916
3896.19089355,0.03282339
3898.11970093,0.03115660
3900.04850830,0.02938158
3901.97731567,0.02903167
3903.90612305,0.02879207
3905.83493042,0.02923935
3907.76373779,0.03214081
3909.69254517,0.03220873
3911.62135254,0.03182291
3913.55015991,0.03244394
3915.47896728,0.03120149
3917.40777466,0.03038183
3919.33658203,0.03023891
3921.26538940,0.03123207
3923.19419678,0.03113192
3925.12300415,0.03052919
3927.05181152,0.03111097
3928.98061890,0.03143310
3930.90942627,0.03076616
3932.83823364,0.02969413
3934.76704102,0.03096139
3936.69584839,0.03131744
3938.62465576,0.03097255
3940.55346313,0.03125048
3942.48227051,0.02996882
3944.41107788,0.03023978
3946.33988525,0.03091970
3948.26869263,0.03010452
3950.19750000,0.03009093
3952.12630737,0.03064450
3954.05511475,0.03055090
3955.98392212,0.03047410
3957.91272949,0.03048140
3959.84153687,0.03044660
3961.77034424,0.03028148
3963.69915161,0.03013586
3965.62795898,0.03046373
3967.55676636,0.03019544
3969.48557373,0.03014405
3971.41438110,0.03008630
3973.34318848,0.02987207
3975.27199585,0.02991309
3977.20080322,0.02972260
3979.12961060,0.02988492
3981.05841797,0.02972224
3982.98722534,0.02982404
3984.91603271,0.02970121
3986.84484009,0.02961524
3988.77364746,0.02974186
3990.70245483,0.02935168
3992.63126221,0.02955654
3994.56006958,0.02934855
3996.48887695,0.02929525
3998.41768433,0.02931707
4000.34649170,0.02922489
4002.27529907,0.02925681
4004.20410645,0.02907035
4006.13291382,0.02928552
4008.06172119,0.02899627
4009.99052856,0.02889284
4011.91933594,0.02887195
4013.84814331,0.02880084
4015.77695068,0.02874418
4017.70575806,0.02860350
4019.63456543,0.02877470
4021.56337280,0.02861345
4023.49218018,0.02867496
4025.42098755,0.02843892
4027.34979492,0.02839255
4029.27860229,0.02844829
4031.20740967,0.02826776
4033.13621704,0.02832175
4035.06502441,0.02813475
4036.99383179,0.02827932
4038.92263916,0.02810452
4040.85144653,0.02805038
4042.78025391,0.02800456
4044.70906128,0.02786315
4046.63786865,0.02797496
4048.56667603,0.02779458
4050.49548340,0.02780775
4052.42429077,0.02766092
4054.35309814,0.02775867
4056.28190552,0.02758139
4058.21071289,0.02746173
4060.13952026,0.02757111
4062.06832764,0.02740054
4063.99713501,0.02760206
4065.92594238,0.02732993
4067.85474976,0.02722644
4069.78355713,0.02721526
4071.71236450,0.02715435
4073.64117187,0.02711999
4075.56997925,0.02698991
4077.49878662,0.02702017
4079.42759399,0.02677943
4081.35640137,0.02695180
4083.28520874,0.02685332
4085.21401611,0.02676829
4087.14282349,0.02675802
4089.07163086,0.02658440
4091.00043823,0.02666857
4092.92924561,0.02648180
4094.85805298,0.02657482
4096.78686035,0.02644090
4098.71566772,0.02637509
4100.64447510,0.02636965
4102.57328247,0.02625888
4104.50208984,0.02630756
4106.43089722,0.02608885
4108.35970459,0.02616176
4110.28851196,0.02616995
4112.21731934,0.02609966
4114.14612671,0.02594418
4116.07493408,0.02593821
4118.00374145,0.02588521
4119.93254883,0.02577453
4121.86135620,0.02592579
4123.79016357,0.02570317
4125.71897095,0.02571849
4127.64777832,0.02556991
4129.57658569,0.02555167
4131.50539307,0.02558454
4133.43420044,0.02536044
4135.36300781,0.02542496
4137.29181519,0.02524402
4139.22062256,0.02524789
4141.14942993,0.02517310
4143.07823730,0.02519705
4145.00704468,0.02517239
4146.93585205,0.02504844
4148.86465942,0.02506608
4150.79346680,0.02491421
4152.72227417,0.02501251
4154.65108154,0.02483443
4156.57988892,0.02489680
4158.50869629,0.02485150
4160.43750366,0.02464883
4162.36631103,0.02474822
4164.29511841,0.02459021
4166.22392578,0.02453468
4168.15273315,0.02442095
4170.08154053,0.02453793
4172.01034790,0.02439699
4173.93915527,0.02427972
4175.86796265,0.02437590
4177.79677002,0.02424826
4179.72557739,0.02433604
4181.65438477,0.02416539
4183.58319214,0.02419506
4185.51199951,0.02409963
4187.44080688,0.02396336
4189.36961426,0.02402982
4191.29842163,0.02389366
4193.22722900,0.02381990
4195.15603638,0.02373701
4197.08484375,0.02385867
4199.01365112,0.02371065
4200.94245850,0.02365283
4202.87126587,0.02363615
4204.80007324,0.02356036
4206.72888062,0.02360995
4208.65768799,0.02340706
4210.58649536,0.02344899
4212.51530273,0.02335265
4214.44411011,0.02334871
4216.37291748,0.02329444
4218.30172485,0.02316492
4220.23053223,0.02318995
4222.15933960,0.02305489
4224.08814697,0.02318044
4226.01695435,0.02307355
4227.94576172,0.02297633
4229.87456909,0.02290492
4231.80337646,0.02280792
4233.73218384,0.02285707
4235.66099121,0.02276866
4237.58979858,0.02277634
4239.51860596,0.02268118
4241.44741333,0.02268584
4243.37622070,0.02264870
4245.30502808,0.02255747
4247.23383545,0.02250911
4249.16264282,0.02243341
4251.09145020,0.02242038
4253.02025757,0.02236396
4254.94906494,0.02238859
4256.87787231,0.02226357
4258.80667969,0.02219534
4260.73548706,0.02216949
4262.66429443,0.02210973
4264.59310181,0.02206448
4266.52190918,0.02204562
4268.45071655,0.02199835
4270.37952393,0.02189907
4272.30833130,0.02201306
4274.23713867,0.02184757
4276.16594604,0.02176999
4278.09475342,0.02175000
4280.02356079,0.02174402
4281.95236816,0.02180468
4283.88117554,0.02159607
4285.80998291,0.02164687
4287.73879028,0.02153129
4289.66759766,0.02149356
4291.59640503,0.02142880
4293.52521240,0.02132988
4295.45401978,0.02142129
4297.38282715,0.02121146
4299.31163452,0.02122032
4301.24044189,0.02123445
4303.16924927,0.02123580
4305.09805664,0.02112114
4307.02686401,0.02104044
4308.95567139,0.02102189
4310.88447876,0.02093484
4312.81328613,0.02102511
4314.74209351,0.02086212
4316.67090088,0.02095954
4318.59970825,0.02080476
4320.52851562,0.02061399
4322.45732300,0.02075655
4324.38613037,0.02064388
4326.31493774,0.02068902
4328.24374512,0.02059879
4330.17255249,0.02061055
4332.10135986,0.02057316
4334.03016724,0.02047638
4335.95897461,0.02043222
4337.88778198,0.02033055
4339.81658936,0.02037391
4341.74539673,0.02024460
4343.67420410,0.02022873
4345.60301147,0.02017184
4347.53181885,0.02015681
4349.46062622,0.02008170
4351.38943359,0.02003010
4353.31824097,0.02005818
4355.24704834,0.01989630
4357.17585571,0.02000919
4359.10466309,0.01991644
4361.03347046,0.01987305
4362.96227783,0.01986453
4364.89108520,0.01979787
4366.81989258,0.01980138
4368.74869995,0.01963836
4370.67750732,0.01965239
4372.60631470,0.01954488
4374.53512207,0.01961188
4376.46392944,0.01955299
4378.39273682,0.01941963
4380.32154419,0.01949148
4382.25035156,0.01934896
4384.17915894,0.01933725
4386.10796631,0.01926615
4388.03677368,0.01926742
4389.96558105,0.01923612
4391.89438843,0.01922853
4393.82319580,0.01925258
4395.75200317,0.01907424
4397.68081055,0.01898176
4399.60961792,0.01893348
4401.53842529,0.01903483
4403.46723267,0.01893118
4405.39604004,0.01889947
4407.32484741,0.01892964
4409.25365478,0.01871447
4411.18246216,0.01874004
4413.11126953,0.01878073
4415.04007690,0.01870604
4416.96888428,0.01866536
4418.89769165,0.01861637
4420.82649902,0.01851464
4422.75530640,0.01855946
4424.68411377,0.01848242
4426.61292114,0.01843092
4428.54172852,0.01848983
4430.47053589,0.01837545
4432.39934326,0.01839009
4434.32815063,0.01823903
4436.25695801,0.01825544
4438.18576538,0.01824723
4440.11457275,0.01811412
4442.04338013,0.01816681
4443.97218750,0.01811467
4445.90099487,0.01812721
4447.82980225,0.01798842
4449.75860962,0.01803776
4451.68741699,0.01797700
4453.61622437,0.01789523
4455.54503174,0.01793374
4457.47383911,0.01774017
4459.40264648,0.01779183
4461.33145386,0.01768112
4463.26026123,0.01774686
4465.18906860,0.01771174
4467.11787598,0.01760998
4469.04668335,0.01765245
4470.97549072,0.01743231
4472.90429810,0.01757107
4474.83310547,0.01745584
4476.76191284,0.01737164
4478.69072021,0.01742729
4480.61952759,0.01732686
4482.54833496,0.01732979
4484.47714233,0.01721260
4486.40594971,0.01728795
4488.33475708,0.01721489
4490.26356445,0.01713736
4492.19237183,0.01710670
4494.12117920,0.01704325
4496.04998657,0.01704575
4497.97879395,0.01696749
4499.90760132,0.01699401
4501.83640869,0.01691759
4503.76521606,0.01694030
4505.69402344,0.01692144
4507.62283081,0.01682165
4509.55163818,0.01676667
4511.48044556,0.01671227
4513.40925293,0.01671352
4515.33806030,0.01662045
4517.26686768,0.01662117
4519.19567505,0.01656601
4521.12448242,0.01652746
4523.05328979,0.01646303
4524.98209717,0.01645344
4526.91090454,0.01649911
4528.83971191,0.01632385
4530.76851929,0.01628240
4532.69732666,0.01632552
4534.62613403,0.01635581
4536.55494141,0.01626812
4538.48374878,0.01627595
4540.41255615,0.01628155
4542.34136353,0.01614717
4544.27017090,0.01616606
4546.19897827,0.01611436
4548.12778564,0.01608251
4550.05659302,0.01596355
4551.98540039,0.01589090
4553.91420776,0.01594106
4555.84301514,0.01593405
4557.77182251,0.01584004
4559.70062988,0.01576568
4561.62943726,0.01585620
4563.55824463,0.01570625
4565.48705200,0.01565355
4567.41585937,0.01569549
4569.34466675,0.01563323
4571.27347412,0.01555367
4573.20228149,0.01550292
4575.13108887,0.01558332
4577.05989624,0.01545723
4578.98870361,0.01543614
4580.91751099,0.01541048
4582.84631836,0.01535999
4584.77512573,0.01531724
4586.70393311,0.01521625
4588.63274048,0.01530134
4590.56154785,0.01525531
4592.49035522,0.01522780
4594.41916260,0.01512861
4596.34796997,0.01512054
4598.27677734,0.01512017
4600.20558472,0.01502768
4602.13439209,0.01508399
4604.06319946,0.01495643
4605.99200684,0.01499077
4607.92081421,0.01495824
4609.84962158,0.01486733
4611.77842895,0.01486636
4613.70723633,0.01479520
4615.63604370,0.01482367
4617.56485107,0.01473325
4619.49365845,0.01470354
4621.42246582,0.01464085
4623.35127319,0.01460403
4625.28008057,0.01460152
4627.20888794,0.01453359
4629.13769531,0.01454678
4631.06650269,0.01451181
4632.99531006,0.01451458
4634.92411743,0.01446566
4636.85292480,0.01440033
4638.78173218,0.01434225
4640.71053955,0.01437283
4642.63934692,0.01437532
4644.56815430,0.01428235
4646.49696167,0.01424995
4648.42576904,0.01423164
4650.35457642,0.01429495
4652.28338379,0.01417094
4654.21219116,0.01417177
4656.14099853,0.01417771
4658.06980591,0.01403974
4659.99861328,0.01407066
4661.92742065,0.01400300
4663.85622803,0.01404115
4665.78503540,0.01397603
4667.71384277,0.01387384
4669.64265015,0.01384318
4671.57145752,0.01377600
4673.50026489,0.01382851
4675.42907227,0.01377521
4677.35787964,0.01377990
4679.28668701,0.01373748
4681.21549438,0.01368758
4683.14430176,0.01366794
4685.07310913,0.01359531
4687.00191650,0.01357922
4688.93072388,0.01351066
4690.85953125,0.01351522
4692.78833862,0.01346505
4694.71714600,0.01345439
4696.64595337,0.01345749
4698.57476074,0.01340315
4700.50356812,0.01345164
4702.43237549,0.01339198
4704.36118286,0.01337770
4706.28999023,0.01335866
4708.21879761,0.01322764
4710.14760498,0.01326145
4712.07641235,0.01325869
4714.00521973,0.01317283
4715.93402710,0.01324226
4717.86283447,0.01318588
4719.79164185,0.01310346
4721.72044922,0.01312479
4723.64925659,0.01302731
4725.57806396,0.01298694
4727.50687134,0.01295288
4729.43567871,0.01292041
4731.36448608,0.01290503
4733.29329346,0.01287096
4735.22210083,0.01286235
4737.15090820,0.01284876
4739.07971558,0.01282358
4741.00852295,0.01276567
4742.93733032,0.01277093
4744.86613770,0.01271234
4746.79494507,0.01269783
4748.72375244,0.01267412
4750.65255981,0.01262723
4752.58136719,0.01265180
4754.51017456,0.01253956
4756.43898193,0.01251684
4758.36778931,0.01250435
4760.29659668,0.01249935
4762.22540405,0.01245686
4764.15421143,0.01243874
4766.08301880,0.01250614
4768.01182617,0.01237935
4769.94063354,0.01229998
4771.86944092,0.01227534
4773.79824829,0.01233163
4775.72705566,0.01223655
4777.65586304,0.01220084
4779.58467041,0.01226893
4781.51347778,0.01210713
4783.44228516,0.01218778
4785.37109253,0.01213654
4787.29989990,0.01207437
4789.22870728,0.01212495
4791.15751465,0.01208012
4793.08632202,0.01204676
4795.01512939,0.01187641
4796.94393677,0.01192279
4798.87274414,0.01199026
4800.80155151,0.01196440
4802.73035889,0.01187412
4804.65916626,0.01179503
4806.58797363,0.01182014
4808.51678101,0.01179742
4810.44558838,0.01180272
4812.37439575,0.01172832
4814.30320312,0.01174218
4816.23201050,0.01172378
4818.16081787,0.01170171
4820.08962524,0.01163610
4822.01843262,0.01157994
4823.94723999,0.01165282
4825.87604736,0.01151520
4827.80485474,0.01149020
4829.73366211,0.01147968
4831.66246948,0.01148816
4833.59127686,0.01144701
4835.52008423,0.01142116
4837.44889160,0.01148948
4839.37769897,0.01137821
4841.30650635,0.01144595
4843.23531372,0.01130133
4845.16412109,0.01126153
4847.09292847,0.01130743
4849.02173584,0.01113205
4850.95054321,0.01120911
4852.87935059,0.01117111
4854.80815796,0.01117665
4856.73696533,0.01115967
4858.66577270,0.01105690
4860.59458008,0.01101533
4862.52338745,0.01101474
4864.45219482,0.01105352
4866.38100220,0.01103703
4868.30980957,0.01105536
4870.23861694,0.01091438
4872.16742432,0.01093335
4874.09623169,0.01093561
4876.02503906,0.01085624
4877.95384644,0.01088402
4879.88265381,0.01080236
4881.81146118,0.01081558
4883.74026855,0.01076878
4885.66907593,0.01077026
4887.59788330,0.01074252
4889.52669067,0.01069605
4891.45549805,0.01069860
4893.38430542,0.01067015
4895.31311279,0.01066420
4897.24192017,0.01052007
4899.17072754,0.01057924
4901.09953491,0.01060803
4903.02834228,0.01057406
4904.95714966,0.01058302
4906.88595703,0.01050606
4908.81476440,0.01046494
4910.74357178,0.01036595
4912.67237915,0.01040135
4914.60118652,0.01037084
4916.52999390,0.01031730
4918.45880127,0.01027085
4920.38760864,0.01026706
4922.31641602,0.01032371
4924.24522339,0.01019952
4926.17403076,0.01025810
4928.10283813,0.01024035
4930.03164551,0.01012606
4931.96045288,0.01014007
4933.88926025,0.01016465
4935.81806763,0.01016759
4937.74687500,0.01009508
4939.67568237,0.01004208
4941.60448975,0.00998245
4943.53329712,0.01000355
4945.46210449,0.00995271
4947.39091187,0.00991216
4949.31971924,0.00995545
4951.24852661,0.00993288
4953.17733398,0.00989324
4955.10614136,0.00986163
4957.03494873,0.00984110
4958.96375610,0.00975598
4960.89256348,0.00980924
4962.82137085,0.00976871
4964.75017822,0.00974716
4966.67898560,0.00977013
4968.60779297,0.00967878
4970.53660034,0.00979078
4972.46540771,0.00974299
4974.39421509,0.00965381
4976.32302246,0.00957720
4978.25182983,0.00957247
4980.18063721,0.00958586
4982.10944458,0.00949762
4984.03825195,0.00959261
4985.96705933,0.00948608
4987.89586670,0.00941800
4989.82467407,0.00940259
4991.75348145,0.00940940
4993.68228882,0.00941019
4995.61109619,0.00932011
4997.53990356,0.00942579
4999.46871094,0.00936120
5001.39751831,0.00936623
5003.32632568,0.00931406
5005.25513306,0.00921400
5007.18394043,0.00923702
5009.11274780,0.00919817
5011.04155518,0.00926258
5012.97036255,0.00915685
5014.89916992,0.00916369
5016.82797729,0.00916740
5018.75678467,0.00909709
5020.68559204,0.00911050
5022.61439941,0.00905373
5024.54320679,0.00908340
5026.47201416,0.00902178
5028.40082153,0.00904507
5030.32962891,0.00896812
5032.25843628,0.00885643
5034.18724365,0.00894809
5036.11605103,0.00886994
5038.04485840,0.00882787
5039.97366577,0.00888457
5041.90247314,0.00890397
5043.83128052,0.00888875
5045.76008789,0.00888723
5047.68889526,0.00888324
5049.61770264,0.00883911
5051.54651001,0.00878377
5053.47531738,0.00876337
5055.40412476,0.00872805
5057.33293213,0.00867506
5059.26173950,0.00868346
5061.19054687,0.00861569
5063.11935425,0.00862412
5065.04816162,0.00859272
5066.97696899,0.00856104
5068.90577637,0.00853949
5070.83458374,0.00844904
5072.76339111,0.00855573
5074.69219849,0.00848779
5076.62100586,0.00844994
5078.54981323,0.00847493
5080.47862061,0.00841109
5082.40742798,0.00842441
5084.33623535,0.00839498
5086.26504272,0.00843241
5088.19385010,0.00834896
5090.12265747,0.00833665
5092.05146484,0.00831637
5093.98027222,0.00826621
5095.90907959,0.00835927
5097.83788696,0.00831090
5099.76669434,0.00826484
5101.69550171,0.00826178
5103.62430908,0.00830349
5105.55311645,0.00818115
5107.48192383,0.00815265
5109.41073120,0.00817883
5111.33953857,0.00812173
5113.26834595,0.00822804
5115.19715332,0.00804697
5117.12596069,0.00807847
5119.05476807,0.00811717
5120.98357544,0.00796084
5122.91238281,0.00803784
5124.84119019,0.00798607
5126.76999756,0.00801114
5128.69880493,0.00791534
5130.62761230,0.00788767
5132.55641968,0.00795399
5134.48522705,0.00787558
5136.41403442,0.00794945
5138.34284180,0.00787776
5140.27164917,0.00788037
5142.20045654,0.00792823
5144.12926392,0.00788715
5146.05807129,0.00787446
5147.98687866,0.00775786
5149.91568603,0.00773570
5151.84449341,0.00773737
5153.77330078,0.00773112
5155.70210815,0.00770062
5157.63091553,0.00764744
5159.55972290,0.00767858
5161.48853027,0.00760131
5163.41733765,0.00750363
5165.34614502,0.00755365
5167.27495239,0.00758807
5169.20375977,0.00754967
5171.13256714,0.00751345
5173.06137451,0.00745050
5174.99018188,0.00745997
5176.91898926,0.00756245
5178.84779663,0.00747184
5180.77660400,0.00735438
5182.70541138,0.00743630
5184.63421875,0.00739207
5186.56302612,0.00737105
5188.49183350,0.00740553
5190.42064087,0.00727900
5192.34944824,0.00734507
5194.27825562,0.00739011
5196.20706299,0.00722725
5198.13587036,0.00721264
5200.06467773,0.00729564
5201.99348511,0.00730806
5203.92229248,0.00724796
5205.85109985,0.00711004
5207.77990723,0.00703091
5209.70871460,0.00711061
5211.63752197,0.00711196
5213.56632935,0.00713419
5215.49513672,0.00716235
5217.42394409,0.00710761
5219.35275146,0.00711551
5221.28155884,0.00711645
5223.21036621,0.00715710
5225.13917358,0.00697254
5227.06798096,0.00687823
5228.99678833,0.00704985
5230.92559570,0.00701545
5232.85440308,0.00701214
5234.78321045,0.00701360
5236.71201782,0.00699818
5238.64082520,0.00691886
5240.56963257,0.00691425
5242.49843994,0.00698802
5244.42724731,0.00680916
5246.35605469,0.00679727
5248.28486206,0.00673197
5250.21366943,0.00676813
5252.14247681,0.00695202
5254.07128418,0.00669826
5256.00009155,0.00669143
5257.92889893,0.00683669
5259.85770630,0.00675722
5261.78651367,0.00675785
5263.71532104,0.00668227
5265.64412842,0.00663718
5267.57293579,0.00663511
5269.50174316,0.00659554
5271.43055054,0.00665980
5273.35935791,0.00670021
5275.28816528,0.00671617
5277.21697266,0.00672360
5279.14578003,0.00666131
5281.07458740,0.00664967
5283.00339478,0.00659112
5284.93220215,0.00651360
5286.86100952,0.00655283
5288.78981689,0.00653736
5290.71862427,0.00647974
5292.64743164,0.00649583
5294.57623901,0.00654196
5296.50504639,0.00650309
5298.43385376,0.00646518
5300.36266113,0.00646905
5302.29146851,0.00638183
5304.22027588,0.00645163
5306.14908325,0.00647264
5308.07789062,0.00630105
5310.00669800,0.00637972
5311.93550537,0.00641180
5313.86431274,0.00634673
5315.79312012,0.00633086
5317.72192749,0.00630496
5319.65073486,0.00632931
5321.57954224,0.00625779
5323.50834961,0.00637263
5325.43715698,0.00627375
5327.36596436,0.00602543
5329.29477173,0.00622196
5331.22357910,0.00618138
5333.15238647,0.00606792
5335.08119385,0.00618345
5337.01000122,0.00612524
5338.93880859,0.00587468
5340.86761597,0.00598462
5342.79642334,0.00610571
5344.72523071,0.00577021
5346.65403809,0.00597352
5348.58284546,0.00605955
5350.51165283,0.00597282
5352.44046020,0.00606462
5354.36926758,0.00577623
5356.29807495,0.00595870
5358.22688232,0.00602911
5360.15568970,0.00588951
5362.08449707,0.00594849
5364.01330444,0.00586964
5365.94211182,0.00597577
5367.87091919,0.00595645
5369.79972656,0.00589053
5371.72853394,0.00588313
5373.65734131,0.00594907
5375.58614868,0.00578175
5377.51495605,0.00561928
5379.44376343,0.00587123
5381.37257080,0.00578667
5383.30137817,0.00579487
5385.23018555,0.00581186
5387.15899292,0.00570560
5389.08780029,0.00581062
5391.01660767,0.00577337
5392.94541504,0.00565239
5394.87422241,0.00550078
5396.80302978,0.00563509
5398.73183716,0.00578494
5400.66064453,0.00577760
5402.58945190,0.00568802
5404.51825928,0.00555867
5406.44706665,0.00572464
5408.37587402,0.00562472
5410.30468140,0.00543564
5412.23348877,0.00546936
5414.16229614,0.00540854
5416.09110352,0.00548132
5418.01991089,0.00562420
5419.94871826,0.00552079
5421.87752563,0.00544012
5423.80633301,0.00553418
5425.73514038,0.00550851
5427.66394775,0.00541596
5429.59275513,0.00527118
5431.52156250,0.00540590
5433.45036987,0.00553068
5435.37917725,0.00523410
5437.30798462,0.00537400
5439.23679199,0.00550751
5441.16559936,0.00526119
5443.09440674,0.00529172
5445.02321411,0.00525443
5446.95202148,0.00515317
5448.88082886,0.00526548
5450.80963623,0.00528316
5452.73844360,0.00536278
5454.66725098,0.00537736
5456.59605835,0.00525963
5458.52486572,0.00535165
5460.45367310,0.00519743
5462.38248047,0.00512270
5464.31128784,0.00522944
5466.24009521,0.00519263
5468.16890259,0.00523773
5470.09770996,0.00507789
5472.02651733,0.00514608
5473.95532471,0.00516520
5475.88413208,0.00497139
5477.81293945,0.00512384
5479.74174683,0.00510950
5481.67055420,0.00508563
5483.59936157,0.00514116
5485.52816895,0.00510980
5487.45697632,0.00505321
5489.38578369,0.00504930
5491.31459106,0.00509266
5493.24339844,0.00494161
5495.17220581,0.00494431
5497.10101318,0.00501225
5499.02982056,0.00501870
5500.95862793,0.00503843
5502.88743530,0.00494486
5504.81624268,0.00498308
5506.74505005,0.00499234
5508.67385742,0.00489512
5510.60266479,0.00495731
5512.53147217,0.00494025
5514.46027954,0.00484566
5516.38908691,0.00488837
5518.31789429,0.00482093
5520.24670166,0.00479775
5522.17550903,0.00484355
5524.10431641,0.00481297
5526.03312378,0.00486094
5527.96193115,0.00483472
5529.89073853,0.00483179
5531.81954590,0.00483640
5533.74835327,0.00483349
5535.67716064,0.00483013
5537.60596802,0.00478569
5539.53477539,0.00482370
5541.46358276,0.00475712
5543.39239014,0.00472921
5545.32119751,0.00473284
5547.25000488,0.00470535
5549.17881226,0.00470375
5551.10761963,0.00467327
5553.03642700,0.00468669
5554.96523437,0.00469323
5556.89404175,0.00467312
5558.82284912,0.00455046
5560.75165649,0.00462905
5562.68046387,0.00469135
5564.60927124,0.00457649
5566.53807861,0.00463947
5568.46688599,0.00453146
5570.39569336,0.00451297
5572.32450073,0.00461702
5574.25330811,0.00457743
5576.18211548,0.00454380
5578.11092285,0.00448775
5580.03973022,0.00451195
5581.96853760,0.00447539
5583.89734497,0.00449198
5585.82615234,0.00455550
5587.75495972,0.00446095
5589.68376709,0.00442422
5591.61257446,0.00446797
5593.54138184,0.00445181
5595.47018921,0.00439898
5597.39899658,0.00442470
5599.32780395,0.00443494
5601.25661133,0.00442217
5603.18541870,0.00441883
5605.11422607,0.00441123
5607.04303345,0.00440605
5608.97184082,0.00438146
5610.90064819,0.00439349
5612.82945557,0.00432037
5614.75826294,0.00427513
5616.68707031,0.00431019
5618.61587769,0.00426671
5620.54468506,0.00428480
5622.47349243,0.00431219
5624.40229980,0.00425797
5626.33110718,0.00426311
5628.25991455,0.00427665
5630.18872192,0.00425190
5632.11752930,0.00425474
5634.04633667,0.00421588
5635.97514404,0.00424278
5637.90395142,0.00424968
5639.83275879,0.00411307
5641.76156616,0.00414515
5643.69037353,0.00423719
5645.61918091,0.00419275
5647.54798828,0.00414999
5649.47679565,0.00412669
5651.40560303,0.00410141
5653.33441040,0.00410062
5655.26321777,0.00413950
5657.19202515,0.00414721
5659.12083252,0.00411515
5661.04963989,0.00413077
5662.97844727,0.00413941
5664.90725464,0.00415407
5666.83606201,0.00414535
5668.76486938,0.00403933
5670.69367676,0.00403992
5672.62248413,0.00401522
5674.55129150,0.00400067
5676.48009888,0.00405237
5678.40890625,0.00392423
5680.33771362,0.00395528
5682.26652100,0.00401100
5684.19532837,0.00392870
5686.12413574,0.00394310
5688.05294311,0.00401798
5689.98175049,0.00400602
5691.91055786,0.00391903
5693.83936523,0.00406071
5695.76817261,0.00396603
5697.69697998,0.00382200
5699.62578735,0.00395465
5701.55459473,0.00387128
5703.48340210,0.00388382
5705.41220947,0.00385525
5707.34101685,0.00375759
5709.26982422,0.00383756
5711.19863159,0.00387674
5713.12743896,0.00384924
5715.05624634,0.00378538
5716.98505371,0.00382577
5718.91386108,0.00384637
5720.84266846,0.00379263
5722.77147583,0.00375957
5724.70028320,0.00377800
5726.62909058,0.00373499
5728.55789795,0.00371754
5730.48670532,0.00377018
5732.41551270,0.00367826
5734.34432007,0.00374060
5736.27312744,0.00375016
5738.20193481,0.00368805
5740.13074219,0.00370326
5742.05954956,0.00364084
5743.98835693,0.00370007
5745.91716431,0.00368943
5747.84597168,0.00366909
5749.77477905,0.00363497
5751.70358643,0.00356845
5753.63239380,0.00356921
5755.56120117,0.00354504
5757.49000854,0.00357426
5759.41881592,0.00357684
5761.34762329,0.00360747
5763.27643066,0.00358054
5765.20523804,0.00355961
5767.13404541,0.00352076
5769.06285278,0.00348401
5770.99166016,0.00356478
5772.92046753,0.00350565
5774.84927490,0.00350103
5776.77808228,0.00345781
5778.70688965,0.00346158
5780.63569702,0.00353632
5782.56450439,0.00346102
5784.49331177,0.00347541
5786.42211914,0.00343742
5788.35092651,0.00341222
5790.27973389,0.00339009
5792.20854126,0.00340440
5794.13734863,0.00346557
5796.06615601,0.00336326
5797.99496338,0.00335698
5799.92377075,0.00341440
5801.85257812,0.00339977
5803.78138550,0.00333377
5805.71019287,0.00330925
5807.63900024,0.00332277
5809.56780762,0.00332283
5811.49661499,0.00334336
5813.42542236,0.00335898
5815.35422974,0.00336700
5817.28303711,0.00328970
5819.21184448,0.00328252
5821.14065186,0.00326303
5823.06945923,0.00325406
5824.99826660,0.00330026
5826.92707397,0.00319630
5828.85588135,0.00324712
5830.78468872,0.00328927
5832.71349609,0.00320232
5834.64230347,0.00322206
5836.57111084,0.00320016
5838.49991821,0.00318084
5840.42872559,0.00319596
5842.35753296,0.00317079
5844.28634033,0.00316801
5846.21514770,0.00317760
5848.14395508,0.00315242
5850.07276245,0.00314889
5852.00156982,0.00308129
5853.93037720,0.00305846
5855.85918457,0.00316100
5857.78799194,0.00311229
5859.71679932,0.00308477
5861.64560669,0.00310400
5863.57441406,0.00304999
5865.50322144,0.00309616
5867.43202881,0.00309641
5869.36083618,0.00305895
5871.28964355,0.00307206
5873.21845093,0.00301156
5875.14725830,0.00300835
5877.07606567,0.00306850
5879.00487305,0.00305477
5880.93368042,0.00301708
5882.86248779,0.00301365
5884.79129517,0.00304497
5886.72010254,0.00299120
5888.64890991,0.00297014
5890.57771728,0.00299574
5892.50652466,0.00291693
5894.43533203,0.00296179
5896.36413940,0.00299267
5898.29294678,0.00292656
5900.22175415,0.00297896
5902.15056152,0.00295830
5904.07936890,0.00288933
5906.00817627,0.00294119
5907.93698364,0.00288858
5909.86579102,0.00282368
5911.79459839,0.00291354
5913.72340576,0.00286919
5915.65221313,0.00285074
5917.58102051,0.00289414
5919.50982788,0.00284024
5921.43863525,0.00283538
5923.36744263,0.00284005
5925.29625000,0.00286964
5927.22505737,0.00285714
5929.15386475,0.00290218
5931.08267212,0.00285861
5933.01147949,0.00275081
5934.94028686,0.00284092
5936.86909424,0.00278432
5938.79790161,0.00278994
5940.72670898,0.00278437
5942.65551636,0.00271701
5944.58432373,0.00277691
5946.51313110,0.00271777
5948.44193848,0.00276091
5950.37074585,0.00272944
5952.29955322,0.00268100
5954.22836060,0.00271707
5956.15716797,0.00268224
5958.08597534,0.00278778
5960.01478271,0.00271336
5961.94359009,0.00261088
5963.87239746,0.00271494
5965.80120483,0.00272307
5967.73001221,0.00274112
5969.65881958,0.00274173
5971.58762695,0.00261618
5973.51643433,0.00259474
5975.44524170,0.00266421
5977.37404907,0.00265537
5979.30285645,0.00262840
5981.23166382,0.00262231
5983.16047119,0.00263460
5985.08927856,0.00261417
5987.01808594,0.00261743
5988.94689331,0.00261706
5990.87570068,0.00253659
5992.80450806,0.00252535
5994.73331543,0.00257833
5996.66212280,0.00260012
5998.59093018,0.00254138
6000.51973755,0.00255066
