399.26312622,0.00325607
401.19193359,0.00359591
403.12074097,0.00365240
405.04954834,0.00312787
406.97835571,0.00384285
408.90716309,0.00425505
410.83597046,0.00418760
412.76477783,0.00438857
414.69358521,0.00444115
416.62239258,0.00475505
418.55119995,0.00395406
420.48000732,0.00432119
422.40881470,0.00540030
424.33762207,0.00486153
426.26642944,0.00497543
428.19523682,0.00489666
430.12404419,0.00461414
432.05285156,0.00452233
433.98165894,0.00444892
435.91046631,0.00467831
437.83927368,0.00436480
439.76808105,0.00433935
441.69688843,0.00398443
443.62569580,0.00376488
445.55450317,0.00416166
447.48331055,0.00391253
449.41211792,0.00377401
451.34092529,0.00374630
453.26973267,0.00364292
455.19854004,0.00350461
457.12734741,0.00319129
459.05615479,0.00303432
460.98496216,0.00277556
462.91376953,0.00241887
464.84257690,0.00268854
466.77138428,0.00271273
468.70019165,0.00200000
470.62899902,0.00179976
472.55780640,0.00183680
474.48661377,0.00205170
476.41542114,0.00190338
478.34422852,0.00171701
480.27303589,0.00203368
482.20184326,0.00172208
484.13065063,0.00152750
486.05945801,0.00096907
487.98826538,0.00105944
489.91707275,0.00147737
491.84588013,0.00074426
493.77468750,0.00114735
495.70349487,0.00100941
497.63230225,0.00066222
499.56110962,0.00127176
501.48991699,0.00087072
503.41872437,0.00087424
505.34753174,0.00094318
507.27633911,0.00071352
509.20514648,0.00108388
511.13395386,0.00082672
513.06276123,0.00053736
514.99156860,0.00094692
516.92037598,0.00063209
518.84918335,0.00057836
520.77799072,0.00104531
522.70679810,0.00054867
524.63560547,0.00073053
526.56441284,0.00074476
528.49322021,0.00041301
530.42202759,0.00069168
532.35083496,0.00065003
534.27964233,0.00097605
536.20844971,0.00062632
538.13725708,0.00013622
540.06606445,0.00043432
541.99487183,0.00084389
543.92367920,0.00097021
545.85248657,0.00036346
547.78129395,0.00056401
549.71010132,0.00052272
551.63890869,0.00029302
553.56771606,0.00087599
555.49652344,0.00030671
557.42533081,0.00033643
559.35413818,0.00075394
561.28294556,0.00041715
563.21175293,0.00037073
565.14056030,0.00013765
567.06936768,0.00055939
568.99817505,0.00090684
570.92698242,0.00063810
572.85578979,0.00018437
574.78459717,0.00036916
576.71340454,0.00075039
578.64221191,0.00034193
580.57101929,0.00049416
582.49982666,0.00051475
584.42863403,0.00016707
586.35744141,0.00040721
588.28624878,0.00056800
590.21505615,0.00038649
592.14386353,0.00029211
594.07267090,0.00027985
596.00147827,0.00044447
597.93028564,0.00027087
599.85909302,0.00043066
601.78790039,0.00073709
603.71670776,0.00039481
605.64551514,0.00008839
607.57432251,0.00020754
609.50312988,0.00037581
611.43193726,0.00005570
613.36074463,0.00005817
615.28955200,0.00034236
617.21835938,0.00049134
619.14716675,0.00064013
621.07597412,0.00054237
623.00478149,0.00040834
624.93358887,0.00039382
626.86239624,0.00008234
628.79120361,0.00023710
630.72001099,0.00132752
632.64881836,0.00210308
634.57762573,0.00271345
636.50643311,0.00311672
638.43524048,0.00332876
640.36404785,0.00354566
642.29285522,0.00377302
644.22166260,0.00448331
646.15046997,0.00471580
648.07927734,0.00514954
650.00808472,0.00534197
651.93689209,0.00508823
653.86569946,0.00577397
655.79450684,0.00597399
657.72331421,0.00589463
659.65212158,0.00627114
661.58092896,0.00630377
663.50973633,0.00655094
665.43854370,0.00705223
667.36735107,0.00641022
669.29615845,0.00658041
671.22496582,0.00784130
673.15377319,0.00786809
675.08258057,0.00825055
677.01138794,0.00857162
678.94019531,0.00872513
680.86900269,0.00882677
682.79781006,0.00838337
684.72661743,0.00865800
686.65542480,0.00871158
688.58423218,0.00850026
690.51303955,0.00847727
692.44184692,0.00910840
694.37065430,0.00982667
696.29946167,0.01100050
698.22826904,0.01272465
700.15707642,0.01338704
702.08588379,0.01367109
704.01469116,0.01239620
705.94349854,0.01102377
707.87230591,0.00963063
709.80111328,0.00719693
711.72992065,0.00549807
713.65872803,0.00353352
715.58753540,0.00224761
717.51634277,0.00114355
719.44515015,0.00086080
721.37395752,0.00122509
723.30276489,0.00053807
725.23157227,0.00061376
727.16037964,0.00039948
729.08918701,0.00048303
731.01799438,0.00073006
732.94680176,0.00049974
734.87560913,0.00066618
736.80441650,0.00054786
738.73322388,0.00032303
740.66203125,0.00006111
742.59083862,0.00072551
744.51964600,0.00081491
746.44845337,0.00022098
748.37726074,0.00048306
750.30606812,0.00044836
752.23487549,0.00053020
754.16368286,0.00029646
756.09249023,0.00023302
758.02129761,0.00047272
759.95010498,0.00064915
761.87891235,0.00080751
763.80771973,0.00030295
765.73652710,0.00061702
767.66533447,0.00087037
769.59414185,0.00065872
771.52294922,0.00092010
773.45175659,0.00098840
775.38056396,0.00092236
777.30937134,0.00080387
779.23817871,0.00087291
781.16698608,0.00113207
783.09579346,0.00108074
785.02460083,0.00079336
786.95340820,0.00092304
788.88221558,0.00096541
790.81102295,0.00104824
792.73983032,0.00129081
794.66863770,0.00102501
796.59744507,0.00112278
798.52625244,0.00156439
800.45505981,0.00209204
802.38386719,0.00209812
804.31267456,0.00140103
806.24148193,0.00138168
808.17028931,0.00139077
810.09909668,0.00086851
812.02790405,0.00091565
813.95671143,0.00100138
815.88551880,0.00067543
817.81432617,0.00077320
819.74313354,0.00099407
821.67194092,0.00133072
823.60074829,0.00137496
825.52955566,0.00109691
827.45836304,0.00129216
829.38717041,0.00170108
831.31597778,0.00227963
833.24478516,0.00248125
835.17359253,0.00268378
837.10239990,0.00272395
839.03120728,0.00278809
840.96001465,0.00326497
842.88882202,0.00271135
844.81762939,0.00239912
846.74643677,0.00240602
848.67524414,0.00209645
850.60405151,0.00198893
852.53285889,0.00164967
854.46166626,0.00161474
856.39047363,0.00168676
858.31928101,0.00158034
860.24808838,0.00134522
862.17689575,0.00099507
864.10570313,0.00083672
866.03451050,0.00098404
867.96331787,0.00095647
869.89212524,0.00076354
871.82093262,0.00080978
873.74973999,0.00064775
875.67854736,0.00105909
877.60735474,0.00107128
879.53616211,0.00047168
881.46496948,0.00088891
883.39377686,0.00087046
885.32258423,0.00061014
887.25139160,0.00089782
889.18019897,0.00086753
891.10900635,0.00061841
893.03781372,0.00077635
894.96662109,0.00100359
896.89542847,0.00076973
898.82423584,0.00073426
900.75304321,0.00071393
902.68185059,0.00084827
904.61065796,0.00105252
906.53946533,0.00091899
908.46827271,0.00112879
910.39708008,0.00115265
912.32588745,0.00108766
914.25469482,0.00145215
916.18350220,0.00149901
918.11230957,0.00160478
920.04111694,0.00207615
921.96992432,0.00220030
923.89873169,0.00223416
925.82753906,0.00243644
927.75634644,0.00273865
929.68515381,0.00308346
931.61396118,0.00330849
933.54276855,0.00346011
935.47157593,0.00354528
937.40038330,0.00371488
939.32919067,0.00394017
941.25799805,0.00412244
943.18680542,0.00404084
945.11561279,0.00408109
947.04442017,0.00411047
948.97322754,0.00387470
950.90203491,0.00416227
952.83084229,0.00422073
954.75964966,0.00392313
956.68845703,0.00397448
958.61726440,0.00413179
960.54607178,0.00396001
962.47487915,0.00396751
964.40368652,0.00434762
966.33249390,0.00440517
968.26130127,0.00473229
970.19010864,0.00457676
972.11891602,0.00461615
974.04772339,0.00523588
975.97653076,0.00536828
977.90533813,0.00622744
979.83414551,0.00679646
981.76295288,0.00730750
983.69176025,0.00806507
985.62056763,0.00859880
987.54937500,0.00989463
989.47818237,0.01091246
991.40698975,0.01192700
993.33579712,0.01328975
995.26460449,0.01459095
997.19341187,0.01576632
999.12221924,0.01676233
1001.05102661,0.01800944
1002.97983398,0.01934731
1004.90864136,0.02071198
1006.83744873,0.02217042
1008.76625610,0.02353637
1010.69506348,0.02463937
1012.62387085,0.02619241
1014.55267822,0.02754368
1016.48148560,0.02858522
1018.41029297,0.03022982
1020.33910034,0.03152311
1022.26790771,0.03271059
1024.19671509,0.03396651
1026.12552246,0.03525162
1028.05432983,0.03649154
1029.98313721,0.03756733
1031.91194458,0.03864294
1033.84075195,0.03931594
1035.76955933,0.04001497
1037.69836670,0.04050587
1039.62717407,0.04063066
1041.55598145,0.04039785
1043.48478882,0.04004292
1045.41359619,0.03957037
1047.34240356,0.03905525
1049.27121094,0.03879108
1051.20001831,0.03794096
1053.12882568,0.03734987
1055.05763306,0.03671188
1056.98644043,0.03570402
1058.91524780,0.03481872
1060.84405518,0.03361084
1062.77286255,0.03267358
1064.70166992,0.03182621
1066.63047729,0.03081520
1068.55928467,0.02936387
1070.48809204,0.02813632
1072.41689941,0.02694513
1074.34570679,0.02540278
1076.27451416,0.02434532
1078.20332153,0.02313227
1080.13212891,0.02231211
1082.06093628,0.02122775
1083.98974365,0.01989966
1085.91855103,0.01915679
1087.84735840,0.01809503
1089.77616577,0.01741772
1091.70497314,0.01681434
1093.63378052,0.01600161
1095.56258789,0.01543580
1097.49139526,0.01482789
1099.42020264,0.01429025
1101.34901001,0.01399316
1103.27781738,0.01370929
1105.20662476,0.01345978
1107.13543213,0.01316809
1109.06423950,0.01283871
1110.99304687,0.01306146
1112.92185425,0.01277643
1114.85066162,0.01244886
1116.77946899,0.01267457
1118.70827637,0.01236580
1120.63708374,0.01231626
1122.56589111,0.01256641
1124.49469849,0.01279302
1126.42350586,0.01303441
1128.35231323,0.01327800
1130.28112061,0.01340693
1132.20992798,0.01364225
1134.13873535,0.01439058
1136.06754272,0.01498799
1137.99635010,0.01573054
1139.92515747,0.01667213
1141.85396484,0.01768340
1143.78277222,0.01894917
1145.71157959,0.02018056
1147.64038696,0.02123260
1149.56919434,0.02244997
1151.49800171,0.02389116
1153.42680908,0.02485064
1155.35561646,0.02579093
1157.28442383,0.02687383
1159.21323120,0.02799096
1161.14203857,0.02903930
1163.07084595,0.03001948
1164.99965332,0.03122782
1166.92846069,0.03241150
1168.85726807,0.03376746
1170.78607544,0.03475055
1172.71488281,0.03600879
1174.64369019,0.03766827
1176.57249756,0.03889332
1178.50130493,0.04023210
1180.43011230,0.04168999
1182.35891968,0.04364827
1184.28772705,0.04564603
1186.21653442,0.04761705
1188.14534180,0.04985529
1190.07414917,0.05209529
1192.00295654,0.05460347
1193.93176392,0.05715550
1195.86057129,0.05984889
1197.78937866,0.06248379
1199.71818604,0.06529653
1201.64699341,0.06825452
1203.57580078,0.07092574
1205.50460815,0.07356738
1207.43341553,0.07630084
1209.36222290,0.07885890
1211.29103027,0.08103933
1213.21983765,0.08349486
1215.14864502,0.08578117
1217.07745239,0.08760620
1219.00625977,0.08902691
1220.93506714,0.09038880
1222.86387451,0.09171626
1224.79268188,0.09223520
1226.72148926,0.09302774
1228.65029663,0.09370404
1230.57910400,0.09395121
1232.50791138,0.09411663
1234.43671875,0.09414019
1236.36552612,0.09424464
1238.29433350,0.09384945
1240.22314087,0.09372818
1242.15194824,0.09336008
1244.08075562,0.09277567
1246.00956299,0.09254278
1247.93837036,0.09188945
1249.86717773,0.09135461
1251.79598511,0.09055318
1253.72479248,0.08969665
1255.65359985,0.08895926
1257.58240723,0.08743538
1259.51121460,0.08554681
1261.44002197,0.08439307
1263.36882935,0.08364248
1265.29763672,0.08236139
1267.22644409,0.08136594
1269.15525146,0.08045641
1271.08405884,0.07904261
1273.01286621,0.07770808
1274.94167358,0.07645123
1276.87048096,0.07483616
1278.79928833,0.07317188
1280.72809570,0.07187356
1282.65690308,0.07047258
1284.58571045,0.06907983
1286.51451782,0.06771013
1288.44332520,0.06669830
1290.37213257,0.06597139
1292.30093994,0.06505598
1294.22974731,0.06464601
1296.15855469,0.06426264
1298.08736206,0.06388661
1300.01616943,0.06406897
1301.94497681,0.06447925
1303.87378418,0.06496817
1305.80259155,0.06552127
1307.73139893,0.06634583
1309.66020630,0.06748258
1311.58901367,0.06857419
1313.51782104,0.06966037
1315.44662842,0.07151605
1317.37543579,0.07316227
1319.30424316,0.07466203
1321.23305054,0.07761709
1323.16185791,0.08021764
1325.09066528,0.08213156
1327.01947266,0.08461182
1328.94828003,0.08675323
1330.87708740,0.08886805
1332.80589478,0.09096467
1334.73470215,0.09259982
1336.66350952,0.09358633
1338.59231689,0.09253274
1340.52112427,0.09368838
1342.44993164,0.09774361
1344.37873901,0.09822942
1346.30754639,0.09826448
1348.23635376,0.09834982
1350.16516113,0.09738354
1352.09396851,0.09768698
1354.02277588,0.09618458
1355.95158325,0.09527379
1357.88039062,0.09477110
1359.80919800,0.09321243
1361.73800537,0.08924975
1363.66681274,0.08738486
1365.59562012,0.09211907
1367.52442749,0.08976477
1369.45323486,0.08874308
1371.38204224,0.09097750
1373.31084961,0.08561550
1375.23965698,0.08635359
1377.16846436,0.08852574
1379.09727173,0.08812296
1381.02607910,0.08826081
1382.95488647,0.08797979
1384.88369385,0.08829050
1386.81250122,0.08364159
1388.74130859,0.08470730
1390.67011597,0.09220220
1392.59892334,0.08983561
1394.52773071,0.08359651
1396.45653809,0.08787879
1398.38534546,0.08806108
1400.31415283,0.08700244
1402.24296021,0.09468029
1404.17176758,0.08923472
1406.10057495,0.08946491
1408.02938232,0.09371653
1409.95818970,0.08974881
1411.88699707,0.09202480
1413.81580444,0.08885486
1415.74461182,0.09027489
1417.67341919,0.08133780
1419.60222656,0.07194383
1421.53103394,0.08365811
1423.45984131,0.08092489
1425.38864868,0.07843985
1427.31745605,0.08011845
1429.24626343,0.07363145
1431.17507080,0.07148747
1433.10387817,0.07282230
1435.03268555,0.06636593
1436.96149292,0.05541509
1438.89030029,0.06333604
1440.81910767,0.06553394
1442.74791504,0.06037576
1444.67672241,0.06353380
1446.60552979,0.05804589
1448.53433716,0.05886810
1450.46314453,0.06082539
1452.39195190,0.06187138
1454.32075928,0.06450109
1456.24956665,0.05244528
1458.17837402,0.05448423
1460.10718140,0.07374360
1462.03598877,0.07871397
1463.96479614,0.07782488
1465.89360352,0.08107494
1467.82241089,0.09290484
1469.75121826,0.10010253
1471.68002563,0.08832676
1473.60883301,0.09283035
1475.53764038,0.10664567
1477.46644775,0.11497289
1479.39525513,0.12677425
1481.32406250,0.12858821
1483.25286987,0.13688159
1485.18167725,0.14141069
1487.11048462,0.13870007
1489.03929199,0.13779384
1490.96809937,0.13839224
1492.89690674,0.16244872
1494.82571411,0.15889975
1496.75452148,0.14163515
1498.68332886,0.16104102
1500.61213623,0.16639003
1502.54094360,0.17901486
1504.46975098,0.16943964
1506.39855835,0.12075242
1508.32736572,0.14844388
1510.25617310,0.17652380
1512.18498047,0.17040263
1514.11378784,0.18569747
1516.04259521,0.16629422
1517.97140259,0.17338997
1519.90020996,0.16834548
1521.82901733,0.14364567
1523.75782471,0.17791197
1525.68663208,0.17512576
1527.61543945,0.17361769
1529.54424683,0.19367802
1531.47305420,0.18601051
1533.40186157,0.16963676
1535.33066895,0.17995109
1537.25947632,0.19422609
1539.18828369,0.13682905
1541.11709106,0.14212847
1543.04589844,0.17306665
1544.97470581,0.16503559
1546.90351318,0.19747594
1548.83232056,0.18376145
1550.76112793,0.18891269
1552.68993530,0.18869084
1554.61874268,0.16986652
1556.54755005,0.18314694
1558.47635742,0.12694517
1560.40516479,0.13641734
1562.33397217,0.19869089
1564.26277954,0.18728960
1566.19158691,0.19264738
1568.12039429,0.19107254
1570.04920166,0.16790396
1571.97800903,0.19500935
1573.90681641,0.19855040
1575.83562378,0.15520559
1577.76443115,0.17600182
1579.69323853,0.20067391
1581.62204590,0.19124608
1583.55085327,0.19663958
1585.47966064,0.19358884
1587.40846802,0.19489357
1589.33727539,0.19332315
1591.26608276,0.19298607
1593.19489014,0.19336909
1595.12369751,0.19094482
1597.05250488,0.19396238
1598.98131226,0.19261922
1600.91011963,0.19359973
1602.83892700,0.18996111
1604.76773437,0.19349855
1606.69654175,0.19062445
1608.62534912,0.19008385
1610.55415649,0.18994860
1612.48296387,0.19082412
1614.41177124,0.19423284
1616.34057861,0.15719314
1618.26938599,0.17044067
1620.19819336,0.20057361
1622.12700073,0.17667015
1624.05580811,0.17727208
1625.98461548,0.18667649
1627.91342285,0.18587345
1629.84223022,0.18458685
1631.77103760,0.19768578
1633.69984497,0.18196645
1635.62865234,0.14792386
1637.55745972,0.17355670
1639.48626709,0.19246274
1641.41507446,0.18748254
1643.34388184,0.19272688
1645.27268921,0.17314492
1647.20149658,0.15036142
1649.13030396,0.18876207
1651.05911133,0.18005829
1652.98791870,0.11219668
1654.91672607,0.15436107
1656.84553345,0.19736473
1658.77434082,0.18818963
1660.70314819,0.19379920
1662.63195557,0.17519584
1664.56076294,0.18485440
1666.48957031,0.19998597
1668.41837769,0.17320982
1670.34718506,0.16729517
1672.27599243,0.19142698
1674.20479980,0.17637023
1676.13360718,0.16804561
1678.06241455,0.19526964
1679.99122192,0.18781549
1681.92002930,0.18537523
1683.84883667,0.14958665
1685.77764404,0.14700331
1687.70645142,0.20523612
1689.63525879,0.17715269
1691.56406616,0.19503513
1693.49287354,0.20016417
1695.42168091,0.14317340
1697.35048828,0.17842233
1699.27929565,0.15688643
1701.20810303,0.13883743
1703.13691040,0.19296129
1705.06571777,0.17696384
1706.99452515,0.17750409
1708.92333252,0.19439703
1710.85213989,0.18636116
1712.78094727,0.18957978
1714.70975464,0.17560488
1716.63856201,0.15653920
1718.56736938,0.15337792
1720.49617676,0.18355693
1722.42498413,0.19177952
1724.35379150,0.17671639
1726.28259888,0.19302267
1728.21140625,0.17806612
1730.14021362,0.17896491
1732.06902100,0.17492233
1733.99782837,0.13093090
1735.92663574,0.16454938
1737.85544312,0.18358219
1739.78425049,0.16180053
1741.71305786,0.17680301
1743.64186523,0.17945759
1745.57067261,0.17969592
1747.49947998,0.18129057
1749.42828735,0.17315921
1751.35709473,0.16506028
1753.28590210,0.18361445
1755.21470947,0.19307616
1757.14351685,0.17475721
1759.07232422,0.19308457
1761.00113159,0.18136331
1762.92993896,0.17399892
1764.85874634,0.20087641
1766.78755371,0.18005610
1768.71636108,0.18132241
1770.64516846,0.18031222
1772.57397583,0.16095972
1774.50278320,0.18051080
1776.43159058,0.19137901
1778.36039795,0.18865073
1780.28920532,0.18603632
1782.21801270,0.18775645
1784.14682007,0.18755251
1786.07562744,0.18325007
1788.00443481,0.19351777
1789.93324219,0.18856341
1791.86204956,0.16931562
1793.79085693,0.17695545
1795.71966431,0.19070306
1797.64847168,0.18806249
1799.57727905,0.18503928
1801.50608643,0.18141684
1803.43489380,0.18756357
1805.36370117,0.19229731
1807.29250854,0.18939543
1809.22131592,0.19015217
1811.15012329,0.18492304
1813.07893066,0.19073465
1815.00773804,0.19179772
1816.93654541,0.18927243
1818.86535278,0.19100820
1820.79416016,0.19010749
1822.72296753,0.19309002
1824.65177490,0.17979792
1826.58058228,0.18621366
1828.50938965,0.18717739
1830.43819702,0.17463629
1832.36700439,0.19065374
1834.29581177,0.18974245
1836.22461914,0.18924889
1838.15342651,0.18858437
1840.08223389,0.18973181
1842.01104126,0.19048323
1843.93984863,0.16780877
1845.86865601,0.17899334
1847.79746338,0.18971971
1849.72627075,0.18534555
1851.65507812,0.19119224
1853.58388550,0.18698186
1855.51269287,0.18914571
1857.44150024,0.18805540
1859.37030762,0.18654889
1861.29911499,0.18803999
1863.22792236,0.18572578
1865.15672974,0.18801114
1867.08553711,0.18133032
1869.01434448,0.17320347
1870.94315186,0.18030733
1872.87195923,0.18761124
1874.80076660,0.18477136
1876.72957397,0.18573999
1878.65838135,0.18509565
1880.58718872,0.18389380
1882.51599609,0.18565759
1884.44480347,0.18255761
1886.37361084,0.18538430
1888.30241821,0.18108216
1890.23122559,0.17700170
1892.16003296,0.18418753
1894.08884033,0.18142256
1896.01764771,0.18033271
1897.94645508,0.18272360
1899.87526245,0.18166676
1901.80406982,0.18213388
1903.73287720,0.18106087
1905.66168457,0.18181574
1907.59049194,0.17996413
1909.51929932,0.17859483
1911.44810669,0.17974520
1913.37691406,0.17992547
1915.30572144,0.18159233
1917.23452881,0.17337979
1919.16333618,0.17323968
1921.09214355,0.18054165
1923.02095093,0.17450753
1924.94975830,0.17792375
1926.87856567,0.18017766
1928.80737305,0.17757413
1930.73618042,0.17994905
1932.66498779,0.17728154
1934.59379517,0.17907283
1936.52260254,0.17780089
1938.45140991,0.17813239
1940.38021729,0.17841026
1942.30902466,0.17220648
1944.23783203,0.17556286
1946.16663940,0.17747942
1948.09544678,0.17701508
1950.02425415,0.17773047
1951.95306152,0.17698339
1953.88186890,0.17728826
1955.81067627,0.17640786
1957.73948364,0.17716601
1959.66829102,0.17665276
1961.59709839,0.17616817
1963.52590576,0.17694774
1965.45471313,0.17566542
1967.38352051,0.17386137
1969.31232788,0.17532891
1971.24113525,0.17659238
1973.16994263,0.17523110
1975.09875000,0.17596650
1977.02755737,0.17510697
1978.95636475,0.17513099
1980.88517212,0.17505716
1982.81397949,0.17408799
1984.74278687,0.17499676
1986.67159424,0.17336747
1988.60040161,0.17368808
1990.52920898,0.17229152
1992.45801636,0.16997477
1994.38682373,0.17257416
1996.31563110,0.17315227
1998.24443848,0.17216916
2000.17324585,0.17231496
2002.10205322,0.17198220
2004.03086060,0.17145041
2005.95966797,0.17120785
2007.88847534,0.17061713
2009.81728271,0.17048162
2011.74609009,0.17017236
2013.67489746,0.16992211
2015.60370483,0.16898273
2017.53251221,0.16735730
2019.46131958,0.16845639
2021.39012695,0.16842936
2023.31893433,0.16774368
2025.24774170,0.16774148
2027.17654907,0.16714567
2029.10535645,0.16710138
2031.03416382,0.16645747
2032.96297119,0.16645178
2034.89177856,0.16581035
2036.82058594,0.16537647
2038.74939331,0.16535611
2040.67820068,0.16429025
2042.60700806,0.16415980
2044.53581543,0.16402549
2046.46462280,0.16387436
2048.39343018,0.16353479
2050.32223755,0.16310401
2052.25104492,0.16293758
2054.17985229,0.16261798
2056.10865967,0.16230065
2058.03746704,0.16190028
2059.96627441,0.16152754
2061.89508179,0.16130601
2063.82388916,0.16071536
2065.75269653,0.15979865
2067.68150391,0.16032815
2069.61031128,0.16013330
2071.53911865,0.15956283
2073.46792603,0.15962183
2075.39673340,0.15894324
2077.32554077,0.15892445
2079.25434814,0.15844858
2081.18315552,0.15824440
2083.11196289,0.15802324
2085.04077026,0.15756017
2086.96957764,0.15749629
2088.89838501,0.15680701
2090.82719238,0.15659517
2092.75599976,0.15643539
2094.68480713,0.15636510
2096.61361450,0.15588936
2098.54242187,0.15557045
2100.47122925,0.15545216
2102.40003662,0.15512830
2104.32884399,0.15497422
2106.25765137,0.15448910
2108.18645874,0.15456676
2110.11526611,0.15388128
2112.04407349,0.15379722
2113.97288086,0.15370819
2115.90168823,0.15314001
2117.83049561,0.15342033
2119.75930298,0.15269513
2121.68811035,0.15278274
2123.61691772,0.15259525
2125.54572510,0.15208972
2127.47453247,0.15204737
2129.40333984,0.15170456
2131.33214722,0.15175793
2133.26095459,0.15139756
2135.18976196,0.15120879
2137.11856934,0.15080863
2139.04737671,0.15075916
2140.97618408,0.15061197
2142.90499146,0.15030500
2144.83379883,0.15015045
2146.76260620,0.14977446
2148.69141357,0.15003814
2150.62022095,0.14945264
2152.54902832,0.14928979
2154.47783569,0.14919075
2156.40664307,0.14880724
2158.33545044,0.14893094
2160.26425781,0.14863449
2162.19306519,0.14849702
2164.12187256,0.14816126
2166.05067993,0.14830944
2167.97948730,0.14798595
2169.90829468,0.14768454
2171.83710205,0.14766017
2173.76590942,0.14719313
2175.69471680,0.14739755
2177.62352417,0.14693666
2179.55233154,0.14671278
2181.48113892,0.14673568
2183.40994629,0.14638092
2185.33875366,0.14616635
2187.26756104,0.14602941
2189.19636841,0.14591095
2191.12517578,0.14562595
2193.05398315,0.14567390
2194.98279053,0.14540538
2196.91159790,0.14524415
2198.84040527,0.14492178
2200.76921265,0.14471981
2202.69802002,0.14470112
2204.62682739,0.14437798
2206.55563477,0.14441672
2208.48444214,0.14398184
2210.41324951,0.14391910
2212.34205688,0.14384127
2214.27086426,0.14363544
2216.19967163,0.14345002
2218.12847900,0.14301033
2220.05728638,0.14297915
2221.98609375,0.14275306
2223.91490112,0.14274755
2225.84370850,0.14239459
2227.77251587,0.14225072
2229.70132324,0.14208253
2231.63013062,0.14166379
2233.55893799,0.14163932
2235.48774536,0.14120395
2237.41655273,0.14118931
2239.34536011,0.14082745
2241.27416748,0.14050139
2243.20297485,0.14037642
2245.13178223,0.14014968
2247.06058960,0.14010790
2248.98939697,0.13965000
2250.91820435,0.13954434
2252.84701172,0.13929492
2254.77581909,0.13915893
2256.70462646,0.13893151
2258.63343384,0.13864477
2260.56224121,0.13857354
2262.49104858,0.13824368
2264.41985596,0.13805410
2266.34866333,0.13787135
2268.27747070,0.13797270
2270.20627808,0.13751549
2272.13508545,0.13726361
2274.06389282,0.13726678
2275.99270020,0.13699275
2277.92150757,0.13700280
2279.85031494,0.13675746
2281.77912231,0.13673177
2283.70792969,0.13632131
2285.63673706,0.13620871
2287.56554443,0.13604647
2289.49435181,0.13549839
2291.42315918,0.13532060
2293.35196655,0.13477516
2295.28077393,0.13455036
2297.20958130,0.13407519
2299.13838867,0.13347897
2301.06719604,0.13292952
2302.99600342,0.13226147
2304.92481079,0.13154578
2306.85361816,0.13067970
2308.78242554,0.12986255
2310.71123291,0.12856814
2312.64004028,0.12736240
2314.56884766,0.12589046
2316.49765503,0.12441826
2318.42646240,0.12262625
2320.35526978,0.12078556
2322.28407715,0.11925920
2324.21288452,0.11739026
2326.14169189,0.11626319
2328.07049927,0.11468844
2329.99930664,0.11319348
2331.92811401,0.11228931
2333.85692139,0.11180462
2335.78572876,0.11138806
2337.71453613,0.11086251
2339.64334351,0.11107405
2341.57215088,0.11131160
2343.50095825,0.11316122
2345.42976562,0.11529005
2347.35857300,0.12019017
2349.28738037,0.12475269
2351.21618774,0.12010060
2353.14499512,0.11361702
2355.07380249,0.10927162
2357.00260986,0.10579119
2358.93141724,0.10373815
2360.86022461,0.10223621
2362.78903198,0.10219961
2364.71783936,0.10276119
2366.64664673,0.10427924
2368.57545410,0.10645273
2370.50426147,0.10924441
2372.43306885,0.11248521
2374.36187622,0.11582349
2376.29068359,0.11910875
2378.21949097,0.12161725
2380.14829834,0.12405120
2382.07710571,0.12535301
2384.00591309,0.12630008
2385.93472046,0.12696752
2387.86352783,0.12685713
2389.79233521,0.12687522
2391.72114258,0.12671424
2393.64994995,0.12661904
2395.57875732,0.12637277
2397.50756470,0.12632576
2399.43637207,0.12609854
2401.36517944,0.12589137
2403.29398682,0.12578276
2405.22279419,0.12542839
2407.15160156,0.12540708
2409.08040894,0.12522358
2411.00921631,0.12502977
2412.93802368,0.12481483
2414.86683105,0.12480719
2416.79563843,0.12461270
2418.72444580,0.12444325
2420.65325317,0.12434483
2422.58206055,0.12389434
2424.51086792,0.12393676
2426.43967529,0.12370706
2428.36848267,0.12355781
2430.29729004,0.12337679
2432.22609741,0.12314478
2434.15490479,0.12309967
2436.08371216,0.12284146
2438.01251953,0.12286361
2439.94132690,0.12257378
2441.87013428,0.12242375
2443.79894165,0.12220709
2445.72774902,0.12199157
2447.65655640,0.12191986
2449.58536377,0.12171353
2451.51417114,0.12168398
2453.44297852,0.12135639
2455.37178589,0.12123559
2457.30059326,0.12104124
2459.22940063,0.12097684
2461.15820801,0.12073724
2463.08701538,0.12032760
2465.01582275,0.12041490
2466.94463013,0.12026671
2468.87343750,0.12017118
2470.80224487,0.11992081
2472.73105225,0.11978222
2474.65985962,0.11956523
2476.58866699,0.11938985
2478.51747437,0.11928402
2480.44628174,0.11897625
2482.37508911,0.11903764
2484.30389648,0.11872114
2486.23270386,0.11866553
2488.16151123,0.11849073
2490.09031860,0.11824675
2492.01912598,0.11825088
2493.94793335,0.11792909
2495.87674072,0.11784514
2497.80554810,0.11752646
2499.73435547,0.11746320
2501.66316284,0.11736204
2503.59197021,0.11723693
2505.52077759,0.11708466
2507.44958496,0.11685011
2509.37839233,0.11687959
2511.30719971,0.11644445
2513.23600708,0.11649628
2515.16481445,0.11631031
2517.09362183,0.11602834
2519.02242920,0.11604053
2520.95123657,0.11570191
2522.88004395,0.11558975
2524.80885132,0.11534479
2526.73765869,0.11531137
2528.66646606,0.11513631
2530.59527344,0.11501013
2532.52408081,0.11482882
2534.45288818,0.11455213
2536.38169556,0.11467522
2538.31050293,0.11441527
2540.23931030,0.11431279
2542.16811768,0.11411567
2544.09692505,0.11392502
2546.02573242,0.11378890
2547.95453979,0.11349502
2549.88334717,0.11349930
2551.81215454,0.11342189
2553.74096191,0.11325251
2555.66976929,0.11289138
2557.59857666,0.11273111
2559.52738403,0.11266991
2561.45619141,0.11258348
2563.38499878,0.11243267
2565.31380615,0.11221611
2567.24261353,0.11215352
2569.17142090,0.11188743
2571.10022827,0.11168829
2573.02903564,0.11150017
2574.95784302,0.11152191
2576.88665039,0.11129234
2578.81545776,0.11101717
2580.74426514,0.11101089
2582.67307251,0.11075594
2584.60187988,0.11079228
2586.53068726,0.11053956
2588.45949463,0.11040103
2590.38830200,0.11034401
2592.31710937,0.11002791
2594.24591675,0.10988078
2596.17472412,0.10968395
2598.10353149,0.10969977
2600.03233887,0.10952105
2601.96114624,0.10938468
2603.88995361,0.10921822
2605.81876099,0.10912372
2607.74756836,0.10894826
2609.67637573,0.10852212
2611.60518311,0.10853741
2613.53399048,0.10834318
2615.46279785,0.10827328
2617.39160522,0.10810116
2619.32041260,0.10789873
2621.24921997,0.10783182
2623.17802734,0.10746832
2625.10683472,0.10739427
2627.03564209,0.10726599
2628.96444946,0.10717767
2630.89325684,0.10692699
2632.82206421,0.10684793
2634.75087158,0.10683858
2636.67967895,0.10650888
2638.60848633,0.10647874
2640.53729370,0.10623930
2642.46610107,0.10611857
2644.39490845,0.10592335
2646.32371582,0.10579117
2648.25252319,0.10588416
2650.18133057,0.10549203
2652.11013794,0.10526466
2654.03894531,0.10521495
2655.96775269,0.10506240
2657.89656006,0.10484882
2659.82536743,0.10475320
2661.75417480,0.10466363
2663.68298218,0.10440260
2665.61178955,0.10417928
2667.54059692,0.10407737
2669.46940430,0.10399172
2671.39821167,0.10384224
2673.32701904,0.10379756
2675.25582642,0.10345892
2677.18463379,0.10322435
2679.11344116,0.10321757
2681.04224854,0.10307577
2682.97105591,0.10290883
2684.89986328,0.10260478
2686.82867065,0.10258223
2688.75747803,0.10249896
2690.68628540,0.10226925
2692.61509277,0.10211668
2694.54390015,0.10201024
2696.47270752,0.10188559
2698.40151489,0.10161801
2700.33032227,0.10160094
2702.25912964,0.10146736
2704.18793701,0.10132866
2706.11674438,0.10111394
2708.04555176,0.10077567
2709.97435913,0.10079256
2711.90316650,0.10060868
2713.83197388,0.10025718
2715.76078125,0.10012807
2717.68958862,0.10015401
2719.61839600,0.09999624
2721.54720337,0.09980287
2723.47601074,0.09973419
2725.40481812,0.09954444
2727.33362549,0.09937498
2729.26243286,0.09923954
2731.19124023,0.09910835
2733.12004761,0.09890032
2735.04885498,0.09874687
2736.97766235,0.09865013
2738.90646973,0.09850469
2740.83527710,0.09837915
2742.76408447,0.09825912
2744.69289185,0.09803061
2746.62169922,0.09783147
2748.55050659,0.09781115
2750.47931396,0.09747988
2752.40812134,0.09732413
2754.33692871,0.09734552
2756.26573608,0.09704940
2758.19454346,0.09688293
2760.12335083,0.09671342
2762.05215820,0.09650335
2763.98096558,0.09635045
2765.90977295,0.09627962
2767.83858032,0.09612434
2769.76738770,0.09590850
2771.69619507,0.09568830
2773.62500244,0.09550641
2775.55380981,0.09546831
2777.48261719,0.09526553
2779.41142456,0.09510663
2781.34023193,0.09481639
2783.26903931,0.09464341
2785.19784668,0.09455159
2787.12665405,0.09429239
2789.05546143,0.09424239
2790.98426880,0.09405255
2792.91307617,0.09386015
2794.84188354,0.09361535
2796.77069092,0.09356233
2798.69949829,0.09342533
2800.62830566,0.09316017
2802.55711304,0.09311654
2804.48592041,0.09278298
2806.41472778,0.09278330
2808.34353516,0.09249532
2810.27234253,0.09220355
2812.20114990,0.09230269
2814.12995728,0.09193504
2816.05876465,0.09179653
2817.98757202,0.09172206
2819.91637939,0.09152403
2821.84518677,0.09124270
2823.77399414,0.09113470
2825.70280151,0.09102249
2827.63160889,0.09070586
2829.56041626,0.09058835
2831.48922363,0.09033252
2833.41803101,0.09024860
2835.34683838,0.09003972
2837.27564575,0.08974686
2839.20445312,0.08956286
2841.13326050,0.08930646
2843.06206787,0.08906868
2844.99087524,0.08860327
2846.91968262,0.08814806
2848.84848999,0.08756693
2850.77729736,0.08733172
2852.70610474,0.08731062
2854.63491211,0.08710875
2856.56371948,0.08702033
2858.49252686,0.08691432
2860.42133423,0.08687296
2862.35014160,0.08669435
2864.27894897,0.08668786
2866.20775635,0.08652084
2868.13656372,0.08625485
2870.06537109,0.08616495
2871.99417847,0.08588064
2873.92298584,0.08582444
2875.85179321,0.08567531
2877.78060059,0.08556551
2879.70940796,0.08550640
2881.63821533,0.08539332
2883.56702270,0.08535343
2885.49583008,0.08515483
2887.42463745,0.08498430
2889.35344482,0.08487724
2891.28225220,0.08480881
2893.21105957,0.08443613
2895.13986694,0.08417010
2897.06867432,0.08400511
2898.99748169,0.08376030
2900.92628906,0.08352026
2902.85509644,0.08317788
2904.78390381,0.08319636
2906.71271118,0.08293016
2908.64151855,0.08262986
2910.57032593,0.08229585
2912.49913330,0.08180536
2914.42794067,0.08157483
2916.35674805,0.08110218
2918.28555542,0.08095720
2920.21436279,0.08080460
2922.14317017,0.08060423
2924.07197754,0.08052093
2926.00078491,0.08036132
2927.92959229,0.08039804
2929.85839966,0.08019179
2931.78720703,0.08017522
2933.71601440,0.08020285
2935.64482178,0.08012974
2937.57362915,0.08009037
2939.50243652,0.08002362
2941.43124390,0.08007333
2943.36005127,0.07992830
2945.28885864,0.07987597
2947.21766602,0.07978367
2949.14647339,0.07961802
2951.07528076,0.07948196
2953.00408813,0.07933509
2954.93289551,0.07913939
2956.86170288,0.07877909
2958.79051025,0.07859549
2960.71931763,0.07839316
2962.64812500,0.07824875
2964.57693237,0.07810856
2966.50573975,0.07791799
2968.43454712,0.07794524
2970.36335449,0.07806003
2972.29216187,0.07809971
2974.22096924,0.07808474
2976.14977661,0.07824306
2978.07858398,0.07812134
2980.00739136,0.07801220
2981.93619873,0.07813470
2983.86500610,0.07799272
2985.79381348,0.07784995
2987.72262085,0.07774599
2989.65142822,0.07778266
2991.58023560,0.07773167
2993.50904297,0.07749926
2995.43785034,0.07737193
2997.36665771,0.07725184
2999.29546509,0.07717041
3001.22427246,0.07705475
3003.15307983,0.07690517
3005.08188721,0.07675979
3007.01069458,0.07663810
3008.93950195,0.07654426
3010.86830933,0.07628083
3012.79711670,0.07595875
3014.72592407,0.07590472
3016.65473145,0.07575482
3018.58353882,0.07553260
3020.51234619,0.07555058
3022.44115356,0.07539683
3024.36996094,0.07518641
3026.29876831,0.07504819
3028.22757568,0.07495397
3030.15638306,0.07468196
3032.08519043,0.07436192
3034.01399780,0.07428617
3035.94280518,0.07417494
3037.87161255,0.07416210
3039.80041992,0.07394826
3041.72922729,0.07381712
3043.65803467,0.07369095
3045.58684204,0.07344321
3047.51564941,0.07342742
3049.44445679,0.07303725
3051.37326416,0.07301072
3053.30207153,0.07303023
3055.23087891,0.07262073
3057.15968628,0.07248481
3059.08849365,0.07240909
3061.01730103,0.07241522
3062.94610840,0.07218065
3064.87491577,0.07193245
3066.80372314,0.07177760
3068.73253052,0.07169517
3070.66133789,0.07176639
3072.59014526,0.07153699
3074.51895264,0.07135966
3076.44776001,0.07124341
3078.37656738,0.07104558
3080.30537476,0.07083352
3082.23418213,0.07077932
3084.16298950,0.07074912
3086.09179687,0.07060273
3088.02060425,0.07051107
3089.94941162,0.07026158
3091.87821899,0.07021736
3093.80702637,0.07008983
3095.73583374,0.06972620
3097.66464111,0.06961918
3099.59344849,0.06949985
3101.52225586,0.06930476
3103.45106323,0.06918325
3105.37987061,0.06905587
3107.30867798,0.06879216
3109.23748535,0.06867254
3111.16629272,0.06860535
3113.09510010,0.06838707
3115.02390747,0.06810401
3116.95271484,0.06786707
3118.88152222,0.06784274
3120.81032959,0.06762972
3122.73913696,0.06739281
3124.66794434,0.06740406
3126.59675171,0.06735258
3128.52555908,0.06716041
3130.45436645,0.06698531
3132.38317383,0.06679961
3134.31198120,0.06654245
3136.24078857,0.06638536
3138.16959595,0.06618623
3140.09840332,0.06603239
3142.02721069,0.06587350
3143.95601807,0.06569031
3145.88482544,0.06558901
3147.81363281,0.06539430
3149.74244019,0.06516707
3151.67124756,0.06486249
3153.60005493,0.06476573
3155.52886230,0.06474458
3157.45766968,0.06449702
3159.38647705,0.06424873
3161.31528442,0.06407771
3163.24409180,0.06395574
3165.17289917,0.06381398
3167.10170654,0.06366171
3169.03051392,0.06342217
3170.95932129,0.06329007
3172.88812866,0.06315631
3174.81693604,0.06291239
3176.74574341,0.06265575
3178.67455078,0.06249708
3180.60335815,0.06249949
3182.53216553,0.06227480
3184.46097290,0.06211035
3186.38978027,0.06197698
3188.31858765,0.06187524
3190.24739502,0.06176315
3192.17620239,0.06150410
3194.10500977,0.06137579
3196.03381714,0.06116623
3197.96262451,0.06110666
3199.89143188,0.06097802
3201.82023926,0.06083254
3203.74904663,0.06061720
3205.67785400,0.06048824
3207.60666138,0.06046062
3209.53546875,0.06003497
3211.46427612,0.06013667
3213.39308350,0.05996105
3215.32189087,0.05975853
3217.25069824,0.05978885
3219.17950562,0.05941118
3221.10831299,0.05953225
3223.03712036,0.05939863
3224.96592773,0.05931115
3226.89473511,0.05917790
3228.82354248,0.05898822
3230.75234985,0.05908278
3232.68115723,0.05878043
3234.60996460,0.05871819
3236.53877197,0.05862986
3238.46757935,0.05858936
3240.39638672,0.05851360
3242.32519409,0.05839868
3244.25400146,0.05822542
3246.18280884,0.05805930
3248.11161621,0.05829137
3250.04042358,0.05802885
3251.96923096,0.05798039
3253.89803833,0.05781813
3255.82684570,0.05759125
3257.75565308,0.05771435
3259.68446045,0.05747080
3261.61326782,0.05755232
3263.54207520,0.05745552
3265.47088257,0.05735582
3267.39968994,0.05744821
3269.32849731,0.05734343
3271.25730469,0.05714520
3273.18611206,0.05696552
3275.11491943,0.05696682
3277.04372681,0.05684857
3278.97253418,0.05696736
3280.90134155,0.05687906
3282.83014893,0.05667184
3284.75895630,0.05665116
3286.68776367,0.05664623
3288.61657104,0.05663564
3290.54537842,0.05631913
3292.47418579,0.05621792
3294.40299316,0.05625904
3296.33180054,0.05630650
3298.26060791,0.05611640
3300.18941528,0.05605068
3302.11822266,0.05607436
3304.04703003,0.05581748
3305.97583740,0.05582595
3307.90464478,0.05554299
3309.83345215,0.05551209
3311.76225952,0.05560217
3313.69106689,0.05550558
3315.61987427,0.05554689
3317.54868164,0.05533555
3319.47748901,0.05531975
3321.40629639,0.05526397
3323.33510376,0.05512136
3325.26391113,0.05498985
3327.19271851,0.05498596
3329.12152588,0.05496441
3331.05033325,0.05477073
3332.97914062,0.05468126
3334.90794800,0.05452801
3336.83675537,0.05440618
3338.76556274,0.05430105
3340.69437012,0.05443753
3342.62317749,0.05429635
3344.55198486,0.05414713
3346.48079224,0.05411701
3348.40959961,0.05391337
3350.33840698,0.05395635
3352.26721436,0.05369186
3354.19602173,0.05368990
3356.12482910,0.05362038
3358.05363647,0.05350293
3359.98244385,0.05342275
3361.91125122,0.05314799
3363.84005859,0.05324753
3365.76886597,0.05298927
3367.69767334,0.05296228
3369.62648071,0.05285754
3371.55528809,0.05280258
3373.48409546,0.05283388
3375.41290283,0.05255912
3377.34171020,0.05264042
3379.27051758,0.05243587
3381.19932495,0.05247319
3383.12813232,0.05225504
3385.05693970,0.05196556
3386.98574707,0.05197579
3388.91455444,0.05197828
3390.84336182,0.05181968
3392.77216919,0.05126882
3394.70097656,0.05158358
3396.62978394,0.05138171
3398.55859131,0.05113279
3400.48739868,0.05123281
3402.41620605,0.05099626
3404.34501343,0.05115224
3406.27382080,0.05097583
3408.20262817,0.05102471
3410.13143555,0.05080880
3412.06024292,0.05080518
3413.98905029,0.05074547
3415.91785767,0.05045792
3417.84666504,0.05065858
3419.77547241,0.05006885
3421.70427979,0.05000202
3423.63308716,0.05011340
3425.56189453,0.05000632
3427.49070190,0.04996097
3429.41950928,0.04978760
3431.34831665,0.04973836
3433.27712402,0.04950972
3435.20593140,0.04965013
3437.13473877,0.04937324
3439.06354614,0.04937177
3440.99235352,0.04932802
3442.92116089,0.04900239
3444.84996826,0.04907218
3446.77877563,0.04850464
3448.70758301,0.04861514
3450.63639038,0.04904122
3452.56519775,0.04892451
3454.49400513,0.04882535
3456.42281250,0.04873279
3458.35161987,0.04866464
3460.28042725,0.04849652
3462.20923462,0.04828690
3464.13804199,0.04835465
3466.06684937,0.04834478
3467.99565674,0.04799574
3469.92446411,0.04827339
3471.85327148,0.04814125
3473.78207886,0.04796125
3475.71088623,0.04803811
3477.63969360,0.04799781
3479.56850098,0.04808633
3481.49730835,0.04726505
3483.42611572,0.04752026
3485.35492310,0.04779370
3487.28373047,0.04740381
3489.21253784,0.04755072
3491.14134521,0.04753466
3493.07015259,0.04781172
3494.99895996,0.04745071
3496.92776733,0.04728649
3498.85657471,0.04739518
3500.78538208,0.04740949
3502.71418945,0.04667878
3504.64299683,0.04643157
3506.57180420,0.04767285
3508.50061157,0.04694162
3510.42941895,0.04676604
3512.35822632,0.04726318
3514.28703369,0.04716383
3516.21584106,0.04741529
3518.14464844,0.04697008
3520.07345581,0.04715601
3522.00226318,0.04672496
3523.93107056,0.04613379
3525.85987793,0.04632989
3527.78868530,0.04628345
3529.71749268,0.04633948
3531.64630005,0.04672984
3533.57510742,0.04718198
3535.50391479,0.04663613
3537.43272217,0.04647043
3539.36152954,0.04692914
3541.29033691,0.04682827
3543.21914429,0.04649926
3545.14795166,0.04558929
3547.07675903,0.04488578
3549.00556641,0.04623496
3550.93437378,0.04659552
3552.86318115,0.04545431
3554.79198853,0.04635102
3556.72079590,0.04658739
3558.64960327,0.04638064
3560.57841064,0.04601426
3562.50721802,0.04572055
3564.43602539,0.04606623
3566.36483276,0.04284100
3568.29364014,0.04175742
3570.22244751,0.04531657
3572.15125488,0.04656053
3574.08006226,0.04597305
3576.00886963,0.04617423
3577.93767700,0.04599656
3579.86648437,0.04583361
3581.79529175,0.04593445
3583.72409912,0.04607166
3585.65290649,0.04508701
3587.58171387,0.04123839
3589.51052124,0.04239540
3591.43932861,0.04627053
3593.36813599,0.04494512
3595.29694336,0.04414389
3597.22575073,0.04492638
3599.15455811,0.04541182
3601.08336548,0.04499302
3603.01217285,0.04526392
3604.94098022,0.04618805
3606.86978760,0.04457905
3608.79859497,0.04183976
3610.72740234,0.04274458
3612.65620972,0.04371410
3614.58501709,0.04242583
3616.51382446,0.04558448
3618.44263184,0.04212615
3620.37143921,0.04059037
3622.30024658,0.04593734
3624.22905395,0.04455717
3626.15786133,0.04662310
3628.08666870,0.03944121
3630.01547607,0.03567097
3631.94428345,0.04528664
3633.87309082,0.04409813
3635.80189819,0.04479881
3637.73070557,0.04585794
3639.65951294,0.04509896
3641.58832031,0.04559497
3643.51712769,0.04485916
3645.44593506,0.04524834
3647.37474243,0.04060119
3649.30354980,0.03710542
3651.23235718,0.03755827
3653.16116455,0.04484625
3655.08997192,0.04439963
3657.01877930,0.03961316
3658.94758667,0.04559583
3660.87639404,0.04462479
3662.80520142,0.04542873
3664.73400879,0.04520994
3666.66281616,0.04466669
3668.59162354,0.04338609
3670.52043091,0.03502286
3672.44923828,0.04278675
3674.37804565,0.04080499
3676.30685303,0.03352038
3678.23566040,0.04244079
3680.16446777,0.04339766
3682.09327515,0.04356938
3684.02208252,0.04483020
3685.95088989,0.04403637
3687.87969727,0.03956988
3689.80850464,0.03609937
3691.73731201,0.04141338
3693.66611938,0.04264165
3695.59492676,0.04368561
3697.52373413,0.04382598
3699.45254150,0.04333137
3701.38134888,0.04208941
3703.31015625,0.04041899
3705.23896362,0.04459489
3707.16777100,0.04245269
3709.09657837,0.04142299
3711.02538574,0.03892063
3712.95419312,0.03629668
3714.88300049,0.04271457
3716.81180786,0.04216805
3718.74061523,0.04244986
3720.66942261,0.04153088
3722.59822998,0.04003809
3724.52703735,0.04150723
3726.45584473,0.03843826
3728.38465210,0.04178509
3730.31345947,0.04134298
3732.24226685,0.03788946
3734.17107422,0.03701519
3736.09988159,0.03508218
3738.02868896,0.03718995
3739.95749634,0.04036859
3741.88630371,0.04233167
3743.81511108,0.03274912
3745.74391846,0.03064428
3747.67272583,0.04019696
3749.60153320,0.03455248
3751.53034058,0.03165711
3753.45914795,0.03662140
3755.38795532,0.03939455
3757.31676270,0.04100512
3759.24557007,0.03788108
3761.17437744,0.03922614
3763.10318481,0.04179955
3765.03199219,0.03893375
3766.96079956,0.03970982
3768.88960693,0.03923609
3770.81841431,0.03743062
3772.74722168,0.04052159
3774.67602905,0.04062543
3776.60483643,0.04066129
3778.53364380,0.03945958
3780.46245117,0.03785639
3782.39125854,0.04052367
3784.32006592,0.03964655
3786.24887329,0.03928687
3788.17768066,0.04013624
3790.10648804,0.03993165
3792.03529541,0.03966855
3793.96410278,0.04036069
3795.89291016,0.03789953
3797.82171753,0.03733067
3799.75052490,0.03943886
3801.67933228,0.03108875
3803.60813965,0.03640089
3805.53694702,0.03981551
3807.46575439,0.03234485
3809.39456177,0.03931017
3811.32336914,0.03857033
3813.25217651,0.03991847
3815.18098389,0.03606997
3817.10979126,0.03127198
3819.03859863,0.03978165
3820.96740601,0.03207119
3822.89621338,0.03369524
3824.82502075,0.03963289
3826.75382812,0.03566436
3828.68263550,0.03850909
3830.61144287,0.03696430
3832.54025024,0.03565866
3834.46905762,0.03645974
3836.39786499,0.03463043
3838.32667236,0.03124849
3840.25547974,0.03377487
3842.18428711,0.03653095
3844.11309448,0.03482579
3846.04190186,0.03777390
3847.97070923,0.03719550
3849.89951660,0.03721021
3851.82832397,0.03343795
3853.75713135,0.02486918
3855.68593872,0.02960534
3857.61474609,0.03733099
3859.54355347,0.03637978
3861.47236084,0.03580706
3863.40116821,0.03508314
3865.32997559,0.03248694
3867.25878296,0.03627094
3869.18759033,0.03322374
3871.11639770,0.03050420
3873.04520508,0.03642741
3874.97401245,0.03346281
3876.90281982,0.03611047
3878.83162720,0.03687491
3880.76043457,0.03140570
3882.68924194,0.03630199
3884.61804932,0.03396171
3886.54685669,0.03104986
3888.47566406,0.03636371
3890.40447144,0.03446139
3892.33327881,0.03228045
3894.26208618,0.03538135
3896.19089355,0.03611340
3898.11970093,0.03429224
3900.04850830,0.03229455
3901.97731567,0.03191674
3903.90612305,0.03173635
3905.83493042,0.03222643
3907.76373779,0.03531387
3909.69254517,0.03536373
3911.62135254,0.03491474
3913.55015991,0.03561355
3915.47896728,0.03440154
3917.40777466,0.03342581
3919.33658203,0.03313596
3921.26538940,0.03434861
3923.19419678,0.03421031
3925.12300415,0.03350962
3927.05181152,0.03419441
3928.98061890,0.03447966
3930.90942627,0.03374776
3932.83823364,0.03255627
3934.76704102,0.03389667
3936.69584839,0.03432093
3938.62465576,0.03397403
3940.55346313,0.03426617
3942.48227051,0.03293863
3944.41107788,0.03326920
3946.33988525,0.03389459
3948.26869263,0.03301276
3950.19750000,0.03299137
3952.12630737,0.03351781
3954.05511475,0.03349670
3955.98392212,0.03341828
3957.91272949,0.03324381
3959.84153687,0.03317472
3961.77034424,0.03309715
3963.69915161,0.03296325
3965.62795898,0.03335290
3967.55676636,0.03299086
3969.48557373,0.03290763
3971.41438110,0.03302128
3973.34318848,0.03281419
3975.27199585,0.03272799
3977.20080322,0.03251814
3979.12961060,0.03278574
3981.05841797,0.03252032
3982.98722534,0.03247936
3984.91603271,0.03249790
3986.84484009,0.03251006
3988.77364746,0.03241991
3990.70245483,0.03201941
3992.63126221,0.03237106
3994.56006958,0.03214750
3996.48887695,0.03215004
3998.41768433,0.03200614
4000.34649170,0.03193429
4002.27529907,0.03202479
4004.20410645,0.03170621
4006.13291382,0.03197166
4008.06172119,0.03153042
4009.99052856,0.03156583
4011.91933594,0.03164544
4013.84814331,0.03143922
4015.77695068,0.03149494
4017.70575806,0.03129604
4019.63456543,0.03133760
4021.56337280,0.03110550
4023.49218018,0.03123252
4025.42098755,0.03102929
4027.34979492,0.03102994
4029.27860229,0.03102371
4031.20740967,0.03073049
4033.13621704,0.03095047
4035.06502441,0.03067951
4036.99383179,0.03084935
4038.92263916,0.03068453
4040.85144653,0.03055673
4042.78025391,0.03059984
4044.70906128,0.03036258
4046.63786865,0.03055377
4048.56667603,0.03036707
4050.49548340,0.03037063
4052.42429077,0.03018967
4054.35309814,0.03013302
4056.28190552,0.03014415
4058.21071289,0.03002958
4060.13952026,0.03003015
4062.06832764,0.02982436
4063.99713501,0.02990448
4065.92594238,0.02972332
4067.85474976,0.02973532
4069.78355713,0.02958804
4071.71236450,0.02948876
4073.64117187,0.02954650
4075.56997925,0.02938038
4077.49878662,0.02945263
4079.42759399,0.02916274
4081.35640137,0.02917327
4083.28520874,0.02914571
4085.21401611,0.02923608
4087.14282349,0.02919985
4089.07163086,0.02892898
4091.00043823,0.02909437
4092.92924561,0.02885256
4094.85805298,0.02885039
4096.78686035,0.02876952
4098.71566772,0.02868878
4100.64447510,0.02866368
4102.57328247,0.02861800
4104.50208984,0.02862475
4106.43089722,0.02830906
4108.35970459,0.02843656
4110.28851196,0.02830657
4112.21731934,0.02825649
4114.14612671,0.02828186
4116.07493408,0.02814143
4118.00374145,0.02811740
4119.93254883,0.02798476
4121.86135620,0.02807681
4123.79016357,0.02787989
4125.71897095,0.02782400
4127.64777832,0.02775048
4129.57658569,0.02774717
4131.50539307,0.02777528
4133.43420044,0.02752441
4135.36300781,0.02758677
4137.29181519,0.02750342
4139.22062256,0.02748955
4141.14942993,0.02733506
4143.07823730,0.02721895
4145.00704468,0.02722262
4146.93585205,0.02713709
4148.86465942,0.02711101
4150.79346680,0.02697747
4152.72227417,0.02705490
4154.65108154,0.02695185
4156.57988892,0.02687648
4158.50869629,0.02674805
4160.43750366,0.02670878
4162.36631103,0.02676706
4164.29511841,0.02661983
4166.22392578,0.02664664
4168.15273315,0.02654362
4170.08154053,0.02653864
4172.01034790,0.02640529
4173.93915527,0.02636927
4175.86796265,0.02629945
4177.79677002,0.02621746
4179.72557739,0.02625272
4181.65438477,0.02597392
4183.58319214,0.02611319
4185.51199951,0.02601121
4187.44080688,0.02592635
4189.36961426,0.02591450
4191.29842163,0.02582682
4193.22722900,0.02592758
4195.15603638,0.02565230
4197.08484375,0.02563101
4199.01365112,0.02558000
4200.94245850,0.02557415
4202.87126587,0.02545510
4204.80007324,0.02534182
4206.72888062,0.02539718
4208.65768799,0.02528567
4210.58649536,0.02535604
4212.51530273,0.02511580
4214.44411011,0.02516156
4216.37291748,0.02509043
4218.30172485,0.02497845
4220.23053223,0.02508855
4222.15933960,0.02490949
4224.08814697,0.02493495
4226.01695435,0.02478901
4227.94576172,0.02481997
4229.87456909,0.02468969
4231.80337646,0.02464982
4233.73218384,0.02470097
4235.66099121,0.02450456
4237.58979858,0.02457330
4239.51860596,0.02436169
4241.44741333,0.02437855
4243.37622070,0.02427531
4245.30502808,0.02421440
4247.23383545,0.02424698
4249.16264282,0.02408218
4251.09145020,0.02417568
4253.02025757,0.02404160
4254.94906494,0.02407006
4256.87787231,0.02393527
4258.80667969,0.02384408
4260.73548706,0.02384597
4262.66429443,0.02375683
4264.59310181,0.02382006
4266.52190918,0.02363818
4268.45071655,0.02364594
4270.37952393,0.02354888
4272.30833130,0.02354661
4274.23713867,0.02352409
4276.16594604,0.02341223
4278.09475342,0.02346294
4280.02356079,0.02331849
4281.95236816,0.02331191
4283.88117554,0.02319654
4285.80998291,0.02317680
4287.73879028,0.02316225
4289.66759766,0.02315861
4291.59640503,0.02311264
4293.52521240,0.02290330
4295.45401978,0.02294029
4297.38282715,0.02285175
4299.31163452,0.02287341
4301.24044189,0.02276380
4303.16924927,0.02264088
4305.09805664,0.02263115
4307.02686401,0.02254574
4308.95567139,0.02256995
4310.88447876,0.02243007
4312.81328613,0.02245329
4314.74209351,0.02237778
4316.67090088,0.02228920
4318.59970825,0.02231742
4320.52851562,0.02225194
4322.45732300,0.02219578
4324.38613037,0.02209590
4326.31493774,0.02209414
4328.24374512,0.02205525
4330.17255249,0.02205910
4332.10135986,0.02189216
4334.03016724,0.02184636
4335.95897461,0.02187340
4337.88778198,0.02173587
4339.81658936,0.02176838
4341.74539673,0.02165557
4343.67420410,0.02172046
4345.60301147,0.02167899
4347.53181885,0.02151022
4349.46062622,0.02152395
4351.38943359,0.02149003
4353.31824097,0.02150100
4355.24704834,0.02136094
4357.17585571,0.02130720
4359.10466309,0.02129072
4361.03347046,0.02122481
4362.96227783,0.02119398
4364.89108520,0.02112421
4366.81989258,0.02103422
4368.74869995,0.02100705
4370.67750732,0.02101018
4372.60631470,0.02090298
4374.53512207,0.02089297
4376.46392944,0.02081931
4378.39273682,0.02081060
4380.32154419,0.02074721
4382.25035156,0.02063096
4384.17915894,0.02065115
4386.10796631,0.02053307
4388.03677368,0.02048591
4389.96558105,0.02045101
4391.89438843,0.02045612
4393.82319580,0.02034770
4395.75200317,0.02035688
4397.68081055,0.02030634
4399.60961792,0.02009851
4401.53842529,0.02026532
4403.46723267,0.02013604
4405.39604004,0.02009481
4407.32484741,0.02011117
4409.25365478,0.02000494
4411.18246216,0.02003476
4413.11126953,0.01989641
4415.04007690,0.01990921
4416.96888428,0.01986101
4418.89769165,0.01983079
4420.82649902,0.01978741
4422.75530640,0.01977719
4424.68411377,0.01971771
4426.61292114,0.01953756
4428.54172852,0.01960800
4430.47053589,0.01953361
4432.39934326,0.01952189
4434.32815063,0.01949882
4436.25695801,0.01940455
4438.18576538,0.01932797
4440.11457275,0.01930397
4442.04338013,0.01931049
4443.97218750,0.01917206
4445.90099487,0.01922382
4447.82980225,0.01912753
4449.75860962,0.01908135
4451.68741699,0.01900640
4453.61622437,0.01891688
4455.54503174,0.01901018
4457.47383911,0.01887821
4459.40264648,0.01884712
4461.33145386,0.01877259
4463.26026123,0.01874116
4465.18906860,0.01871074
4467.11787598,0.01866905
4469.04668335,0.01858003
4470.97549072,0.01848874
4472.90429810,0.01862293
4474.83310547,0.01845900
4476.76191284,0.01843767
4478.69072021,0.01842305
4480.61952759,0.01835591
4482.54833496,0.01832600
4484.47714233,0.01816333
4486.40594971,0.01822954
4488.33475708,0.01819870
4490.26356445,0.01816719
4492.19237183,0.01807805
4494.12117920,0.01805618
4496.04998657,0.01796617
4497.97879395,0.01788104
4499.90760132,0.01798030
4501.83640869,0.01783517
4503.76521606,0.01794068
4505.69402344,0.01784780
4507.62283081,0.01766576
4509.55163818,0.01767625
4511.48044556,0.01762317
4513.40925293,0.01767006
4515.33806030,0.01756412
4517.26686768,0.01754158
4519.19567505,0.01746793
4521.12448242,0.01747836
4523.05328979,0.01744433
4524.98209717,0.01731298
4526.91090454,0.01736460
4528.83971191,0.01725610
4530.76851929,0.01719161
4532.69732666,0.01714160
4534.62613403,0.01717355
4536.55494141,0.01717210
4538.48374878,0.01711490
4540.41255615,0.01703961
4542.34136353,0.01694845
4544.27017090,0.01703733
4546.19897827,0.01694626
4548.12778564,0.01688624
4550.05659302,0.01681267
4551.98540039,0.01678966
4553.91420776,0.01677431
4555.84301514,0.01664290
4557.77182251,0.01669921
4559.70062988,0.01663281
4561.62943726,0.01659211
4563.55824463,0.01658317
4565.48705200,0.01653675
4567.41585937,0.01643253
4569.34466675,0.01636995
4571.27347412,0.01640880
4573.20228149,0.01635470
4575.13108887,0.01636051
4577.05989624,0.01626193
4578.98870361,0.01623730
4580.91751099,0.01614793
4582.84631836,0.01609885
4584.77512573,0.01614822
4586.70393311,0.01605592
4588.63274048,0.01615297
4590.56154785,0.01601862
4592.49035522,0.01594179
4594.41916260,0.01595299
4596.34796997,0.01576088
4598.27677734,0.01580989
4600.20558472,0.01587697
4602.13439209,0.01578996
4604.06319946,0.01564324
4605.99200684,0.01560171
4607.92081421,0.01558833
4609.84962158,0.01560574
4611.77842895,0.01557543
4613.70723633,0.01551079
4615.63604370,0.01551459
4617.56485107,0.01541969
4619.49365845,0.01550013
4621.42246582,0.01541379
4623.35127319,0.01525794
4625.28008057,0.01538542
4627.20888794,0.01526781
4629.13769531,0.01515382
4631.06650269,0.01524363
4632.99531006,0.01513552
4634.92411743,0.01502855
4636.85292480,0.01510300
4638.78173218,0.01508072
4640.71053955,0.01500698
4642.63934692,0.01487987
4644.56815430,0.01485130
4646.49696167,0.01493782
4648.42576904,0.01486407
4650.35457642,0.01481876
4652.28338379,0.01479866
4654.21219116,0.01475803
4656.14099853,0.01467755
4658.06980591,0.01466139
4659.99861328,0.01468109
4661.92742065,0.01466068
4663.85622803,0.01465001
4665.78503540,0.01453687
4667.71384277,0.01452192
4669.64265015,0.01446139
4671.57145752,0.01442308
4673.50026489,0.01443441
4675.42907227,0.01436646
4677.35787964,0.01437723
4679.28668701,0.01433186
4681.21549438,0.01429301
4683.14430176,0.01420720
4685.07310913,0.01418826
4687.00191650,0.01422967
4688.93072388,0.01422431
4690.85953125,0.01412669
4692.78833862,0.01403974
4694.71714600,0.01411714
4696.64595337,0.01402573
4698.57476074,0.01402662
4700.50356812,0.01391154
4702.43237549,0.01381578
4704.36118286,0.01392558
4706.28999023,0.01382609
4708.21879761,0.01388717
4710.14760498,0.01381626
4712.07641235,0.01373639
4714.00521973,0.01372049
4715.93402710,0.01359242
4717.86283447,0.01360029
4719.79164185,0.01363213
4721.72044922,0.01367958
4723.64925659,0.01355180
4725.57806396,0.01356916
4727.50687134,0.01356391
4729.43567871,0.01346593
4731.36448608,0.01350864
4733.29329346,0.01334681
4735.22210083,0.01332602
4737.15090820,0.01334748
4739.07971558,0.01325638
4741.00852295,0.01321247
4742.93733032,0.01322313
4744.86613770,0.01316305
4746.79494507,0.01306561
4748.72375244,0.01314505
4750.65255981,0.01314250
4752.58136719,0.01315337
4754.51017456,0.01305748
4756.43898193,0.01296579
4758.36778931,0.01301280
4760.29659668,0.01289174
4762.22540405,0.01294753
4764.15421143,0.01299792
4766.08301880,0.01288277
4768.01182617,0.01288396
4769.94063354,0.01280302
4771.86944092,0.01268714
4773.79824829,0.01273941
4775.72705566,0.01271550
4777.65586304,0.01261707
4779.58467041,0.01259415
4781.51347778,0.01257561
4783.44228516,0.01256973
4785.37109253,0.01250440
4787.29989990,0.01248393
4789.22870728,0.01247434
4791.15751465,0.01241677
4793.08632202,0.01238560
4795.01512939,0.01238279
4796.94393677,0.01235271
4798.87274414,0.01227323
4800.80155151,0.01229068
4802.73035889,0.01222224
4804.65916626,0.01226449
4806.58797363,0.01231787
4808.51678101,0.01221586
4810.44558838,0.01221644
4812.37439575,0.01211786
4814.30320312,0.01207872
4816.23201050,0.01200706
4818.16081787,0.01200841
4820.08962524,0.01205872
4822.01843262,0.01194482
4823.94723999,0.01193558
4825.87604736,0.01189204
4827.80485474,0.01191055
4829.73366211,0.01185856
4831.66246948,0.01184727
4833.59127686,0.01184057
4835.52008423,0.01169213
4837.44889160,0.01170683
4839.37769897,0.01165424
4841.30650635,0.01165136
4843.23531372,0.01160452
4845.16412109,0.01158493
4847.09292847,0.01162431
4849.02173584,0.01157034
4850.95054321,0.01163410
4852.87935059,0.01155550
4854.80815796,0.01147136
4856.73696533,0.01144813
4858.66577270,0.01146825
4860.59458008,0.01144914
4862.52338745,0.01135786
4864.45219482,0.01135632
4866.38100220,0.01130685
4868.30980957,0.01137280
4870.23861694,0.01132587
4872.16742432,0.01120315
4874.09623169,0.01119722
4876.02503906,0.01114103
4877.95384644,0.01108190
4879.88265381,0.01103146
4881.81146118,0.01105465
4883.74026855,0.01106791
4885.66907593,0.01110910
4887.59788330,0.01105273
4889.52669067,0.01094649
4891.45549805,0.01096714
4893.38430542,0.01094253
4895.31311279,0.01091940
4897.24192017,0.01089162
4899.17072754,0.01088602
4901.09953491,0.01086797
4903.02834228,0.01083539
4904.95714966,0.01078200
4906.88595703,0.01071197
4908.81476440,0.01068827
4910.74357178,0.01070050
4912.67237915,0.01072984
4914.60118652,0.01060576
4916.52999390,0.01056963
4918.45880127,0.01058673
4920.38760864,0.01058712
4922.31641602,0.01063464
4924.24522339,0.01051359
4926.17403076,0.01049467
4928.10283813,0.01053389
4930.03164551,0.01041915
4931.96045288,0.01029911
4933.88926025,0.01038718
4935.81806763,0.01043163
4937.74687500,0.01024226
4939.67568237,0.01020392
4941.60448975,0.01021363
4943.53329712,0.01020809
4945.46210449,0.01019880
4947.39091187,0.01018103
4949.31971924,0.01015982
4951.24852661,0.01003285
4953.17733398,0.01004265
4955.10614136,0.01005131
4957.03494873,0.00996837
4958.96375610,0.01001676
4960.89256348,0.00999149
4962.82137085,0.00986881
4964.75017822,0.00993700
4966.67898560,0.00997573
4968.60779297,0.00990958
4970.53660034,0.00991911
4972.46540771,0.00987442
4974.39421509,0.00983494
4976.32302246,0.00979135
4978.25182983,0.00975622
4980.18063721,0.00968927
4982.10944458,0.00965637
4984.03825195,0.00974536
4985.96705933,0.00968677
4987.89586670,0.00963746
4989.82467407,0.00961635
4991.75348145,0.00955056
4993.68228882,0.00951526
4995.61109619,0.00950681
4997.53990356,0.00949337
4999.46871094,0.00943067
5001.39751831,0.00945520
5003.32632568,0.00941029
5005.25513306,0.00939425
5007.18394043,0.00945335
5009.11274780,0.00940965
5011.04155518,0.00934594
5012.97036255,0.00926001
5014.89916992,0.00929612
5016.82797729,0.00931500
5018.75678467,0.00924600
5020.68559204,0.00921723
5022.61439941,0.00918842
5024.54320679,0.00921169
5026.47201416,0.00919330
5028.40082153,0.00910052
5030.32962891,0.00905119
5032.25843628,0.00908981
5034.18724365,0.00907903
5036.11605103,0.00903484
5038.04485840,0.00904283
5039.97366577,0.00901097
5041.90247314,0.00901267
5043.83128052,0.00898682
5045.76008789,0.00886538
5047.68889526,0.00885210
5049.61770264,0.00887862
5051.54651001,0.00883605
5053.47531738,0.00880265
5055.40412476,0.00873521
5057.33293213,0.00879754
5059.26173950,0.00882001
5061.19054687,0.00872030
5063.11935425,0.00881675
5065.04816162,0.00876129
5066.97696899,0.00866578
5068.90577637,0.00872229
5070.83458374,0.00868027
5072.76339111,0.00863937
5074.69219849,0.00861134
5076.62100586,0.00861364
5078.54981323,0.00853678
5080.47862061,0.00844218
5082.40742798,0.00847751
5084.33623535,0.00853542
5086.26504272,0.00847946
5088.19385010,0.00837214
5090.12265747,0.00844138
5092.05146484,0.00841175
5093.98027222,0.00831519
5095.90907959,0.00838700
5097.83788696,0.00838597
5099.76669434,0.00831465
5101.69550171,0.00829326
5103.62430908,0.00825938
5105.55311645,0.00823823
5107.48192383,0.00827593
5109.41073120,0.00823813
5111.33953857,0.00816545
5113.26834595,0.00814645
5115.19715332,0.00815897
5117.12596069,0.00811626
5119.05476807,0.00807051
5120.98357544,0.00808196
5122.91238281,0.00803591
5124.84119019,0.00806800
5126.76999756,0.00800562
5128.69880493,0.00793746
5130.62761230,0.00801204
5132.55641968,0.00797290
5134.48522705,0.00793504
5136.41403442,0.00790131
5138.34284180,0.00798197
5140.27164917,0.00796317
5142.20045654,0.00780295
5144.12926392,0.00784278
5146.05807129,0.00783337
5147.98687866,0.00780386
5149.91568603,0.00780043
5151.84449341,0.00779366
5153.77330078,0.00776942
5155.70210815,0.00768664
5157.63091553,0.00763272
5159.55972290,0.00760986
5161.48853027,0.00769302
5163.41733765,0.00765852
5165.34614502,0.00752536
5167.27495239,0.00755965
5169.20375977,0.00759620
5171.13256714,0.00750319
5173.06137451,0.00747449
5174.99018188,0.00759876
5176.91898926,0.00756391
5178.84779663,0.00742475
5180.77660400,0.00751810
5182.70541138,0.00755607
5184.63421875,0.00736647
5186.56302612,0.00731944
5188.49183350,0.00731078
5190.42064087,0.00727062
5192.34944824,0.00737350
5194.27825562,0.00738354
5196.20706299,0.00727701
5198.13587036,0.00724350
5200.06467773,0.00726749
5201.99348511,0.00726210
5203.92229248,0.00726678
5205.85109985,0.00707058
5207.77990723,0.00689249
5209.70871460,0.00711144
5211.63752197,0.00719584
5213.56632935,0.00716506
5215.49513672,0.00714778
5217.42394409,0.00709474
5219.35275146,0.00707818
5221.28155884,0.00700248
5223.21036621,0.00701525
5225.13917358,0.00689060
5227.06798096,0.00690264
5228.99678833,0.00710973
5230.92559570,0.00700156
5232.85440308,0.00689125
5234.78321045,0.00694378
5236.71201782,0.00698670
5238.64082520,0.00692583
5240.56963257,0.00693469
5242.49843994,0.00691918
5244.42724731,0.00678340
5246.35605469,0.00675716
5248.28486206,0.00661638
5250.21366943,0.00669150
5252.14247681,0.00694912
5254.07128418,0.00672535
5256.00009155,0.00661063
5257.92889893,0.00676614
5259.85770630,0.00666936
5261.78651367,0.00661847
5263.71532104,0.00660213
5265.64412842,0.00660257
5267.57293579,0.00669137
5269.50174316,0.00659777
5271.43055054,0.00659299
5273.35935791,0.00664739
5275.28816528,0.00662492
5277.21697266,0.00663446
5279.14578003,0.00653386
5281.07458740,0.00652522
5283.00339478,0.00661139
5284.93220215,0.00651172
5286.86100952,0.00645489
5288.78981689,0.00652464
5290.71862427,0.00646202
5292.64743164,0.00648711
5294.57623901,0.00651165
5296.50504639,0.00634444
5298.43385376,0.00633912
5300.36266113,0.00640335
5302.29146851,0.00634453
5304.22027588,0.00629992
5306.14908325,0.00635277
5308.07789062,0.00630613
5310.00669800,0.00627980
5311.93550537,0.00630597
5313.86431274,0.00624357
5315.79312012,0.00627637
5317.72192749,0.00620415
5319.65073486,0.00620088
5321.57954224,0.00618151
5323.50834961,0.00611614
5325.43715698,0.00615498
5327.36596436,0.00599564
5329.29477173,0.00607244
5331.22357910,0.00612900
5333.15238647,0.00600746
5335.08119385,0.00604989
5337.01000122,0.00598972
5338.93880859,0.00583902
5340.86761597,0.00595072
5342.79642334,0.00606286
5344.72523071,0.00573884
5346.65403809,0.00585892
5348.58284546,0.00603174
5350.51165283,0.00593536
5352.44046020,0.00598258
5354.36926758,0.00567441
5356.29807495,0.00582451
5358.22688232,0.00600434
5360.15568970,0.00586660
5362.08449707,0.00591624
5364.01330444,0.00575604
5365.94211182,0.00579113
5367.87091919,0.00582916
5369.79972656,0.00578251
5371.72853394,0.00580359
5373.65734131,0.00580538
5375.58614868,0.00567865
5377.51495605,0.00554158
5379.44376343,0.00575839
5381.37257080,0.00572995
5383.30137817,0.00562560
5385.23018555,0.00563285
5387.15899292,0.00556557
5389.08780029,0.00562106
5391.01660767,0.00566114
5392.94541504,0.00559479
5394.87422241,0.00545039
5396.80302978,0.00557014
5398.73183716,0.00560391
5400.66064453,0.00550939
5402.58945190,0.00554020
5404.51825928,0.00547462
5406.44706665,0.00555013
5408.37587402,0.00549899
5410.30468140,0.00546623
5412.23348877,0.00544301
5414.16229614,0.00525796
5416.09110352,0.00541762
5418.01991089,0.00550476
5419.94871826,0.00542291
5421.87752563,0.00540872
5423.80633301,0.00540566
5425.73514038,0.00545252
5427.66394775,0.00527499
5429.59275513,0.00511101
5431.52156250,0.00523826
5433.45036987,0.00528828
5435.37917725,0.00517666
5437.30798462,0.00527351
5439.23679199,0.00532992
5441.16559936,0.00512448
5443.09440674,0.00520447
5445.02321411,0.00520371
5446.95202148,0.00509340
5448.88082886,0.00525031
5450.80963623,0.00515149
5452.73844360,0.00515914
5454.66725098,0.00517615
5456.59605835,0.00507318
5458.52486572,0.00520183
5460.45367310,0.00501131
5462.38248047,0.00496461
5464.31128784,0.00512058
5466.24009521,0.00504506
5468.16890259,0.00503369
5470.09770996,0.00500484
5472.02651733,0.00504828
5473.95532471,0.00498255
5475.88413208,0.00486913
5477.81293945,0.00497277
5479.74174683,0.00500537
5481.67055420,0.00494938
5483.59936157,0.00492902
5485.52816895,0.00496981
5487.45697632,0.00488528
5489.38578369,0.00478006
5491.31459106,0.00486426
5493.24339844,0.00481759
5495.17220581,0.00478199
5497.10101318,0.00491085
5499.02982056,0.00484455
5500.95862793,0.00485735
5502.88743530,0.00492140
5504.81624268,0.00482760
5506.74505005,0.00485522
5508.67385742,0.00479672
5510.60266479,0.00477810
5512.53147217,0.00477674
5514.46027954,0.00474608
5516.38908691,0.00479828
5518.31789429,0.00470289
5520.24670166,0.00475689
5522.17550903,0.00475012
5524.10431641,0.00463563
5526.03312378,0.00466806
5527.96193115,0.00475340
5529.89073853,0.00472693
5531.81954590,0.00454771
5533.74835327,0.00464193
5535.67716064,0.00465190
5537.60596802,0.00460403
5539.53477539,0.00458871
5541.46358276,0.00452271
5543.39239014,0.00469752
5545.32119751,0.00460158
5547.25000488,0.00452354
5549.17881226,0.00459300
5551.10761963,0.00453086
5553.03642700,0.00450980
5554.96523437,0.00451056
5556.89404175,0.00457763
5558.82284912,0.00448899
5560.75165649,0.00446996
5562.68046387,0.00454118
5564.60927124,0.00445967
5566.53807861,0.00443505
5568.46688599,0.00445016
5570.39569336,0.00441142
5572.32450073,0.00441106
5574.25330811,0.00444878
5576.18211548,0.00442706
5578.11092285,0.00444408
5580.03973022,0.00432749
5581.96853760,0.00429055
5583.89734497,0.00438270
5585.82615234,0.00434955
5587.75495972,0.00438025
5589.68376709,0.00430064
5591.61257446,0.00430846
5593.54138184,0.00432052
5595.47018921,0.00426160
5597.39899658,0.00427283
5599.32780395,0.00419387
5601.25661133,0.00427173
5603.18541870,0.00425751
5605.11422607,0.00419177
5607.04303345,0.00423317
5608.97184082,0.00420150
5610.90064819,0.00418576
5612.82945557,0.00421724
5614.75826294,0.00423788
5616.68707031,0.00416775
5618.61587769,0.00418313
5620.54468506,0.00417942
5622.47349243,0.00414215
5624.40229980,0.00411000
5626.33110718,0.00408551
5628.25991455,0.00408532
5630.18872192,0.00402961
5632.11752930,0.00412846
5634.04633667,0.00409906
5635.97514404,0.00406385
5637.90395142,0.00403573
5639.83275879,0.00395420
5641.76156616,0.00411366
5643.69037353,0.00401200
5645.61918091,0.00393236
5647.54798828,0.00403699
5649.47679565,0.00398544
5651.40560303,0.00396182
5653.33441040,0.00396943
5655.26321777,0.00396561
5657.19202515,0.00388221
5659.12083252,0.00387514
5661.04963989,0.00392141
5662.97844727,0.00389902
5664.90725464,0.00387811
5666.83606201,0.00384083
5668.76486938,0.00380639
5670.69367676,0.00378641
5672.62248413,0.00382629
5674.55129150,0.00384434
5676.48009888,0.00381158
5678.40890625,0.00381595
5680.33771362,0.00384200
5682.26652100,0.00379656
5684.19532837,0.00377848
5686.12413574,0.00376232
5688.05294311,0.00370446
5689.98175049,0.00376334
5691.91055786,0.00373175
5693.83936523,0.00374740
5695.76817261,0.00377753
5697.69697998,0.00369089
5699.62578735,0.00376433
5701.55459473,0.00371361
5703.48340210,0.00364593
5705.41220947,0.00373248
5707.34101685,0.00369252
5709.26982422,0.00360683
5711.19863159,0.00355153
5713.12743896,0.00358057
5715.05624634,0.00362358
5716.98505371,0.00353492
5718.91386108,0.00353743
5720.84266846,0.00357207
5722.77147583,0.00351249
5724.70028320,0.00355705
5726.62909058,0.00350328
5728.55789795,0.00345626
5730.48670532,0.00354821
5732.41551270,0.00351913
5734.34432007,0.00349682
5736.27312744,0.00349082
5738.20193481,0.00350620
5740.13074219,0.00353687
5742.05954956,0.00350361
5743.98835693,0.00348378
5745.91716431,0.00348506
5747.84597168,0.00344933
5749.77477905,0.00340848
5751.70358643,0.00342606
5753.63239380,0.00339445
5755.56120117,0.00341914
5757.49000854,0.00341515
5759.41881592,0.00336893
5761.34762329,0.00339050
5763.27643066,0.00331784
5765.20523804,0.00330048
5767.13404541,0.00332930
5769.06285278,0.00337777
5770.99166016,0.00335531
5772.92046753,0.00331797
5774.84927490,0.00337313
5776.77808228,0.00332329
5778.70688965,0.00328720
5780.63569702,0.00323601
5782.56450439,0.00327746
5784.49331177,0.00330117
5786.42211914,0.00325153
5788.35092651,0.00329677
5790.27973389,0.00322577
5792.20854126,0.00324712
5794.13734863,0.00326741
5796.06615601,0.00321301
5797.99496338,0.00321943
5799.92377075,0.00319551
5801.85257812,0.00319226
5803.78138550,0.00319633
5805.71019287,0.00321879
5807.63900024,0.00313108
5809.56780762,0.00311653
5811.49661499,0.00317905
5813.42542236,0.00307259
5815.35422974,0.00306959
5817.28303711,0.00315442
5819.21184448,0.00311968
5821.14065186,0.00305566
5823.06945923,0.00302298
5824.99826660,0.00302373
5826.92707397,0.00306986
5828.85588135,0.00301556
5830.78468872,0.00304119
5832.71349609,0.00310652
5834.64230347,0.00297179
5836.57111084,0.00295220
5838.49991821,0.00298155
5840.42872559,0.00298992
5842.35753296,0.00297084
5844.28634033,0.00294764
5846.21514770,0.00298424
5848.14395508,0.00295743
5850.07276245,0.00301965
5852.00156982,0.00296154
5853.93037720,0.00286596
5855.85918457,0.00291964
5857.78799194,0.00292307
5859.71679932,0.00287800
5861.64560669,0.00279777
5863.57441406,0.00284383
5865.50322144,0.00288578
5867.43202881,0.00286305
5869.36083618,0.00289285
5871.28964355,0.00286348
5873.21845093,0.00281200
5875.14725830,0.00285008
5877.07606567,0.00288555
5879.00487305,0.00278514
5880.93368042,0.00277128
5882.86248779,0.00279432
5884.79129517,0.00277198
5886.72010254,0.00281848
5888.64890991,0.00280107
5890.57771728,0.00277330
5892.50652466,0.00274263
5894.43533203,0.00271200
5896.36413940,0.00273627
5898.29294678,0.00269194
5900.22175415,0.00266939
5902.15056152,0.00276346
5904.07936890,0.00273236
5906.00817627,0.00267581
5907.93698364,0.00276450
5909.86579102,0.00274327
5911.79459839,0.00271868
5913.72340576,0.00272579
5915.65221313,0.00264084
5917.58102051,0.00265484
5919.50982788,0.00267571
5921.43863525,0.00261884
5923.36744263,0.00265052
5925.29625000,0.00261599
5927.22505737,0.00251996
5929.15386475,0.00257303
5931.08267212,0.00261882
5933.01147949,0.00265032
5934.94028686,0.00263153
5936.86909424,0.00259336
5938.79790161,0.00262322
5940.72670898,0.00260910
5942.65551636,0.00258118
5944.58432373,0.00253512
5946.51313110,0.00260664
5948.44193848,0.00255174
5950.37074585,0.00245957
5952.29955322,0.00255469
5954.22836060,0.00251384
5956.15716797,0.00254086
5958.08597534,0.00250850
5960.01478271,0.00249029
5961.94359009,0.00255286
5963.87239746,0.00250323
5965.80120483,0.00251586
5967.73001221,0.00244198
5969.65881958,0.00245185
5971.58762695,0.00245831
5973.51643433,0.00243570
5975.44524170,0.00244905
5977.37404907,0.00241881
5979.30285645,0.00250234
5981.23166382,0.00243349
5983.16047119,0.00239859
5985.08927856,0.00242787
5987.01808594,0.00242952
5988.94689331,0.00244093
5990.87570068,0.00233882
5992.80450806,0.00238391
5994.73331543,0.00241817
5996.66212280,0.00238634
5998.59093018,0.00235145
6000.51973755,0.00228456
