399.26312622,0.00279263
401.19193359,0.00351606
403.12074097,0.00356193
405.04954834,0.00360359
406.97835571,0.00385293
408.90716309,0.00426056
410.83597046,0.00443862
412.76477783,0.00421312
414.69358521,0.00514604
416.62239258,0.00496644
418.55119995,0.00407834
420.48000732,0.00468853
422.40881470,0.00514118
424.33762207,0.00514416
426.26642944,0.00505070
428.19523682,0.00532589
430.12404419,0.00518613
432.05285156,0.00478914
433.98165894,0.00564590
435.91046631,0.00514799
437.83927368,0.00394400
439.76808105,0.00477333
441.69688843,0.00479533
443.62569580,0.00402676
445.55450317,0.00453127
447.48331055,0.00440601
449.41211792,0.00393882
451.34092529,0.00416281
453.26973267,0.00391743
455.19854004,0.00347263
457.12734741,0.00316974
459.05615479,0.00318150
460.98496216,0.00352701
462.91376953,0.00340724
464.84257690,0.00286813
466.77138428,0.00263701
468.70019165,0.00267418
470.62899902,0.00209714
472.55780640,0.00188976
474.48661377,0.00230658
476.41542114,0.00203983
478.34422852,0.00184579
480.27303589,0.00163677
482.20184326,0.00124597
484.13065063,0.00133099
486.05945801,0.00115460
487.98826538,0.00098039
489.91707275,0.00138507
491.84588013,0.00157649
493.77468750,0.00129142
495.70349487,0.00115977
497.63230225,0.00147482
499.56110962,0.00138791
501.48991699,0.00112864
503.41872437,0.00114074
505.34753174,0.00074274
507.27633911,0.00112535
509.20514648,0.00137042
511.13395386,0.00101809
513.06276123,0.00104230
514.99156860,0.00009818
516.92037598,0.00016644
518.84918335,0.00088849
520.77799072,0.00100026
522.70679810,0.00112087
524.63560547,0.00037615
526.56441284,0.00039634
528.49322021,0.00060382
530.42202759,0.00060004
532.35083496,0.00072428
534.27964233,0.00016108
536.20844971,0.00026175
538.13725708,0.00055371
540.06606445,0.00059759
541.99487183,0.00061976
543.92367920,0.00098136
545.85248657,0.00092777
547.78129395,0.00009535
549.71010132,0.00056932
551.63890869,0.00077645
553.56771606,0.00029725
555.49652344,0.00025495
557.42533081,0.00039388
559.35413818,0.00053397
561.28294556,0.00022932
563.21175293,0.00052529
565.14056030,0.00073601
567.06936768,0.00046319
568.99817505,0.00038182
570.92698242,0.00046005
572.85578979,0.00057515
574.78459717,0.00037102
576.71340454,0.00066026
578.64221191,0.00060733
580.57101929,0.00007455
582.49982666,0.00027571
584.42863403,0.00023518
586.35744141,0.00037029
588.28624878,0.00070125
590.21505615,0.00042667
592.14386353,0.00050983
594.07267090,0.00059999
596.00147827,0.00037392
597.93028564,0.00030960
599.85909302,0.00034646
601.78790039,0.00048581
603.71670776,0.00042491
605.64551514,0.00037945
607.57432251,0.00053424
609.50312988,0.00032063
611.43193726,0.00025881
613.36074463,0.00045981
615.28955200,0.00038890
617.21835938,0.00043531
619.14716675,0.00056798
621.07597412,0.00067615
623.00478149,0.00039371
624.93358887,-0.00002269
626.86239624,0.00009205
628.79120361,0.00056471
630.72001099,0.00153862
632.64881836,0.00252332
634.57762573,0.00295306
636.50643311,0.00349083
638.43524048,0.00382684
640.36404785,0.00396700
642.29285522,0.00455523
644.22166260,0.00448786
646.15046997,0.00463729
648.07927734,0.00549768
650.00808472,0.00555576
651.93689209,0.00560699
653.86569946,0.00590324
655.79450684,0.00621582
657.72331421,0.00618130
659.65212158,0.00641482
661.58092896,0.00708664
663.50973633,0.00720128
665.43854370,0.00747126
667.36735107,0.00692454
669.29615845,0.00718601
671.22496582,0.00855231
673.15377319,0.00858353
675.08258057,0.00908766
677.01138794,0.00944266
678.94019531,0.00907279
680.86900269,0.00927216
682.79781006,0.00961003
684.72661743,0.00925999
686.65542480,0.00881687
688.58423218,0.00934938
690.51303955,0.00946856
692.44184692,0.00988890
694.37065430,0.01083582
696.29946167,0.01148490
698.22826904,0.01328379
700.15707642,0.01463342
702.08588379,0.01433265
704.01469116,0.01356114
705.94349854,0.01193347
707.87230591,0.01007834
709.80111328,0.00853219
711.72992065,0.00588976
713.65872803,0.00358151
715.58753540,0.00263326
717.51634277,0.00171720
719.44515015,0.00119239
721.37395752,0.00072453
723.30276489,0.00056002
725.23157227,0.00095840
727.16037964,0.00072568
729.08918701,0.00047236
731.01799438,0.00067885
732.94680176,0.00047216
734.87560913,0.00034319
736.80441650,0.00081496
738.73322388,0.00059358
740.66203125,0.00015336
742.59083862,0.00053420
744.51964600,0.00059535
746.44845337,0.00042911
748.37726074,0.00083433
750.30606812,0.00058865
752.23487549,0.00043632
754.16368286,0.00091016
756.09249023,0.00044190
758.02129761,0.00051113
759.95010498,0.00083071
761.87891235,0.00043339
763.80771973,0.00061250
765.73652710,0.00091455
767.66533447,0.00117912
769.59414185,0.00085317
771.52294922,0.00048816
773.45175659,0.00090212
775.38056396,0.00111141
777.30937134,0.00127170
779.23817871,0.00108150
781.16698608,0.00106884
783.09579346,0.00108965
785.02460083,0.00081465
786.95340820,0.00119162
788.88221558,0.00122524
790.81102295,0.00094841
792.73983032,0.00096917
794.66863770,0.00099315
796.59744507,0.00128288
798.52625244,0.00210669
800.45505981,0.00232884
802.38386719,0.00189402
804.31267456,0.00195365
806.24148193,0.00140775
808.17028931,0.00096142
810.09909668,0.00105313
812.02790405,0.00084713
813.95671143,0.00106928
815.88551880,0.00108440
817.81432617,0.00105438
819.74313354,0.00120245
821.67194092,0.00090696
823.60074829,0.00092448
825.52955566,0.00133025
827.45836304,0.00146908
829.38717041,0.00168882
831.31597778,0.00224228
833.24478516,0.00272122
835.17359253,0.00309777
837.10239990,0.00319923
839.03120728,0.00317615
840.96001465,0.00313930
842.88882202,0.00282814
844.81762939,0.00255943
846.74643677,0.00256374
848.67524414,0.00247797
850.60405151,0.00211938
852.53285889,0.00206141
854.46166626,0.00208655
856.39047363,0.00178848
858.31928101,0.00143640
860.24808838,0.00127718
862.17689575,0.00124147
864.10570313,0.00102252
866.03451050,0.00089900
867.96331787,0.00090048
869.89212524,0.00089832
871.82093262,0.00084382
873.74973999,0.00074605
875.67854736,0.00071322
877.60735474,0.00096946
879.53616211,0.00109317
881.46496948,0.00068623
883.39377686,0.00076277
885.32258423,0.00081802
887.25139160,0.00066253
889.18019897,0.00092469
891.10900635,0.00100216
893.03781372,0.00089678
894.96662109,0.00077582
896.89542847,0.00096246
898.82423584,0.00083883
900.75304321,0.00066423
902.68185059,0.00094907
904.61065796,0.00058661
906.53946533,0.00074512
908.46827271,0.00107234
910.39708008,0.00089358
912.32588745,0.00151027
914.25469482,0.00185408
916.18350220,0.00171560
918.11230957,0.00189535
920.04111694,0.00228994
921.96992432,0.00254970
923.89873169,0.00258386
925.82753906,0.00274541
927.75634644,0.00303044
929.68515381,0.00340754
931.61396118,0.00351307
933.54276855,0.00351203
935.47157593,0.00397172
937.40038330,0.00441997
939.32919067,0.00438444
941.25799805,0.00435192
943.18680542,0.00457705
945.11561279,0.00471985
947.04442017,0.00460151
948.97322754,0.00438228
950.90203491,0.00439838
952.83084229,0.00441170
954.75964966,0.00438020
956.68845703,0.00440074
958.61726440,0.00435177
960.54607178,0.00429027
962.47487915,0.00425667
964.40368652,0.00431745
966.33249390,0.00442826
968.26130127,0.00483749
970.19010864,0.00503953
972.11891602,0.00524462
974.04772339,0.00600060
975.97653076,0.00613203
977.90533813,0.00636132
979.83414551,0.00724134
981.76295288,0.00788820
983.69176025,0.00857676
985.62056763,0.00934235
987.54937500,0.01042910
989.47818237,0.01170946
991.40698975,0.01279553
993.33579712,0.01392291
995.26460449,0.01524805
997.19341187,0.01677753
999.12221924,0.01809023
1001.05102661,0.01947014
1002.97983398,0.02080328
1004.90864136,0.02202213
1006.83744873,0.02355119
1008.76625610,0.02486831
1010.69506348,0.02633952
1012.62387085,0.02756242
1014.55267822,0.02879019
1016.48148560,0.03065292
1018.41029297,0.03203181
1020.33910034,0.03360251
1022.26790771,0.03520956
1024.19671509,0.03652791
1026.12552246,0.03785926
1028.05432983,0.03891126
1029.98313721,0.04006743
1031.91194458,0.04096863
1033.84075195,0.04192618
1035.76955933,0.04268297
1037.69836670,0.04307284
1039.62717407,0.04321667
1041.55598145,0.04310679
1043.48478882,0.04296944
1045.41359619,0.04210524
1047.34240356,0.04180596
1049.27121094,0.04138777
1051.20001831,0.04030691
1053.12882568,0.03979091
1055.05763306,0.03893314
1056.98644043,0.03815220
1058.91524780,0.03729334
1060.84405518,0.03618100
1062.77286255,0.03504752
1064.70166992,0.03382887
1066.63047729,0.03254963
1068.55928467,0.03114191
1070.48809204,0.02996968
1072.41689941,0.02854927
1074.34570679,0.02735695
1076.27451416,0.02597905
1078.20332153,0.02466992
1080.13212891,0.02362726
1082.06093628,0.02220864
1083.98974365,0.02141992
1085.91855103,0.02048574
1087.84735840,0.01965203
1089.77616577,0.01871863
1091.70497314,0.01770693
1093.63378052,0.01719253
1095.56258789,0.01631228
1097.49139526,0.01600058
1099.42020264,0.01561999
1101.34901001,0.01514806
1103.27781738,0.01479528
1105.20662476,0.01433480
1107.13543213,0.01436281
1109.06423950,0.01394902
1110.99304687,0.01359221
1112.92185425,0.01361556
1114.85066162,0.01349034
1116.77946899,0.01335920
1118.70827637,0.01348673
1120.63708374,0.01352412
1122.56589111,0.01349656
1124.49469849,0.01365010
1126.42350586,0.01366048
1128.35231323,0.01410648
1130.28112061,0.01444975
1132.20992798,0.01475187
1134.13873535,0.01526191
1136.06754272,0.01587178
1137.99635010,0.01678326
1139.92515747,0.01760257
1141.85396484,0.01906141
1143.78277222,0.02048804
1145.71157959,0.02173685
1147.64038696,0.02295055
1149.56919434,0.02375598
1151.49800171,0.02516998
1153.42680908,0.02661464
1155.35561646,0.02759458
1157.28442383,0.02868351
1159.21323120,0.02996743
1161.14203857,0.03110211
1163.07084595,0.03220437
1164.99965332,0.03318295
1166.92846069,0.03439519
1168.85726807,0.03588222
1170.78607544,0.03687195
1172.71488281,0.03842013
1174.64369019,0.03997461
1176.57249756,0.04124678
1178.50130493,0.04292408
1180.43011230,0.04454500
1182.35891968,0.04654721
1184.28772705,0.04875890
1186.21653442,0.05081403
1188.14534180,0.05285130
1190.07414917,0.05550246
1192.00295654,0.05822958
1193.93176392,0.06074928
1195.86057129,0.06361701
1197.78937866,0.06635411
1199.71818604,0.06935065
1201.64699341,0.07236959
1203.57580078,0.07530068
1205.50460815,0.07826349
1207.43341553,0.08112401
1209.36222290,0.08377887
1211.29103027,0.08623146
1213.21983765,0.08884801
1215.14864502,0.09088658
1217.07745239,0.09289157
1219.00625977,0.09488122
1220.93506714,0.09618456
1222.86387451,0.09707499
1224.79268188,0.09779443
1226.72148926,0.09883569
1228.65029663,0.09947398
1230.57910400,0.09962662
1232.50791138,0.09981754
1234.43671875,0.09999403
1236.36552612,0.09992719
1238.29433350,0.09986992
1240.22314087,0.09978978
1242.15194824,0.09919032
1244.08075562,0.09877889
1246.00956299,0.09825772
1247.93837036,0.09761547
1249.86717773,0.09696319
1251.79598511,0.09602652
1253.72479248,0.09520626
1255.65359985,0.09417952
1257.58240723,0.09287626
1259.51121460,0.09116270
1261.44002197,0.08971592
1263.36882935,0.08872893
1265.29763672,0.08748417
1267.22644409,0.08645299
1269.15525146,0.08536895
1271.08405884,0.08389179
1273.01286621,0.08255154
1274.94167358,0.08121660
1276.87048096,0.07961960
1278.79928833,0.07789691
1280.72809570,0.07617196
1282.65690308,0.07490255
1284.58571045,0.07354184
1286.51451782,0.07201415
1288.44332520,0.07082829
1290.37213257,0.06976228
1292.30093994,0.06920510
1294.22974731,0.06849821
1296.15855469,0.06806541
1298.08736206,0.06815544
1300.01616943,0.06814694
1301.94497681,0.06856775
1303.87378418,0.06911841
1305.80259155,0.06976096
1307.73139893,0.07047932
1309.66020630,0.07196281
1311.58901367,0.07306346
1313.51782104,0.07393397
1315.44662842,0.07626031
1317.37543579,0.07760632
1319.30424316,0.07927901
1321.23305054,0.08235595
1323.16185791,0.08490115
1325.09066528,0.08732681
1327.01947266,0.08975103
1328.94828003,0.09208663
1330.87708740,0.09444307
1332.80589478,0.09682892
1334.73470215,0.09851107
1336.66350952,0.09931292
1338.59231689,0.09860963
1340.52112427,0.09981893
1342.44993164,0.10389974
1344.37873901,0.10453102
1346.30754639,0.10454221
1348.23635376,0.10443465
1350.16516113,0.10328559
1352.09396851,0.10359624
1354.02277588,0.10201986
1355.95158325,0.10118087
1357.88039062,0.10076296
1359.80919800,0.09887600
1361.73800537,0.09473880
1363.66681274,0.09299602
1365.59562012,0.09781414
1367.52442749,0.09568410
1369.45323486,0.09429224
1371.38204224,0.09625606
1373.31084961,0.09093573
1375.23965698,0.09138277
1377.16846436,0.09396635
1379.09727173,0.09352739
1381.02607910,0.09368967
1382.95488647,0.09370221
1384.88369385,0.09344039
1386.81250122,0.08894496
1388.74130859,0.09028400
1390.67011597,0.09779394
1392.59892334,0.09531755
1394.52773071,0.08894155
1396.45653809,0.09343469
1398.38534546,0.09329589
1400.31415283,0.09251750
1402.24296021,0.10054487
1404.17176758,0.09478052
1406.10057495,0.09518147
1408.02938232,0.09941934
1409.95818970,0.09537454
1411.88699707,0.09758315
1413.81580444,0.09416896
1415.74461182,0.09563151
1417.67341919,0.08626254
1419.60222656,0.07662394
1421.53103394,0.08889218
1423.45984131,0.08614746
1425.38864868,0.08336356
1427.31745605,0.08486883
1429.24626343,0.07796677
1431.17507080,0.07583287
1433.10387817,0.07726459
1435.03268555,0.07019806
1436.96149292,0.05904727
1438.89030029,0.06740373
1440.81910767,0.06938844
1442.74791504,0.06401665
1444.67672241,0.06739097
1446.60552979,0.06173736
1448.53433716,0.06227673
1450.46314453,0.06442266
1452.39195190,0.06589164
1454.32075928,0.06827800
1456.24956665,0.05577850
1458.17837402,0.05814534
1460.10718140,0.07812938
1462.03598877,0.08358103
1463.96479614,0.08265077
1465.89360352,0.08604394
1467.82241089,0.09870499
1469.75121826,0.10594201
1471.68002563,0.09354942
1473.60883301,0.09862576
1475.53764038,0.11301830
1477.46644775,0.12192065
1479.39525513,0.13449201
1481.32406250,0.13611670
1483.25286987,0.14490327
1485.18167725,0.14971942
1487.11048462,0.14686355
1489.03929199,0.14617744
1490.96809937,0.14690605
1492.89690674,0.17211717
1494.82571411,0.16798756
1496.75452148,0.15002465
1498.68332886,0.17092088
1500.61213623,0.17645139
1502.54094360,0.18962003
1504.46975098,0.17900912
1506.39855835,0.12827174
1508.32736572,0.15773484
1510.25617310,0.18669000
1512.18498047,0.18091738
1514.11378784,0.19665512
1516.04259521,0.17636126
1517.97140259,0.18413621
1519.90020996,0.17793860
1521.82901733,0.15274569
1523.75782471,0.18854825
1525.68663208,0.18533164
1527.61543945,0.18441528
1529.54424683,0.20518121
1531.47305420,0.19686577
1533.40186157,0.17942926
1535.33066895,0.19074024
1537.25947632,0.20521890
1539.18828369,0.14487924
1541.11709106,0.15124623
1543.04589844,0.18304345
1544.97470581,0.17509249
1546.90351318,0.20902541
1548.83232056,0.19439058
1550.76112793,0.20024100
1552.68993530,0.19957417
1554.61874268,0.18015635
1556.54755005,0.19341718
1558.47635742,0.13435930
1560.40516479,0.14521676
1562.33397217,0.20999694
1564.26277954,0.19816983
1566.19158691,0.20416695
1568.12039429,0.20192227
1570.04920166,0.17781782
1571.97800903,0.20662847
1573.90681641,0.20934500
1575.83562378,0.16415475
1577.76443115,0.18676123
1579.69323853,0.21216369
1581.62204590,0.20253006
1583.55085327,0.20788324
1585.47966064,0.20446704
1587.40846802,0.20622811
1589.33727539,0.20439786
1591.26608276,0.20419091
1593.19489014,0.20449308
1595.12369751,0.20182350
1597.05250488,0.20494089
1598.98131226,0.20345083
1600.91011963,0.20466012
1602.83892700,0.20075653
1604.76773437,0.20425852
1606.69654175,0.20115575
1608.62534912,0.20060202
1610.55415649,0.20066521
1612.48296387,0.20179921
1614.41177124,0.20485264
1616.34057861,0.16603288
1618.26938599,0.18056718
1620.19819336,0.21163842
1622.12700073,0.18649989
1624.05580811,0.18761805
1625.98461548,0.19713682
1627.91342285,0.19608977
1629.84223022,0.19498119
1631.77103760,0.20865601
1633.69984497,0.19197099
1635.62865234,0.15655521
1637.55745972,0.18360505
1639.48626709,0.20303439
1641.41507446,0.19779809
1643.34388184,0.20359302
1645.27268921,0.18265761
1647.20149658,0.15917554
1649.13030396,0.19989765
1651.05911133,0.18954310
1652.98791870,0.11880057
1654.91672607,0.16387193
1656.84553345,0.20823167
1658.77434082,0.19858815
1660.70314819,0.20419307
1662.63195557,0.18474211
1664.56076294,0.19536191
1666.48957031,0.21055904
1668.41837769,0.18269280
1670.34718506,0.17717361
1672.27599243,0.20194389
1674.20479980,0.18596393
1676.13360718,0.17764297
1678.06241455,0.20589694
1679.99122192,0.19806552
1681.92002930,0.19559366
1683.84883667,0.15786329
1685.77764404,0.15584460
1687.70645142,0.21644300
1689.63525879,0.18679442
1691.56406616,0.20624439
1693.49287354,0.21044075
1695.42168091,0.15124667
1697.35048828,0.18862027
1699.27929565,0.16494790
1701.20810303,0.14738464
1703.13691040,0.20377117
1705.06571777,0.18605891
1706.99452515,0.18762231
1708.92333252,0.20491976
1710.85213989,0.19637716
1712.78094727,0.19997981
1714.70975464,0.18487941
1716.63856201,0.16504371
1718.56736938,0.16215144
1720.49617676,0.19369063
1722.42498413,0.20185483
1724.35379150,0.18646833
1726.28259888,0.20361932
1728.21140625,0.18749148
1730.14021362,0.18875937
1732.06902100,0.18426748
1733.99782837,0.13820216
1735.92663574,0.17373075
1737.85544312,0.19318046
1739.78425049,0.17074361
1741.71305786,0.18670627
1743.64186523,0.18910439
1745.57067261,0.18944481
1747.49947998,0.19098967
1749.42828735,0.18232387
1751.35709473,0.17404266
1753.28590210,0.19359162
1755.21470947,0.20316350
1757.14351685,0.18408151
1759.07232422,0.20354009
1761.00113159,0.19104236
1762.92993896,0.18367198
1764.85874634,0.21154407
1766.78755371,0.18932796
1768.71636108,0.19106823
1770.64516846,0.18987042
1772.57397583,0.16969410
1774.50278320,0.19050395
1776.43159058,0.20169272
1778.36039795,0.19863217
1780.28920532,0.19607075
1782.21801270,0.19784644
1784.14682007,0.19734865
1786.07562744,0.19314568
1788.00443481,0.20386785
1789.93324219,0.19844225
1791.86204956,0.17859212
1793.79085693,0.18663056
1795.71966431,0.20082064
1797.64847168,0.19787586
1799.57727905,0.19470721
1801.50608643,0.19117284
1803.43489380,0.19760242
1805.36370117,0.20241588
1807.29250854,0.19950247
1809.22131592,0.20012131
1811.15012329,0.19444540
1813.07893066,0.20067289
1815.00773804,0.20187247
1816.93654541,0.19930863
1818.86535278,0.20105064
1820.79416016,0.20009786
1822.72296753,0.20305900
1824.65177490,0.18925633
1826.58058228,0.19629663
1828.50938965,0.19679394
1830.43819702,0.18385866
1832.36700439,0.20098877
1834.29581177,0.19965775
1836.22461914,0.19916940
1838.15342651,0.19839332
1840.08223389,0.19944003
1842.01104126,0.20002547
1843.93984863,0.17634404
1845.86865601,0.18842530
1847.79746338,0.19949996
1849.72627075,0.19479001
1851.65507812,0.20104909
1853.58388550,0.19676685
1855.51269287,0.19883448
1857.44150024,0.19753270
1859.37030762,0.19611996
1861.29911499,0.19767320
1863.22792236,0.19529819
1865.15672974,0.19762874
1867.08553711,0.19055948
1869.01434448,0.18212911
1870.94315186,0.18959090
1872.87195923,0.19726333
1874.80076660,0.19410461
1876.72957397,0.19508788
1878.65838135,0.19455233
1880.58718872,0.19335555
1882.51599609,0.19502807
1884.44480347,0.19157211
1886.37361084,0.19456530
1888.30241821,0.18991646
1890.23122559,0.18588629
1892.16003296,0.19343460
1894.08884033,0.19032055
1896.01764771,0.18952340
1897.94645508,0.19183390
1899.87526245,0.19073445
1901.80406982,0.19131118
1903.73287720,0.18985957
1905.66168457,0.19071350
1907.59049194,0.18878442
1909.51929932,0.18747860
1911.44810669,0.18873991
1913.37691406,0.18894076
1915.30572144,0.19047424
1917.23452881,0.18190588
1919.16333618,0.18215851
1921.09214355,0.18911231
1923.02095093,0.18290663
1924.94975830,0.18690306
1926.87856567,0.18893033
1928.80737305,0.18647748
1930.73618042,0.18873174
1932.66498779,0.18595406
1934.59379517,0.18785736
1936.52260254,0.18639803
1938.45140991,0.18714678
1940.38021729,0.18700489
1942.30902466,0.18062156
1944.23783203,0.18429868
1946.16663940,0.18585008
1948.09544678,0.18566938
1950.02425415,0.18640435
1951.95306152,0.18553978
1953.88186890,0.18593176
1955.81067627,0.18491444
1957.73948364,0.18568005
1959.66829102,0.18508220
1961.59709839,0.18478391
1963.52590576,0.18540108
1965.45471313,0.18397552
1967.38352051,0.18229470
1969.31232788,0.18354385
1971.24113525,0.18497944
1973.16994263,0.18364574
1975.09875000,0.18416947
1977.02755737,0.18325660
1978.95636475,0.18337196
1980.88517212,0.18356970
1982.81397949,0.18266042
1984.74278687,0.18337184
1986.67159424,0.18162739
1988.60040161,0.18206811
1990.52920898,0.18051565
1992.45801636,0.17824304
1994.38682373,0.18086830
1996.31563110,0.18114084
1998.24443848,0.18021850
2000.17324585,0.18020034
2002.10205322,0.17999211
2004.03086060,0.17968741
2005.95966797,0.17927468
2007.88847534,0.17876816
2009.81728271,0.17853105
2011.74609009,0.17811882
2013.67489746,0.17780749
2015.60370483,0.17675987
2017.53251221,0.17514575
2019.46131958,0.17621663
2021.39012695,0.17614320
2023.31893433,0.17551547
2025.24774170,0.17562006
2027.17654907,0.17491776
2029.10535645,0.17485592
2031.03416382,0.17402032
2032.96297119,0.17397606
2034.89177856,0.17357157
2036.82058594,0.17300126
2038.74939331,0.17289320
2040.67820068,0.17163390
2042.60700806,0.17160258
2044.53581543,0.17157656
2046.46462280,0.17122144
2048.39343018,0.17104635
2050.32223755,0.17055449
2052.25104492,0.17027010
2054.17985229,0.16988775
2056.10865967,0.16951559
2058.03746704,0.16907737
2059.96627441,0.16870946
2061.89508179,0.16857386
2063.82388916,0.16776361
2065.75269653,0.16705143
2067.68150391,0.16763973
2069.61031128,0.16726106
2071.53911865,0.16666487
2073.46792603,0.16643685
2075.39673340,0.16596377
2077.32554077,0.16592541
2079.25434814,0.16531304
2081.18315552,0.16519991
2083.11196289,0.16470891
2085.04077026,0.16438916
2086.96957764,0.16435805
2088.89838501,0.16361967
2090.82719238,0.16356117
2092.75599976,0.16315997
2094.68480713,0.16301697
2096.61361450,0.16261822
2098.54242187,0.16245741
2100.47122925,0.16233148
2102.40003662,0.16166945
2104.32884399,0.16172937
2106.25765137,0.16125408
2108.18645874,0.16104496
2110.11526611,0.16062407
2112.04407349,0.16051610
2113.97288086,0.16029435
2115.90168823,0.15960602
2117.83049561,0.15977883
2119.75930298,0.15934432
2121.68811035,0.15925796
2123.61691772,0.15893222
2125.54572510,0.15858471
2127.47453247,0.15858391
2129.40333984,0.15835294
2131.33214722,0.15807568
2133.26095459,0.15755418
2135.18976196,0.15752448
2137.11856934,0.15709487
2139.04737671,0.15710507
2140.97618408,0.15683320
2142.90499146,0.15662439
2144.83379883,0.15676558
2146.76260620,0.15614614
2148.69141357,0.15622702
2150.62022095,0.15579581
2152.54902832,0.15571055
2154.47783569,0.15566134
2156.40664307,0.15532222
2158.33545044,0.15520349
2160.26425781,0.15463716
2162.19306519,0.15469888
2164.12187256,0.15426210
2166.05067993,0.15410717
2167.97948730,0.15408057
2169.90829468,0.15376660
2171.83710205,0.15370552
2173.76590942,0.15343606
2175.69471680,0.15332550
2177.62352417,0.15300620
2179.55233154,0.15302023
2181.48113892,0.15268421
2183.40994629,0.15242681
2185.33875366,0.15237260
2187.26756104,0.15210140
2189.19636841,0.15206856
2191.12517578,0.15164070
2193.05398315,0.15144810
2194.98279053,0.15123443
2196.91159790,0.15114930
2198.84040527,0.15089279
2200.76921265,0.15062229
2202.69802002,0.15057674
2204.62682739,0.15030153
2206.55563477,0.15020217
2208.48444214,0.14982174
2210.41324951,0.14987028
2212.34205688,0.14962325
2214.27086426,0.14931160
2216.19967163,0.14921531
2218.12847900,0.14884838
2220.05728638,0.14883590
2221.98609375,0.14852446
2223.91490112,0.14847586
2225.84370850,0.14810418
2227.77251587,0.14779577
2229.70132324,0.14782754
2231.63013062,0.14747089
2233.55893799,0.14720577
2235.48774536,0.14690652
2237.41655273,0.14683616
2239.34536011,0.14643964
2241.27416748,0.14622116
2243.20297485,0.14598984
2245.13178223,0.14567299
2247.06058960,0.14549884
2248.98939697,0.14507543
2250.91820435,0.14501300
2252.84701172,0.14475045
2254.77581909,0.14464322
2256.70462646,0.14437786
2258.63343384,0.14419378
2260.56224121,0.14404830
2262.49104858,0.14362019
2264.41985596,0.14351386
2266.34866333,0.14315057
2268.27747070,0.14320043
2270.20627808,0.14288551
2272.13508545,0.14261730
2274.06389282,0.14257537
2275.99270020,0.14217579
2277.92150757,0.14221852
2279.85031494,0.14196280
2281.77912231,0.14188316
2283.70792969,0.14170158
2285.63673706,0.14139742
2287.56554443,0.14110294
2289.49435181,0.14062935
2291.42315918,0.14026615
2293.35196655,0.13987154
2295.28077393,0.13957220
2297.20958130,0.13888031
2299.13838867,0.13851337
2301.06719604,0.13805619
2302.99600342,0.13734686
2304.92481079,0.13664362
2306.85361816,0.13563269
2308.78242554,0.13470091
2310.71123291,0.13343556
2312.64004028,0.13205782
2314.56884766,0.13050854
2316.49765503,0.12900326
2318.42646240,0.12715408
2320.35526978,0.12542260
2322.28407715,0.12372135
2324.21288452,0.12182968
2326.14169189,0.12064961
2328.07049927,0.11887106
2329.99930664,0.11747947
2331.92811401,0.11640455
2333.85692139,0.11583339
2335.78572876,0.11549801
2337.71453613,0.11490621
2339.64334351,0.11523802
2341.57215088,0.11548571
2343.50095825,0.11720237
2345.42976562,0.11944381
2347.35857300,0.12463404
2349.28738037,0.12930408
2351.21618774,0.12449647
2353.14499512,0.11770092
2355.07380249,0.11299793
2357.00260986,0.10933252
2358.93141724,0.10731792
2360.86022461,0.10590937
2362.78903198,0.10588143
2364.71783936,0.10636365
2366.64664673,0.10787137
2368.57545410,0.11023423
2370.50426147,0.11320774
2372.43306885,0.11650421
2374.36187622,0.11986248
2376.29068359,0.12336648
2378.21949097,0.12610219
2380.14829834,0.12850991
2382.07710571,0.12992620
2384.00591309,0.13086566
2385.93472046,0.13147467
2387.86352783,0.13148494
2389.79233521,0.13145919
2391.72114258,0.13125500
2393.64994995,0.13108596
2395.57875732,0.13083750
2397.50756470,0.13074367
2399.43637207,0.13054000
2401.36517944,0.13046148
2403.29398682,0.13016444
2405.22279419,0.12990867
2407.15160156,0.12992057
2409.08040894,0.12960511
2411.00921631,0.12955177
2412.93802368,0.12925398
2414.86683105,0.12920365
2416.79563843,0.12890065
2418.72444580,0.12868127
2420.65325317,0.12880185
2422.58206055,0.12828243
2424.51086792,0.12823233
2426.43967529,0.12800506
2428.36848267,0.12786579
2430.29729004,0.12770197
2432.22609741,0.12740299
2434.15490479,0.12741825
2436.08371216,0.12717721
2438.01251953,0.12699085
2439.94132690,0.12665921
2441.87013428,0.12661318
2443.79894165,0.12640247
2445.72774902,0.12630594
2447.65655640,0.12611496
2449.58536377,0.12567577
2451.51417114,0.12575060
2453.44297852,0.12544079
2455.37178589,0.12538579
2457.30059326,0.12517703
2459.22940063,0.12499243
2461.15820801,0.12483907
2463.08701538,0.12449768
2465.01582275,0.12456653
2466.94463013,0.12418752
2468.87343750,0.12416063
2470.80224487,0.12399980
2472.73105225,0.12377764
2474.65985962,0.12370192
2476.58866699,0.12333757
2478.51747437,0.12334009
2480.44628174,0.12301557
2482.37508911,0.12278748
2484.30389648,0.12270854
2486.23270386,0.12262370
2488.16151123,0.12249131
2490.09031860,0.12221995
2492.01912598,0.12204215
2493.94793335,0.12182437
2495.87674072,0.12177505
2497.80554810,0.12145193
2499.73435547,0.12130251
2501.66316284,0.12127749
2503.59197021,0.12102512
2505.52077759,0.12084398
2507.44958496,0.12065765
2509.37839233,0.12055564
2511.30719971,0.12044974
2513.23600708,0.12026382
2515.16481445,0.11992438
2517.09362183,0.11985388
2519.02242920,0.11966514
2520.95123657,0.11950577
2522.88004395,0.11949933
2524.80885132,0.11916380
2526.73765869,0.11903512
2528.66646606,0.11884881
2530.59527344,0.11878057
2532.52408081,0.11859687
2534.45288818,0.11829837
2536.38169556,0.11818579
2538.31050293,0.11803922
2540.23931030,0.11793840
2542.16811768,0.11768513
2544.09692505,0.11762162
2546.02573242,0.11741399
2547.95453979,0.11739307
2549.88334717,0.11729598
2551.81215454,0.11699203
2553.74096191,0.11698858
2555.66976929,0.11648690
2557.59857666,0.11628174
2559.52738403,0.11624296
2561.45619141,0.11605649
2563.38499878,0.11592670
2565.31380615,0.11571192
2567.24261353,0.11560676
2569.17142090,0.11537811
2571.10022827,0.11524642
2573.02903564,0.11497252
2574.95784302,0.11482377
2576.88665039,0.11471415
2578.81545776,0.11455546
2580.74426514,0.11436810
2582.67307251,0.11407990
2584.60187988,0.11406451
2586.53068726,0.11385224
2588.45949463,0.11382220
2590.38830200,0.11363796
2592.31710937,0.11344847
2594.24591675,0.11336550
2596.17472412,0.11307409
2598.10353149,0.11312285
2600.03233887,0.11286196
2601.96114624,0.11261315
2603.88995361,0.11234325
2605.81876099,0.11222874
2607.74756836,0.11218245
2609.67637573,0.11185668
2611.60518311,0.11187912
2613.53399048,0.11160405
2615.46279785,0.11144374
2617.39160522,0.11133119
2619.32041260,0.11113827
2621.24921997,0.11109860
2623.17802734,0.11086360
2625.10683472,0.11066610
2627.03564209,0.11044890
2628.96444946,0.11041902
2630.89325684,0.11020003
2632.82206421,0.10997526
2634.75087158,0.10991316
2636.67967895,0.10971151
2638.60848633,0.10947430
2640.53729370,0.10935000
2642.46610107,0.10928674
2644.39490845,0.10886925
2646.32371582,0.10885990
2648.25252319,0.10878081
2650.18133057,0.10850267
2652.11013794,0.10850750
2654.03894531,0.10824025
2655.96775269,0.10805984
2657.89656006,0.10780305
2659.82536743,0.10764214
2661.75417480,0.10749385
2663.68298218,0.10740326
2665.61178955,0.10738628
2667.54059692,0.10702950
2669.46940430,0.10693111
2671.39821167,0.10680132
2673.32701904,0.10659110
2675.25582642,0.10646729
2677.18463379,0.10633638
2679.11344116,0.10613053
2681.04224854,0.10594378
2682.97105591,0.10589886
2684.89986328,0.10565035
2686.82867065,0.10550822
2688.75747803,0.10530446
2690.68628540,0.10508861
2692.61509277,0.10511138
2694.54390015,0.10495488
2696.47270752,0.10461330
2698.40151489,0.10453634
2700.33032227,0.10447711
2702.25912964,0.10404211
2704.18793701,0.10396290
2706.11674438,0.10390371
2708.04555176,0.10366865
2709.97435913,0.10353309
2711.90316650,0.10336901
2713.83197388,0.10333525
2715.76078125,0.10306674
2717.68958862,0.10282582
2719.61839600,0.10268422
2721.54720337,0.10255017
2723.47601074,0.10242236
2725.40481812,0.10220873
2727.33362549,0.10205702
2729.26243286,0.10182138
2731.19124023,0.10171384
2733.12004761,0.10153263
2735.04885498,0.10132180
2736.97766235,0.10119267
2738.90646973,0.10099483
2740.83527710,0.10087094
2742.76408447,0.10069314
2744.69289185,0.10056676
2746.62169922,0.10035024
2748.55050659,0.10018642
2750.47931396,0.10016626
2752.40812134,0.09989068
2754.33692871,0.09963530
2756.26573608,0.09951857
2758.19454346,0.09928121
2760.12335083,0.09912454
2762.05215820,0.09908749
2763.98096558,0.09894521
2765.90977295,0.09874883
2767.83858032,0.09859782
2769.76738770,0.09844445
2771.69619507,0.09811307
2773.62500244,0.09803145
2775.55380981,0.09790310
2777.48261719,0.09756921
2779.41142456,0.09753486
2781.34023193,0.09728277
2783.26903931,0.09718001
2785.19784668,0.09700283
2787.12665405,0.09677371
2789.05546143,0.09676108
2790.98426880,0.09638396
2792.91307617,0.09627116
2794.84188354,0.09611566
2796.77069092,0.09589845
2798.69949829,0.09570869
2800.62830566,0.09552251
2802.55711304,0.09543087
2804.48592041,0.09504469
2806.41472778,0.09497446
2808.34353516,0.09480143
2810.27234253,0.09454655
2812.20114990,0.09438688
2814.12995728,0.09419705
2816.05876465,0.09413947
2817.98757202,0.09384684
2819.91637939,0.09369776
2821.84518677,0.09352146
2823.77399414,0.09335496
2825.70280151,0.09320797
2827.63160889,0.09296934
2829.56041626,0.09279963
2831.48922363,0.09256279
2833.41803101,0.09229443
2835.34683838,0.09200414
2837.27564575,0.09190591
2839.20445312,0.09153405
2841.13326050,0.09130184
2843.06206787,0.09109718
2844.99087524,0.09054983
2846.91968262,0.09022079
2848.84848999,0.08962822
2850.77729736,0.08936134
2852.70610474,0.08932628
2854.63491211,0.08916029
2856.56371948,0.08907786
2858.49252686,0.08894439
2860.42133423,0.08890654
2862.35014160,0.08868650
2864.27894897,0.08860156
2866.20775635,0.08849794
2868.13656372,0.08831678
2870.06537109,0.08817235
2871.99417847,0.08796801
2873.92298584,0.08781780
2875.85179321,0.08765575
2877.78060059,0.08757949
2879.70940796,0.08744167
2881.63821533,0.08741369
2883.56702270,0.08710171
2885.49583008,0.08688304
2887.42463745,0.08691762
2889.35344482,0.08665305
2891.28225220,0.08651552
2893.21105957,0.08625928
2895.13986694,0.08610084
2897.06867432,0.08586599
2898.99748169,0.08560260
2900.92628906,0.08538143
2902.85509644,0.08507562
2904.78390381,0.08498065
2906.71271118,0.08461951
2908.64151855,0.08442326
2910.57032593,0.08410902
2912.49913330,0.08373073
2914.42794067,0.08334888
2916.35674805,0.08282876
2918.28555542,0.08264321
2920.21436279,0.08231744
2922.14317017,0.08234586
2924.07197754,0.08224574
2926.00078491,0.08203718
2927.92959229,0.08206116
2929.85839966,0.08189605
2931.78720703,0.08195315
2933.71601440,0.08187944
2935.64482178,0.08187369
2937.57362915,0.08178963
2939.50243652,0.08168982
2941.43124390,0.08157775
2943.36005127,0.08147678
2945.28885864,0.08162624
2947.21766602,0.08141060
2949.14647339,0.08138420
2951.07528076,0.08119120
2953.00408813,0.08091243
2954.93289551,0.08078445
2956.86170288,0.08042253
2958.79051025,0.08025450
2960.71931763,0.07990283
2962.64812500,0.07977997
2964.57693237,0.07982492
2966.50573975,0.07963449
2968.43454712,0.07951386
2970.36335449,0.07951829
2972.29216187,0.07962497
2974.22096924,0.07961877
2976.14977661,0.07966840
2978.07858398,0.07970296
2980.00739136,0.07963367
2981.93619873,0.07948631
2983.86500610,0.07946911
2985.79381348,0.07947840
2987.72262085,0.07928273
2989.65142822,0.07922366
2991.58023560,0.07919514
2993.50904297,0.07901306
2995.43785034,0.07881719
2997.36665771,0.07880352
2999.29546509,0.07862991
3001.22427246,0.07849351
3003.15307983,0.07837370
3005.08188721,0.07808537
3007.01069458,0.07816938
3008.93950195,0.07798743
3010.86830933,0.07760119
3012.79711670,0.07743461
3014.72592407,0.07735738
3016.65473145,0.07723429
3018.58353882,0.07697035
3020.51234619,0.07686692
3022.44115356,0.07677019
3024.36996094,0.07659617
3026.29876831,0.07632431
3028.22757568,0.07631117
3030.15638306,0.07610281
3032.08519043,0.07567906
3034.01399780,0.07570053
3035.94280518,0.07554510
3037.87161255,0.07544459
3039.80041992,0.07535218
3041.72922729,0.07517384
3043.65803467,0.07498938
3045.58684204,0.07481404
3047.51564941,0.07464711
3049.44445679,0.07430299
3051.37326416,0.07439945
3053.30207153,0.07426701
3055.23087891,0.07392347
3057.15968628,0.07378669
3059.08849365,0.07367046
3061.01730103,0.07370296
3062.94610840,0.07347319
3064.87491577,0.07321549
3066.80372314,0.07296903
3068.73253052,0.07297307
3070.66133789,0.07297258
3072.59014526,0.07278091
3074.51895264,0.07278667
3076.44776001,0.07255736
3078.37656738,0.07224739
3080.30537476,0.07203355
3082.23418213,0.07198572
3084.16298950,0.07185566
3086.09179687,0.07174664
3088.02060425,0.07162818
3089.94941162,0.07143969
3091.87821899,0.07146151
3093.80702637,0.07107998
3095.73583374,0.07092087
3097.66464111,0.07092229
3099.59344849,0.07060359
3101.52225586,0.07042121
3103.45106323,0.07027209
3105.37987061,0.07020028
3107.30867798,0.07005462
3109.23748535,0.06984384
3111.16629272,0.06967482
3113.09510010,0.06961863
3115.02390747,0.06934941
3116.95271484,0.06903476
3118.88152222,0.06893237
3120.81032959,0.06873860
3122.73913696,0.06860720
3124.66794434,0.06838399
3126.59675171,0.06830078
3128.52555908,0.06816101
3130.45436645,0.06798217
3132.38317383,0.06775410
3134.31198120,0.06748068
3136.24078857,0.06751328
3138.16959595,0.06721358
3140.09840332,0.06704386
3142.02721069,0.06684391
3143.95601807,0.06669296
3145.88482544,0.06663735
3147.81363281,0.06623446
3149.74244019,0.06615203
3151.67124756,0.06589532
3153.60005493,0.06575494
3155.52886230,0.06568906
3157.45766968,0.06551403
3159.38647705,0.06533953
3161.31528442,0.06503990
3163.24409180,0.06505504
3165.17289917,0.06475560
3167.10170654,0.06449604
3169.03051392,0.06439045
3170.95932129,0.06418812
3172.88812866,0.06399255
3174.81693604,0.06383260
3176.74574341,0.06371084
3178.67455078,0.06339841
3180.60335815,0.06342606
3182.53216553,0.06323440
3184.46097290,0.06297928
3186.38978027,0.06285463
3188.31858765,0.06269266
3190.24739502,0.06263225
3192.17620239,0.06235007
3194.10500977,0.06228639
3196.03381714,0.06193484
3197.96262451,0.06173971
3199.89143188,0.06173674
3201.82023926,0.06156107
3203.74904663,0.06154519
3205.67785400,0.06130355
3207.60666138,0.06118079
3209.53546875,0.06099446
3211.46427612,0.06095134
3213.39308350,0.06065223
3215.32189087,0.06050760
3217.25069824,0.06066047
3219.17950562,0.06022663
3221.10831299,0.06029691
3223.03712036,0.06027549
3224.96592773,0.06014580
3226.89473511,0.05997406
3228.82354248,0.05972304
3230.75234985,0.05979534
3232.68115723,0.05951133
3234.60996460,0.05949825
3236.53877197,0.05941522
3238.46757935,0.05927739
3240.39638672,0.05915343
3242.32519409,0.05903263
3244.25400146,0.05901313
3246.18280884,0.05871262
3248.11161621,0.05885026
3250.04042358,0.05883466
3251.96923096,0.05870388
3253.89803833,0.05856890
3255.82684570,0.05842599
3257.75565308,0.05846906
3259.68446045,0.05821528
3261.61326782,0.05827237
3263.54207520,0.05827998
3265.47088257,0.05819383
3267.39968994,0.05811556
3269.32849731,0.05787580
3271.25730469,0.05783506
3273.18611206,0.05771860
3275.11491943,0.05750665
3277.04372681,0.05744312
3278.97253418,0.05757044
3280.90134155,0.05749287
3282.83014893,0.05736038
3284.75895630,0.05730473
3286.68776367,0.05724995
3288.61657104,0.05711629
3290.54537842,0.05690938
3292.47418579,0.05691097
3294.40299316,0.05686612
3296.33180054,0.05684426
3298.26060791,0.05673438
3300.18941528,0.05671670
3302.11822266,0.05662959
3304.04703003,0.05647815
3305.97583740,0.05646865
3307.90464478,0.05611540
3309.83345215,0.05607960
3311.76225952,0.05610852
3313.69106689,0.05602029
3315.61987427,0.05603080
3317.54868164,0.05595522
3319.47748901,0.05587976
3321.40629639,0.05578474
3323.33510376,0.05574991
3325.26391113,0.05549119
3327.19271851,0.05553972
3329.12152588,0.05552166
3331.05033325,0.05533328
3332.97914062,0.05529386
3334.90794800,0.05504205
3336.83675537,0.05493306
3338.76556274,0.05480915
3340.69437012,0.05483805
3342.62317749,0.05472557
3344.55198486,0.05474881
3346.48079224,0.05471631
3348.40959961,0.05445029
3350.33840698,0.05444665
3352.26721436,0.05413217
3354.19602173,0.05416176
3356.12482910,0.05406397
3358.05363647,0.05405489
3359.98244385,0.05397639
3361.91125122,0.05354994
3363.84005859,0.05368857
3365.76886597,0.05344827
3367.69767334,0.05332943
3369.62648071,0.05323848
3371.55528809,0.05327176
3373.48409546,0.05329496
3375.41290283,0.05306226
3377.34171020,0.05309764
3379.27051758,0.05282047
3381.19932495,0.05285843
3383.12813232,0.05261935
3385.05693970,0.05249844
3386.98574707,0.05251493
3388.91455444,0.05237304
3390.84336182,0.05223980
3392.77216919,0.05170501
3394.70097656,0.05198304
3396.62978394,0.05178723
3398.55859131,0.05156735
3400.48739868,0.05157962
3402.41620605,0.05124879
3404.34501343,0.05153869
3406.27382080,0.05142137
3408.20262817,0.05122717
3410.13143555,0.05114005
3412.06024292,0.05125026
3413.98905029,0.05099753
3415.91785767,0.05084713
3417.84666504,0.05098321
3419.77547241,0.05040364
3421.70427979,0.05042169
3423.63308716,0.05043545
3425.56189453,0.05052674
3427.49070190,0.05040464
3429.41950928,0.05005357
3431.34831665,0.05007865
3433.27712402,0.04986931
3435.20593140,0.04985271
3437.13473877,0.04961754
3439.06354614,0.04976590
3440.99235352,0.04949607
3442.92116089,0.04924306
3444.84996826,0.04939175
3446.77877563,0.04874472
3448.70758301,0.04893880
3450.63639038,0.04925220
3452.56519775,0.04918914
3454.49400513,0.04916411
3456.42281250,0.04903742
3458.35161987,0.04899088
3460.28042725,0.04881073
3462.20923462,0.04854774
3464.13804199,0.04854336
3466.06684937,0.04861671
3467.99565674,0.04825069
3469.92446411,0.04850318
3471.85327148,0.04844243
3473.78207886,0.04821775
3475.71088623,0.04826641
3477.63969360,0.04816542
3479.56850098,0.04821137
3481.49730835,0.04745889
3483.42611572,0.04774576
3485.35492310,0.04800279
3487.28373047,0.04764384
3489.21253784,0.04777426
3491.14134521,0.04770099
3493.07015259,0.04798621
3494.99895996,0.04767196
3496.92776733,0.04763031
3498.85657471,0.04778582
3500.78538208,0.04764312
3502.71418945,0.04685017
3504.64299683,0.04676985
3506.57180420,0.04800322
3508.50061157,0.04714309
3510.42941895,0.04693643
3512.35822632,0.04740123
3514.28703369,0.04743790
3516.21584106,0.04767193
3518.14464844,0.04713012
3520.07345581,0.04745241
3522.00226318,0.04696052
3523.93107056,0.04631399
3525.85987793,0.04651068
3527.78868530,0.04640143
3529.71749268,0.04654035
3531.64630005,0.04696855
3533.57510742,0.04738453
3535.50391479,0.04675410
3537.43272217,0.04657876
3539.36152954,0.04711123
3541.29033691,0.04702844
3543.21914429,0.04671365
3545.14795166,0.04562566
3547.07675903,0.04489864
3549.00556641,0.04643580
3550.93437378,0.04671950
3552.86318115,0.04557139
3554.79198853,0.04657742
3556.72079590,0.04679696
3558.64960327,0.04651015
3560.57841064,0.04613171
3562.50721802,0.04588839
3564.43602539,0.04621028
3566.36483276,0.04299559
3568.29364014,0.04194041
3570.22244751,0.04554056
3572.15125488,0.04673191
3574.08006226,0.04610203
3576.00886963,0.04630674
3577.93767700,0.04596736
3579.86648437,0.04589958
3581.79529175,0.04608156
3583.72409912,0.04608355
3585.65290649,0.04508729
3587.58171387,0.04129510
3589.51052124,0.04258174
3591.43932861,0.04642742
3593.36813599,0.04504023
3595.29694336,0.04422301
3597.22575073,0.04499339
3599.15455811,0.04545064
3601.08336548,0.04495957
3603.01217285,0.04538909
3604.94098022,0.04625480
3606.86978760,0.04448640
3608.79859497,0.04189463
3610.72740234,0.04286170
3612.65620972,0.04374478
3614.58501709,0.04247550
3616.51382446,0.04571198
3618.44263184,0.04214222
3620.37143921,0.04056104
3622.30024658,0.04590916
3624.22905395,0.04461476
3626.15786133,0.04679831
3628.08666870,0.03949510
3630.01547607,0.03579026
3631.94428345,0.04536301
3633.87309082,0.04408438
3635.80189819,0.04485862
3637.73070557,0.04588188
3639.65951294,0.04513741
3641.58832031,0.04554738
3643.51712769,0.04493254
3645.44593506,0.04537488
3647.37474243,0.04052217
3649.30354980,0.03715025
3651.23235718,0.03765052
3653.16116455,0.04485881
3655.08997192,0.04429255
3657.01877930,0.03948852
3658.94758667,0.04571576
3660.87639404,0.04462434
3662.80520142,0.04524750
3664.73400879,0.04511742
3666.66281616,0.04451269
3668.59162354,0.04333933
3670.52043091,0.03515781
3672.44923828,0.04272495
3674.37804565,0.04068398
3676.30685303,0.03352747
3678.23566040,0.04244533
3680.16446777,0.04334673
3682.09327515,0.04341398
3684.02208252,0.04473987
3685.95088989,0.04400609
3687.87969727,0.03954360
3689.80850464,0.03616959
3691.73731201,0.04138156
3693.66611938,0.04261834
3695.59492676,0.04368355
3697.52373413,0.04362906
3699.45254150,0.04321758
3701.38134888,0.04208087
3703.31015625,0.04038832
3705.23896362,0.04456412
3707.16777100,0.04226901
3709.09657837,0.04123898
3711.02538574,0.03888201
3712.95419312,0.03622445
3714.88300049,0.04261387
3716.81180786,0.04208057
3718.74061523,0.04236096
3720.66942261,0.04146906
3722.59822998,0.03993819
3724.52703735,0.04144286
3726.45584473,0.03841538
3728.38465210,0.04168604
3730.31345947,0.04132155
3732.24226685,0.03785973
3734.17107422,0.03689088
3736.09988159,0.03499289
3738.02868896,0.03705368
3739.95749634,0.04030459
3741.88630371,0.04223632
3743.81511108,0.03260113
3745.74391846,0.03069385
3747.67272583,0.04007296
3749.60153320,0.03433729
3751.53034058,0.03160618
3753.45914795,0.03646493
3755.38795532,0.03922068
3757.31676270,0.04080915
3759.24557007,0.03766635
3761.17437744,0.03906140
3763.10318481,0.04156092
3765.03199219,0.03878790
3766.96079956,0.03961869
3768.88960693,0.03904837
3770.81841431,0.03729382
3772.74722168,0.04051111
3774.67602905,0.04054021
3776.60483643,0.04036660
3778.53364380,0.03927195
3780.46245117,0.03773502
3782.39125854,0.04026552
3784.32006592,0.03939905
3786.24887329,0.03904507
3788.17768066,0.04003003
3790.10648804,0.03981715
3792.03529541,0.03940920
3793.96410278,0.04017376
3795.89291016,0.03768820
3797.82171753,0.03717462
3799.75052490,0.03937674
3801.67933228,0.03104538
3803.60813965,0.03626278
3805.53694702,0.03948813
3807.46575439,0.03210967
3809.39456177,0.03908811
3811.32336914,0.03827494
3813.25217651,0.03959611
3815.18098389,0.03581437
3817.10979126,0.03117196
3819.03859863,0.03953719
3820.96740601,0.03188577
3822.89621338,0.03358484
3824.82502075,0.03934170
3826.75382812,0.03542759
3828.68263550,0.03829306
3830.61144287,0.03674975
3832.54025024,0.03542929
3834.46905762,0.03617586
3836.39786499,0.03448185
3838.32667236,0.03112831
3840.25547974,0.03356059
3842.18428711,0.03637536
3844.11309448,0.03468876
3846.04190186,0.03749057
3847.97070923,0.03686851
3849.89951660,0.03695515
3851.82832397,0.03323092
3853.75713135,0.02462893
3855.68593872,0.02933571
3857.61474609,0.03706397
3859.54355347,0.03605571
3861.47236084,0.03548210
3863.40116821,0.03478134
3865.32997559,0.03231436
3867.25878296,0.03617720
3869.18759033,0.03304911
3871.11639770,0.03032897
3873.04520508,0.03610067
3874.97401245,0.03307994
3876.90281982,0.03583731
3878.83162720,0.03660906
3880.76043457,0.03123808
3882.68924194,0.03610919
3884.61804932,0.03364714
3886.54685669,0.03079154
3888.47566406,0.03617041
3890.40447144,0.03420101
3892.33327881,0.03195184
3894.26208618,0.03503877
3896.19089355,0.03577928
3898.11970093,0.03400999
3900.04850830,0.03204739
3901.97731567,0.03164361
3903.90612305,0.03137502
3905.83493042,0.03192750
3907.76373779,0.03501089
3909.69254517,0.03491716
3911.62135254,0.03453689
3913.55015991,0.03521540
3915.47896728,0.03401554
3917.40777466,0.03307076
3919.33658203,0.03272946
3921.26538940,0.03404896
3923.19419678,0.03383942
3925.12300415,0.03309376
3927.05181152,0.03378527
3928.98061890,0.03400026
3930.90942627,0.03337577
3932.83823364,0.03225479
3934.76704102,0.03360410
3936.69584839,0.03398604
3938.62465576,0.03359145
3940.55346313,0.03391986
3942.48227051,0.03259791
3944.41107788,0.03289084
3946.33988525,0.03351690
3948.26869263,0.03267700
3950.19750000,0.03259195
3952.12630737,0.03310847
3954.05511475,0.03314363
3955.98392212,0.03311428
3957.91272949,0.03298806
3959.84153687,0.03279256
3961.77034424,0.03271144
3963.69915161,0.03266273
3965.62795898,0.03300574
3967.55676636,0.03269906
3969.48557373,0.03259331
3971.41438110,0.03258065
3973.34318848,0.03236369
3975.27199585,0.03232835
3977.20080322,0.03220922
3979.12961060,0.03244121
3981.05841797,0.03210493
3982.98722534,0.03215522
3984.91603271,0.03211001
3986.84484009,0.03202116
3988.77364746,0.03201355
3990.70245483,0.03163880
3992.63126221,0.03192531
3994.56006958,0.03161892
3996.48887695,0.03173909
3998.41768433,0.03170890
4000.34649170,0.03147172
4002.27529907,0.03157473
4004.20410645,0.03130936
4006.13291382,0.03152157
4008.06172119,0.03120409
4009.99052856,0.03122276
4011.91933594,0.03125596
4013.84814331,0.03110685
4015.77695068,0.03105229
4017.70575806,0.03085197
4019.63456543,0.03095566
4021.56337280,0.03065511
4023.49218018,0.03075855
4025.42098755,0.03058104
4027.34979492,0.03062999
4029.27860229,0.03069326
4031.20740967,0.03046744
4033.13621704,0.03060112
4035.06502441,0.03018462
4036.99383179,0.03036928
4038.92263916,0.03024301
4040.85144653,0.03014474
4042.78025391,0.03015960
4044.70906128,0.02983070
4046.63786865,0.03004268
4048.56667603,0.02988989
4050.49548340,0.02986467
4052.42429077,0.02975597
4054.35309814,0.02972044
4056.28190552,0.02967492
4058.21071289,0.02958356
4060.13952026,0.02950897
4062.06832764,0.02934399
4063.99713501,0.02949631
4065.92594238,0.02924042
4067.85474976,0.02932037
4069.78355713,0.02918784
4071.71236450,0.02905490
4073.64117187,0.02909461
4075.56997925,0.02895746
4077.49878662,0.02908722
4079.42759399,0.02878922
4081.35640137,0.02882795
4083.28520874,0.02861922
4085.21401611,0.02862229
4087.14282349,0.02867964
4089.07163086,0.02838101
4091.00043823,0.02860988
4092.92924561,0.02842153
4094.85805298,0.02836168
4096.78686035,0.02823484
4098.71566772,0.02822531
4100.64447510,0.02818418
4102.57328247,0.02805413
4104.50208984,0.02807810
4106.43089722,0.02779413
4108.35970459,0.02798215
4110.28851196,0.02782497
4112.21731934,0.02781376
4114.14612671,0.02776086
4116.07493408,0.02752328
4118.00374145,0.02766023
4119.93254883,0.02749189
4121.86135620,0.02754163
4123.79016357,0.02741192
4125.71897095,0.02743930
4127.64777832,0.02733550
4129.57658569,0.02719201
4131.50539307,0.02725898
4133.43420044,0.02699057
4135.36300781,0.02702711
4137.29181519,0.02692925
4139.22062256,0.02692205
4141.14942993,0.02686631
4143.07823730,0.02677879
4145.00704468,0.02672653
4146.93585205,0.02660970
4148.86465942,0.02669158
4150.79346680,0.02650644
4152.72227417,0.02650252
4154.65108154,0.02645584
4156.57988892,0.02642497
4158.50869629,0.02633491
4160.43750366,0.02624518
4162.36631103,0.02624683
4164.29511841,0.02605475
4166.22392578,0.02612304
4168.15273315,0.02596375
4170.08154053,0.02596966
4172.01034790,0.02595345
4173.93915527,0.02582052
4175.86796265,0.02576738
4177.79677002,0.02561131
4179.72557739,0.02572777
4181.65438477,0.02555768
4183.58319214,0.02547645
4185.51199951,0.02543960
4187.44080688,0.02541942
4189.36961426,0.02540419
4191.29842163,0.02525434
4193.22722900,0.02527023
4195.15603638,0.02513101
4197.08484375,0.02514473
4199.01365112,0.02503555
4200.94245850,0.02503295
4202.87126587,0.02502280
4204.80007324,0.02491776
4206.72888062,0.02496552
4208.65768799,0.02476226
4210.58649536,0.02471552
4212.51530273,0.02456267
4214.44411011,0.02459125
4216.37291748,0.02459473
4218.30172485,0.02443534
4220.23053223,0.02449726
4222.15933960,0.02436312
4224.08814697,0.02434819
4226.01695435,0.02434263
4227.94576172,0.02426299
4229.87456909,0.02408244
4231.80337646,0.02403637
4233.73218384,0.02404911
4235.66099121,0.02396411
4237.58979858,0.02393480
4239.51860596,0.02377951
4241.44741333,0.02386373
4243.37622070,0.02381127
4245.30502808,0.02371679
4247.23383545,0.02370551
4249.16264282,0.02362882
4251.09145020,0.02361676
4253.02025757,0.02352859
4254.94906494,0.02343170
4256.87787231,0.02328137
4258.80667969,0.02336318
4260.73548706,0.02328037
4262.66429443,0.02325444
4264.59310181,0.02327047
4266.52190918,0.02306329
4268.45071655,0.02315288
4270.37952393,0.02310988
4272.30833130,0.02302072
4274.23713867,0.02287610
4276.16594604,0.02285873
4278.09475342,0.02279976
4280.02356079,0.02268840
4281.95236816,0.02279493
4283.88117554,0.02267276
4285.80998291,0.02266955
4287.73879028,0.02253192
4289.66759766,0.02252685
4291.59640503,0.02249643
4293.52521240,0.02234186
4295.45401978,0.02242354
4297.38282715,0.02225744
4299.31163452,0.02226624
4301.24044189,0.02221428
4303.16924927,0.02215287
4305.09805664,0.02211798
4307.02686401,0.02200259
4308.95567139,0.02198253
4310.88447876,0.02190330
4312.81328613,0.02190962
4314.74209351,0.02181872
4316.67090088,0.02182498
4318.59970825,0.02169993
4320.52851562,0.02163647
4322.45732300,0.02162466
4324.38613037,0.02146620
4326.31493774,0.02146892
4328.24374512,0.02140848
4330.17255249,0.02151751
4332.10135986,0.02140108
4334.03016724,0.02130339
4335.95897461,0.02127377
4337.88778198,0.02113975
4339.81658936,0.02120839
4341.74539673,0.02114032
4343.67420410,0.02110972
4345.60301147,0.02098072
4347.53181885,0.02099613
4349.46062622,0.02092428
4351.38943359,0.02085293
4353.31824097,0.02091149
4355.24704834,0.02070095
4357.17585571,0.02080186
4359.10466309,0.02072671
4361.03347046,0.02061893
4362.96227783,0.02062546
4364.89108520,0.02052755
4366.81989258,0.02049933
4368.74869995,0.02040935
4370.67750732,0.02041404
4372.60631470,0.02030378
4374.53512207,0.02026382
4376.46392944,0.02020984
4378.39273682,0.02015691
4380.32154419,0.02012946
4382.25035156,0.02004782
4384.17915894,0.02003057
4386.10796631,0.02005239
4388.03677368,0.02008416
4389.96558105,0.01980652
4391.89438843,0.01980036
4393.82319580,0.01977228
4395.75200317,0.01969906
4397.68081055,0.01978371
4399.60961792,0.01965363
4401.53842529,0.01970762
4403.46723267,0.01953298
4405.39604004,0.01949450
4407.32484741,0.01954751
4409.25365478,0.01951915
4411.18246216,0.01943882
4413.11126953,0.01921373
4415.04007690,0.01934053
4416.96888428,0.01927196
4418.89769165,0.01926475
4420.82649902,0.01918740
4422.75530640,0.01911506
4424.68411377,0.01916396
4426.61292114,0.01894353
4428.54172852,0.01898177
4430.47053589,0.01892031
4432.39934326,0.01892431
4434.32815063,0.01887086
4436.25695801,0.01879280
4438.18576538,0.01884193
4440.11457275,0.01865185
4442.04338013,0.01863956
4443.97218750,0.01857735
4445.90099487,0.01852660
4447.82980225,0.01849511
4449.75860962,0.01840427
4451.68741699,0.01841239
4453.61622437,0.01845015
4455.54503174,0.01839213
4457.47383911,0.01827391
4459.40264648,0.01830240
4461.33145386,0.01821520
4463.26026123,0.01819971
4465.18906860,0.01815204
4467.11787598,0.01810595
4469.04668335,0.01815069
4470.97549072,0.01798937
4472.90429810,0.01786288
4474.83310547,0.01785399
4476.76191284,0.01787838
4478.69072021,0.01777170
4480.61952759,0.01773704
4482.54833496,0.01770496
4484.47714233,0.01770630
4486.40594971,0.01762902
4488.33475708,0.01748033
4490.26356445,0.01753816
4492.19237183,0.01741225
4494.12117920,0.01749281
4496.04998657,0.01741432
4497.97879395,0.01730961
4499.90760132,0.01737698
4501.83640869,0.01723775
4503.76521606,0.01733179
4505.69402344,0.01719909
4507.62283081,0.01716203
4509.55163818,0.01713366
4511.48044556,0.01699881
4513.40925293,0.01700410
4515.33806030,0.01694832
4517.26686768,0.01697145
4519.19567505,0.01687233
4521.12448242,0.01694783
4523.05328979,0.01683021
4524.98209717,0.01682311
4526.91090454,0.01685951
4528.83971191,0.01664290
4530.76851929,0.01673865
4532.69732666,0.01658979
4534.62613403,0.01661601
4536.55494141,0.01658923
4538.48374878,0.01645158
4540.41255615,0.01649865
4542.34136353,0.01637949
4544.27017090,0.01641047
4546.19897827,0.01634441
4548.12778564,0.01630434
4550.05659302,0.01621535
4551.98540039,0.01615386
4553.91420776,0.01618620
4555.84301514,0.01612900
4557.77182251,0.01608745
4559.70062988,0.01604861
4561.62943726,0.01604586
4563.55824463,0.01588278
4565.48705200,0.01593637
4567.41585937,0.01586177
4569.34466675,0.01577080
4571.27347412,0.01586975
4573.20228149,0.01573556
4575.13108887,0.01576697
4577.05989624,0.01572107
4578.98870361,0.01566307
4580.91751099,0.01555567
4582.84631836,0.01552583
4584.77512573,0.01556518
4586.70393311,0.01550505
4588.63274048,0.01554765
4590.56154785,0.01535575
4592.49035522,0.01537129
4594.41916260,0.01538286
4596.34796997,0.01534939
4598.27677734,0.01529122
4600.20558472,0.01509272
4602.13439209,0.01519340
4604.06319946,0.01511382
4605.99200684,0.01509708
4607.92081421,0.01509031
4609.84962158,0.01499260
4611.77842895,0.01506353
4613.70723633,0.01499027
4615.63604370,0.01487755
4617.56485107,0.01483374
4619.49365845,0.01482476
4621.42246582,0.01479927
4623.35127319,0.01479799
4625.28008057,0.01473526
4627.20888794,0.01474163
4629.13769531,0.01468213
4631.06650269,0.01459322
4632.99531006,0.01460749
4634.92411743,0.01450797
4636.85292480,0.01450950
4638.78173218,0.01442138
4640.71053955,0.01445776
4642.63934692,0.01440263
4644.56815430,0.01428656
4646.49696167,0.01437749
4648.42576904,0.01425292
4650.35457642,0.01425701
4652.28338379,0.01414772
4654.21219116,0.01412421
4656.14099853,0.01414435
4658.06980591,0.01403006
4659.99861328,0.01406048
4661.92742065,0.01395148
4663.85622803,0.01402019
4665.78503540,0.01398868
4667.71384277,0.01388505
4669.64265015,0.01391796
4671.57145752,0.01389800
4673.50026489,0.01384530
4675.42907227,0.01383715
4677.35787964,0.01384699
4679.28668701,0.01364253
4681.21549438,0.01368626
4683.14430176,0.01369527
4685.07310913,0.01361285
4687.00191650,0.01355537
4688.93072388,0.01342540
4690.85953125,0.01348736
4692.78833862,0.01346812
4694.71714600,0.01351139
4696.64595337,0.01338565
4698.57476074,0.01339232
4700.50356812,0.01341772
4702.43237549,0.01321941
4704.36118286,0.01335078
4706.28999023,0.01323571
4708.21879761,0.01318400
4710.14760498,0.01323493
4712.07641235,0.01313375
4714.00521973,0.01314816
4715.93402710,0.01313305
4717.86283447,0.01309622
4719.79164185,0.01300428
4721.72044922,0.01304270
4723.64925659,0.01297059
4725.57806396,0.01292052
4727.50687134,0.01298693
4729.43567871,0.01284674
4731.36448608,0.01274693
4733.29329346,0.01276091
4735.22210083,0.01276731
4737.15090820,0.01268428
4739.07971558,0.01268461
4741.00852295,0.01270473
4742.93733032,0.01267305
4744.86613770,0.01259832
4746.79494507,0.01259028
4748.72375244,0.01263073
4750.65255981,0.01251925
4752.58136719,0.01253721
4754.51017456,0.01249363
4756.43898193,0.01242172
4758.36778931,0.01238003
4760.29659668,0.01233119
4762.22540405,0.01242510
4764.15421143,0.01237169
4766.08301880,0.01227365
4768.01182617,0.01227788
4769.94063354,0.01231106
4771.86944092,0.01221499
4773.79824829,0.01212890
4775.72705566,0.01211554
4777.65586304,0.01213220
4779.58467041,0.01213316
4781.51347778,0.01203716
4783.44228516,0.01206279
4785.37109253,0.01189707
4787.29989990,0.01185813
4789.22870728,0.01199457
4791.15751465,0.01192030
4793.08632202,0.01184541
4795.01512939,0.01179938
4796.94393677,0.01186113
4798.87274414,0.01173527
4800.80155151,0.01174166
4802.73035889,0.01179410
4804.65916626,0.01167410
4806.58797363,0.01169097
4808.51678101,0.01154991
4810.44558838,0.01156044
4812.37439575,0.01158512
4814.30320312,0.01152523
4816.23201050,0.01152915
4818.16081787,0.01147403
4820.08962524,0.01147260
4822.01843262,0.01141632
4823.94723999,0.01138134
4825.87604736,0.01131311
4827.80485474,0.01128743
4829.73366211,0.01125726
4831.66246948,0.01121682
4833.59127686,0.01128824
4835.52008423,0.01126902
4837.44889160,0.01120013
4839.37769897,0.01118072
4841.30650635,0.01114948
4843.23531372,0.01104356
4845.16412109,0.01107021
4847.09292847,0.01103400
4849.02173584,0.01099497
4850.95054321,0.01100359
4852.87935059,0.01090188
4854.80815796,0.01097646
4856.73696533,0.01091740
4858.66577270,0.01083450
4860.59458008,0.01081682
4862.52338745,0.01083234
4864.45219482,0.01086467
4866.38100220,0.01075313
4868.30980957,0.01075170
4870.23861694,0.01070278
4872.16742432,0.01068454
4874.09623169,0.01059730
4876.02503906,0.01059856
4877.95384644,0.01066187
4879.88265381,0.01056889
4881.81146118,0.01061878
4883.74026855,0.01048558
4885.66907593,0.01046423
4887.59788330,0.01045124
4889.52669067,0.01039251
4891.45549805,0.01049260
4893.38430542,0.01039046
4895.31311279,0.01039059
4897.24192017,0.01031760
4899.17072754,0.01028389
4901.09953491,0.01037096
4903.02834228,0.01025200
4904.95714966,0.01018551
4906.88595703,0.01020819
4908.81476440,0.01020612
4910.74357178,0.01016743
4912.67237915,0.01014080
4914.60118652,0.01011316
4916.52999390,0.01011301
4918.45880127,0.01002315
4920.38760864,0.00993813
4922.31641602,0.00996518
4924.24522339,0.00995653
4926.17403076,0.00990123
4928.10283813,0.00983261
4930.03164551,0.00989057
4931.96045288,0.00982757
4933.88926025,0.00979777
4935.81806763,0.00986496
4937.74687500,0.00978120
4939.67568237,0.00976794
4941.60448975,0.00973119
4943.53329712,0.00968511
4945.46210449,0.00963525
4947.39091187,0.00958023
4949.31971924,0.00958563
4951.24852661,0.00961906
4953.17733398,0.00952759
4955.10614136,0.00944370
4957.03494873,0.00957518
4958.96375610,0.00949239
4960.89256348,0.00943591
4962.82137085,0.00951686
4964.75017822,0.00944775
4966.67898560,0.00935553
4968.60779297,0.00934220
4970.53660034,0.00930459
4972.46540771,0.00921357
4974.39421509,0.00929970
4976.32302246,0.00923681
4978.25182983,0.00920706
4980.18063721,0.00927860
4982.10944458,0.00920649
4984.03825195,0.00919932
4985.96705933,0.00911765
4987.89586670,0.00913652
4989.82467407,0.00909343
4991.75348145,0.00903694
4993.68228882,0.00909550
4995.61109619,0.00903127
4997.53990356,0.00900104
4999.46871094,0.00901834
5001.39751831,0.00902778
5003.32632568,0.00891040
5005.25513306,0.00890961
5007.18394043,0.00889153
5009.11274780,0.00884352
5011.04155518,0.00892413
5012.97036255,0.00882257
5014.89916992,0.00877411
5016.82797729,0.00871511
5018.75678467,0.00867836
5020.68559204,0.00867917
5022.61439941,0.00866402
5024.54320679,0.00869805
5026.47201416,0.00864496
5028.40082153,0.00865250
5030.32962891,0.00857182
5032.25843628,0.00846794
5034.18724365,0.00847593
5036.11605103,0.00851538
5038.04485840,0.00844995
5039.97366577,0.00843579
5041.90247314,0.00851666
5043.83128052,0.00836803
5045.76008789,0.00839128
5047.68889526,0.00842478
5049.61770264,0.00828763
5051.54651001,0.00830477
5053.47531738,0.00833854
5055.40412476,0.00829452
5057.33293213,0.00827488
5059.26173950,0.00828429
5061.19054687,0.00818848
5063.11935425,0.00817784
5065.04816162,0.00818212
5066.97696899,0.00818557
5068.90577637,0.00812037
5070.83458374,0.00807445
5072.76339111,0.00820818
5074.69219849,0.00810417
5076.62100586,0.00809647
5078.54981323,0.00804315
5080.47862061,0.00793820
5082.40742798,0.00803920
5084.33623535,0.00799398
5086.26504272,0.00798977
5088.19385010,0.00794680
5090.12265747,0.00793963
5092.05146484,0.00787694
5093.98027222,0.00783465
5095.90907959,0.00796692
5097.83788696,0.00788483
5099.76669434,0.00784884
5101.69550171,0.00787002
5103.62430908,0.00782643
5105.55311645,0.00777807
5107.48192383,0.00771598
5109.41073120,0.00767451
5111.33953857,0.00765407
5113.26834595,0.00761679
5115.19715332,0.00761882
5117.12596069,0.00768275
5119.05476807,0.00758527
5120.98357544,0.00760698
5122.91238281,0.00764775
5124.84119019,0.00760979
5126.76999756,0.00762434
5128.69880493,0.00751414
5130.62761230,0.00748074
5132.55641968,0.00739978
5134.48522705,0.00741396
5136.41403442,0.00744605
5138.34284180,0.00730720
5140.27164917,0.00739472
5142.20045654,0.00743343
5144.12926392,0.00733986
5146.05807129,0.00732105
5147.98687866,0.00731074
5149.91568603,0.00730504
5151.84449341,0.00727464
5153.77330078,0.00723541
5155.70210815,0.00722309
5157.63091553,0.00719502
5159.55972290,0.00718639
5161.48853027,0.00715647
5163.41733765,0.00705036
5165.34614502,0.00708509
5167.27495239,0.00718315
5169.20375977,0.00713666
5171.13256714,0.00706037
5173.06137451,0.00709358
5174.99018188,0.00704669
5176.91898926,0.00698550
5178.84779663,0.00705590
5180.77660400,0.00700453
5182.70541138,0.00695437
5184.63421875,0.00687271
5186.56302612,0.00687571
5188.49183350,0.00695438
5190.42064087,0.00687186
5192.34944824,0.00690312
5194.27825562,0.00687682
5196.20706299,0.00677855
5198.13587036,0.00672907
5200.06467773,0.00676477
5201.99348511,0.00688300
5203.92229248,0.00680630
5205.85109985,0.00658909
5207.77990723,0.00654039
5209.70871460,0.00662236
5211.63752197,0.00665227
5213.56632935,0.00674402
5215.49513672,0.00663112
5217.42394409,0.00663158
5219.35275146,0.00665304
5221.28155884,0.00653183
5223.21036621,0.00670587
5225.13917358,0.00648889
5227.06798096,0.00647975
5228.99678833,0.00659783
5230.92559570,0.00642987
5232.85440308,0.00652805
5234.78321045,0.00644494
5236.71201782,0.00651580
5238.64082520,0.00646532
5240.56963257,0.00644441
5242.49843994,0.00646786
5244.42724731,0.00622566
5246.35605469,0.00637018
5248.28486206,0.00623384
5250.21366943,0.00620567
5252.14247681,0.00638257
5254.07128418,0.00619715
5256.00009155,0.00620639
5257.92889893,0.00628507
5259.85770630,0.00626533
5261.78651367,0.00621105
5263.71532104,0.00613466
5265.64412842,0.00608356
5267.57293579,0.00623111
5269.50174316,0.00620356
5271.43055054,0.00609529
5273.35935791,0.00619919
5275.28816528,0.00609518
5277.21697266,0.00614577
5279.14578003,0.00615019
5281.07458740,0.00603852
5283.00339478,0.00605899
5284.93220215,0.00603902
5286.86100952,0.00611247
5288.78981689,0.00598179
5290.71862427,0.00586559
5292.64743164,0.00598043
5294.57623901,0.00602069
5296.50504639,0.00603853
5298.43385376,0.00600019
5300.36266113,0.00594078
5302.29146851,0.00596757
5304.22027588,0.00591222
5306.14908325,0.00585919
5308.07789062,0.00585796
5310.00669800,0.00578582
5311.93550537,0.00582874
5313.86431274,0.00582877
5315.79312012,0.00580982
5317.72192749,0.00581805
5319.65073486,0.00578789
5321.57954224,0.00579933
5323.50834961,0.00572607
5325.43715698,0.00573584
5327.36596436,0.00563253
5329.29477173,0.00563467
5331.22357910,0.00578616
5333.15238647,0.00562793
5335.08119385,0.00561055
5337.01000122,0.00558803
5338.93880859,0.00541396
5340.86761597,0.00558758
5342.79642334,0.00570092
5344.72523071,0.00537607
5346.65403809,0.00541088
5348.58284546,0.00557715
5350.51165283,0.00547938
5352.44046020,0.00550465
5354.36926758,0.00527257
5356.29807495,0.00533977
5358.22688232,0.00555575
5360.15568970,0.00542484
5362.08449707,0.00542633
5364.01330444,0.00537098
5365.94211182,0.00543481
5367.87091919,0.00543123
5369.79972656,0.00538015
5371.72853394,0.00540974
5373.65734131,0.00533104
5375.58614868,0.00530433
5377.51495605,0.00521452
5379.44376343,0.00526990
5381.37257080,0.00535123
5383.30137817,0.00529829
5385.23018555,0.00516317
5387.15899292,0.00511778
5389.08780029,0.00525006
5391.01660767,0.00526784
5392.94541504,0.00521553
5394.87422241,0.00508493
5396.80302978,0.00510723
5398.73183716,0.00517868
5400.66064453,0.00516775
5402.58945190,0.00518693
5404.51825928,0.00513969
5406.44706665,0.00514747
5408.37587402,0.00503078
5410.30468140,0.00497751
5412.23348877,0.00499184
5414.16229614,0.00486960
5416.09110352,0.00492811
5418.01991089,0.00502233
5419.94871826,0.00496650
5421.87752563,0.00497069
5423.80633301,0.00499858
5425.73514038,0.00500306
5427.66394775,0.00501494
5429.59275513,0.00483177
5431.52156250,0.00488286
5433.45036987,0.00497180
5435.37917725,0.00475822
5437.30798462,0.00488367
5439.23679199,0.00489675
5441.16559936,0.00474855
5443.09440674,0.00483052
5445.02321411,0.00477068
5446.95202148,0.00468504
5448.88082886,0.00472906
5450.80963623,0.00474279
5452.73844360,0.00476561
5454.66725098,0.00480722
5456.59605835,0.00475117
5458.52486572,0.00474842
5460.45367310,0.00466116
5462.38248047,0.00462218
5464.31128784,0.00470944
5466.24009521,0.00465186
5468.16890259,0.00463902
5470.09770996,0.00459327
5472.02651733,0.00469061
5473.95532471,0.00468107
5475.88413208,0.00448235
5477.81293945,0.00455773
5479.74174683,0.00462158
5481.67055420,0.00462617
5483.59936157,0.00458235
5485.52816895,0.00462214
5487.45697632,0.00457903
5489.38578369,0.00447340
5491.31459106,0.00454564
5493.24339844,0.00446689
5495.17220581,0.00447582
5497.10101318,0.00449246
5499.02982056,0.00445226
5500.95862793,0.00446362
5502.88743530,0.00445371
5504.81624268,0.00446930
5506.74505005,0.00437771
5508.67385742,0.00432440
5510.60266479,0.00432742
5512.53147217,0.00443268
5514.46027954,0.00442941
5516.38908691,0.00431194
5518.31789429,0.00437468
5520.24670166,0.00432645
5522.17550903,0.00428425
5524.10431641,0.00433622
5526.03312378,0.00429336
5527.96193115,0.00424124
5529.89073853,0.00430511
5531.81954590,0.00429669
5533.74835327,0.00420462
5535.67716064,0.00424118
5537.60596802,0.00421102
5539.53477539,0.00421412
5541.46358276,0.00426393
5543.39239014,0.00422708
5545.32119751,0.00417293
5547.25000488,0.00419848
5549.17881226,0.00425718
5551.10761963,0.00413077
5553.03642700,0.00414020
5554.96523437,0.00414841
5556.89404175,0.00403579
5558.82284912,0.00414018
5560.75165649,0.00414191
5562.68046387,0.00411974
5564.60927124,0.00412893
5566.53807861,0.00406108
5568.46688599,0.00410602
5570.39569336,0.00406443
5572.32450073,0.00406159
5574.25330811,0.00408247
5576.18211548,0.00400864
5578.11092285,0.00405575
5580.03973022,0.00401863
5581.96853760,0.00401041
5583.89734497,0.00401594
5585.82615234,0.00395950
5587.75495972,0.00405962
5589.68376709,0.00401231
5591.61257446,0.00390938
5593.54138184,0.00387887
5595.47018921,0.00384068
5597.39899658,0.00387532
5599.32780395,0.00388760
5601.25661133,0.00387933
5603.18541870,0.00384975
5605.11422607,0.00387139
5607.04303345,0.00384414
5608.97184082,0.00377217
5610.90064819,0.00382591
5612.82945557,0.00388735
5614.75826294,0.00386577
5616.68707031,0.00378866
5618.61587769,0.00380985
5620.54468506,0.00385604
5622.47349243,0.00380454
5624.40229980,0.00373804
5626.33110718,0.00375720
5628.25991455,0.00375076
5630.18872192,0.00366988
5632.11752930,0.00371499
5634.04633667,0.00377248
5635.97514404,0.00375839
5637.90395142,0.00366806
5639.83275879,0.00365727
5641.76156616,0.00371126
5643.69037353,0.00363336
5645.61918091,0.00361576
5647.54798828,0.00364354
5649.47679565,0.00366015
5651.40560303,0.00363464
5653.33441040,0.00363437
5655.26321777,0.00358925
5657.19202515,0.00352995
5659.12083252,0.00360651
5661.04963989,0.00357671
5662.97844727,0.00359514
5664.90725464,0.00354292
5666.83606201,0.00347313
5668.76486938,0.00356555
5670.69367676,0.00352938
5672.62248413,0.00347796
5674.55129150,0.00344144
5676.48009888,0.00350922
5678.40890625,0.00354526
5680.33771362,0.00343718
5682.26652100,0.00346605
5684.19532837,0.00351270
5686.12413574,0.00343162
5688.05294311,0.00341585
5689.98175049,0.00345817
5691.91055786,0.00341728
5693.83936523,0.00344439
5695.76817261,0.00339408
5697.69697998,0.00336746
5699.62578735,0.00336462
5701.55459473,0.00331072
5703.48340210,0.00338407
5705.41220947,0.00330598
5707.34101685,0.00335858
5709.26982422,0.00334996
5711.19863159,0.00321588
5713.12743896,0.00332378
5715.05624634,0.00332799
5716.98505371,0.00332514
5718.91386108,0.00329992
5720.84266846,0.00331612
5722.77147583,0.00333184
5724.70028320,0.00328285
5726.62909058,0.00329435
5728.55789795,0.00323262
5730.48670532,0.00319534
5732.41551270,0.00318010
5734.34432007,0.00326312
5736.27312744,0.00318937
5738.20193481,0.00311684
5740.13074219,0.00324231
5742.05954956,0.00317221
5743.98835693,0.00311748
5745.91716431,0.00310123
5747.84597168,0.00310759
5749.77477905,0.00310985
5751.70358643,0.00308201
5753.63239380,0.00308182
5755.56120117,0.00304847
5757.49000854,0.00304069
5759.41881592,0.00307655
5761.34762329,0.00314380
5763.27643066,0.00302794
5765.20523804,0.00299711
5767.13404541,0.00302694
5769.06285278,0.00298448
5770.99166016,0.00305001
5772.92046753,0.00298447
5774.84927490,0.00296881
5776.77808228,0.00300438
5778.70688965,0.00304148
5780.63569702,0.00302622
5782.56450439,0.00294017
5784.49331177,0.00296026
5786.42211914,0.00294970
5788.35092651,0.00293836
5790.27973389,0.00287600
5792.20854126,0.00292054
5794.13734863,0.00292000
5796.06615601,0.00281932
5797.99496338,0.00288197
5799.92377075,0.00288246
5801.85257812,0.00291940
5803.78138550,0.00291011
5805.71019287,0.00284999
5807.63900024,0.00288279
5809.56780762,0.00286860
5811.49661499,0.00281532
5813.42542236,0.00280619
5815.35422974,0.00282395
5817.28303711,0.00276545
5819.21184448,0.00277131
5821.14065186,0.00277929
5823.06945923,0.00275599
5824.99826660,0.00272048
5826.92707397,0.00266067
5828.85588135,0.00269702
5830.78468872,0.00273378
5832.71349609,0.00275313
5834.64230347,0.00269704
5836.57111084,0.00268153
5838.49991821,0.00272628
5840.42872559,0.00270278
5842.35753296,0.00267846
5844.28634033,0.00268792
5846.21514770,0.00272859
5848.14395508,0.00270182
5850.07276245,0.00268192
5852.00156982,0.00264494
5853.93037720,0.00262671
5855.85918457,0.00261361
5857.78799194,0.00261540
5859.71679932,0.00267930
5861.64560669,0.00257329
5863.57441406,0.00255605
5865.50322144,0.00262968
5867.43202881,0.00264155
5869.36083618,0.00259432
5871.28964355,0.00252763
5873.21845093,0.00259945
5875.14725830,0.00256016
5877.07606567,0.00252721
5879.00487305,0.00254956
5880.93368042,0.00253255
5882.86248779,0.00254606
5884.79129517,0.00249157
5886.72010254,0.00249654
5888.64890991,0.00252022
5890.57771728,0.00247632
5892.50652466,0.00253346
5894.43533203,0.00258341
5896.36413940,0.00244423
5898.29294678,0.00244374
5900.22175415,0.00253601
5902.15056152,0.00248670
5904.07936890,0.00244493
5906.00817627,0.00240161
5907.93698364,0.00240328
5909.86579102,0.00238647
5911.79459839,0.00243167
5913.72340576,0.00242389
5915.65221313,0.00236226
5917.58102051,0.00243198
5919.50982788,0.00236366
5921.43863525,0.00239485
5923.36744263,0.00243117
5925.29625000,0.00237025
5927.22505737,0.00240128
5929.15386475,0.00237506
5931.08267212,0.00237675
5933.01147949,0.00231542
5934.94028686,0.00229487
5936.86909424,0.00235842
5938.79790161,0.00235494
5940.72670898,0.00232091
5942.65551636,0.00227049
5944.58432373,0.00229377
5946.51313110,0.00228566
5948.44193848,0.00225781
5950.37074585,0.00232701
5952.29955322,0.00229093
5954.22836060,0.00218205
5956.15716797,0.00227114
5958.08597534,0.00231504
5960.01478271,0.00230880
5961.94359009,0.00232300
5963.87239746,0.00224341
5965.80120483,0.00231010
5967.73001221,0.00227841
5969.65881958,0.00222824
5971.58762695,0.00223456
5973.51643433,0.00216985
5975.44524170,0.00225753
5977.37404907,0.00220744
5979.30285645,0.00214780
5981.23166382,0.00219639
5983.16047119,0.00217198
5985.08927856,0.00215038
5987.01808594,0.00216785
5988.94689331,0.00217123
5990.87570068,0.00210888
5992.80450806,0.00219060
5994.73331543,0.00215235
5996.66212280,0.00200721
5998.59093018,0.00208281
6000.51973755,0.00209452
