399.26312622,0.00200229
401.19193359,0.00322071
403.12074097,0.00321843
405.04954834,0.00292299
406.97835571,0.00320845
408.90716309,0.00378481
410.83597046,0.00386429
412.76477783,0.00285953
414.69358521,0.00372287
416.62239258,0.00397407
418.55119995,0.00302759
420.48000732,0.00394529
422.40881470,0.00398395
424.33762207,0.00393516
426.26642944,0.00466413
428.19523682,0.00442676
430.12404419,0.00421108
432.05285156,0.00414745
433.98165894,0.00387897
435.91046631,0.00403279
437.83927368,0.00394239
439.76808105,0.00344499
441.69688843,0.00371382
443.62569580,0.00337292
445.55450317,0.00293852
447.48331055,0.00339728
449.41211792,0.00327202
451.34092529,0.00309485
453.26973267,0.00299414
455.19854004,0.00307660
457.12734741,0.00287070
459.05615479,0.00210060
460.98496216,0.00210601
462.91376953,0.00242655
464.84257690,0.00223476
466.77138428,0.00182886
468.70019165,0.00187726
470.62899902,0.00187018
472.55780640,0.00156681
474.48661377,0.00134242
476.41542114,0.00139666
478.34422852,0.00144339
480.27303589,0.00114531
482.20184326,0.00151799
484.13065063,0.00144698
486.05945801,0.00109335
487.98826538,0.00120815
489.91707275,0.00086763
491.84588013,0.00103423
493.77468750,0.00096804
495.70349487,0.00057837
497.63230225,0.00052958
499.56110962,0.00043226
501.48991699,0.00036357
503.41872437,0.00049587
505.34753174,0.00107487
507.27633911,0.00096606
509.20514648,0.00080015
511.13395386,0.00070422
513.06276123,0.00050088
514.99156860,0.00107551
516.92037598,0.00112311
518.84918335,0.00088483
520.77799072,0.00059187
522.70679810,0.00047342
524.63560547,0.00036214
526.56441284,0.00029928
528.49322021,0.00102353
530.42202759,0.00052603
532.35083496,0.00021916
534.27964233,0.00074917
536.20844971,0.00058076
538.13725708,0.00040058
540.06606445,0.00010615
541.99487183,0.00035337
543.92367920,0.00056081
545.85248657,0.00040724
547.78129395,0.00030195
549.71010132,0.00031813
551.63890869,0.00083893
553.56771606,0.00051805
555.49652344,0.00050843
557.42533081,0.00057989
559.35413818,0.00013881
561.28294556,0.00080220
563.21175293,0.00065705
565.14056030,0.00011519
567.06936768,0.00036899
568.99817505,0.00048285
570.92698242,0.00037020
572.85578979,0.00034923
574.78459717,0.00062755
576.71340454,0.00052751
578.64221191,0.00041724
580.57101929,0.00027175
582.49982666,0.00027699
584.42863403,0.00048695
586.35744141,0.00035028
588.28624878,0.00045591
590.21505615,0.00041998
592.14386353,0.00024018
594.07267090,0.00024141
596.00147827,0.00034656
597.93028564,0.00049705
599.85909302,0.00027106
601.78790039,0.00012233
603.71670776,0.00010965
605.64551514,0.00043718
607.57432251,0.00038420
609.50312988,-0.00029709
611.43193726,0.00022831
613.36074463,0.00043826
615.28955200,0.00013711
617.21835938,0.00045092
619.14716675,0.00042758
621.07597412,0.00032555
623.00478149,0.00034867
624.93358887,0.00045145
626.86239624,0.00049125
628.79120361,0.00037397
630.72001099,0.00114593
632.64881836,0.00203866
634.57762573,0.00218024
636.50643311,0.00276507
638.43524048,0.00290636
640.36404785,0.00289019
642.29285522,0.00351255
644.22166260,0.00394367
646.15046997,0.00435616
648.07927734,0.00401308
650.00808472,0.00421530
651.93689209,0.00486523
653.86569946,0.00496170
655.79450684,0.00516762
657.72331421,0.00505622
659.65212158,0.00559866
661.58092896,0.00546403
663.50973633,0.00545286
665.43854370,0.00599324
667.36735107,0.00526229
669.29615845,0.00581065
671.22496582,0.00673821
673.15377319,0.00685926
675.08258057,0.00689929
677.01138794,0.00716484
678.94019531,0.00765519
680.86900269,0.00757954
682.79781006,0.00750166
684.72661743,0.00707194
686.65542480,0.00733389
688.58423218,0.00770120
690.51303955,0.00754347
692.44184692,0.00813369
694.37065430,0.00862238
696.29946167,0.00954962
698.22826904,0.01086601
700.15707642,0.01166522
702.08588379,0.01132160
704.01469116,0.01055901
705.94349854,0.00957901
707.87230591,0.00794674
709.80111328,0.00659207
711.72992065,0.00476869
713.65872803,0.00338401
715.58753540,0.00193204
717.51634277,0.00073281
719.44515015,0.00096258
721.37395752,0.00062489
723.30276489,0.00072919
725.23157227,0.00075272
727.16037964,0.00043832
729.08918701,0.00056784
731.01799438,0.00034479
732.94680176,0.00033584
734.87560913,0.00034191
736.80441650,0.00056008
738.73322388,0.00035117
740.66203125,0.00015607
742.59083862,0.00060064
744.51964600,0.00071941
746.44845337,0.00068468
748.37726074,0.00049079
750.30606812,0.00049518
752.23487549,0.00038503
754.16368286,0.00054026
756.09249023,0.00054839
758.02129761,0.00020692
759.95010498,0.00057446
761.87891235,0.00074171
763.80771973,0.00068474
765.73652710,0.00056856
767.66533447,0.00066656
769.59414185,0.00062763
771.52294922,0.00053787
773.45175659,0.00080112
775.38056396,0.00060752
777.30937134,0.00065407
779.23817871,0.00081739
781.16698608,0.00080125
783.09579346,0.00095658
785.02460083,0.00099179
786.95340820,0.00092867
788.88221558,0.00078028
790.81102295,0.00076252
792.73983032,0.00088539
794.66863770,0.00101106
796.59744507,0.00145487
798.52625244,0.00179163
800.45505981,0.00168214
802.38386719,0.00165605
804.31267456,0.00126771
806.24148193,0.00118194
808.17028931,0.00131606
810.09909668,0.00100081
812.02790405,0.00115856
813.95671143,0.00082732
815.88551880,0.00071602
817.81432617,0.00080486
819.74313354,0.00049434
821.67194092,0.00085794
823.60074829,0.00086464
825.52955566,0.00099780
827.45836304,0.00138528
829.38717041,0.00173307
831.31597778,0.00200486
833.24478516,0.00217718
835.17359253,0.00256272
837.10239990,0.00254863
839.03120728,0.00280907
840.96001465,0.00262877
842.88882202,0.00228190
844.81762939,0.00206368
846.74643677,0.00178574
848.67524414,0.00219858
850.60405151,0.00188604
852.53285889,0.00160031
854.46166626,0.00160483
856.39047363,0.00140107
858.31928101,0.00135158
860.24808838,0.00125341
862.17689575,0.00124224
864.10570313,0.00101578
866.03451050,0.00099415
867.96331787,0.00070271
869.89212524,0.00064061
871.82093262,0.00081486
873.74973999,0.00048048
875.67854736,0.00068733
877.60735474,0.00085011
879.53616211,0.00067162
881.46496948,0.00062493
883.39377686,0.00073324
885.32258423,0.00057779
887.25139160,0.00061987
889.18019897,0.00088103
891.10900635,0.00055746
893.03781372,0.00066042
894.96662109,0.00068278
896.89542847,0.00053951
898.82423584,0.00083648
900.75304321,0.00089755
902.68185059,0.00088326
904.61065796,0.00095978
906.53946533,0.00080557
908.46827271,0.00074063
910.39708008,0.00109169
912.32588745,0.00103269
914.25469482,0.00117196
916.18350220,0.00142981
918.11230957,0.00159662
920.04111694,0.00207291
921.96992432,0.00185948
923.89873169,0.00197893
925.82753906,0.00229369
927.75634644,0.00249168
929.68515381,0.00274688
931.61396118,0.00265396
933.54276855,0.00312586
935.47157593,0.00331364
937.40038330,0.00325089
939.32919067,0.00339818
941.25799805,0.00352728
943.18680542,0.00377320
945.11561279,0.00370308
947.04442017,0.00364305
948.97322754,0.00366127
950.90203491,0.00360002
952.83084229,0.00365748
954.75964966,0.00386239
956.68845703,0.00369214
958.61726440,0.00364845
960.54607178,0.00381241
962.47487915,0.00358606
964.40368652,0.00377741
966.33249390,0.00395512
968.26130127,0.00418855
970.19010864,0.00431679
972.11891602,0.00396926
974.04772339,0.00438710
975.97653076,0.00499345
977.90533813,0.00524948
979.83414551,0.00580326
981.76295288,0.00649147
983.69176025,0.00695431
985.62056763,0.00762136
987.54937500,0.00852720
989.47818237,0.00945452
991.40698975,0.01056208
993.33579712,0.01171522
995.26460449,0.01295807
997.19341187,0.01379458
999.12221924,0.01444790
1001.05102661,0.01549732
1002.97983398,0.01661374
1004.90864136,0.01787202
1006.83744873,0.01908032
1008.76625610,0.02010047
1010.69506348,0.02136759
1012.62387085,0.02264199
1014.55267822,0.02353998
1016.48148560,0.02464451
1018.41029297,0.02583150
1020.33910034,0.02703672
1022.26790771,0.02849960
1024.19671509,0.02945250
1026.12552246,0.03020373
1028.05432983,0.03128649
1029.98313721,0.03244032
1031.91194458,0.03336066
1033.84075195,0.03389220
1035.76955933,0.03425437
1037.69836670,0.03475979
1039.62717407,0.03496252
1041.55598145,0.03477002
1043.48478882,0.03466928
1045.41359619,0.03406786
1047.34240356,0.03375428
1049.27121094,0.03351268
1051.20001831,0.03273537
1053.12882568,0.03232356
1055.05763306,0.03150649
1056.98644043,0.03088105
1058.91524780,0.03017968
1060.84405518,0.02906875
1062.77286255,0.02843878
1064.70166992,0.02745851
1066.63047729,0.02638572
1068.55928467,0.02526791
1070.48809204,0.02424730
1072.41689941,0.02327014
1074.34570679,0.02205501
1076.27451416,0.02100099
1078.20332153,0.01996881
1080.13212891,0.01920968
1082.06093628,0.01814096
1083.98974365,0.01733600
1085.91855103,0.01689676
1087.84735840,0.01570876
1089.77616577,0.01495248
1091.70497314,0.01451690
1093.63378052,0.01380362
1095.56258789,0.01338236
1097.49139526,0.01287423
1099.42020264,0.01247800
1101.34901001,0.01247246
1103.27781738,0.01209561
1105.20662476,0.01169028
1107.13543213,0.01166330
1109.06423950,0.01137393
1110.99304687,0.01115443
1112.92185425,0.01118825
1114.85066162,0.01095865
1116.77946899,0.01089836
1118.70827637,0.01114190
1120.63708374,0.01107631
1122.56589111,0.01096320
1124.49469849,0.01107851
1126.42350586,0.01136679
1128.35231323,0.01163073
1130.28112061,0.01163816
1132.20992798,0.01189039
1134.13873535,0.01246404
1136.06754272,0.01311739
1137.99635010,0.01366319
1139.92515747,0.01436321
1141.85396484,0.01535721
1143.78277222,0.01628802
1145.71157959,0.01741140
1147.64038696,0.01844398
1149.56919434,0.01940163
1151.49800171,0.02055844
1153.42680908,0.02156588
1155.35561646,0.02231856
1157.28442383,0.02318446
1159.21323120,0.02420725
1161.14203857,0.02509887
1163.07084595,0.02609811
1164.99965332,0.02700977
1166.92846069,0.02816320
1168.85726807,0.02926793
1170.78607544,0.03006157
1172.71488281,0.03118731
1174.64369019,0.03220595
1176.57249756,0.03349473
1178.50130493,0.03492378
1180.43011230,0.03615072
1182.35891968,0.03749278
1184.28772705,0.03935262
1186.21653442,0.04134633
1188.14534180,0.04289370
1190.07414917,0.04492268
1192.00295654,0.04694122
1193.93176392,0.04925225
1195.86057129,0.05174305
1197.78937866,0.05397947
1199.71818604,0.05659630
1201.64699341,0.05876437
1203.57580078,0.06124561
1205.50460815,0.06385483
1207.43341553,0.06610042
1209.36222290,0.06827451
1211.29103027,0.07017013
1213.21983765,0.07218123
1215.14864502,0.07411158
1217.07745239,0.07569872
1219.00625977,0.07675027
1220.93506714,0.07821923
1222.86387451,0.07915290
1224.79268188,0.07942230
1226.72148926,0.08052911
1228.65029663,0.08103707
1230.57910400,0.08119340
1232.50791138,0.08134866
1234.43671875,0.08135106
1236.36552612,0.08138168
1238.29433350,0.08118933
1240.22314087,0.08108550
1242.15194824,0.08084755
1244.08075562,0.08038438
1246.00956299,0.07984607
1247.93837036,0.07956427
1249.86717773,0.07888961
1251.79598511,0.07818525
1253.72479248,0.07758769
1255.65359985,0.07644944
1257.58240723,0.07534678
1259.51121460,0.07396558
1261.44002197,0.07297462
1263.36882935,0.07201190
1265.29763672,0.07099716
1267.22644409,0.07046364
1269.15525146,0.06937161
1271.08405884,0.06822417
1273.01286621,0.06708220
1274.94167358,0.06589968
1276.87048096,0.06472731
1278.79928833,0.06351349
1280.72809570,0.06213029
1282.65690308,0.06064970
1284.58571045,0.05978839
1286.51451782,0.05860045
1288.44332520,0.05736434
1290.37213257,0.05677809
1292.30093994,0.05624837
1294.22974731,0.05575878
1296.15855469,0.05536603
1298.08736206,0.05524582
1300.01616943,0.05541319
1301.94497681,0.05573157
1303.87378418,0.05619657
1305.80259155,0.05661955
1307.73139893,0.05733983
1309.66020630,0.05862136
1311.58901367,0.05930600
1313.51782104,0.06016563
1315.44662842,0.06191755
1317.37543579,0.06313741
1319.30424316,0.06458423
1321.23305054,0.06687261
1323.16185791,0.06907415
1325.09066528,0.07083214
1327.01947266,0.07289899
1328.94828003,0.07490768
1330.87708740,0.07671522
1332.80589478,0.07887575
1334.73470215,0.08016607
1336.66350952,0.08066383
1338.59231689,0.07988746
1340.52112427,0.08087327
1342.44993164,0.08447132
1344.37873901,0.08504021
1346.30754639,0.08493769
1348.23635376,0.08492029
1350.16516113,0.08418654
1352.09396851,0.08432364
1354.02277588,0.08298300
1355.95158325,0.08216022
1357.88039062,0.08186294
1359.80919800,0.08051100
1361.73800537,0.07686590
1363.66681274,0.07552876
1365.59562012,0.07966152
1367.52442749,0.07786101
1369.45323486,0.07670541
1371.38204224,0.07841188
1373.31084961,0.07404388
1375.23965698,0.07420759
1377.16846436,0.07635403
1379.09727173,0.07601637
1381.02607910,0.07600533
1382.95488647,0.07596385
1384.88369385,0.07598298
1386.81250122,0.07221782
1388.74130859,0.07322133
1390.67011597,0.07977208
1392.59892334,0.07781780
1394.52773071,0.07244600
1396.45653809,0.07606984
1398.38534546,0.07608393
1400.31415283,0.07538496
1402.24296021,0.08193001
1404.17176758,0.07718459
1406.10057495,0.07733140
1408.02938232,0.08099407
1409.95818970,0.07766290
1411.88699707,0.07970235
1413.81580444,0.07685427
1415.74461182,0.07790978
1417.67341919,0.07051763
1419.60222656,0.06217641
1421.53103394,0.07218704
1423.45984131,0.07009888
1425.38864868,0.06787264
1427.31745605,0.06925738
1429.24626343,0.06364226
1431.17507080,0.06194609
1433.10387817,0.06289670
1435.03268555,0.05727351
1436.96149292,0.04789237
1438.89030029,0.05454993
1440.81910767,0.05649684
1442.74791504,0.05210587
1444.67672241,0.05495027
1446.60552979,0.05019451
1448.53433716,0.05089489
1450.46314453,0.05270296
1452.39195190,0.05352021
1454.32075928,0.05569144
1456.24956665,0.04540069
1458.17837402,0.04693616
1460.10718140,0.06352790
1462.03598877,0.06823894
1463.96479614,0.06722338
1465.89360352,0.06993758
1467.82241089,0.08023699
1469.75121826,0.08664101
1471.68002563,0.07656746
1473.60883301,0.08009606
1475.53764038,0.09219171
1477.46644775,0.09944341
1479.39525513,0.10977400
1481.32406250,0.11120059
1483.25286987,0.11828269
1485.18167725,0.12264363
1487.11048462,0.12012216
1489.03929199,0.11934789
1490.96809937,0.11965521
1492.89690674,0.14058456
1494.82571411,0.13794857
1496.75452148,0.12258675
1498.68332886,0.13949564
1500.61213623,0.14415306
1502.54094360,0.15505233
1504.46975098,0.14740321
1506.39855835,0.10471405
1508.32736572,0.12799859
1510.25617310,0.15296750
1512.18498047,0.14770292
1514.11378784,0.16094021
1516.04259521,0.14440621
1517.97140259,0.15028450
1519.90020996,0.14614670
1521.82901733,0.12452594
1523.75782471,0.15407670
1525.68663208,0.15189219
1527.61543945,0.15055180
1529.54424683,0.16812810
1531.47305420,0.16143629
1533.40186157,0.14713159
1535.33066895,0.15582304
1537.25947632,0.16885617
1539.18828369,0.11899428
1541.11709106,0.12251811
1543.04589844,0.14982420
1544.97470581,0.14276358
1546.90351318,0.17103106
1548.83232056,0.15949446
1550.76112793,0.16379860
1552.68993530,0.16405661
1554.61874268,0.14739785
1556.54755005,0.15901512
1558.47635742,0.11017235
1560.40516479,0.11750045
1562.33397217,0.17214608
1564.26277954,0.16295779
1566.19158691,0.16733876
1568.12039429,0.16601551
1570.04920166,0.14563209
1571.97800903,0.16888958
1573.90681641,0.17254704
1575.83562378,0.13448092
1577.76443115,0.15245667
1579.69323853,0.17488202
1581.62204590,0.16643469
1583.55085327,0.17060758
1585.47966064,0.16799533
1587.40846802,0.16916302
1589.33727539,0.16776896
1591.26608276,0.16791314
1593.19489014,0.16834432
1595.12369751,0.16581097
1597.05250488,0.16863586
1598.98131226,0.16741624
1600.91011963,0.16841128
1602.83892700,0.16521730
1604.76773437,0.16807066
1606.69654175,0.16580823
1608.62534912,0.16508143
1610.55415649,0.16513363
1612.48296387,0.16595672
1614.41177124,0.16906129
1616.34057861,0.13687471
1618.26938599,0.14769930
1620.19819336,0.17439157
1622.12700073,0.15377390
1624.05580811,0.15398452
1625.98461548,0.16234599
1627.91342285,0.16148762
1629.84223022,0.16031358
1631.77103760,0.17195141
1633.69984497,0.15864649
1635.62865234,0.12855561
1637.55745972,0.15055338
1639.48626709,0.16750802
1641.41507446,0.16310839
1643.34388184,0.16797048
1645.27268921,0.15104300
1647.20149658,0.13052493
1649.13030396,0.16423681
1651.05911133,0.15735817
1652.98791870,0.09759103
1654.91672607,0.13368364
1656.84553345,0.17173710
1658.77434082,0.16385296
1660.70314819,0.16868314
1662.63195557,0.15265089
1664.56076294,0.16080207
1666.48957031,0.17418751
1668.41837769,0.15106139
1670.34718506,0.14555468
1672.27599243,0.16688541
1674.20479980,0.15394634
1676.13360718,0.14606422
1678.06241455,0.17004299
1679.99122192,0.16372375
1681.92002930,0.16171698
1683.84883667,0.13067961
1685.77764404,0.12735361
1687.70645142,0.17880940
1689.63525879,0.15474260
1691.56406616,0.16974635
1693.49287354,0.17527559
1695.42168091,0.12480921
1697.35048828,0.15537253
1699.27929565,0.13712454
1701.20810303,0.12040292
1703.13691040,0.16830865
1705.06571777,0.15429249
1706.99452515,0.15451825
1708.92333252,0.16978055
1710.85213989,0.16246697
1712.78094727,0.16569847
1714.70975464,0.15322575
1716.63856201,0.13646072
1718.56736938,0.13373350
1720.49617676,0.15961969
1722.42498413,0.16747802
1724.35379150,0.15422571
1726.28259888,0.16857289
1728.21140625,0.15562358
1730.14021362,0.15584096
1732.06902100,0.15304604
1733.99782837,0.11412775
1735.92663574,0.14295506
1737.85544312,0.16044647
1739.78425049,0.14125736
1741.71305786,0.15423608
1743.64186523,0.15669817
1745.57067261,0.15695350
1747.49947998,0.15834564
1749.42828735,0.15108664
1751.35709473,0.14389616
1753.28590210,0.15998308
1755.21470947,0.16869515
1757.14351685,0.15257433
1759.07232422,0.16857859
1761.00113159,0.15866025
1762.92993896,0.15159237
1764.85874634,0.17545599
1766.78755371,0.15741581
1768.71636108,0.15811604
1770.64516846,0.15782046
1772.57397583,0.14051402
1774.50278320,0.15730131
1776.43159058,0.16730858
1778.36039795,0.16489762
1780.28920532,0.16255590
1782.21801270,0.16403462
1784.14682007,0.16397594
1786.07562744,0.16013490
1788.00443481,0.16896598
1789.93324219,0.16497868
1791.86204956,0.14794558
1793.79085693,0.15437993
1795.71966431,0.16674960
1797.64847168,0.16442218
1799.57727905,0.16179731
1801.50608643,0.15870205
1803.43489380,0.16390060
1805.36370117,0.16806611
1807.29250854,0.16550726
1809.22131592,0.16615395
1811.15012329,0.16148387
1813.07893066,0.16659099
1815.00773804,0.16772433
1816.93654541,0.16547605
1818.86535278,0.16691804
1820.79416016,0.16597073
1822.72296753,0.16880195
1824.65177490,0.15717849
1826.58058228,0.16266504
1828.50938965,0.16373798
1830.43819702,0.15243123
1832.36700439,0.16672605
1834.29581177,0.16617173
1836.22461914,0.16555335
1838.15342651,0.16511579
1840.08223389,0.16577624
1842.01104126,0.16658270
1843.93984863,0.14661855
1845.86865601,0.15624455
1847.79746338,0.16615884
1849.72627075,0.16202083
1851.65507812,0.16715674
1853.58388550,0.16382599
1855.51269287,0.16546144
1857.44150024,0.16437882
1859.37030762,0.16318718
1861.29911499,0.16455683
1863.22792236,0.16249326
1865.15672974,0.16458026
1867.08553711,0.15882666
1869.01434448,0.15165418
1870.94315186,0.15785137
1872.87195923,0.16431527
1874.80076660,0.16168208
1876.72957397,0.16256934
1878.65838135,0.16211587
1880.58718872,0.16104858
1882.51599609,0.16268979
1884.44480347,0.15973578
1886.37361084,0.16229039
1888.30241821,0.15859583
1890.23122559,0.15494147
1892.16003296,0.16136554
1894.08884033,0.15896165
1896.01764771,0.15817660
1897.94645508,0.16007414
1899.87526245,0.15935257
1901.80406982,0.15982610
1903.73287720,0.15855674
1905.66168457,0.15946798
1907.59049194,0.15765320
1909.51929932,0.15660164
1911.44810669,0.15769529
1913.37691406,0.15777721
1915.30572144,0.15947181
1917.23452881,0.15188608
1919.16333618,0.15174451
1921.09214355,0.15828550
1923.02095093,0.15303023
1924.94975830,0.15620172
1926.87856567,0.15811831
1928.80737305,0.15568224
1930.73618042,0.15786210
1932.66498779,0.15567428
1934.59379517,0.15707619
1936.52260254,0.15610471
1938.45140991,0.15638725
1940.38021729,0.15662149
1942.30902466,0.15117951
1944.23783203,0.15380940
1946.16663940,0.15570576
1948.09544678,0.15535054
1950.02425415,0.15602425
1951.95306152,0.15549022
1953.88186890,0.15573645
1955.81067627,0.15494236
1957.73948364,0.15536091
1959.66829102,0.15510502
1961.59709839,0.15470630
1963.52590576,0.15524551
1965.45471313,0.15428747
1967.38352051,0.15277180
1969.31232788,0.15400502
1971.24113525,0.15494123
1973.16994263,0.15390435
1975.09875000,0.15465209
1977.02755737,0.15379274
1978.95636475,0.15393990
1980.88517212,0.15388367
1982.81397949,0.15303332
1984.74278687,0.15383250
1986.67159424,0.15232036
1988.60040161,0.15271099
1990.52920898,0.15149871
1992.45801636,0.14946906
1994.38682373,0.15179214
1996.31563110,0.15208498
1998.24443848,0.15133770
2000.17324585,0.15148655
2002.10205322,0.15107349
2004.03086060,0.15093802
2005.95966797,0.15067695
2007.88847534,0.15012513
2009.81728271,0.15015915
2011.74609009,0.14976373
2013.67489746,0.14960620
2015.60370483,0.14880697
2017.53251221,0.14731255
2019.46131958,0.14831218
2021.39012695,0.14832096
2023.31893433,0.14769541
2025.24774170,0.14765778
2027.17654907,0.14721018
2029.10535645,0.14717786
2031.03416382,0.14654511
2032.96297119,0.14660382
2034.89177856,0.14616641
2036.82058594,0.14591414
2038.74939331,0.14582990
2040.67820068,0.14475180
2042.60700806,0.14471638
2044.53581543,0.14460623
2046.46462280,0.14447977
2048.39343018,0.14417633
2050.32223755,0.14386010
2052.25104492,0.14373842
2054.17985229,0.14320950
2056.10865967,0.14306098
2058.03746704,0.14281228
2059.96627441,0.14245281
2061.89508179,0.14226028
2063.82388916,0.14171977
2065.75269653,0.14112741
2067.68150391,0.14148538
2069.61031128,0.14136070
2071.53911865,0.14093091
2073.46792603,0.14075592
2075.39673340,0.14021161
2077.32554077,0.14029808
2079.25434814,0.13990827
2081.18315552,0.13951941
2083.11196289,0.13926816
2085.04077026,0.13905832
2086.96957764,0.13905308
2088.89838501,0.13837007
2090.82719238,0.13827069
2092.75599976,0.13831803
2094.68480713,0.13813129
2096.61361450,0.13776809
2098.54242187,0.13751951
2100.47122925,0.13726260
2102.40003662,0.13698852
2104.32884399,0.13704637
2106.25765137,0.13658795
2108.18645874,0.13643396
2110.11526611,0.13616714
2112.04407349,0.13611721
2113.97288086,0.13600366
2115.90168823,0.13545281
2117.83049561,0.13543519
2119.75930298,0.13512418
2121.68811035,0.13503106
2123.61691772,0.13487124
2125.54572510,0.13477007
2127.47453247,0.13459462
2129.40333984,0.13432267
2131.33214722,0.13434406
2133.26095459,0.13403083
2135.18976196,0.13389900
2137.11856934,0.13353439
2139.04737671,0.13341942
2140.97618408,0.13329223
2142.90499146,0.13314055
2144.83379883,0.13302577
2146.76260620,0.13273053
2148.69141357,0.13286228
2150.62022095,0.13241471
2152.54902832,0.13222484
2154.47783569,0.13205267
2156.40664307,0.13181871
2158.33545044,0.13177195
2160.26425781,0.13159531
2162.19306519,0.13170487
2164.12187256,0.13126132
2166.05067993,0.13113251
2167.97948730,0.13107076
2169.90829468,0.13092647
2171.83710205,0.13078558
2173.76590942,0.13052151
2175.69471680,0.13047922
2177.62352417,0.13020882
2179.55233154,0.13026017
2181.48113892,0.13000484
2183.40994629,0.12985036
2185.33875366,0.12964809
2187.26756104,0.12941980
2189.19636841,0.12946093
2191.12517578,0.12911968
2193.05398315,0.12924109
2194.98279053,0.12892613
2196.91159790,0.12870280
2198.84040527,0.12871435
2200.76921265,0.12848145
2202.69802002,0.12837778
2204.62682739,0.12813172
2206.55563477,0.12815428
2208.48444214,0.12783080
2210.41324951,0.12765664
2212.34205688,0.12758398
2214.27086426,0.12744293
2216.19967163,0.12728047
2218.12847900,0.12707463
2220.05728638,0.12707373
2221.98609375,0.12671259
2223.91490112,0.12671840
2225.84370850,0.12644830
2227.77251587,0.12621041
2229.70132324,0.12609711
2231.63013062,0.12566440
2233.55893799,0.12572694
2235.48774536,0.12549490
2237.41655273,0.12529472
2239.34536011,0.12515587
2241.27416748,0.12501417
2243.20297485,0.12474719
2245.13178223,0.12446451
2247.06058960,0.12451169
2248.98939697,0.12415159
2250.91820435,0.12394607
2252.84701172,0.12389296
2254.77581909,0.12367286
2256.70462646,0.12340875
2258.63343384,0.12338541
2260.56224121,0.12318406
2262.49104858,0.12286033
2264.41985596,0.12280215
2266.34866333,0.12251998
2268.27747070,0.12252171
2270.20627808,0.12238953
2272.13508545,0.12227084
2274.06389282,0.12208232
2275.99270020,0.12188071
2277.92150757,0.12190635
2279.85031494,0.12150665
2281.77912231,0.12153383
2283.70792969,0.12139128
2285.63673706,0.12106737
2287.56554443,0.12085488
2289.49435181,0.12052596
2291.42315918,0.12031683
2293.35196655,0.11990270
2295.28077393,0.11964388
2297.20958130,0.11925162
2299.13838867,0.11873873
2301.06719604,0.11825715
2302.99600342,0.11779173
2304.92481079,0.11708434
2306.85361816,0.11631502
2308.78242554,0.11547811
2310.71123291,0.11427641
2312.64004028,0.11333331
2314.56884766,0.11204205
2316.49765503,0.11069719
2318.42646240,0.10916752
2320.35526978,0.10768533
2322.28407715,0.10618396
2324.21288452,0.10440457
2326.14169189,0.10350119
2328.07049927,0.10205972
2329.99930664,0.10068952
2331.92811401,0.09995265
2333.85692139,0.09944686
2335.78572876,0.09906217
2337.71453613,0.09875655
2339.64334351,0.09885155
2341.57215088,0.09889292
2343.50095825,0.10054968
2345.42976562,0.10261510
2347.35857300,0.10699251
2349.28738037,0.11111958
2351.21618774,0.10710296
2353.14499512,0.10107796
2355.07380249,0.09729193
2357.00260986,0.09409872
2358.93141724,0.09205088
2360.86022461,0.09105571
2362.78903198,0.09094247
2364.71783936,0.09139080
2366.64664673,0.09294477
2368.57545410,0.09472543
2370.50426147,0.09726225
2372.43306885,0.10022949
2374.36187622,0.10301759
2376.29068359,0.10621597
2378.21949097,0.10865652
2380.14829834,0.11058870
2382.07710571,0.11189479
2384.00591309,0.11273845
2385.93472046,0.11316264
2387.86352783,0.11325914
2389.79233521,0.11339720
2391.72114258,0.11322083
2393.64994995,0.11311293
2395.57875732,0.11287413
2397.50756470,0.11270905
2399.43637207,0.11250439
2401.36517944,0.11242753
2403.29398682,0.11232796
2405.22279419,0.11208589
2407.15160156,0.11208081
2409.08040894,0.11179414
2411.00921631,0.11172763
2412.93802368,0.11166222
2414.86683105,0.11153363
2416.79563843,0.11133806
2418.72444580,0.11112459
2420.65325317,0.11111025
2422.58206055,0.11086073
2424.51086792,0.11068681
2426.43967529,0.11044119
2428.36848267,0.11041722
2430.29729004,0.11033268
2432.22609741,0.11012316
2434.15490479,0.11002499
2436.08371216,0.10987297
2438.01251953,0.10981572
2439.94132690,0.10950823
2441.87013428,0.10943680
2443.79894165,0.10923760
2445.72774902,0.10910507
2447.65655640,0.10903971
2449.58536377,0.10867390
2451.51417114,0.10866861
2453.44297852,0.10854997
2455.37178589,0.10846177
2457.30059326,0.10826165
2459.22940063,0.10811860
2461.15820801,0.10806464
2463.08701538,0.10789336
2465.01582275,0.10779338
2466.94463013,0.10750423
2468.87343750,0.10746701
2470.80224487,0.10728730
2472.73105225,0.10720252
2474.65985962,0.10705701
2476.58866699,0.10679457
2478.51747437,0.10684760
2480.44628174,0.10657974
2482.37508911,0.10649686
2484.30389648,0.10637386
2486.23270386,0.10622494
2488.16151123,0.10619740
2490.09031860,0.10603581
2492.01912598,0.10584262
2493.94793335,0.10556273
2495.87674072,0.10547617
2497.80554810,0.10529269
2499.73435547,0.10529347
2501.66316284,0.10524273
2503.59197021,0.10491359
2505.52077759,0.10476466
2507.44958496,0.10465805
2509.37839233,0.10457981
2511.30719971,0.10442442
2513.23600708,0.10425279
2515.16481445,0.10416607
2517.09362183,0.10419588
2519.02242920,0.10385942
2520.95123657,0.10367836
2522.88004395,0.10372359
2524.80885132,0.10329981
2526.73765869,0.10331808
2528.66646606,0.10331003
2530.59527344,0.10306557
2532.52408081,0.10307155
2534.45288818,0.10300630
2536.38169556,0.10277005
2538.31050293,0.10254142
2540.23931030,0.10252606
2542.16811768,0.10232109
2544.09692505,0.10221006
2546.02573242,0.10218337
2547.95453979,0.10202461
2549.88334717,0.10182513
2551.81215454,0.10164499
2553.74096191,0.10156648
2555.66976929,0.10137741
2557.59857666,0.10136331
2559.52738403,0.10121208
2561.45619141,0.10103369
2563.38499878,0.10096493
2565.31380615,0.10073365
2567.24261353,0.10059849
2569.17142090,0.10051277
2571.10022827,0.10043095
2573.02903564,0.10015212
2574.95784302,0.10005894
2576.88665039,0.10007277
2578.81545776,0.09987202
2580.74426514,0.09965040
2582.67307251,0.09952743
2584.60187988,0.09953926
2586.53068726,0.09929313
2588.45949463,0.09917589
2590.38830200,0.09906293
2592.31710937,0.09887390
2594.24591675,0.09883647
2596.17472412,0.09865183
2598.10353149,0.09851108
2600.03233887,0.09835991
2601.96114624,0.09823310
2603.88995361,0.09811798
2605.81876099,0.09808654
2607.74756836,0.09786244
2609.67637573,0.09763915
2611.60518311,0.09772365
2613.53399048,0.09750047
2615.46279785,0.09731339
2617.39160522,0.09715234
2619.32041260,0.09704009
2621.24921997,0.09695119
2623.17802734,0.09678353
2625.10683472,0.09679462
2627.03564209,0.09660786
2628.96444946,0.09648647
2630.89325684,0.09637128
2632.82206421,0.09614095
2634.75087158,0.09599538
2636.67967895,0.09593312
2638.60848633,0.09587076
2640.53729370,0.09567645
2642.46610107,0.09550060
2644.39490845,0.09534511
2646.32371582,0.09533145
2648.25252319,0.09516376
2650.18133057,0.09491064
2652.11013794,0.09480269
2654.03894531,0.09468551
2655.96775269,0.09459448
2657.89656006,0.09447465
2659.82536743,0.09439579
2661.75417480,0.09422311
2663.68298218,0.09412688
2665.61178955,0.09391069
2667.54059692,0.09374185
2669.46940430,0.09375086
2671.39821167,0.09350820
2673.32701904,0.09342249
2675.25582642,0.09326224
2677.18463379,0.09325962
2679.11344116,0.09317704
2681.04224854,0.09282781
2682.97105591,0.09288963
2684.89986328,0.09268840
2686.82867065,0.09244193
2688.75747803,0.09245074
2690.68628540,0.09236220
2692.61509277,0.09216397
2694.54390015,0.09202445
2696.47270752,0.09196505
2698.40151489,0.09167404
2700.33032227,0.09155814
2702.25912964,0.09154142
2704.18793701,0.09137455
2706.11674438,0.09121788
2708.04555176,0.09104447
2709.97435913,0.09093443
2711.90316650,0.09081317
2713.83197388,0.09065887
2715.76078125,0.09055996
2717.68958862,0.09045723
2719.61839600,0.09030818
2721.54720337,0.09023573
2723.47601074,0.09008662
2725.40481812,0.08984858
2727.33362549,0.08968745
2729.26243286,0.08962837
2731.19124023,0.08952890
2733.12004761,0.08931379
2735.04885498,0.08929101
2736.97766235,0.08915049
2738.90646973,0.08890343
2740.83527710,0.08883840
2742.76408447,0.08877626
2744.69289185,0.08859985
2746.62169922,0.08833735
2748.55050659,0.08827075
2750.47931396,0.08810204
2752.40812134,0.08791007
2754.33692871,0.08786432
2756.26573608,0.08767595
2758.19454346,0.08752672
2760.12335083,0.08744200
2762.05215820,0.08736870
2763.98096558,0.08721720
2765.90977295,0.08701076
2767.83858032,0.08687488
2769.76738770,0.08675078
2771.69619507,0.08656622
2773.62500244,0.08646612
2775.55380981,0.08632693
2777.48261719,0.08614622
2779.41142456,0.08610573
2781.34023193,0.08583410
2783.26903931,0.08574471
2785.19784668,0.08571671
2787.12665405,0.08544596
2789.05546143,0.08530051
2790.98426880,0.08512492
2792.91307617,0.08507855
2794.84188354,0.08491809
2796.77069092,0.08467694
2798.69949829,0.08456179
2800.62830566,0.08447790
2802.55711304,0.08432311
2804.48592041,0.08405802
2806.41472778,0.08394655
2808.34353516,0.08374554
2810.27234253,0.08364639
2812.20114990,0.08352163
2814.12995728,0.08336197
2816.05876465,0.08319584
2817.98757202,0.08297946
2819.91637939,0.08304563
2821.84518677,0.08278309
2823.77399414,0.08265121
2825.70280151,0.08249354
2827.63160889,0.08213942
2829.56041626,0.08214477
2831.48922363,0.08187674
2833.41803101,0.08169374
2835.34683838,0.08163324
2837.27564575,0.08148219
2839.20445312,0.08121130
2841.13326050,0.08088396
2843.06206787,0.08074608
2844.99087524,0.08032955
2846.91968262,0.07974004
2848.84848999,0.07936899
2850.77729736,0.07931362
2852.70610474,0.07915492
2854.63491211,0.07898854
2856.56371948,0.07894924
2858.49252686,0.07887204
2860.42133423,0.07889219
2862.35014160,0.07871036
2864.27894897,0.07857803
2866.20775635,0.07846163
2868.13656372,0.07833697
2870.06537109,0.07823500
2871.99417847,0.07806026
2873.92298584,0.07800885
2875.85179321,0.07781764
2877.78060059,0.07771485
2879.70940796,0.07766543
2881.63821533,0.07758918
2883.56702270,0.07748915
2885.49583008,0.07731275
2887.42463745,0.07716063
2889.35344482,0.07699189
2891.28225220,0.07697415
2893.21105957,0.07675624
2895.13986694,0.07650831
2897.06867432,0.07639914
2898.99748169,0.07625717
2900.92628906,0.07603068
2902.85509644,0.07576524
2904.78390381,0.07564051
2906.71271118,0.07523640
2908.64151855,0.07498801
2910.57032593,0.07482830
2912.49913330,0.07438532
2914.42794067,0.07404678
2916.35674805,0.07372142
2918.28555542,0.07349133
2920.21436279,0.07332185
2922.14317017,0.07330634
2924.07197754,0.07324615
2926.00078491,0.07307395
2927.92959229,0.07303010
2929.85839966,0.07293113
2931.78720703,0.07286535
2933.71601440,0.07289153
2935.64482178,0.07294789
2937.57362915,0.07287370
2939.50243652,0.07287106
2941.43124390,0.07283525
2943.36005127,0.07275926
2945.28885864,0.07279205
2947.21766602,0.07259884
2949.14647339,0.07260178
2951.07528076,0.07247598
2953.00408813,0.07202873
2954.93289551,0.07193556
2956.86170288,0.07187858
2958.79051025,0.07154177
2960.71931763,0.07132189
2962.64812500,0.07131857
2964.57693237,0.07115892
2966.50573975,0.07100073
2968.43454712,0.07098950
2970.36335449,0.07107265
2972.29216187,0.07115740
2974.22096924,0.07118697
2976.14977661,0.07124475
2978.07858398,0.07120084
2980.00739136,0.07109158
2981.93619873,0.07105555
2983.86500610,0.07119808
2985.79381348,0.07105520
2987.72262085,0.07082053
2989.65142822,0.07091112
2991.58023560,0.07087263
2993.50904297,0.07076257
2995.43785034,0.07058899
2997.36665771,0.07043643
2999.29546509,0.07031703
3001.22427246,0.07028596
3003.15307983,0.07013331
3005.08188721,0.06984310
3007.01069458,0.06992432
3008.93950195,0.06976344
3010.86830933,0.06954487
3012.79711670,0.06941962
3014.72592407,0.06921609
3016.65473145,0.06920572
3018.58353882,0.06912922
3020.51234619,0.06902953
3022.44115356,0.06875779
3024.36996094,0.06858397
3026.29876831,0.06852088
3028.22757568,0.06837025
3030.15638306,0.06816188
3032.08519043,0.06783232
3034.01399780,0.06783309
3035.94280518,0.06783889
3037.87161255,0.06767736
3039.80041992,0.06752568
3041.72922729,0.06738426
3043.65803467,0.06728353
3045.58684204,0.06721575
3047.51564941,0.06710484
3049.44445679,0.06679380
3051.37326416,0.06671880
3053.30207153,0.06670929
3055.23087891,0.06650253
3057.15968628,0.06624775
3059.08849365,0.06615238
3061.01730103,0.06619840
3062.94610840,0.06601453
3064.87491577,0.06577614
3066.80372314,0.06558809
3068.73253052,0.06563984
3070.66133789,0.06562921
3072.59014526,0.06544395
3074.51895264,0.06526021
3076.44776001,0.06507325
3078.37656738,0.06504822
3080.30537476,0.06475304
3082.23418213,0.06470349
3084.16298950,0.06470412
3086.09179687,0.06446706
3088.02060425,0.06450167
3089.94941162,0.06436200
3091.87821899,0.06422751
3093.80702637,0.06398585
3095.73583374,0.06382732
3097.66464111,0.06383033
3099.59344849,0.06360427
3101.52225586,0.06352247
3103.45106323,0.06338345
3105.37987061,0.06322278
3107.30867798,0.06308458
3109.23748535,0.06286360
3111.16629272,0.06276096
3113.09510010,0.06264301
3115.02390747,0.06240749
3116.95271484,0.06220989
3118.88152222,0.06205127
3120.81032959,0.06194580
3122.73913696,0.06192210
3124.66794434,0.06177260
3126.59675171,0.06160272
3128.52555908,0.06144785
3130.45436645,0.06141623
3132.38317383,0.06119390
3134.31198120,0.06088343
3136.24078857,0.06095589
3138.16959595,0.06075663
3140.09840332,0.06056428
3142.02721069,0.06048997
3143.95601807,0.06032513
3145.88482544,0.06020634
3147.81363281,0.06003959
3149.74244019,0.05991809
3151.67124756,0.05957500
3153.60005493,0.05936699
3155.52886230,0.05932750
3157.45766968,0.05922533
3159.38647705,0.05908691
3161.31528442,0.05893277
3163.24409180,0.05877028
3165.17289917,0.05853416
3167.10170654,0.05848645
3169.03051392,0.05824654
3170.95932129,0.05812087
3172.88812866,0.05805872
3174.81693604,0.05784629
3176.74574341,0.05769554
3178.67455078,0.05740222
3180.60335815,0.05745929
3182.53216553,0.05729202
3184.46097290,0.05698749
3186.38978027,0.05692421
3188.31858765,0.05682231
3190.24739502,0.05669134
3192.17620239,0.05645509
3194.10500977,0.05644358
3196.03381714,0.05608504
3197.96262451,0.05588894
3199.89143188,0.05604113
3201.82023926,0.05590939
3203.74904663,0.05577511
3205.67785400,0.05559277
3207.60666138,0.05547758
3209.53546875,0.05526756
3211.46427612,0.05529463
3213.39308350,0.05517443
3215.32189087,0.05496177
3217.25069824,0.05501289
3219.17950562,0.05477677
3221.10831299,0.05473424
3223.03712036,0.05458540
3224.96592773,0.05457143
3226.89473511,0.05459853
3228.82354248,0.05428246
3230.75234985,0.05421750
3232.68115723,0.05416723
3234.60996460,0.05406787
3236.53877197,0.05393064
3238.46757935,0.05386624
3240.39638672,0.05381404
3242.32519409,0.05376893
3244.25400146,0.05354258
3246.18280884,0.05349696
3248.11161621,0.05367475
3250.04042358,0.05344793
3251.96923096,0.05344532
3253.89803833,0.05329875
3255.82684570,0.05327564
3257.75565308,0.05326656
3259.68446045,0.05301279
3261.61326782,0.05311339
3263.54207520,0.05295858
3265.47088257,0.05295315
3267.39968994,0.05288738
3269.32849731,0.05276910
3271.25730469,0.05271739
3273.18611206,0.05253597
3275.11491943,0.05250785
3277.04372681,0.05247426
3278.97253418,0.05265928
3280.90134155,0.05250910
3282.83014893,0.05239420
3284.75895630,0.05234640
3286.68776367,0.05224442
3288.61657104,0.05227385
3290.54537842,0.05196390
3292.47418579,0.05190220
3294.40299316,0.05188581
3296.33180054,0.05189160
3298.26060791,0.05169186
3300.18941528,0.05160540
3302.11822266,0.05178821
3304.04703003,0.05160433
3305.97583740,0.05149747
3307.90464478,0.05130096
3309.83345215,0.05142350
3311.76225952,0.05133724
3313.69106689,0.05117046
3315.61987427,0.05129665
3317.54868164,0.05112561
3319.47748901,0.05116913
3321.40629639,0.05098640
3323.33510376,0.05089066
3325.26391113,0.05075576
3327.19271851,0.05062865
3329.12152588,0.05076018
3331.05033325,0.05063245
3332.97914062,0.05063656
3334.90794800,0.05037124
3336.83675537,0.05016260
3338.76556274,0.05026381
3340.69437012,0.05028753
3342.62317749,0.05016363
3344.55198486,0.05013300
3346.48079224,0.05015793
3348.40959961,0.04995266
3350.33840698,0.04984038
3352.26721436,0.04975095
3354.19602173,0.04976323
3356.12482910,0.04947335
3358.05363647,0.04938519
3359.98244385,0.04946872
3361.91125122,0.04922859
3363.84005859,0.04918843
3365.76886597,0.04899719
3367.69767334,0.04896177
3369.62648071,0.04883049
3371.55528809,0.04887596
3373.48409546,0.04886303
3375.41290283,0.04865279
3377.34171020,0.04873618
3379.27051758,0.04845808
3381.19932495,0.04853074
3383.12813232,0.04841066
3385.05693970,0.04817578
3386.98574707,0.04811493
3388.91455444,0.04810231
3390.84336182,0.04797012
3392.77216919,0.04752766
3394.70097656,0.04786855
3396.62978394,0.04762075
3398.55859131,0.04747649
3400.48739868,0.04752043
3402.41620605,0.04713651
3404.34501343,0.04740607
3406.27382080,0.04726553
3408.20262817,0.04715923
3410.13143555,0.04706792
3412.06024292,0.04704567
3413.98905029,0.04696874
3415.91785767,0.04689142
3417.84666504,0.04694599
3419.77547241,0.04643603
3421.70427979,0.04635553
3423.63308716,0.04637126
3425.56189453,0.04650879
3427.49070190,0.04631545
3429.41950928,0.04617289
3431.34831665,0.04619089
3433.27712402,0.04583682
3435.20593140,0.04599727
3437.13473877,0.04569145
3439.06354614,0.04587501
3440.99235352,0.04576582
3442.92116089,0.04541473
3444.84996826,0.04565026
3446.77877563,0.04494075
3448.70758301,0.04510485
3450.63639038,0.04555769
3452.56519775,0.04536219
3454.49400513,0.04525308
3456.42281250,0.04523811
3458.35161987,0.04526548
3460.28042725,0.04502317
3462.20923462,0.04489421
3464.13804199,0.04491282
3466.06684937,0.04495832
3467.99565674,0.04470573
3469.92446411,0.04470377
3471.85327148,0.04477032
3473.78207886,0.04476485
3475.71088623,0.04463350
3477.63969360,0.04455526
3479.56850098,0.04465401
3481.49730835,0.04396402
3483.42611572,0.04425756
3485.35492310,0.04456109
3487.28373047,0.04415295
3489.21253784,0.04416173
3491.14134521,0.04419418
3493.07015259,0.04444095
3494.99895996,0.04410562
3496.92776733,0.04404595
3498.85657471,0.04416129
3500.78538208,0.04407607
3502.71418945,0.04335953
3504.64299683,0.04330425
3506.57180420,0.04440913
3508.50061157,0.04367065
3510.42941895,0.04356133
3512.35822632,0.04396797
3514.28703369,0.04391532
3516.21584106,0.04406099
3518.14464844,0.04377909
3520.07345581,0.04411693
3522.00226318,0.04355254
3523.93107056,0.04297148
3525.85987793,0.04305990
3527.78868530,0.04300674
3529.71749268,0.04317705
3531.64630005,0.04355942
3533.57510742,0.04390468
3535.50391479,0.04335008
3537.43272217,0.04330325
3539.36152954,0.04374344
3541.29033691,0.04370992
3543.21914429,0.04337974
3545.14795166,0.04244603
3547.07675903,0.04183536
3549.00556641,0.04306388
3550.93437378,0.04340427
3552.86318115,0.04233832
3554.79198853,0.04323584
3556.72079590,0.04353145
3558.64960327,0.04328564
3560.57841064,0.04289471
3562.50721802,0.04268670
3564.43602539,0.04308013
3566.36483276,0.04005683
3568.29364014,0.03904333
3570.22244751,0.04225593
3572.15125488,0.04340482
3574.08006226,0.04283109
3576.00886963,0.04304668
3577.93767700,0.04302546
3579.86648437,0.04277483
3581.79529175,0.04295250
3583.72409912,0.04299318
3585.65290649,0.04198368
3587.58171387,0.03864659
3589.51052124,0.03960390
3591.43932861,0.04313306
3593.36813599,0.04194807
3595.29694336,0.04116262
3597.22575073,0.04194623
3599.15455811,0.04240234
3601.08336548,0.04196333
3603.01217285,0.04225573
3604.94098022,0.04310717
3606.86978760,0.04149491
3608.79859497,0.03904131
3610.72740234,0.03995577
3612.65620972,0.04091012
3614.58501709,0.03973949
3616.51382446,0.04252518
3618.44263184,0.03936751
3620.37143921,0.03792808
3622.30024658,0.04281340
3624.22905395,0.04168741
3626.15786133,0.04372437
3628.08666870,0.03693352
3630.01547607,0.03328484
3631.94428345,0.04223666
3633.87309082,0.04121438
3635.80189819,0.04188047
3637.73070557,0.04276773
3639.65951294,0.04211309
3641.58832031,0.04256071
3643.51712769,0.04196189
3645.44593506,0.04256381
3647.37474243,0.03798198
3649.30354980,0.03467292
3651.23235718,0.03515606
3653.16116455,0.04187946
3655.08997192,0.04157891
3657.01877930,0.03695405
3658.94758667,0.04271350
3660.87639404,0.04188836
3662.80520142,0.04233460
3664.73400879,0.04230309
3666.66281616,0.04183855
3668.59162354,0.04067595
3670.52043091,0.03289061
3672.44923828,0.04002125
3674.37804565,0.03820685
3676.30685303,0.03129925
3678.23566040,0.03976122
3680.16446777,0.04068444
3682.09327515,0.04069709
3684.02208252,0.04196149
3685.95088989,0.04125711
3687.87969727,0.03717186
3689.80850464,0.03381086
3691.73731201,0.03871917
3693.66611938,0.04007930
3695.59492676,0.04099874
3697.52373413,0.04099220
3699.45254150,0.04063821
3701.38134888,0.03959629
3703.31015625,0.03790783
3705.23896362,0.04181941
3707.16777100,0.03981587
3709.09657837,0.03872997
3711.02538574,0.03646553
3712.95419312,0.03409187
3714.88300049,0.04016384
3716.81180786,0.03957922
3718.74061523,0.03977565
3720.66942261,0.03894877
3722.59822998,0.03760904
3724.52703735,0.03912232
3726.45584473,0.03611471
3728.38465210,0.03916431
3730.31345947,0.03890307
3732.24226685,0.03566281
3734.17107422,0.03473863
3736.09988159,0.03290896
3738.02868896,0.03489977
3739.95749634,0.03787712
3741.88630371,0.03976946
3743.81511108,0.03080383
3745.74391846,0.02882311
3747.67272583,0.03777051
3749.60153320,0.03243208
3751.53034058,0.02966173
3753.45914795,0.03437459
3755.38795532,0.03700454
3757.31676270,0.03845141
3759.24557007,0.03560918
3761.17437744,0.03682340
3763.10318481,0.03924851
3765.03199219,0.03664885
3766.96079956,0.03735683
3768.88960693,0.03696563
3770.81841431,0.03514312
3772.74722168,0.03810150
3774.67602905,0.03828458
3776.60483643,0.03824389
3778.53364380,0.03720849
3780.46245117,0.03565651
3782.39125854,0.03809284
3784.32006592,0.03724411
3786.24887329,0.03695802
3788.17768066,0.03783148
3790.10648804,0.03759504
3792.03529541,0.03732446
3793.96410278,0.03799074
3795.89291016,0.03574977
3797.82171753,0.03518200
3799.75052490,0.03718104
3801.67933228,0.02937290
3803.60813965,0.03427182
3805.53694702,0.03744084
3807.46575439,0.03034779
3809.39456177,0.03695713
3811.32336914,0.03636410
3813.25217651,0.03752796
3815.18098389,0.03398463
3817.10979126,0.02960614
3819.03859863,0.03751958
3820.96740601,0.03023534
3822.89621338,0.03166791
3824.82502075,0.03726812
3826.75382812,0.03372090
3828.68263550,0.03630241
3830.61144287,0.03476425
3832.54025024,0.03355803
3834.46905762,0.03433929
3836.39786499,0.03264406
3838.32667236,0.02945282
3840.25547974,0.03179772
3842.18428711,0.03439534
3844.11309448,0.03289115
3846.04190186,0.03557589
3847.97070923,0.03507745
3849.89951660,0.03512504
3851.82832397,0.03147857
3853.75713135,0.02352063
3855.68593872,0.02785538
3857.61474609,0.03508474
3859.54355347,0.03432683
3861.47236084,0.03381567
3863.40116821,0.03305894
3865.32997559,0.03065609
3867.25878296,0.03434351
3869.18759033,0.03134589
3871.11639770,0.02888476
3873.04520508,0.03441751
3874.97401245,0.03150797
3876.90281982,0.03423159
3878.83162720,0.03492795
3880.76043457,0.02969647
3882.68924194,0.03427907
3884.61804932,0.03205831
3886.54685669,0.02934325
3888.47566406,0.03440335
3890.40447144,0.03259072
3892.33327881,0.03049707
3894.26208618,0.03351685
3896.19089355,0.03414471
3898.11970093,0.03249273
3900.04850830,0.03069929
3901.97731567,0.03028054
3903.90612305,0.03005359
3905.83493042,0.03046599
3907.76373779,0.03338877
3909.69254517,0.03339065
3911.62135254,0.03311267
3913.55015991,0.03373470
3915.47896728,0.03240345
3917.40777466,0.03155590
3919.33658203,0.03136521
3921.26538940,0.03263301
3923.19419678,0.03242914
3925.12300415,0.03166112
3927.05181152,0.03227224
3928.98061890,0.03255598
3930.90942627,0.03202207
3932.83823364,0.03095097
3934.76704102,0.03221641
3936.69584839,0.03244799
3938.62465576,0.03211647
3940.55346313,0.03249691
3942.48227051,0.03113304
3944.41107788,0.03147943
3946.33988525,0.03211323
3948.26869263,0.03134404
3950.19750000,0.03132173
3952.12630737,0.03180614
3954.05511475,0.03189959
3955.98392212,0.03176986
3957.91272949,0.03167019
3959.84153687,0.03161833
3961.77034424,0.03143397
3963.69915161,0.03135069
3965.62795898,0.03166441
3967.55676636,0.03142460
3969.48557373,0.03139055
3971.41438110,0.03128569
3973.34318848,0.03113273
3975.27199585,0.03108728
3977.20080322,0.03086254
3979.12961060,0.03117571
3981.05841797,0.03090884
3982.98722534,0.03093769
3984.91603271,0.03094378
3986.84484009,0.03085951
3988.77364746,0.03086971
3990.70245483,0.03048025
3992.63126221,0.03068072
3994.56006958,0.03049594
3996.48887695,0.03059988
3998.41768433,0.03048058
4000.34649170,0.03029495
4002.27529907,0.03044484
4004.20410645,0.03019464
4006.13291382,0.03029056
4008.06172119,0.03003089
4009.99052856,0.03016873
4011.91933594,0.03014580
4013.84814331,0.02993927
4015.77695068,0.02996037
4017.70575806,0.02978825
4019.63456543,0.02984865
4021.56337280,0.02967237
4023.49218018,0.02966607
4025.42098755,0.02943130
4027.34979492,0.02958784
4029.27860229,0.02956400
4031.20740967,0.02934719
4033.13621704,0.02954335
4035.06502441,0.02916376
4036.99383179,0.02929793
4038.92263916,0.02924773
4040.85144653,0.02915321
4042.78025391,0.02909316
4044.70906128,0.02891486
4046.63786865,0.02900992
4048.56667603,0.02885772
4050.49548340,0.02886985
4052.42429077,0.02865019
4054.35309814,0.02876109
4056.28190552,0.02865803
4058.21071289,0.02851036
4060.13952026,0.02856285
4062.06832764,0.02831100
4063.99713501,0.02846788
4065.92594238,0.02840488
4067.85474976,0.02842139
4069.78355713,0.02825142
4071.71236450,0.02819173
4073.64117187,0.02816415
4075.56997925,0.02802631
4077.49878662,0.02809166
4079.42759399,0.02785828
4081.35640137,0.02801048
4083.28520874,0.02777213
4085.21401611,0.02778228
4087.14282349,0.02780921
4089.07163086,0.02759101
4091.00043823,0.02773263
4092.92924561,0.02748525
4094.85805298,0.02762959
4096.78686035,0.02747586
4098.71566772,0.02738466
4100.64447510,0.02736485
4102.57328247,0.02726912
4104.50208984,0.02736193
4106.43089722,0.02703399
4108.35970459,0.02714254
4110.28851196,0.02709870
4112.21731934,0.02704397
4114.14612671,0.02696284
4116.07493408,0.02691606
4118.00374145,0.02692718
4119.93254883,0.02672834
4121.86135620,0.02684234
4123.79016357,0.02658191
4125.71897095,0.02660312
4127.64777832,0.02657337
4129.57658569,0.02652811
4131.50539307,0.02659305
4133.43420044,0.02637582
4135.36300781,0.02647725
4137.29181519,0.02627954
4139.22062256,0.02620150
4141.14942993,0.02611667
4143.07823730,0.02610346
4145.00704468,0.02615866
4146.93585205,0.02597648
4148.86465942,0.02595954
4150.79346680,0.02584697
4152.72227417,0.02585502
4154.65108154,0.02580925
4156.57988892,0.02581229
4158.50869629,0.02563743
4160.43750366,0.02555162
4162.36631103,0.02558246
4164.29511841,0.02552776
4166.22392578,0.02559165
4168.15273315,0.02527501
4170.08154053,0.02534951
4172.01034790,0.02527153
4173.93915527,0.02519039
4175.86796265,0.02534287
4177.79677002,0.02511043
4179.72557739,0.02508447
4181.65438477,0.02497466
4183.58319214,0.02500579
4185.51199951,0.02495250
4187.44080688,0.02490338
4189.36961426,0.02487348
4191.29842163,0.02479145
4193.22722900,0.02479231
4195.15603638,0.02461300
4197.08484375,0.02468102
4199.01365112,0.02452189
4200.94245850,0.02454364
4202.87126587,0.02451510
4204.80007324,0.02433831
4206.72888062,0.02438371
4208.65768799,0.02429698
4210.58649536,0.02438114
4212.51530273,0.02410826
4214.44411011,0.02408718
4216.37291748,0.02412694
4218.30172485,0.02397938
4220.23053223,0.02406658
4222.15933960,0.02397842
4224.08814697,0.02394225
4226.01695435,0.02381216
4227.94576172,0.02383337
4229.87456909,0.02374306
4231.80337646,0.02365367
4233.73218384,0.02361308
4235.66099121,0.02356070
4237.58979858,0.02361839
4239.51860596,0.02340644
4241.44741333,0.02351560
4243.37622070,0.02338486
4245.30502808,0.02324776
4247.23383545,0.02335210
4249.16264282,0.02324608
4251.09145020,0.02322586
4253.02025757,0.02315128
4254.94906494,0.02317783
4256.87787231,0.02307671
4258.80667969,0.02308307
4260.73548706,0.02299804
4262.66429443,0.02288308
4264.59310181,0.02292183
4266.52190918,0.02284011
4268.45071655,0.02285042
4270.37952393,0.02265220
4272.30833130,0.02272144
4274.23713867,0.02266998
4276.16594604,0.02251485
4278.09475342,0.02255957
4280.02356079,0.02243085
4281.95236816,0.02246979
4283.88117554,0.02240403
4285.80998291,0.02236798
4287.73879028,0.02222910
4289.66759766,0.02222850
4291.59640503,0.02230402
4293.52521240,0.02210302
4295.45401978,0.02211038
4297.38282715,0.02205752
4299.31163452,0.02196499
4301.24044189,0.02188966
4303.16924927,0.02184910
4305.09805664,0.02179280
4307.02686401,0.02181812
4308.95567139,0.02174399
4310.88447876,0.02163654
4312.81328613,0.02171756
4314.74209351,0.02152186
4316.67090088,0.02158304
4318.59970825,0.02155774
4320.52851562,0.02140523
4322.45732300,0.02143835
4324.38613037,0.02137006
4326.31493774,0.02134420
4328.24374512,0.02126684
4330.17255249,0.02136594
4332.10135986,0.02130338
4334.03016724,0.02123265
4335.95897461,0.02112058
4337.88778198,0.02103652
4339.81658936,0.02117746
4341.74539673,0.02100157
4343.67420410,0.02099462
4345.60301147,0.02094895
4347.53181885,0.02083550
4349.46062622,0.02078393
4351.38943359,0.02072126
4353.31824097,0.02073918
4355.24704834,0.02077425
4357.17585571,0.02077854
4359.10466309,0.02055007
4361.03347046,0.02057795
4362.96227783,0.02044437
4364.89108520,0.02040446
4366.81989258,0.02049546
4368.74869995,0.02025903
4370.67750732,0.02027748
4372.60631470,0.02019100
4374.53512207,0.02020799
4376.46392944,0.02023133
4378.39273682,0.02017589
4380.32154419,0.02006133
4382.25035156,0.01995188
4384.17915894,0.02008621
4386.10796631,0.01990847
4388.03677368,0.01987758
4389.96558105,0.01991419
4391.89438843,0.01980867
4393.82319580,0.01968724
4395.75200317,0.01969841
4397.68081055,0.01973480
4399.60961792,0.01956188
4401.53842529,0.01962083
4403.46723267,0.01952258
4405.39604004,0.01950797
4407.32484741,0.01952775
4409.25365478,0.01940526
4411.18246216,0.01939318
4413.11126953,0.01940181
4415.04007690,0.01940431
4416.96888428,0.01919927
4418.89769165,0.01926749
4420.82649902,0.01921731
4422.75530640,0.01912932
4424.68411377,0.01915956
4426.61292114,0.01902999
4428.54172852,0.01903663
4430.47053589,0.01895279
4432.39934326,0.01902109
4434.32815063,0.01890464
4436.25695801,0.01883927
4438.18576538,0.01884132
4440.11457275,0.01871150
4442.04338013,0.01878885
4443.97218750,0.01864304
4445.90099487,0.01863958
4447.82980225,0.01859613
4449.75860962,0.01856593
4451.68741699,0.01851462
4453.61622437,0.01838003
4455.54503174,0.01851552
4457.47383911,0.01840098
4459.40264648,0.01832972
4461.33145386,0.01833617
4463.26026123,0.01825125
4465.18906860,0.01812724
4467.11787598,0.01817731
4469.04668335,0.01821835
4470.97549072,0.01804643
4472.90429810,0.01803898
4474.83310547,0.01798070
4476.76191284,0.01800124
4478.69072021,0.01788242
4480.61952759,0.01789388
4482.54833496,0.01796712
4484.47714233,0.01778286
4486.40594971,0.01783166
4488.33475708,0.01773055
4490.26356445,0.01771076
4492.19237183,0.01773762
4494.12117920,0.01765859
4496.04998657,0.01758290
4497.97879395,0.01748927
4499.90760132,0.01747280
4501.83640869,0.01738295
4503.76521606,0.01743327
4505.69402344,0.01740521
4507.62283081,0.01734223
4509.55163818,0.01728339
4511.48044556,0.01727675
4513.40925293,0.01724749
4515.33806030,0.01715600
4517.26686768,0.01722564
4519.19567505,0.01705061
4521.12448242,0.01703174
4523.05328979,0.01703866
4524.98209717,0.01695027
4526.91090454,0.01694784
4528.83971191,0.01693231
4530.76851929,0.01694394
4532.69732666,0.01676251
4534.62613403,0.01680971
4536.55494141,0.01677697
4538.48374878,0.01673962
4540.41255615,0.01669125
4542.34136353,0.01651581
4544.27017090,0.01664188
4546.19897827,0.01651724
4548.12778564,0.01647644
4550.05659302,0.01653479
4551.98540039,0.01644481
4553.91420776,0.01634502
4555.84301514,0.01629849
4557.77182251,0.01633528
4559.70062988,0.01624330
4561.62943726,0.01629732
4563.55824463,0.01626175
4565.48705200,0.01617547
4567.41585937,0.01613604
4569.34466675,0.01615148
4571.27347412,0.01613667
4573.20228149,0.01599952
4575.13108887,0.01606575
4577.05989624,0.01598136
4578.98870361,0.01587895
4580.91751099,0.01579287
4582.84631836,0.01578082
4584.77512573,0.01578252
4586.70393311,0.01570452
4588.63274048,0.01581150
4590.56154785,0.01568510
4592.49035522,0.01565305
4594.41916260,0.01569534
4596.34796997,0.01564869
4598.27677734,0.01558921
4600.20558472,0.01548238
4602.13439209,0.01545103
4604.06319946,0.01535117
4605.99200684,0.01545626
4607.92081421,0.01541566
4609.84962158,0.01528089
4611.77842895,0.01531433
4613.70723633,0.01530219
4615.63604370,0.01526929
4617.56485107,0.01518781
4619.49365845,0.01517998
4621.42246582,0.01506872
4623.35127319,0.01507094
4625.28008057,0.01504943
4627.20888794,0.01496785
4629.13769531,0.01503030
4631.06650269,0.01492131
4632.99531006,0.01488944
4634.92411743,0.01487023
4636.85292480,0.01483625
4638.78173218,0.01484300
4640.71053955,0.01478278
4642.63934692,0.01469062
4644.56815430,0.01466559
4646.49696167,0.01467617
4648.42576904,0.01462622
4650.35457642,0.01462102
4652.28338379,0.01451157
4654.21219116,0.01451923
4656.14099853,0.01455094
4658.06980591,0.01457013
4659.99861328,0.01448314
4661.92742065,0.01429581
4663.85622803,0.01444059
4665.78503540,0.01430021
4667.71384277,0.01426196
4669.64265015,0.01435494
4671.57145752,0.01419262
4673.50026489,0.01420876
4675.42907227,0.01411896
4677.35787964,0.01412154
4679.28668701,0.01409411
4681.21549438,0.01407385
4683.14430176,0.01412341
4685.07310913,0.01397520
4687.00191650,0.01400870
4688.93072388,0.01395959
4690.85953125,0.01387295
4692.78833862,0.01393742
4694.71714600,0.01384674
4696.64595337,0.01378379
4698.57476074,0.01378690
4700.50356812,0.01370289
4702.43237549,0.01375113
4704.36118286,0.01378630
4706.28999023,0.01366234
4708.21879761,0.01363133
4710.14760498,0.01363016
4712.07641235,0.01360366
4714.00521973,0.01351793
4715.93402710,0.01350261
4717.86283447,0.01349334
4719.79164185,0.01343575
4721.72044922,0.01342802
4723.64925659,0.01330615
4725.57806396,0.01333957
4727.50687134,0.01337036
4729.43567871,0.01332841
4731.36448608,0.01333979
4733.29329346,0.01320190
4735.22210083,0.01317539
4737.15090820,0.01318063
4739.07971558,0.01316197
4741.00852295,0.01319766
4742.93733032,0.01313550
4744.86613770,0.01307680
4746.79494507,0.01299987
4748.72375244,0.01294779
4750.65255981,0.01298931
4752.58136719,0.01288909
4754.51017456,0.01284936
4756.43898193,0.01287173
4758.36778931,0.01280919
4760.29659668,0.01284983
4762.22540405,0.01270527
4764.15421143,0.01271217
4766.08301880,0.01278258
4768.01182617,0.01263192
4769.94063354,0.01272784
4771.86944092,0.01273091
4773.79824829,0.01266580
4775.72705566,0.01259165
4777.65586304,0.01253974
4779.58467041,0.01252093
4781.51347778,0.01248159
4783.44228516,0.01256368
4785.37109253,0.01241485
4787.29989990,0.01236929
4789.22870728,0.01237965
4791.15751465,0.01234159
4793.08632202,0.01235420
4795.01512939,0.01227939
4796.94393677,0.01229710
4798.87274414,0.01226780
4800.80155151,0.01229281
4802.73035889,0.01220315
4804.65916626,0.01213551
4806.58797363,0.01210663
4808.51678101,0.01207714
4810.44558838,0.01216649
4812.37439575,0.01204167
4814.30320312,0.01210553
4816.23201050,0.01203033
4818.16081787,0.01189235
4820.08962524,0.01194452
4822.01843262,0.01186826
4823.94723999,0.01194894
4825.87604736,0.01186853
4827.80485474,0.01176638
4829.73366211,0.01180637
4831.66246948,0.01176951
4833.59127686,0.01168552
4835.52008423,0.01165980
4837.44889160,0.01165601
4839.37769897,0.01159611
4841.30650635,0.01161263
4843.23531372,0.01157893
4845.16412109,0.01165715
4847.09292847,0.01163902
4849.02173584,0.01153353
4850.95054321,0.01149071
4852.87935059,0.01141964
4854.80815796,0.01143505
4856.73696533,0.01135041
4858.66577270,0.01142860
4860.59458008,0.01141001
4862.52338745,0.01133052
4864.45219482,0.01136484
4866.38100220,0.01126000
4868.30980957,0.01129246
4870.23861694,0.01124803
4872.16742432,0.01115069
4874.09623169,0.01114722
4876.02503906,0.01121650
4877.95384644,0.01115722
4879.88265381,0.01108780
4881.81146118,0.01111410
4883.74026855,0.01098921
4885.66907593,0.01098807
4887.59788330,0.01093274
4889.52669067,0.01095463
4891.45549805,0.01097461
4893.38430542,0.01090477
4895.31311279,0.01092275
4897.24192017,0.01086754
4899.17072754,0.01089365
4901.09953491,0.01084682
4903.02834228,0.01085988
4904.95714966,0.01075556
4906.88595703,0.01073877
4908.81476440,0.01077764
4910.74357178,0.01060363
4912.67237915,0.01076010
4914.60118652,0.01066933
4916.52999390,0.01055949
4918.45880127,0.01063249
4920.38760864,0.01059562
4922.31641602,0.01055602
4924.24522339,0.01039218
4926.17403076,0.01044292
4928.10283813,0.01046286
4930.03164551,0.01045838
4931.96045288,0.01040288
4933.88926025,0.01030920
4935.81806763,0.01040069
4937.74687500,0.01038410
4939.67568237,0.01030569
4941.60448975,0.01024178
4943.53329712,0.01029862
4945.46210449,0.01024024
4947.39091187,0.01018667
4949.31971924,0.01018046
4951.24852661,0.01008580
4953.17733398,0.01013947
4955.10614136,0.01008523
4957.03494873,0.01005682
4958.96375610,0.01001827
4960.89256348,0.00994567
4962.82137085,0.00999276
4964.75017822,0.01002624
4966.67898560,0.01001665
4968.60779297,0.00992426
4970.53660034,0.00992200
4972.46540771,0.00989539
4974.39421509,0.00976922
4976.32302246,0.00975507
4978.25182983,0.00985495
4980.18063721,0.00981063
4982.10944458,0.00975996
4984.03825195,0.00977654
4985.96705933,0.00971083
4987.89586670,0.00972677
4989.82467407,0.00962874
4991.75348145,0.00962017
4993.68228882,0.00960398
4995.61109619,0.00953421
4997.53990356,0.00961169
4999.46871094,0.00948767
5001.39751831,0.00948844
5003.32632568,0.00953682
5005.25513306,0.00947646
5007.18394043,0.00945323
5009.11274780,0.00942340
5011.04155518,0.00937367
5012.97036255,0.00935938
5014.89916992,0.00941293
5016.82797729,0.00927692
5018.75678467,0.00924298
5020.68559204,0.00925232
5022.61439941,0.00926072
5024.54320679,0.00926476
5026.47201416,0.00917601
5028.40082153,0.00927707
5030.32962891,0.00919066
5032.25843628,0.00913257
5034.18724365,0.00912443
5036.11605103,0.00908350
5038.04485840,0.00915226
5039.97366577,0.00902296
5041.90247314,0.00901748
5043.83128052,0.00906871
5045.76008789,0.00904935
5047.68889526,0.00900350
5049.61770264,0.00895532
5051.54651001,0.00899519
5053.47531738,0.00895276
5055.40412476,0.00889888
5057.33293213,0.00887229
5059.26173950,0.00886875
5061.19054687,0.00880961
5063.11935425,0.00879954
5065.04816162,0.00881115
5066.97696899,0.00875687
5068.90577637,0.00877054
5070.83458374,0.00873366
5072.76339111,0.00871950
5074.69219849,0.00866112
5076.62100586,0.00856212
5078.54981323,0.00863076
5080.47862061,0.00867862
5082.40742798,0.00858552
5084.33623535,0.00858920
5086.26504272,0.00859791
5088.19385010,0.00849320
5090.12265747,0.00848922
5092.05146484,0.00845544
5093.98027222,0.00846704
5095.90907959,0.00849386
5097.83788696,0.00843945
5099.76669434,0.00840446
5101.69550171,0.00834626
5103.62430908,0.00835775
5105.55311645,0.00830055
5107.48192383,0.00832746
5109.41073120,0.00834769
5111.33953857,0.00823738
5113.26834595,0.00829150
5115.19715332,0.00829357
5117.12596069,0.00827648
5119.05476807,0.00821243
5120.98357544,0.00812026
5122.91238281,0.00821089
5124.84119019,0.00820458
5126.76999756,0.00816642
5128.69880493,0.00819663
5130.62761230,0.00812018
5132.55641968,0.00808232
5134.48522705,0.00803629
5136.41403442,0.00802355
5138.34284180,0.00811153
5140.27164917,0.00795879
5142.20045654,0.00787744
5144.12926392,0.00795111
5146.05807129,0.00793744
5147.98687866,0.00793345
5149.91568603,0.00786074
5151.84449341,0.00787943
5153.77330078,0.00785189
5155.70210815,0.00780004
5157.63091553,0.00781612
5159.55972290,0.00777211
5161.48853027,0.00781169
5163.41733765,0.00774947
5165.34614502,0.00772773
5167.27495239,0.00782044
5169.20375977,0.00777635
5171.13256714,0.00767909
5173.06137451,0.00762906
5174.99018188,0.00760692
5176.91898926,0.00756900
5178.84779663,0.00756320
5180.77660400,0.00759105
5182.70541138,0.00761849
5184.63421875,0.00755678
5186.56302612,0.00750498
5188.49183350,0.00751158
5190.42064087,0.00746534
5192.34944824,0.00743677
5194.27825562,0.00746730
5196.20706299,0.00740413
5198.13587036,0.00730752
5200.06467773,0.00743894
5201.99348511,0.00748377
5203.92229248,0.00744422
5205.85109985,0.00728142
5207.77990723,0.00709919
5209.70871460,0.00730410
5211.63752197,0.00732230
5213.56632935,0.00727355
5215.49513672,0.00727927
5217.42394409,0.00719511
5219.35275146,0.00718898
5221.28155884,0.00723645
5223.21036621,0.00726017
5225.13917358,0.00699379
5227.06798096,0.00705558
5228.99678833,0.00719581
5230.92559570,0.00707994
5232.85440308,0.00716015
5234.78321045,0.00714198
5236.71201782,0.00713508
5238.64082520,0.00709784
5240.56963257,0.00708088
5242.49843994,0.00696888
5244.42724731,0.00690307
5246.35605469,0.00702474
5248.28486206,0.00678415
5250.21366943,0.00685938
5252.14247681,0.00705375
5254.07128418,0.00683457
5256.00009155,0.00682955
5257.92889893,0.00689943
5259.85770630,0.00688889
5261.78651367,0.00689885
5263.71532104,0.00675379
5265.64412842,0.00672456
5267.57293579,0.00688229
5269.50174316,0.00682435
5271.43055054,0.00680713
5273.35935791,0.00679708
5275.28816528,0.00671762
5277.21697266,0.00679369
5279.14578003,0.00675325
5281.07458740,0.00670282
5283.00339478,0.00669712
5284.93220215,0.00664298
5286.86100952,0.00666333
5288.78981689,0.00665329
5290.71862427,0.00654514
5292.64743164,0.00656991
5294.57623901,0.00662362
5296.50504639,0.00660400
5298.43385376,0.00662803
5300.36266113,0.00652664
5302.29146851,0.00649692
5304.22027588,0.00648284
5306.14908325,0.00645125
5308.07789062,0.00644177
5310.00669800,0.00644747
5311.93550537,0.00652582
5313.86431274,0.00640351
5315.79312012,0.00643093
5317.72192749,0.00638872
5319.65073486,0.00633243
5321.57954224,0.00643169
5323.50834961,0.00635919
5325.43715698,0.00641569
5327.36596436,0.00628576
5329.29477173,0.00627726
5331.22357910,0.00635415
5333.15238647,0.00619551
5335.08119385,0.00627723
5337.01000122,0.00616699
5338.93880859,0.00587926
5340.86761597,0.00609187
5342.79642334,0.00626869
5344.72523071,0.00594497
5346.65403809,0.00601398
5348.58284546,0.00608957
5350.51165283,0.00606278
5352.44046020,0.00610029
5354.36926758,0.00586591
5356.29807495,0.00609758
5358.22688232,0.00603528
5360.15568970,0.00601037
5362.08449707,0.00619173
5364.01330444,0.00596717
5365.94211182,0.00601565
5367.87091919,0.00592441
5369.79972656,0.00603101
5371.72853394,0.00603760
5373.65734131,0.00598720
5375.58614868,0.00603971
5377.51495605,0.00575832
5379.44376343,0.00593186
5381.37257080,0.00593559
5383.30137817,0.00588703
5385.23018555,0.00587215
5387.15899292,0.00566684
5389.08780029,0.00578814
5391.01660767,0.00586664
5392.94541504,0.00578050
5394.87422241,0.00559191
5396.80302978,0.00572311
5398.73183716,0.00575663
5400.66064453,0.00573715
5402.58945190,0.00585459
5404.51825928,0.00567761
5406.44706665,0.00582626
5408.37587402,0.00571157
5410.30468140,0.00550489
5412.23348877,0.00561998
5414.16229614,0.00538125
5416.09110352,0.00546756
5418.01991089,0.00570993
5419.94871826,0.00554103
5421.87752563,0.00555327
5423.80633301,0.00563258
5425.73514038,0.00559168
5427.66394775,0.00554651
5429.59275513,0.00532076
5431.52156250,0.00542405
5433.45036987,0.00550163
5435.37917725,0.00525158
5437.30798462,0.00542947
5439.23679199,0.00547588
5441.16559936,0.00531859
5443.09440674,0.00540302
5445.02321411,0.00539222
5446.95202148,0.00531295
5448.88082886,0.00531741
5450.80963623,0.00533240
5452.73844360,0.00539547
5454.66725098,0.00537176
5456.59605835,0.00527974
5458.52486572,0.00539385
5460.45367310,0.00530713
5462.38248047,0.00526096
5464.31128784,0.00531265
5466.24009521,0.00518776
5468.16890259,0.00524106
5470.09770996,0.00520778
5472.02651733,0.00532466
5473.95532471,0.00530358
5475.88413208,0.00507214
5477.81293945,0.00521914
5479.74174683,0.00524594
5481.67055420,0.00520063
5483.59936157,0.00520535
5485.52816895,0.00516417
5487.45697632,0.00504295
5489.38578369,0.00502553
5491.31459106,0.00514588
5493.24339844,0.00504846
5495.17220581,0.00508285
5497.10101318,0.00512151
5499.02982056,0.00503491
5500.95862793,0.00506820
5502.88743530,0.00506007
5504.81624268,0.00505455
5506.74505005,0.00501598
5508.67385742,0.00490084
5510.60266479,0.00493084
5512.53147217,0.00501408
5514.46027954,0.00498305
5516.38908691,0.00496491
5518.31789429,0.00498853
5520.24670166,0.00497824
5522.17550903,0.00486612
5524.10431641,0.00489888
5526.03312378,0.00495893
5527.96193115,0.00487369
5529.89073853,0.00487280
5531.81954590,0.00484263
5533.74835327,0.00490903
5535.67716064,0.00483026
5537.60596802,0.00476277
5539.53477539,0.00486840
5541.46358276,0.00475731
5543.39239014,0.00476205
5545.32119751,0.00478317
5547.25000488,0.00481062
5549.17881226,0.00476542
5551.10761963,0.00474851
5553.03642700,0.00482589
5554.96523437,0.00471941
5556.89404175,0.00477097
5558.82284912,0.00473355
5560.75165649,0.00475638
5562.68046387,0.00473336
5564.60927124,0.00464904
5566.53807861,0.00476602
5568.46688599,0.00462909
5570.39569336,0.00466143
5572.32450073,0.00467570
5574.25330811,0.00460576
5576.18211548,0.00464804
5578.11092285,0.00454163
5580.03973022,0.00455914
5581.96853760,0.00459022
5583.89734497,0.00456313
5585.82615234,0.00451448
5587.75495972,0.00450921
5589.68376709,0.00451876
5591.61257446,0.00455587
5593.54138184,0.00456013
5595.47018921,0.00447286
5597.39899658,0.00451431
5599.32780395,0.00443774
5601.25661133,0.00442384
5603.18541870,0.00450088
5605.11422607,0.00447655
5607.04303345,0.00445515
5608.97184082,0.00442548
5610.90064819,0.00442588
5612.82945557,0.00432819
5614.75826294,0.00434246
5616.68707031,0.00440444
5618.61587769,0.00438125
5620.54468506,0.00437595
5622.47349243,0.00434329
5624.40229980,0.00434319
5626.33110718,0.00426997
5628.25991455,0.00425654
5630.18872192,0.00429010
5632.11752930,0.00429432
5634.04633667,0.00429268
5635.97514404,0.00425769
5637.90395142,0.00433719
5639.83275879,0.00429384
5641.76156616,0.00420152
5643.69037353,0.00429382
5645.61918091,0.00426926
5647.54798828,0.00423598
5649.47679565,0.00421753
5651.40560303,0.00410704
5653.33441040,0.00420559
5655.26321777,0.00418650
5657.19202515,0.00412463
5659.12083252,0.00421358
5661.04963989,0.00406025
5662.97844727,0.00405483
5664.90725464,0.00413192
5666.83606201,0.00404347
5668.76486938,0.00402896
5670.69367676,0.00408855
5672.62248413,0.00409339
5674.55129150,0.00403909
5676.48009888,0.00406780
5678.40890625,0.00399367
5680.33771362,0.00398594
5682.26652100,0.00401566
5684.19532837,0.00399099
5686.12413574,0.00397895
5688.05294311,0.00391408
5689.98175049,0.00404478
5691.91055786,0.00399378
5693.83936523,0.00388021
5695.76817261,0.00393188
5697.69697998,0.00392129
5699.62578735,0.00389926
5701.55459473,0.00388420
5703.48340210,0.00396364
5705.41220947,0.00389395
5707.34101685,0.00385745
5709.26982422,0.00387984
5711.19863159,0.00387443
5713.12743896,0.00389008
5715.05624634,0.00382666
5716.98505371,0.00385598
5718.91386108,0.00381835
5720.84266846,0.00385682
5722.77147583,0.00382198
5724.70028320,0.00377367
5726.62909058,0.00378703
5728.55789795,0.00369852
5730.48670532,0.00381253
5732.41551270,0.00373996
5734.34432007,0.00371684
5736.27312744,0.00376119
5738.20193481,0.00367944
5740.13074219,0.00373275
5742.05954956,0.00371641
5743.98835693,0.00370090
5745.91716431,0.00362612
5747.84597168,0.00365425
5749.77477905,0.00365847
5751.70358643,0.00357540
5753.63239380,0.00357909
5755.56120117,0.00360002
5757.49000854,0.00368160
5759.41881592,0.00361952
5761.34762329,0.00361634
5763.27643066,0.00357418
5765.20523804,0.00360748
5767.13404541,0.00366601
5769.06285278,0.00353025
5770.99166016,0.00360001
5772.92046753,0.00352609
5774.84927490,0.00346865
5776.77808228,0.00354538
5778.70688965,0.00353850
5780.63569702,0.00351026
5782.56450439,0.00344498
5784.49331177,0.00350392
5786.42211914,0.00348194
5788.35092651,0.00346369
5790.27973389,0.00347106
5792.20854126,0.00341151
5794.13734863,0.00338429
5796.06615601,0.00341074
5797.99496338,0.00344532
5799.92377075,0.00338478
5801.85257812,0.00336939
5803.78138550,0.00337142
5805.71019287,0.00342051
5807.63900024,0.00339147
5809.56780762,0.00335351
5811.49661499,0.00332401
5813.42542236,0.00324222
5815.35422974,0.00338320
5817.28303711,0.00331783
5819.21184448,0.00321883
5821.14065186,0.00327403
5823.06945923,0.00327394
5824.99826660,0.00330508
5826.92707397,0.00321322
5828.85588135,0.00328504
5830.78468872,0.00332379
5832.71349609,0.00321825
5834.64230347,0.00327096
5836.57111084,0.00324365
5838.49991821,0.00318454
5840.42872559,0.00322484
5842.35753296,0.00324766
5844.28634033,0.00319819
5846.21514770,0.00316568
5848.14395508,0.00319143
5850.07276245,0.00323588
5852.00156982,0.00317091
5853.93037720,0.00310779
5855.85918457,0.00314259
5857.78799194,0.00306166
5859.71679932,0.00306228
5861.64560669,0.00315843
5863.57441406,0.00317042
5865.50322144,0.00313737
5867.43202881,0.00310029
5869.36083618,0.00312931
5871.28964355,0.00307436
5873.21845093,0.00300320
5875.14725830,0.00305246
5877.07606567,0.00303980
5879.00487305,0.00301767
5880.93368042,0.00302459
5882.86248779,0.00295996
5884.79129517,0.00299519
5886.72010254,0.00302784
5888.64890991,0.00296986
5890.57771728,0.00301110
5892.50652466,0.00301163
5894.43533203,0.00297613
5896.36413940,0.00296188
5898.29294678,0.00293793
5900.22175415,0.00294470
5902.15056152,0.00292499
5904.07936890,0.00290102
5906.00817627,0.00291811
5907.93698364,0.00291425
5909.86579102,0.00286049
5911.79459839,0.00291663
5913.72340576,0.00294091
5915.65221313,0.00284688
5917.58102051,0.00283827
5919.50982788,0.00285378
5921.43863525,0.00285939
5923.36744263,0.00283606
5925.29625000,0.00281106
5927.22505737,0.00281581
5929.15386475,0.00284010
5931.08267212,0.00283298
5933.01147949,0.00285574
5934.94028686,0.00289942
5936.86909424,0.00277307
5938.79790161,0.00280942
5940.72670898,0.00284153
5942.65551636,0.00271406
5944.58432373,0.00276407
5946.51313110,0.00275643
5948.44193848,0.00279497
5950.37074585,0.00282202
5952.29955322,0.00270683
5954.22836060,0.00271572
5956.15716797,0.00270765
5958.08597534,0.00269966
5960.01478271,0.00272029
5961.94359009,0.00268742
5963.87239746,0.00271024
5965.80120483,0.00272809
5967.73001221,0.00269700
5969.65881958,0.00268866
5971.58762695,0.00264894
5973.51643433,0.00261584
5975.44524170,0.00268568
5977.37404907,0.00270393
5979.30285645,0.00267301
5981.23166382,0.00266427
5983.16047119,0.00259212
5985.08927856,0.00261883
5987.01808594,0.00264074
5988.94689331,0.00258952
5990.87570068,0.00264914
5992.80450806,0.00259558
5994.73331543,0.00259838
5996.66212280,0.00262800
5998.59093018,0.00253750
6000.51973755,0.00261368
