399.26312622,0.00145855
401.19193359,0.00200005
403.12074097,0.00224370
405.04954834,0.00244896
406.97835571,0.00269121
408.90716309,0.00296679
410.83597046,0.00298324
412.76477783,0.00227377
414.69358521,0.00296867
416.62239258,0.00355542
418.55119995,0.00264708
420.48000732,0.00297458
422.40881470,0.00356051
424.33762207,0.00335485
426.26642944,0.00352999
428.19523682,0.00325301
430.12404419,0.00314552
432.05285156,0.00315109
433.98165894,0.00316077
435.91046631,0.00343366
437.83927368,0.00321723
439.76808105,0.00367286
441.69688843,0.00324025
443.62569580,0.00274956
445.55450317,0.00316991
447.48331055,0.00262342
449.41211792,0.00270256
451.34092529,0.00252117
453.26973267,0.00233944
455.19854004,0.00254818
457.12734741,0.00221170
459.05615479,0.00211742
460.98496216,0.00185837
462.91376953,0.00203081
464.84257690,0.00183444
466.77138428,0.00171437
468.70019165,0.00162752
470.62899902,0.00082140
472.55780640,0.00084094
474.48661377,0.00088782
476.41542114,0.00108965
478.34422852,0.00092758
480.27303589,0.00106078
482.20184326,0.00137076
484.13065063,0.00046306
486.05945801,0.00024392
487.98826538,0.00044509
489.91707275,0.00044630
491.84588013,0.00035333
493.77468750,0.00064578
495.70349487,0.00045266
497.63230225,0.00022362
499.56110962,0.00043067
501.48991699,0.00055065
503.41872437,0.00097599
505.34753174,0.00039552
507.27633911,0.00019307
509.20514648,0.00075711
511.13395386,0.00057836
513.06276123,0.00067314
514.99156860,0.00042365
516.92037598,0.00066101
518.84918335,0.00007288
520.77799072,-0.00012761
522.70679810,0.00060082
524.63560547,0.00009684
526.56441284,0.00049747
528.49322021,0.00050413
530.42202759,0.00051844
532.35083496,0.00043506
534.27964233,0.00022141
536.20844971,0.00093975
538.13725708,0.00063139
540.06606445,0.00045256
541.99487183,0.00032975
543.92367920,0.00051069
545.85248657,0.00057141
547.78129395,0.00021552
549.71010132,0.00065925
551.63890869,0.00075731
553.56771606,0.00081010
555.49652344,0.00046814
557.42533081,0.00020020
559.35413818,0.00056111
561.28294556,0.00069005
563.21175293,0.00062194
565.14056030,0.00050799
567.06936768,0.00073451
568.99817505,0.00081237
570.92698242,0.00080331
572.85578979,0.00066077
574.78459717,0.00049091
576.71340454,0.00048217
578.64221191,0.00056797
580.57101929,0.00080607
582.49982666,0.00066718
584.42863403,0.00050995
586.35744141,0.00037888
588.28624878,0.00039763
590.21505615,0.00040478
592.14386353,0.00051937
594.07267090,0.00059181
596.00147827,0.00028971
597.93028564,0.00056140
599.85909302,0.00053313
601.78790039,0.00071241
603.71670776,0.00081040
605.64551514,0.00049642
607.57432251,0.00068629
609.50312988,0.00029537
611.43193726,0.00034515
613.36074463,0.00045271
615.28955200,0.00036329
617.21835938,0.00038276
619.14716675,-0.00014418
621.07597412,-0.00000734
623.00478149,0.00039136
624.93358887,0.00005599
626.86239624,-0.00001933
628.79120361,-0.00000402
630.72001099,0.00048582
632.64881836,0.00164115
634.57762573,0.00237441
636.50643311,0.00246005
638.43524048,0.00232585
640.36404785,0.00263295
642.29285522,0.00295782
644.22166260,0.00334009
646.15046997,0.00366803
648.07927734,0.00379857
650.00808472,0.00417661
651.93689209,0.00434749
653.86569946,0.00440939
655.79450684,0.00453669
657.72331421,0.00476438
659.65212158,0.00531940
661.58092896,0.00525685
663.50973633,0.00552231
665.43854370,0.00599732
667.36735107,0.00489914
669.29615845,0.00566990
671.22496582,0.00710583
673.15377319,0.00635516
675.08258057,0.00690649
677.01138794,0.00721542
678.94019531,0.00684683
680.86900269,0.00736805
682.79781006,0.00745196
684.72661743,0.00746956
686.65542480,0.00727476
688.58423218,0.00732627
690.51303955,0.00757409
692.44184692,0.00797624
694.37065430,0.00862859
696.29946167,0.00968551
698.22826904,0.01137036
700.15707642,0.01177524
702.08588379,0.01145319
704.01469116,0.01081702
705.94349854,0.00965265
707.87230591,0.00813373
709.80111328,0.00611839
711.72992065,0.00414001
713.65872803,0.00212139
715.58753540,0.00139255
717.51634277,0.00078132
719.44515015,0.00020538
721.37395752,0.00057715
723.30276489,0.00002800
725.23157227,-0.00001635
727.16037964,0.00000463
729.08918701,-0.00032618
731.01799438,0.00006841
732.94680176,-0.00010370
734.87560913,-0.00006485
736.80441650,-0.00000846
738.73322388,0.00006026
740.66203125,0.00026393
742.59083862,0.00018309
744.51964600,0.00027820
746.44845337,0.00022317
748.37726074,0.00026366
750.30606812,0.00031364
752.23487549,0.00015668
754.16368286,0.00035086
756.09249023,0.00042153
758.02129761,0.00022837
759.95010498,0.00008716
761.87891235,0.00005603
763.80771973,0.00048645
765.73652710,0.00030122
767.66533447,-0.00007255
769.59414185,0.00032142
771.52294922,0.00023612
773.45175659,0.00045697
775.38056396,0.00036248
777.30937134,0.00015915
779.23817871,0.00040355
781.16698608,0.00044267
783.09579346,0.00041774
785.02460083,0.00042594
786.95340820,0.00062898
788.88221558,0.00029326
790.81102295,0.00038036
792.73983032,0.00079118
794.66863770,0.00063933
796.59744507,0.00086257
798.52625244,0.00112242
800.45505981,0.00137392
802.38386719,0.00129544
804.31267456,0.00076474
806.24148193,0.00071227
808.17028931,0.00069975
810.09909668,0.00037849
812.02790405,0.00038366
813.95671143,0.00038203
815.88551880,0.00012686
817.81432617,0.00008035
819.74313354,0.00029573
821.67194092,0.00063363
823.60074829,0.00044542
825.52955566,0.00053353
827.45836304,0.00077385
829.38717041,0.00085649
831.31597778,0.00179161
833.24478516,0.00212991
835.17359253,0.00198003
837.10239990,0.00210479
839.03120728,0.00226108
840.96001465,0.00227293
842.88882202,0.00199693
844.81762939,0.00192108
846.74643677,0.00145414
848.67524414,0.00147939
850.60405151,0.00184853
852.53285889,0.00135464
854.46166626,0.00106260
856.39047363,0.00115253
858.31928101,0.00090409
860.24808838,0.00053606
862.17689575,0.00081413
864.10570313,0.00074907
866.03451050,0.00026797
867.96331787,0.00041243
869.89212524,0.00044493
871.82093262,0.00032549
873.74973999,0.00035461
875.67854736,0.00032415
877.60735474,0.00012679
879.53616211,0.00004813
881.46496948,0.00025210
883.39377686,0.00049036
885.32258423,0.00044696
887.25139160,0.00029389
889.18019897,0.00025498
891.10900635,0.00038475
893.03781372,0.00072943
894.96662109,0.00037097
896.89542847,0.00022262
898.82423584,0.00034678
900.75304321,0.00027491
902.68185059,0.00037950
904.61065796,0.00007554
906.53946533,0.00047706
908.46827271,0.00061593
910.39708008,0.00053565
912.32588745,0.00081797
914.25469482,0.00056088
916.18350220,0.00098836
918.11230957,0.00135395
920.04111694,0.00159111
921.96992432,0.00173798
923.89873169,0.00160373
925.82753906,0.00201012
927.75634644,0.00235161
929.68515381,0.00270723
931.61396118,0.00275497
933.54276855,0.00264162
935.47157593,0.00288399
937.40038330,0.00330159
939.32919067,0.00356333
941.25799805,0.00336754
943.18680542,0.00349577
945.11561279,0.00378584
947.04442017,0.00358761
948.97322754,0.00340981
950.90203491,0.00355617
952.83084229,0.00341499
954.75964966,0.00316896
956.68845703,0.00317299
958.61726440,0.00317745
960.54607178,0.00336981
962.47487915,0.00357109
964.40368652,0.00352651
966.33249390,0.00345343
968.26130127,0.00387024
970.19010864,0.00400243
972.11891602,0.00393980
974.04772339,0.00458212
975.97653076,0.00481544
977.90533813,0.00522497
979.83414551,0.00597653
981.76295288,0.00629537
983.69176025,0.00692554
985.62056763,0.00769270
987.54937500,0.00855001
989.47818237,0.00964697
991.40698975,0.01084709
993.33579712,0.01201382
995.26460449,0.01280274
997.19341187,0.01355411
999.12221924,0.01489344
1001.05102661,0.01629886
1002.97983398,0.01716068
1004.90864136,0.01833197
1006.83744873,0.01964948
1008.76625610,0.02069626
1010.69506348,0.02208092
1012.62387085,0.02327952
1014.55267822,0.02451113
1016.48148560,0.02587588
1018.41029297,0.02695946
1020.33910034,0.02856999
1022.26790771,0.02964585
1024.19671509,0.03050563
1026.12552246,0.03208925
1028.05432983,0.03294278
1029.98313721,0.03397465
1031.91194458,0.03498052
1033.84075195,0.03543120
1035.76955933,0.03618585
1037.69836670,0.03660015
1039.62717407,0.03694122
1041.55598145,0.03680259
1043.48478882,0.03625083
1045.41359619,0.03599487
1047.34240356,0.03554370
1049.27121094,0.03498764
1051.20001831,0.03439995
1053.12882568,0.03370413
1055.05763306,0.03294058
1056.98644043,0.03226262
1058.91524780,0.03149981
1060.84405518,0.03067362
1062.77286255,0.02968419
1064.70166992,0.02874317
1066.63047729,0.02785587
1068.55928467,0.02640651
1070.48809204,0.02528735
1072.41689941,0.02413666
1074.34570679,0.02299826
1076.27451416,0.02220948
1078.20332153,0.02090009
1080.13212891,0.01982971
1082.06093628,0.01890499
1083.98974365,0.01801050
1085.91855103,0.01726687
1087.84735840,0.01649448
1089.77616577,0.01588163
1091.70497314,0.01514776
1093.63378052,0.01435067
1095.56258789,0.01356596
1097.49139526,0.01323030
1099.42020264,0.01303698
1101.34901001,0.01250831
1103.27781738,0.01216672
1105.20662476,0.01211085
1107.13543213,0.01200026
1109.06423950,0.01168149
1110.99304687,0.01146172
1112.92185425,0.01125553
1114.85066162,0.01113219
1116.77946899,0.01120465
1118.70827637,0.01125842
1120.63708374,0.01140433
1122.56589111,0.01138866
1124.49469849,0.01127494
1126.42350586,0.01169907
1128.35231323,0.01214170
1130.28112061,0.01219143
1132.20992798,0.01246475
1134.13873535,0.01295288
1136.06754272,0.01359372
1137.99635010,0.01401945
1139.92515747,0.01486401
1141.85396484,0.01619938
1143.78277222,0.01696884
1145.71157959,0.01814148
1147.64038696,0.01924672
1149.56919434,0.02019304
1151.49800171,0.02137464
1153.42680908,0.02245086
1155.35561646,0.02367000
1157.28442383,0.02440154
1159.21323120,0.02536706
1161.14203857,0.02633755
1163.07084595,0.02732696
1164.99965332,0.02856556
1166.92846069,0.02948178
1168.85726807,0.03071738
1170.78607544,0.03169737
1172.71488281,0.03289513
1174.64369019,0.03408064
1176.57249756,0.03523655
1178.50130493,0.03681160
1180.43011230,0.03787713
1182.35891968,0.03969352
1184.28772705,0.04183459
1186.21653442,0.04347202
1188.14534180,0.04545510
1190.07414917,0.04759352
1192.00295654,0.04965257
1193.93176392,0.05194312
1195.86057129,0.05450243
1197.78937866,0.05696697
1199.71818604,0.05953881
1201.64699341,0.06201187
1203.57580078,0.06456527
1205.50460815,0.06720094
1207.43341553,0.06959686
1209.36222290,0.07194982
1211.29103027,0.07402781
1213.21983765,0.07616494
1215.14864502,0.07811189
1217.07745239,0.07968318
1219.00625977,0.08127838
1220.93506714,0.08255020
1222.86387451,0.08335381
1224.79268188,0.08424816
1226.72148926,0.08508614
1228.65029663,0.08534610
1230.57910400,0.08572902
1232.50791138,0.08599086
1234.43671875,0.08595185
1236.36552612,0.08605491
1238.29433350,0.08592064
1240.22314087,0.08566337
1242.15194824,0.08528389
1244.08075562,0.08489674
1246.00956299,0.08454087
1247.93837036,0.08403444
1249.86717773,0.08356890
1251.79598511,0.08279704
1253.72479248,0.08177558
1255.65359985,0.08092344
1257.58240723,0.07976435
1259.51121460,0.07840168
1261.44002197,0.07721037
1263.36882935,0.07623148
1265.29763672,0.07542384
1267.22644409,0.07435173
1269.15525146,0.07331477
1271.08405884,0.07196327
1273.01286621,0.07074976
1274.94167358,0.06983250
1276.87048096,0.06819826
1278.79928833,0.06695095
1280.72809570,0.06558782
1282.65690308,0.06420112
1284.58571045,0.06323482
1286.51451782,0.06181303
1288.44332520,0.06088009
1290.37213257,0.06003848
1292.30093994,0.05919577
1294.22974731,0.05883250
1296.15855469,0.05846082
1298.08736206,0.05826614
1300.01616943,0.05858295
1301.94497681,0.05879584
1303.87378418,0.05904340
1305.80259155,0.05993664
1307.73139893,0.06065806
1309.66020630,0.06175747
1311.58901367,0.06260268
1313.51782104,0.06357543
1315.44662842,0.06555294
1317.37543579,0.06681111
1319.30424316,0.06852946
1321.23305054,0.07070160
1323.16185791,0.07287095
1325.09066528,0.07523807
1327.01947266,0.07717962
1328.94828003,0.07915998
1330.87708740,0.08113314
1332.80589478,0.08317256
1334.73470215,0.08457597
1336.66350952,0.08535860
1338.59231689,0.08473197
1340.52112427,0.08557176
1342.44993164,0.08935264
1344.37873901,0.08991526
1346.30754639,0.08964878
1348.23635376,0.08980159
1350.16516113,0.08900524
1352.09396851,0.08907050
1354.02277588,0.08763438
1355.95158325,0.08699733
1357.88039062,0.08675674
1359.80919800,0.08513657
1361.73800537,0.08141017
1363.66681274,0.07984389
1365.59562012,0.08420721
1367.52442749,0.08246508
1369.45323486,0.08109625
1371.38204224,0.08281077
1373.31084961,0.07816572
1375.23965698,0.07851017
1377.16846436,0.08081096
1379.09727173,0.08042526
1381.02607910,0.08049669
1382.95488647,0.08054279
1384.88369385,0.08075517
1386.81250122,0.07656958
1388.74130859,0.07735498
1390.67011597,0.08425109
1392.59892334,0.08216406
1394.52773071,0.07652742
1396.45653809,0.08026797
1398.38534546,0.08029708
1400.31415283,0.07967232
1402.24296021,0.08659565
1404.17176758,0.08173901
1406.10057495,0.08177063
1408.02938232,0.08564703
1409.95818970,0.08246958
1411.88699707,0.08417442
1413.81580444,0.08103350
1415.74461182,0.08248723
1417.67341919,0.07437088
1419.60222656,0.06562027
1421.53103394,0.07649082
1423.45984131,0.07420367
1425.38864868,0.07162566
1427.31745605,0.07321058
1429.24626343,0.06732969
1431.17507080,0.06516497
1433.10387817,0.06660593
1435.03268555,0.06072098
1436.96149292,0.05042467
1438.89030029,0.05787565
1440.81910767,0.05978296
1442.74791504,0.05498901
1444.67672241,0.05826999
1446.60552979,0.05301417
1448.53433716,0.05364137
1450.46314453,0.05569719
1452.39195190,0.05650699
1454.32075928,0.05885177
1456.24956665,0.04812016
1458.17837402,0.04959890
1460.10718140,0.06709047
1462.03598877,0.07224642
1463.96479614,0.07117520
1465.89360352,0.07392285
1467.82241089,0.08484199
1469.75121826,0.09165714
1471.68002563,0.08102490
1473.60883301,0.08476375
1475.53764038,0.09736922
1477.46644775,0.10518683
1479.39525513,0.11622472
1481.32406250,0.11764529
1483.25286987,0.12532052
1485.18167725,0.12982568
1487.11048462,0.12704659
1489.03929199,0.12633705
1490.96809937,0.12671870
1492.89690674,0.14863044
1494.82571411,0.14567216
1496.75452148,0.12960091
1498.68332886,0.14739560
1500.61213623,0.15255629
1502.54094360,0.16404268
1504.46975098,0.15553403
1506.39855835,0.11081440
1508.32736572,0.13549888
1510.25617310,0.16169427
1512.18498047,0.15626407
1514.11378784,0.17022759
1516.04259521,0.15276691
1517.97140259,0.15891615
1519.90020996,0.15440670
1521.82901733,0.13156125
1523.75782471,0.16311723
1525.68663208,0.16080475
1527.61543945,0.15903258
1529.54424683,0.17784058
1531.47305420,0.17070574
1533.40186157,0.15558261
1535.33066895,0.16502951
1537.25947632,0.17830084
1539.18828369,0.12567595
1541.11709106,0.12973440
1543.04589844,0.15848705
1544.97470581,0.15119179
1546.90351318,0.18092757
1548.83232056,0.16862689
1550.76112793,0.17326683
1552.68993530,0.17342648
1554.61874268,0.15585688
1556.54755005,0.16820349
1558.47635742,0.11646394
1560.40516479,0.12435271
1562.33397217,0.18210173
1564.26277954,0.17197803
1566.19158691,0.17688823
1568.12039429,0.17551899
1570.04920166,0.15392216
1571.97800903,0.17874011
1573.90681641,0.18221933
1575.83562378,0.14248282
1577.76443115,0.16133887
1579.69323853,0.18411374
1581.62204590,0.17579198
1583.55085327,0.18064675
1585.47966064,0.17768839
1587.40846802,0.17893010
1589.33727539,0.17757413
1591.26608276,0.17748535
1593.19489014,0.17787308
1595.12369751,0.17534263
1597.05250488,0.17798990
1598.98131226,0.17692824
1600.91011963,0.17807147
1602.83892700,0.17454453
1604.76773437,0.17777085
1606.69654175,0.17517199
1608.62534912,0.17436081
1610.55415649,0.17452595
1612.48296387,0.17533225
1614.41177124,0.17855826
1616.34057861,0.14458548
1618.26938599,0.15630680
1620.19819336,0.18451625
1622.12700073,0.16240999
1624.05580811,0.16274032
1625.98461548,0.17161372
1627.91342285,0.17047173
1629.84223022,0.16943084
1631.77103760,0.18174070
1633.69984497,0.16782218
1635.62865234,0.13620768
1637.55745972,0.15911120
1639.48626709,0.17702739
1641.41507446,0.17240980
1643.34388184,0.17737524
1645.27268921,0.15939599
1647.20149658,0.13801213
1649.13030396,0.17374408
1651.05911133,0.16606131
1652.98791870,0.10305753
1654.91672607,0.14141732
1656.84553345,0.18154481
1658.77434082,0.17315200
1660.70314819,0.17829256
1662.63195557,0.16142231
1664.56076294,0.17003703
1666.48957031,0.18408123
1668.41837769,0.15950035
1670.34718506,0.15391746
1672.27599243,0.17617114
1674.20479980,0.16231143
1676.13360718,0.15452467
1678.06241455,0.17971510
1679.99122192,0.17288680
1681.92002930,0.17076543
1683.84883667,0.13788506
1685.77764404,0.13472274
1687.70645142,0.18893293
1689.63525879,0.16325197
1691.56406616,0.17922527
1693.49287354,0.18464601
1695.42168091,0.13155399
1697.35048828,0.16405401
1699.27929565,0.14431959
1701.20810303,0.12731376
1703.13691040,0.17780560
1705.06571777,0.16274232
1706.99452515,0.16353506
1708.92333252,0.17923447
1710.85213989,0.17142963
1712.78094727,0.17479762
1714.70975464,0.16170175
1716.63856201,0.14404947
1718.56736938,0.14098889
1720.49617676,0.16886231
1722.42498413,0.17679475
1724.35379150,0.16275309
1726.28259888,0.17821592
1728.21140625,0.16414183
1730.14021362,0.16455421
1732.06902100,0.16161770
1733.99782837,0.12050715
1735.92663574,0.15104441
1737.85544312,0.16932347
1739.78425049,0.14909527
1741.71305786,0.16296440
1743.64186523,0.16550523
1745.57067261,0.16564000
1747.49947998,0.16712649
1749.42828735,0.15935159
1751.35709473,0.15197793
1753.28590210,0.16913702
1755.21470947,0.17801875
1757.14351685,0.16101722
1759.07232422,0.17799759
1761.00113159,0.16740561
1762.92993896,0.16005205
1764.85874634,0.18533090
1766.78755371,0.16612011
1768.71636108,0.16690882
1770.64516846,0.16655628
1772.57397583,0.14824501
1774.50278320,0.16616926
1776.43159058,0.17652777
1778.36039795,0.17401645
1780.28920532,0.17173186
1782.21801270,0.17305335
1784.14682007,0.17294139
1786.07562744,0.16913152
1788.00443481,0.17854263
1789.93324219,0.17405745
1791.86204956,0.15609197
1793.79085693,0.16298570
1795.71966431,0.17589474
1797.64847168,0.17337535
1799.57727905,0.17043285
1801.50608643,0.16744724
1803.43489380,0.17317912
1805.36370117,0.17738944
1807.29250854,0.17486954
1809.22131592,0.17548928
1811.15012329,0.17047952
1813.07893066,0.17585880
1815.00773804,0.17683965
1816.93654541,0.17459229
1818.86535278,0.17614564
1820.79416016,0.17522277
1822.72296753,0.17810130
1824.65177490,0.16579074
1826.58058228,0.17183468
1828.50938965,0.17263073
1830.43819702,0.16089945
1832.36700439,0.17616211
1834.29581177,0.17522159
1836.22461914,0.17460932
1838.15342651,0.17408472
1840.08223389,0.17492031
1842.01104126,0.17576757
1843.93984863,0.15468803
1845.86865601,0.16484565
1847.79746338,0.17511559
1849.72627075,0.17103872
1851.65507812,0.17634159
1853.58388550,0.17261875
1855.51269287,0.17442769
1857.44150024,0.17341548
1859.37030762,0.17235598
1861.29911499,0.17370695
1863.22792236,0.17154998
1865.15672974,0.17358631
1867.08553711,0.16736005
1869.01434448,0.15993384
1870.94315186,0.16650969
1872.87195923,0.17339087
1874.80076660,0.17058310
1876.72957397,0.17148739
1878.65838135,0.17106968
1880.58718872,0.16994415
1882.51599609,0.17157353
1884.44480347,0.16837756
1886.37361084,0.17103663
1888.30241821,0.16727851
1890.23122559,0.16344114
1892.16003296,0.17004028
1894.08884033,0.16762421
1896.01764771,0.16685407
1897.94645508,0.16886994
1899.87526245,0.16788536
1901.80406982,0.16829947
1903.73287720,0.16708989
1905.66168457,0.16794851
1907.59049194,0.16634826
1909.51929932,0.16503298
1911.44810669,0.16600460
1913.37691406,0.16635039
1915.30572144,0.16800886
1917.23452881,0.16025066
1919.16333618,0.16018537
1921.09214355,0.16692320
1923.02095093,0.16116622
1924.94975830,0.16440499
1926.87856567,0.16673490
1928.80737305,0.16436431
1930.73618042,0.16645485
1932.66498779,0.16385704
1934.59379517,0.16563013
1936.52260254,0.16460679
1938.45140991,0.16484055
1940.38021729,0.16512677
1942.30902466,0.15920788
1944.23783203,0.16223662
1946.16663940,0.16410232
1948.09544678,0.16365792
1950.02425415,0.16443039
1951.95306152,0.16378099
1953.88186890,0.16409615
1955.81067627,0.16324066
1957.73948364,0.16383052
1959.66829102,0.16338256
1961.59709839,0.16307375
1963.52590576,0.16369526
1965.45471313,0.16243201
1967.38352051,0.16089401
1969.31232788,0.16212410
1971.24113525,0.16332337
1973.16994263,0.16207266
1975.09875000,0.16280751
1977.02755737,0.16213447
1978.95636475,0.16203474
1980.88517212,0.16210337
1982.81397949,0.16127175
1984.74278687,0.16207224
1986.67159424,0.16062406
1988.60040161,0.16098040
1990.52920898,0.15954027
1992.45801636,0.15743324
1994.38682373,0.16009179
1996.31563110,0.16044000
1998.24443848,0.15952829
2000.17324585,0.15955824
2002.10205322,0.15922174
2004.03086060,0.15898111
2005.95966797,0.15867108
2007.88847534,0.15815973
2009.81728271,0.15787768
2011.74609009,0.15754303
2013.67489746,0.15762854
2015.60370483,0.15668063
2017.53251221,0.15501298
2019.46131958,0.15625067
2021.39012695,0.15623781
2023.31893433,0.15561110
2025.24774170,0.15574431
2027.17654907,0.15484351
2029.10535645,0.15495172
2031.03416382,0.15445770
2032.96297119,0.15421942
2034.89177856,0.15387571
2036.82058594,0.15346822
2038.74939331,0.15341574
2040.67820068,0.15244193
2042.60700806,0.15235692
2044.53581543,0.15232167
2046.46462280,0.15217447
2048.39343018,0.15177803
2050.32223755,0.15137789
2052.25104492,0.15134305
2054.17985229,0.15087160
2056.10865967,0.15066589
2058.03746704,0.15021551
2059.96627441,0.14977515
2061.89508179,0.14969525
2063.82388916,0.14902756
2065.75269653,0.14846748
2067.68150391,0.14900428
2069.61031128,0.14877000
2071.53911865,0.14819011
2073.46792603,0.14807937
2075.39673340,0.14765194
2077.32554077,0.14760590
2079.25434814,0.14710465
2081.18315552,0.14700449
2083.11196289,0.14686042
2085.04077026,0.14643261
2086.96957764,0.14633545
2088.89838501,0.14559861
2090.82719238,0.14549451
2092.75599976,0.14538506
2094.68480713,0.14514577
2096.61361450,0.14485013
2098.54242187,0.14458311
2100.47122925,0.14460401
2102.40003662,0.14415243
2104.32884399,0.14397836
2106.25765137,0.14377102
2108.18645874,0.14354470
2110.11526611,0.14320806
2112.04407349,0.14304960
2113.97288086,0.14281204
2115.90168823,0.14250648
2117.83049561,0.14246985
2119.75930298,0.14199008
2121.68811035,0.14204347
2123.61691772,0.14175928
2125.54572510,0.14149541
2127.47453247,0.14141384
2129.40333984,0.14104098
2131.33214722,0.14104667
2133.26095459,0.14070080
2135.18976196,0.14053942
2137.11856934,0.14030969
2139.04737671,0.14029548
2140.97618408,0.14012685
2142.90499146,0.13981804
2144.83379883,0.13978878
2146.76260620,0.13942568
2148.69141357,0.13956770
2150.62022095,0.13927996
2152.54902832,0.13901561
2154.47783569,0.13889141
2156.40664307,0.13858655
2158.33545044,0.13858524
2160.26425781,0.13831931
2162.19306519,0.13824409
2164.12187256,0.13798177
2166.05067993,0.13778725
2167.97948730,0.13763979
2169.90829468,0.13750425
2171.83710205,0.13740043
2173.76590942,0.13709843
2175.69471680,0.13696042
2177.62352417,0.13679287
2179.55233154,0.13678747
2181.48113892,0.13648990
2183.40994629,0.13639227
2185.33875366,0.13628958
2187.26756104,0.13609874
2189.19636841,0.13596632
2191.12517578,0.13551253
2193.05398315,0.13565572
2194.98279053,0.13550717
2196.91159790,0.13525979
2198.84040527,0.13503632
2200.76921265,0.13483691
2202.69802002,0.13484281
2204.62682739,0.13443774
2206.55563477,0.13447189
2208.48444214,0.13443494
2210.41324951,0.13428777
2212.34205688,0.13404778
2214.27086426,0.13379157
2216.19967163,0.13363642
2218.12847900,0.13339086
2220.05728638,0.13336870
2221.98609375,0.13300700
2223.91490112,0.13299248
2225.84370850,0.13287379
2227.77251587,0.13247022
2229.70132324,0.13239142
2231.63013062,0.13218005
2233.55893799,0.13201472
2235.48774536,0.13182229
2237.41655273,0.13156506
2239.34536011,0.13133028
2241.27416748,0.13127819
2243.20297485,0.13091223
2245.13178223,0.13068618
2247.06058960,0.13060416
2248.98939697,0.13030395
2250.91820435,0.13025504
2252.84701172,0.12987383
2254.77581909,0.12977171
2256.70462646,0.12962808
2258.63343384,0.12936567
2260.56224121,0.12922435
2262.49104858,0.12890178
2264.41985596,0.12885953
2266.34866333,0.12867756
2268.27747070,0.12854981
2270.20627808,0.12825935
2272.13508545,0.12815428
2274.06389282,0.12807381
2275.99270020,0.12784800
2277.92150757,0.12785390
2279.85031494,0.12751326
2281.77912231,0.12751409
2283.70792969,0.12737024
2285.63673706,0.12710699
2287.56554443,0.12686685
2289.49435181,0.12636551
2291.42315918,0.12605228
2293.35196655,0.12572698
2295.28077393,0.12556684
2297.20958130,0.12508333
2299.13838867,0.12454246
2301.06719604,0.12416402
2302.99600342,0.12359366
2304.92481079,0.12279442
2306.85361816,0.12197232
2308.78242554,0.12115404
2310.71123291,0.11995575
2312.64004028,0.11878645
2314.56884766,0.11754202
2316.49765503,0.11627261
2318.42646240,0.11456639
2320.35526978,0.11283198
2322.28407715,0.11138712
2324.21288452,0.10983317
2326.14169189,0.10849243
2328.07049927,0.10699076
2329.99930664,0.10580295
2331.92811401,0.10472207
2333.85692139,0.10432979
2335.78572876,0.10394196
2337.71453613,0.10349315
2339.64334351,0.10371152
2341.57215088,0.10383964
2343.50095825,0.10562314
2345.42976562,0.10760018
2347.35857300,0.11226974
2349.28738037,0.11652256
2351.21618774,0.11212188
2353.14499512,0.10615787
2355.07380249,0.10208622
2357.00260986,0.09859617
2358.93141724,0.09669733
2360.86022461,0.09555924
2362.78903198,0.09544984
2364.71783936,0.09592643
2366.64664673,0.09742823
2368.57545410,0.09942897
2370.50426147,0.10201973
2372.43306885,0.10511594
2374.36187622,0.10816294
2376.29068359,0.11125402
2378.21949097,0.11390793
2380.14829834,0.11606561
2382.07710571,0.11717428
2384.00591309,0.11820857
2385.93472046,0.11864877
2387.86352783,0.11866825
2389.79233521,0.11890776
2391.72114258,0.11847736
2393.64994995,0.11839905
2395.57875732,0.11829080
2397.50756470,0.11811584
2399.43637207,0.11811240
2401.36517944,0.11796676
2403.29398682,0.11765419
2405.22279419,0.11745851
2407.15160156,0.11740642
2409.08040894,0.11711264
2411.00921631,0.11706676
2412.93802368,0.11678737
2414.86683105,0.11680828
2416.79563843,0.11663955
2418.72444580,0.11624428
2420.65325317,0.11634061
2422.58206055,0.11604653
2424.51086792,0.11604852
2426.43967529,0.11583047
2428.36848267,0.11568393
2430.29729004,0.11566670
2432.22609741,0.11529738
2434.15490479,0.11522427
2436.08371216,0.11499435
2438.01251953,0.11495811
2439.94132690,0.11485544
2441.87013428,0.11465767
2443.79894165,0.11442992
2445.72774902,0.11426537
2447.65655640,0.11430191
2449.58536377,0.11408904
2451.51417114,0.11386867
2453.44297852,0.11362822
2455.37178589,0.11362711
2457.30059326,0.11347716
2459.22940063,0.11329218
2461.15820801,0.11311176
2463.08701538,0.11287351
2465.01582275,0.11281881
2466.94463013,0.11263421
2468.87343750,0.11261145
2470.80224487,0.11226428
2472.73105225,0.11222520
2474.65985962,0.11220499
2476.58866699,0.11187471
2478.51747437,0.11183661
2480.44628174,0.11149926
2482.37508911,0.11147035
2484.30389648,0.11126356
2486.23270386,0.11108400
2488.16151123,0.11110701
2490.09031860,0.11092626
2492.01912598,0.11078010
2493.94793335,0.11040022
2495.87674072,0.11046562
2497.80554810,0.11036223
2499.73435547,0.11014426
2501.66316284,0.10999137
2503.59197021,0.10971741
2505.52077759,0.10974377
2507.44958496,0.10959479
2509.37839233,0.10949390
2511.30719971,0.10926287
2513.23600708,0.10914008
2515.16481445,0.10904953
2517.09362183,0.10886777
2519.02242920,0.10880908
2520.95123657,0.10857455
2522.88004395,0.10851111
2524.80885132,0.10822284
2526.73765869,0.10809746
2528.66646606,0.10806827
2530.59527344,0.10785267
2532.52408081,0.10785275
2534.45288818,0.10755597
2536.38169556,0.10741739
2538.31050293,0.10742319
2540.23931030,0.10720857
2542.16811768,0.10704435
2544.09692505,0.10693143
2546.02573242,0.10678881
2547.95453979,0.10666470
2549.88334717,0.10659978
2551.81215454,0.10636348
2553.74096191,0.10617954
2555.66976929,0.10609862
2557.59857666,0.10590111
2559.52738403,0.10572041
2561.45619141,0.10557856
2563.38499878,0.10545154
2565.31380615,0.10543722
2567.24261353,0.10531269
2569.17142090,0.10513256
2571.10022827,0.10501853
2573.02903564,0.10476385
2574.95784302,0.10463950
2576.88665039,0.10453965
2578.81545776,0.10445389
2580.74426514,0.10433489
2582.67307251,0.10416236
2584.60187988,0.10401204
2586.53068726,0.10375439
2588.45949463,0.10371085
2590.38830200,0.10351744
2592.31710937,0.10340188
2594.24591675,0.10324782
2596.17472412,0.10306707
2598.10353149,0.10315987
2600.03233887,0.10282211
2601.96114624,0.10274369
2603.88995361,0.10260822
2605.81876099,0.10241041
2607.74756836,0.10239507
2609.67637573,0.10207903
2611.60518311,0.10205558
2613.53399048,0.10189339
2615.46279785,0.10184219
2617.39160522,0.10171410
2619.32041260,0.10141548
2621.24921997,0.10148155
2623.17802734,0.10121205
2625.10683472,0.10101291
2627.03564209,0.10099664
2628.96444946,0.10078731
2630.89325684,0.10060091
2632.82206421,0.10062002
2634.75087158,0.10047262
2636.67967895,0.10014012
2638.60848633,0.10009379
2640.53729370,0.10001742
2642.46610107,0.09984168
2644.39490845,0.09959004
2646.32371582,0.09947194
2648.25252319,0.09935927
2650.18133057,0.09918693
2652.11013794,0.09913302
2654.03894531,0.09892021
2655.96775269,0.09884115
2657.89656006,0.09874704
2659.82536743,0.09862395
2661.75417480,0.09850815
2663.68298218,0.09832308
2665.61178955,0.09817225
2667.54059692,0.09792849
2669.46940430,0.09787200
2671.39821167,0.09776187
2673.32701904,0.09763421
2675.25582642,0.09756811
2677.18463379,0.09731488
2679.11344116,0.09713650
2681.04224854,0.09707272
2682.97105591,0.09695569
2684.89986328,0.09674655
2686.82867065,0.09661306
2688.75747803,0.09643164
2690.68628540,0.09626462
2692.61509277,0.09615570
2694.54390015,0.09600349
2696.47270752,0.09590763
2698.40151489,0.09574789
2700.33032227,0.09561393
2702.25912964,0.09548560
2704.18793701,0.09534258
2706.11674438,0.09517984
2708.04555176,0.09508345
2709.97435913,0.09497496
2711.90316650,0.09477912
2713.83197388,0.09474333
2715.76078125,0.09453755
2717.68958862,0.09433270
2719.61839600,0.09420890
2721.54720337,0.09404093
2723.47601074,0.09401534
2725.40481812,0.09382152
2727.33362549,0.09362342
2729.26243286,0.09345231
2731.19124023,0.09325682
2733.12004761,0.09324937
2735.04885498,0.09308223
2736.97766235,0.09283412
2738.90646973,0.09278110
2740.83527710,0.09263806
2742.76408447,0.09254225
2744.69289185,0.09242698
2746.62169922,0.09212777
2748.55050659,0.09212503
2750.47931396,0.09203710
2752.40812134,0.09177945
2754.33692871,0.09170423
2756.26573608,0.09159368
2758.19454346,0.09140753
2760.12335083,0.09107298
2762.05215820,0.09098829
2763.98096558,0.09098237
2765.90977295,0.09074719
2767.83858032,0.09066069
2769.76738770,0.09046087
2771.69619507,0.09023189
2773.62500244,0.09013391
2775.55380981,0.09003915
2777.48261719,0.08995175
2779.41142456,0.08967541
2781.34023193,0.08948517
2783.26903931,0.08940887
2785.19784668,0.08919495
2787.12665405,0.08911225
2789.05546143,0.08897893
2790.98426880,0.08878966
2792.91307617,0.08865094
2794.84188354,0.08837926
2796.77069092,0.08826976
2798.69949829,0.08816327
2800.62830566,0.08805721
2802.55711304,0.08794349
2804.48592041,0.08763674
2806.41472778,0.08746207
2808.34353516,0.08731678
2810.27234253,0.08718792
2812.20114990,0.08702708
2814.12995728,0.08687483
2816.05876465,0.08670504
2817.98757202,0.08650958
2819.91637939,0.08647177
2821.84518677,0.08624719
2823.77399414,0.08604243
2825.70280151,0.08593950
2827.63160889,0.08579345
2829.56041626,0.08553155
2831.48922363,0.08534247
2833.41803101,0.08526334
2835.34683838,0.08494870
2837.27564575,0.08482163
2839.20445312,0.08455725
2841.13326050,0.08430123
2843.06206787,0.08409942
2844.99087524,0.08359899
2846.91968262,0.08325721
2848.84848999,0.08276428
2850.77729736,0.08259629
2852.70610474,0.08256176
2854.63491211,0.08232214
2856.56371948,0.08232784
2858.49252686,0.08222505
2860.42133423,0.08216612
2862.35014160,0.08197522
2864.27894897,0.08177210
2866.20775635,0.08172697
2868.13656372,0.08156038
2870.06537109,0.08142038
2871.99417847,0.08134253
2873.92298584,0.08124119
2875.85179321,0.08105080
2877.78060059,0.08099805
2879.70940796,0.08087593
2881.63821533,0.08068436
2883.56702270,0.08061136
2885.49583008,0.08053795
2887.42463745,0.08042306
2889.35344482,0.08025243
2891.28225220,0.08010420
2893.21105957,0.07981038
2895.13986694,0.07966270
2897.06867432,0.07946061
2898.99748169,0.07915921
2900.92628906,0.07914315
2902.85509644,0.07901162
2904.78390381,0.07870206
2906.71271118,0.07837236
2908.64151855,0.07827310
2910.57032593,0.07794551
2912.49913330,0.07750118
2914.42794067,0.07725341
2916.35674805,0.07678269
2918.28555542,0.07662292
2920.21436279,0.07650179
2922.14317017,0.07631946
2924.07197754,0.07625137
2926.00078491,0.07600116
2927.92959229,0.07590206
2929.85839966,0.07594422
2931.78720703,0.07596501
2933.71601440,0.07590629
2935.64482178,0.07586458
2937.57362915,0.07583351
2939.50243652,0.07586703
2941.43124390,0.07583363
2943.36005127,0.07572699
2945.28885864,0.07572991
2947.21766602,0.07555956
2949.14647339,0.07550623
2951.07528076,0.07540057
2953.00408813,0.07511785
2954.93289551,0.07493469
2956.86170288,0.07479683
2958.79051025,0.07459666
2960.71931763,0.07419689
2962.64812500,0.07406551
2964.57693237,0.07401581
2966.50573975,0.07389510
2968.43454712,0.07390658
2970.36335449,0.07393044
2972.29216187,0.07399996
2974.22096924,0.07404906
2976.14977661,0.07411781
2978.07858398,0.07400750
2980.00739136,0.07397329
2981.93619873,0.07404405
2983.86500610,0.07401986
2985.79381348,0.07397516
2987.72262085,0.07379180
2989.65142822,0.07376888
2991.58023560,0.07364871
2993.50904297,0.07347842
2995.43785034,0.07339679
2997.36665771,0.07324269
2999.29546509,0.07327865
3001.22427246,0.07316840
3003.15307983,0.07293952
3005.08188721,0.07282519
3007.01069458,0.07263486
3008.93950195,0.07242905
3010.86830933,0.07225104
3012.79711670,0.07206573
3014.72592407,0.07202085
3016.65473145,0.07192107
3018.58353882,0.07176991
3020.51234619,0.07181858
3022.44115356,0.07164957
3024.36996094,0.07130878
3026.29876831,0.07109526
3028.22757568,0.07106744
3030.15638306,0.07087303
3032.08519043,0.07053697
3034.01399780,0.07049288
3035.94280518,0.07041449
3037.87161255,0.07037763
3039.80041992,0.07014853
3041.72922729,0.06998201
3043.65803467,0.06997571
3045.58684204,0.06969714
3047.51564941,0.06965609
3049.44445679,0.06946613
3051.37326416,0.06935026
3053.30207153,0.06929565
3055.23087891,0.06899349
3057.15968628,0.06893826
3059.08849365,0.06884097
3061.01730103,0.06876105
3062.94610840,0.06852548
3064.87491577,0.06830402
3066.80372314,0.06823422
3068.73253052,0.06812653
3070.66133789,0.06817260
3072.59014526,0.06799844
3074.51895264,0.06784844
3076.44776001,0.06766014
3078.37656738,0.06738643
3080.30537476,0.06741960
3082.23418213,0.06729913
3084.16298950,0.06713865
3086.09179687,0.06714854
3088.02060425,0.06696100
3089.94941162,0.06681691
3091.87821899,0.06672902
3093.80702637,0.06646800
3095.73583374,0.06631441
3097.66464111,0.06617156
3099.59344849,0.06609575
3101.52225586,0.06594077
3103.45106323,0.06578565
3105.37987061,0.06581605
3107.30867798,0.06545146
3109.23748535,0.06531698
3111.16629272,0.06532727
3113.09510010,0.06499013
3115.02390747,0.06483072
3116.95271484,0.06463639
3118.88152222,0.06446394
3120.81032959,0.06442097
3122.73913696,0.06425485
3124.66794434,0.06405412
3126.59675171,0.06401341
3128.52555908,0.06390920
3130.45436645,0.06367870
3132.38317383,0.06341670
3134.31198120,0.06325002
3136.24078857,0.06329322
3138.16959595,0.06306661
3140.09840332,0.06285316
3142.02721069,0.06275664
3143.95601807,0.06260683
3145.88482544,0.06244267
3147.81363281,0.06220714
3149.74244019,0.06205023
3151.67124756,0.06177442
3153.60005493,0.06174314
3155.52886230,0.06164902
3157.45766968,0.06140704
3159.38647705,0.06130178
3161.31528442,0.06109615
3163.24409180,0.06102975
3165.17289917,0.06074163
3167.10170654,0.06056439
3169.03051392,0.06049545
3170.95932129,0.06024598
3172.88812866,0.06005958
3174.81693604,0.05995128
3176.74574341,0.05989444
3178.67455078,0.05953067
3180.60335815,0.05945618
3182.53216553,0.05940583
3184.46097290,0.05914785
3186.38978027,0.05908908
3188.31858765,0.05899050
3190.24739502,0.05882527
3192.17620239,0.05855386
3194.10500977,0.05861867
3196.03381714,0.05838360
3197.96262451,0.05803615
3199.89143188,0.05810710
3201.82023926,0.05798973
3203.74904663,0.05791064
3205.67785400,0.05767194
3207.60666138,0.05751040
3209.53546875,0.05740048
3211.46427612,0.05724528
3213.39308350,0.05721121
3215.32189087,0.05712552
3217.25069824,0.05703606
3219.17950562,0.05676588
3221.10831299,0.05667968
3223.03712036,0.05664185
3224.96592773,0.05660553
3226.89473511,0.05649109
3228.82354248,0.05626982
3230.75234985,0.05629547
3232.68115723,0.05613656
3234.60996460,0.05596516
3236.53877197,0.05589582
3238.46757935,0.05584218
3240.39638672,0.05583577
3242.32519409,0.05580928
3244.25400146,0.05554693
3246.18280884,0.05538047
3248.11161621,0.05547531
3250.04042358,0.05536620
3251.96923096,0.05544600
3253.89803833,0.05522367
3255.82684570,0.05508200
3257.75565308,0.05520557
3259.68446045,0.05488929
3261.61326782,0.05484966
3263.54207520,0.05489420
3265.47088257,0.05487294
3267.39968994,0.05478001
3269.32849731,0.05467764
3271.25730469,0.05458228
3273.18611206,0.05454059
3275.11491943,0.05450534
3277.04372681,0.05418759
3278.97253418,0.05433647
3280.90134155,0.05435548
3282.83014893,0.05419127
3284.75895630,0.05418920
3286.68776367,0.05407140
3288.61657104,0.05407193
3290.54537842,0.05387181
3292.47418579,0.05376895
3294.40299316,0.05371680
3296.33180054,0.05364172
3298.26060791,0.05357500
3300.18941528,0.05352028
3302.11822266,0.05348303
3304.04703003,0.05335595
3305.97583740,0.05330905
3307.90464478,0.05308096
3309.83345215,0.05309556
3311.76225952,0.05311441
3313.69106689,0.05305288
3315.61987427,0.05308147
3317.54868164,0.05293043
3319.47748901,0.05284855
3321.40629639,0.05278257
3323.33510376,0.05282836
3325.26391113,0.05257706
3327.19271851,0.05249255
3329.12152588,0.05256720
3331.05033325,0.05237899
3332.97914062,0.05243048
3334.90794800,0.05224136
3336.83675537,0.05198405
3338.76556274,0.05193623
3340.69437012,0.05201023
3342.62317749,0.05191764
3344.55198486,0.05182239
3346.48079224,0.05183255
3348.40959961,0.05165402
3350.33840698,0.05158980
3352.26721436,0.05153728
3354.19602173,0.05144003
3356.12482910,0.05113299
3358.05363647,0.05117549
3359.98244385,0.05112528
3361.91125122,0.05093781
3363.84005859,0.05106049
3365.76886597,0.05067905
3367.69767334,0.05062509
3369.62648071,0.05060161
3371.55528809,0.05059328
3373.48409546,0.05055942
3375.41290283,0.05033737
3377.34171020,0.05039690
3379.27051758,0.05018235
3381.19932495,0.05016809
3383.12813232,0.04990518
3385.05693970,0.04985466
3386.98574707,0.04987418
3388.91455444,0.04972616
3390.84336182,0.04967035
3392.77216919,0.04923259
3394.70097656,0.04942698
3396.62978394,0.04922057
3398.55859131,0.04906008
3400.48739868,0.04913904
3402.41620605,0.04888025
3404.34501343,0.04894711
3406.27382080,0.04881956
3408.20262817,0.04884228
3410.13143555,0.04866264
3412.06024292,0.04865075
3413.98905029,0.04850819
3415.91785767,0.04844142
3417.84666504,0.04845166
3419.77547241,0.04793143
3421.70427979,0.04796107
3423.63308716,0.04793193
3425.56189453,0.04813117
3427.49070190,0.04782072
3429.41950928,0.04767098
3431.34831665,0.04782792
3433.27712402,0.04742531
3435.20593140,0.04762479
3437.13473877,0.04716195
3439.06354614,0.04733914
3440.99235352,0.04728444
3442.92116089,0.04680957
3444.84996826,0.04715249
3446.77877563,0.04652462
3448.70758301,0.04668909
3450.63639038,0.04704572
3452.56519775,0.04682630
3454.49400513,0.04677985
3456.42281250,0.04667595
3458.35161987,0.04670358
3460.28042725,0.04649553
3462.20923462,0.04629509
3464.13804199,0.04628404
3466.06684937,0.04636909
3467.99565674,0.04614159
3469.92446411,0.04631045
3471.85327148,0.04632038
3473.78207886,0.04606202
3475.71088623,0.04606593
3477.63969360,0.04599820
3479.56850098,0.04607091
3481.49730835,0.04543830
3483.42611572,0.04561006
3485.35492310,0.04587851
3487.28373047,0.04545644
3489.21253784,0.04559575
3491.14134521,0.04566855
3493.07015259,0.04582727
3494.99895996,0.04555891
3496.92776733,0.04546249
3498.85657471,0.04560781
3500.78538208,0.04565269
3502.71418945,0.04487748
3504.64299683,0.04465000
3506.57180420,0.04574531
3508.50061157,0.04504806
3510.42941895,0.04493033
3512.35822632,0.04538325
3514.28703369,0.04532675
3516.21584106,0.04552139
3518.14464844,0.04515287
3520.07345581,0.04539020
3522.00226318,0.04489406
3523.93107056,0.04431992
3525.85987793,0.04455465
3527.78868530,0.04450163
3529.71749268,0.04454368
3531.64630005,0.04495199
3533.57510742,0.04531737
3535.50391479,0.04478374
3537.43272217,0.04467921
3539.36152954,0.04517556
3541.29033691,0.04517301
3543.21914429,0.04468152
3545.14795166,0.04358300
3547.07675903,0.04298579
3549.00556641,0.04449505
3550.93437378,0.04487830
3552.86318115,0.04375210
3554.79198853,0.04465140
3556.72079590,0.04489826
3558.64960327,0.04473151
3560.57841064,0.04426423
3562.50721802,0.04402544
3564.43602539,0.04449829
3566.36483276,0.04131179
3568.29364014,0.04018968
3570.22244751,0.04361699
3572.15125488,0.04494159
3574.08006226,0.04431937
3576.00886963,0.04445487
3577.93767700,0.04436702
3579.86648437,0.04415850
3581.79529175,0.04421356
3583.72409912,0.04429993
3585.65290649,0.04340719
3587.58171387,0.03974757
3589.51052124,0.04097067
3591.43932861,0.04472850
3593.36813599,0.04321907
3595.29694336,0.04249519
3597.22575073,0.04327067
3599.15455811,0.04359382
3601.08336548,0.04321545
3603.01217285,0.04359365
3604.94098022,0.04450034
3606.86978760,0.04285595
3608.79859497,0.04023248
3610.72740234,0.04117152
3612.65620972,0.04216988
3614.58501709,0.04094457
3616.51382446,0.04394057
3618.44263184,0.04052531
3620.37143921,0.03902137
3622.30024658,0.04420481
3624.22905395,0.04294897
3626.15786133,0.04505760
3628.08666870,0.03801352
3630.01547607,0.03434290
3631.94428345,0.04367507
3633.87309082,0.04255529
3635.80189819,0.04323240
3637.73070557,0.04407626
3639.65951294,0.04341710
3641.58832031,0.04391111
3643.51712769,0.04322120
3645.44593506,0.04379628
3647.37474243,0.03915913
3649.30354980,0.03568535
3651.23235718,0.03615049
3653.16116455,0.04320721
3655.08997192,0.04275787
3657.01877930,0.03810272
3658.94758667,0.04409613
3660.87639404,0.04311028
3662.80520142,0.04371982
3664.73400879,0.04359748
3666.66281616,0.04303636
3668.59162354,0.04188944
3670.52043091,0.03384028
3672.44923828,0.04113661
3674.37804565,0.03927740
3676.30685303,0.03226455
3678.23566040,0.04092256
3680.16446777,0.04188476
3682.09327515,0.04187912
3684.02208252,0.04316550
3685.95088989,0.04247767
3687.87969727,0.03819419
3689.80850464,0.03495339
3691.73731201,0.04000666
3693.66611938,0.04115789
3695.59492676,0.04225120
3697.52373413,0.04232688
3699.45254150,0.04180299
3701.38134888,0.04068743
3703.31015625,0.03901710
3705.23896362,0.04297794
3707.16777100,0.04095738
3709.09657837,0.03999800
3711.02538574,0.03754906
3712.95419312,0.03497004
3714.88300049,0.04128451
3716.81180786,0.04078912
3718.74061523,0.04095339
3720.66942261,0.04012204
3722.59822998,0.03880864
3724.52703735,0.04021103
3726.45584473,0.03715930
3728.38465210,0.04031790
3730.31345947,0.03991871
3732.24226685,0.03670288
3734.17107422,0.03571494
3736.09988159,0.03379187
3738.02868896,0.03596647
3739.95749634,0.03901379
3741.88630371,0.04097687
3743.81511108,0.03172179
3745.74391846,0.02959823
3747.67272583,0.03879496
3749.60153320,0.03335061
3751.53034058,0.03059292
3753.45914795,0.03535943
3755.38795532,0.03812518
3757.31676270,0.03972479
3759.24557007,0.03657819
3761.17437744,0.03790480
3763.10318481,0.04040073
3765.03199219,0.03755289
3766.96079956,0.03844027
3768.88960693,0.03797307
3770.81841431,0.03620338
3772.74722168,0.03927358
3774.67602905,0.03926820
3776.60483643,0.03940663
3778.53364380,0.03821950
3780.46245117,0.03662326
3782.39125854,0.03921874
3784.32006592,0.03822989
3786.24887329,0.03801560
3788.17768066,0.03881138
3790.10648804,0.03866248
3792.03529541,0.03843265
3793.96410278,0.03903351
3795.89291016,0.03680175
3797.82171753,0.03607263
3799.75052490,0.03811105
3801.67933228,0.03009023
3803.60813965,0.03516234
3805.53694702,0.03843229
3807.46575439,0.03115385
3809.39456177,0.03813060
3811.32336914,0.03736425
3813.25217651,0.03850644
3815.18098389,0.03484816
3817.10979126,0.03026760
3819.03859863,0.03852155
3820.96740601,0.03104731
3822.89621338,0.03264865
3824.82502075,0.03829147
3826.75382812,0.03449178
3828.68263550,0.03727928
3830.61144287,0.03574611
3832.54025024,0.03459517
3834.46905762,0.03528802
3836.39786499,0.03348655
3838.32667236,0.03025241
3840.25547974,0.03268237
3842.18428711,0.03542105
3844.11309448,0.03374476
3846.04190186,0.03655536
3847.97070923,0.03602090
3849.89951660,0.03613874
3851.82832397,0.03252000
3853.75713135,0.02401623
3855.68593872,0.02862593
3857.61474609,0.03620990
3859.54355347,0.03515945
3861.47236084,0.03468578
3863.40116821,0.03403485
3865.32997559,0.03148879
3867.25878296,0.03526442
3869.18759033,0.03234218
3871.11639770,0.02964042
3873.04520508,0.03531382
3874.97401245,0.03242079
3876.90281982,0.03501147
3878.83162720,0.03593392
3880.76043457,0.03053008
3882.68924194,0.03511231
3884.61804932,0.03296820
3886.54685669,0.03006684
3888.47566406,0.03533570
3890.40447144,0.03346484
3892.33327881,0.03121005
3894.26208618,0.03439512
3896.19089355,0.03503479
3898.11970093,0.03328319
3900.04850830,0.03143404
3901.97731567,0.03100144
3903.90612305,0.03075069
3905.83493042,0.03124490
3907.76373779,0.03430285
3909.69254517,0.03433140
3911.62135254,0.03396344
3913.55015991,0.03452660
3915.47896728,0.03328849
3917.40777466,0.03245343
3919.33658203,0.03221489
3921.26538940,0.03342852
3923.19419678,0.03323717
3925.12300415,0.03257988
3927.05181152,0.03321870
3928.98061890,0.03348997
3930.90942627,0.03284596
3932.83823364,0.03169468
3934.76704102,0.03304889
3936.69584839,0.03337492
3938.62465576,0.03301012
3940.55346313,0.03331949
3942.48227051,0.03197750
3944.41107788,0.03233436
3946.33988525,0.03294064
3948.26869263,0.03202779
3950.19750000,0.03202727
3952.12630737,0.03262872
3954.05511475,0.03262623
3955.98392212,0.03259567
3957.91272949,0.03247731
3959.84153687,0.03235663
3961.77034424,0.03228143
3963.69915161,0.03211806
3965.62795898,0.03245588
3967.55676636,0.03217598
3969.48557373,0.03208327
3971.41438110,0.03203714
3973.34318848,0.03183893
3975.27199585,0.03185217
3977.20080322,0.03165344
3979.12961060,0.03195924
3981.05841797,0.03162162
3982.98722534,0.03162190
3984.91603271,0.03172152
3986.84484009,0.03159711
3988.77364746,0.03161600
3990.70245483,0.03119681
3992.63126221,0.03142002
3994.56006958,0.03128898
3996.48887695,0.03133778
3998.41768433,0.03124210
4000.34649170,0.03104066
4002.27529907,0.03119741
4004.20410645,0.03092929
4006.13291382,0.03108785
4008.06172119,0.03080262
4009.99052856,0.03077500
4011.91933594,0.03085986
4013.84814331,0.03064413
4015.77695068,0.03061562
4017.70575806,0.03047778
4019.63456543,0.03051433
4021.56337280,0.03041324
4023.49218018,0.03051110
4025.42098755,0.03021678
4027.34979492,0.03020419
4029.27860229,0.03029362
4031.20740967,0.03006119
4033.13621704,0.03018308
4035.06502441,0.02989255
4036.99383179,0.02994040
4038.92263916,0.02993732
4040.85144653,0.02983126
4042.78025391,0.02978469
4044.70906128,0.02964861
4046.63786865,0.02966318
4048.56667603,0.02954637
4050.49548340,0.02958595
4052.42429077,0.02949065
4054.35309814,0.02954267
4056.28190552,0.02933688
4058.21071289,0.02926277
4060.13952026,0.02931539
4062.06832764,0.02909889
4063.99713501,0.02916574
4065.92594238,0.02895479
4067.85474976,0.02899432
4069.78355713,0.02891681
4071.71236450,0.02886396
4073.64117187,0.02884647
4075.56997925,0.02864277
4077.49878662,0.02872652
4079.42759399,0.02857313
4081.35640137,0.02859526
4083.28520874,0.02846746
4085.21401611,0.02840849
4087.14282349,0.02837071
4089.07163086,0.02830105
4091.00043823,0.02833035
4092.92924561,0.02808968
4094.85805298,0.02811671
4096.78686035,0.02811197
4098.71566772,0.02819879
4100.64447510,0.02795055
4102.57328247,0.02786493
4104.50208984,0.02799511
4106.43089722,0.02778956
4108.35970459,0.02783589
4110.28851196,0.02760961
4112.21731934,0.02761532
4114.14612671,0.02761322
4116.07493408,0.02762300
4118.00374145,0.02756220
4119.93254883,0.02735741
4121.86135620,0.02740709
4123.79016357,0.02714528
4125.71897095,0.02723593
4127.64777832,0.02715350
4129.57658569,0.02708560
4131.50539307,0.02706304
4133.43420044,0.02691142
4135.36300781,0.02701247
4137.29181519,0.02678474
4139.22062256,0.02679189
4141.14942993,0.02675757
4143.07823730,0.02680829
4145.00704468,0.02669141
4146.93585205,0.02652393
4148.86465942,0.02662273
4150.79346680,0.02640460
4152.72227417,0.02641145
4154.65108154,0.02630027
4156.57988892,0.02629189
4158.50869629,0.02619903
4160.43750366,0.02613867
4162.36631103,0.02617585
4164.29511841,0.02595301
4166.22392578,0.02607165
4168.15273315,0.02600357
4170.08154053,0.02594766
4172.01034790,0.02582264
4173.93915527,0.02577486
4175.86796265,0.02580414
4177.79677002,0.02564134
4179.72557739,0.02563305
4181.65438477,0.02552049
4183.58319214,0.02552767
4185.51199951,0.02537427
4187.44080688,0.02538607
4189.36961426,0.02539128
4191.29842163,0.02530229
4193.22722900,0.02528952
4195.15603638,0.02506675
4197.08484375,0.02514295
4199.01365112,0.02504217
4200.94245850,0.02503646
4202.87126587,0.02500798
4204.80007324,0.02490262
4206.72888062,0.02491182
4208.65768799,0.02480735
4210.58649536,0.02482848
4212.51530273,0.02464869
4214.44411011,0.02467974
4216.37291748,0.02452970
4218.30172485,0.02448419
4220.23053223,0.02459397
4222.15933960,0.02439626
4224.08814697,0.02442513
4226.01695435,0.02429970
4227.94576172,0.02432742
4229.87456909,0.02425985
4231.80337646,0.02417241
4233.73218384,0.02414941
4235.66099121,0.02403980
4237.58979858,0.02409552
4239.51860596,0.02395547
4241.44741333,0.02391197
4243.37622070,0.02380705
4245.30502808,0.02380973
4247.23383545,0.02377386
4249.16264282,0.02374101
4251.09145020,0.02374822
4253.02025757,0.02357380
4254.94906494,0.02369481
4256.87787231,0.02357182
4258.80667969,0.02350925
4260.73548706,0.02347988
4262.66429443,0.02338629
4264.59310181,0.02334874
4266.52190918,0.02320854
4268.45071655,0.02327402
4270.37952393,0.02318782
4272.30833130,0.02316217
4274.23713867,0.02307990
4276.16594604,0.02302801
4278.09475342,0.02300221
4280.02356079,0.02291699
4281.95236816,0.02288166
4283.88117554,0.02271765
4285.80998291,0.02275132
4287.73879028,0.02269447
4289.66759766,0.02279747
4291.59640503,0.02269820
4293.52521240,0.02250873
4295.45401978,0.02253849
4297.38282715,0.02234396
4299.31163452,0.02244066
4301.24044189,0.02240201
4303.16924927,0.02237819
4305.09805664,0.02232789
4307.02686401,0.02219475
4308.95567139,0.02221633
4310.88447876,0.02212267
4312.81328613,0.02211581
4314.74209351,0.02202331
4316.67090088,0.02202469
4318.59970825,0.02186237
4320.52851562,0.02183431
4322.45732300,0.02189268
4324.38613037,0.02167876
4326.31493774,0.02166267
4328.24374512,0.02165162
4330.17255249,0.02168247
4332.10135986,0.02156472
4334.03016724,0.02158935
4335.95897461,0.02153671
4337.88778198,0.02137550
4339.81658936,0.02139477
4341.74539673,0.02132796
4343.67420410,0.02142792
4345.60301147,0.02127151
4347.53181885,0.02126103
4349.46062622,0.02124442
4351.38943359,0.02115384
4353.31824097,0.02118811
4355.24704834,0.02098681
4357.17585571,0.02104302
4359.10466309,0.02096728
4361.03347046,0.02094194
4362.96227783,0.02090473
4364.89108520,0.02083516
4366.81989258,0.02090507
4368.74869995,0.02073602
4370.67750732,0.02067641
4372.60631470,0.02057933
4374.53512207,0.02055405
4376.46392944,0.02053386
4378.39273682,0.02048080
4380.32154419,0.02041258
4382.25035156,0.02038420
4384.17915894,0.02038707
4386.10796631,0.02027352
4388.03677368,0.02035642
4389.96558105,0.02018482
4391.89438843,0.02011594
4393.82319580,0.02018356
4395.75200317,0.02014863
4397.68081055,0.02012875
4399.60961792,0.01998064
4401.53842529,0.01997606
4403.46723267,0.01988719
4405.39604004,0.01988324
4407.32484741,0.01977330
4409.25365478,0.01971578
4411.18246216,0.01975254
4413.11126953,0.01969014
4415.04007690,0.01971613
4416.96888428,0.01951933
4418.89769165,0.01955633
4420.82649902,0.01946577
4422.75530640,0.01937791
4424.68411377,0.01941289
4426.61292114,0.01938580
4428.54172852,0.01947325
4430.47053589,0.01920433
4432.39934326,0.01922604
4434.32815063,0.01922396
4436.25695801,0.01911929
4438.18576538,0.01913537
4440.11457275,0.01899548
4442.04338013,0.01906310
4443.97218750,0.01906727
4445.90099487,0.01897633
4447.82980225,0.01883651
4449.75860962,0.01884099
4451.68741699,0.01878043
4453.61622437,0.01874423
4455.54503174,0.01877449
4457.47383911,0.01866926
4459.40264648,0.01874255
4461.33145386,0.01861600
4463.26026123,0.01860163
4465.18906860,0.01854954
4467.11787598,0.01842568
4469.04668335,0.01839844
4470.97549072,0.01829746
4472.90429810,0.01833856
4474.83310547,0.01823477
4476.76191284,0.01825387
4478.69072021,0.01819745
4480.61952759,0.01817282
4482.54833496,0.01814288
4484.47714233,0.01801077
4486.40594971,0.01809717
4488.33475708,0.01794808
4490.26356445,0.01790033
4492.19237183,0.01786342
4494.12117920,0.01787192
4496.04998657,0.01785302
4497.97879395,0.01776764
4499.90760132,0.01779479
4501.83640869,0.01762350
4503.76521606,0.01770393
4505.69402344,0.01764353
4507.62283081,0.01755781
4509.55163818,0.01756301
4511.48044556,0.01742475
4513.40925293,0.01745959
4515.33806030,0.01734152
4517.26686768,0.01727186
4519.19567505,0.01730953
4521.12448242,0.01728476
4523.05328979,0.01722012
4524.98209717,0.01722165
4526.91090454,0.01712693
4528.83971191,0.01705643
4530.76851929,0.01716866
4532.69732666,0.01704906
4534.62613403,0.01701744
4536.55494141,0.01700242
4538.48374878,0.01696141
4540.41255615,0.01691603
4542.34136353,0.01682565
4544.27017090,0.01679833
4546.19897827,0.01673920
4548.12778564,0.01679031
4550.05659302,0.01669730
4551.98540039,0.01664584
4553.91420776,0.01661395
4555.84301514,0.01654521
4557.77182251,0.01652950
4559.70062988,0.01647108
4561.62943726,0.01649004
4563.55824463,0.01647797
4565.48705200,0.01650059
4567.41585937,0.01636370
4569.34466675,0.01632818
4571.27347412,0.01625088
4573.20228149,0.01619137
4575.13108887,0.01629763
4577.05989624,0.01612561
4578.98870361,0.01615877
4580.91751099,0.01601684
4582.84631836,0.01595641
4584.77512573,0.01605642
4586.70393311,0.01593466
4588.63274048,0.01598109
4590.56154785,0.01592718
4592.49035522,0.01591605
4594.41916260,0.01582878
4596.34796997,0.01582399
4598.27677734,0.01574228
4600.20558472,0.01565674
4602.13439209,0.01577694
4604.06319946,0.01559685
4605.99200684,0.01561562
4607.92081421,0.01554409
4609.84962158,0.01545289
4611.77842895,0.01549634
4613.70723633,0.01544181
4615.63604370,0.01544283
4617.56485107,0.01528485
4619.49365845,0.01528720
4621.42246582,0.01530851
4623.35127319,0.01524996
4625.28008057,0.01519942
4627.20888794,0.01516515
4629.13769531,0.01511795
4631.06650269,0.01508574
4632.99531006,0.01512507
4634.92411743,0.01505525
4636.85292480,0.01504085
4638.78173218,0.01490397
4640.71053955,0.01495442
4642.63934692,0.01494510
4644.56815430,0.01482323
4646.49696167,0.01490383
4648.42576904,0.01472505
4650.35457642,0.01478692
4652.28338379,0.01475345
4654.21219116,0.01463542
4656.14099853,0.01467605
4658.06980591,0.01459789
4659.99861328,0.01467467
4661.92742065,0.01457603
4663.85622803,0.01450680
4665.78503540,0.01445693
4667.71384277,0.01440287
4669.64265015,0.01446394
4671.57145752,0.01437257
4673.50026489,0.01432203
4675.42907227,0.01430914
4677.35787964,0.01424506
4679.28668701,0.01420373
4681.21549438,0.01425269
4683.14430176,0.01416583
4685.07310913,0.01409931
4687.00191650,0.01414116
4688.93072388,0.01409702
4690.85953125,0.01408895
4692.78833862,0.01404808
4694.71714600,0.01402592
4696.64595337,0.01401042
4698.57476074,0.01398464
4700.50356812,0.01389963
4702.43237549,0.01389567
4704.36118286,0.01392076
4706.28999023,0.01380482
4708.21879761,0.01373367
4710.14760498,0.01368996
4712.07641235,0.01376634
4714.00521973,0.01370271
4715.93402710,0.01362745
4717.86283447,0.01361672
4719.79164185,0.01356457
4721.72044922,0.01359135
4723.64925659,0.01345853
4725.57806396,0.01351518
4727.50687134,0.01351743
4729.43567871,0.01341805
4731.36448608,0.01346762
4733.29329346,0.01334045
4735.22210083,0.01326726
4737.15090820,0.01332784
4739.07971558,0.01333974
4741.00852295,0.01321224
4742.93733032,0.01319332
4744.86613770,0.01320799
4746.79494507,0.01310965
4748.72375244,0.01304131
4750.65255981,0.01307963
4752.58136719,0.01313993
4754.51017456,0.01301380
4756.43898193,0.01302330
4758.36778931,0.01300094
4760.29659668,0.01293655
4762.22540405,0.01289164
4764.15421143,0.01286404
4766.08301880,0.01293589
4768.01182617,0.01278780
4769.94063354,0.01282032
4771.86944092,0.01277892
4773.79824829,0.01269697
4775.72705566,0.01275146
4777.65586304,0.01260764
4779.58467041,0.01261908
4781.51347778,0.01263014
4783.44228516,0.01258931
4785.37109253,0.01248239
4787.29989990,0.01246775
4789.22870728,0.01252527
4791.15751465,0.01247225
4793.08632202,0.01250692
4795.01512939,0.01242290
4796.94393677,0.01235751
4798.87274414,0.01225810
4800.80155151,0.01220783
4802.73035889,0.01230325
4804.65916626,0.01229384
4806.58797363,0.01222951
4808.51678101,0.01212337
4810.44558838,0.01210142
4812.37439575,0.01213551
4814.30320312,0.01215662
4816.23201050,0.01211498
4818.16081787,0.01206109
4820.08962524,0.01199841
4822.01843262,0.01200017
4823.94723999,0.01203660
4825.87604736,0.01194816
4827.80485474,0.01190763
4829.73366211,0.01189969
4831.66246948,0.01196804
4833.59127686,0.01187314
4835.52008423,0.01179462
4837.44889160,0.01179627
4839.37769897,0.01170948
4841.30650635,0.01177889
4843.23531372,0.01166004
4845.16412109,0.01169056
4847.09292847,0.01173187
4849.02173584,0.01158702
4850.95054321,0.01161184
4852.87935059,0.01160279
4854.80815796,0.01156034
4856.73696533,0.01144981
4858.66577270,0.01151790
4860.59458008,0.01143223
4862.52338745,0.01134742
4864.45219482,0.01143940
4866.38100220,0.01130489
4868.30980957,0.01134206
4870.23861694,0.01126559
4872.16742432,0.01120501
4874.09623169,0.01127886
4876.02503906,0.01125254
4877.95384644,0.01121903
4879.88265381,0.01114263
4881.81146118,0.01119021
4883.74026855,0.01115526
4885.66907593,0.01108037
4887.59788330,0.01103723
4889.52669067,0.01102477
4891.45549805,0.01102181
4893.38430542,0.01098505
4895.31311279,0.01098074
4897.24192017,0.01096235
4899.17072754,0.01095331
4901.09953491,0.01083638
4903.02834228,0.01084611
4904.95714966,0.01085042
4906.88595703,0.01079258
4908.81476440,0.01073854
4910.74357178,0.01065523
4912.67237915,0.01075733
4914.60118652,0.01068588
4916.52999390,0.01063069
4918.45880127,0.01069471
4920.38760864,0.01068696
4922.31641602,0.01060363
4924.24522339,0.01052475
4926.17403076,0.01053827
4928.10283813,0.01047581
4930.03164551,0.01049158
4931.96045288,0.01043753
4933.88926025,0.01048591
4935.81806763,0.01046241
4937.74687500,0.01033050
4939.67568237,0.01041933
4941.60448975,0.01033440
4943.53329712,0.01034488
4945.46210449,0.01027401
4947.39091187,0.01017113
4949.31971924,0.01021282
4951.24852661,0.01015632
4953.17733398,0.01020515
4955.10614136,0.01019849
4957.03494873,0.01017150
4958.96375610,0.01007977
4960.89256348,0.01003528
4962.82137085,0.01002850
4964.75017822,0.01001577
4966.67898560,0.01001655
4968.60779297,0.00987458
4970.53660034,0.00993033
4972.46540771,0.00991091
4974.39421509,0.00983550
4976.32302246,0.00992681
4978.25182983,0.00991338
4980.18063721,0.00979033
4982.10944458,0.00977430
4984.03825195,0.00986094
4985.96705933,0.00975206
4987.89586670,0.00974502
4989.82467407,0.00975244
4991.75348145,0.00965293
4993.68228882,0.00963064
4995.61109619,0.00960944
4997.53990356,0.00965114
4999.46871094,0.00956737
5001.39751831,0.00949576
5003.32632568,0.00951008
5005.25513306,0.00946036
5007.18394043,0.00946632
5009.11274780,0.00951451
5011.04155518,0.00944187
5012.97036255,0.00939415
5014.89916992,0.00946135
5016.82797729,0.00939868
5018.75678467,0.00935628
5020.68559204,0.00931802
5022.61439941,0.00930285
5024.54320679,0.00931664
5026.47201416,0.00927764
5028.40082153,0.00928132
5030.32962891,0.00919698
5032.25843628,0.00918252
5034.18724365,0.00917416
5036.11605103,0.00912816
5038.04485840,0.00910857
5039.97366577,0.00907781
5041.90247314,0.00908455
5043.83128052,0.00901639
5045.76008789,0.00897961
5047.68889526,0.00901473
5049.61770264,0.00904292
5051.54651001,0.00895792
5053.47531738,0.00892405
5055.40412476,0.00897860
5057.33293213,0.00895037
5059.26173950,0.00888618
5061.19054687,0.00881887
5063.11935425,0.00880988
5065.04816162,0.00876903
5066.97696899,0.00882321
5068.90577637,0.00874069
5070.83458374,0.00867630
5072.76339111,0.00878129
5074.69219849,0.00867027
5076.62100586,0.00868325
5078.54981323,0.00861962
5080.47862061,0.00862858
5082.40742798,0.00864614
5084.33623535,0.00850629
5086.26504272,0.00861059
5088.19385010,0.00853486
5090.12265747,0.00851654
5092.05146484,0.00852396
5093.98027222,0.00845708
5095.90907959,0.00848763
5097.83788696,0.00845676
5099.76669434,0.00851544
5101.69550171,0.00844088
5103.62430908,0.00836835
5105.55311645,0.00838371
5107.48192383,0.00833118
5109.41073120,0.00826143
5111.33953857,0.00828851
5113.26834595,0.00833616
5115.19715332,0.00826000
5117.12596069,0.00828834
5119.05476807,0.00824726
5120.98357544,0.00820584
5122.91238281,0.00824591
5124.84119019,0.00819000
5126.76999756,0.00812419
5128.69880493,0.00813590
5130.62761230,0.00816269
5132.55641968,0.00805363
5134.48522705,0.00801437
5136.41403442,0.00799958
5138.34284180,0.00804639
5140.27164917,0.00804256
5142.20045654,0.00786323
5144.12926392,0.00790958
5146.05807129,0.00798405
5147.98687866,0.00795155
5149.91568603,0.00791271
5151.84449341,0.00789493
5153.77330078,0.00785324
5155.70210815,0.00778037
5157.63091553,0.00778982
5159.55972290,0.00777809
5161.48853027,0.00775638
5163.41733765,0.00771561
5165.34614502,0.00771015
5167.27495239,0.00773744
5169.20375977,0.00771315
5171.13256714,0.00766733
5173.06137451,0.00763131
5174.99018188,0.00764787
5176.91898926,0.00767065
5178.84779663,0.00760152
5180.77660400,0.00758228
5182.70541138,0.00766200
5184.63421875,0.00751905
5186.56302612,0.00749023
5188.49183350,0.00751844
5190.42064087,0.00743398
5192.34944824,0.00754544
5194.27825562,0.00746380
5196.20706299,0.00737817
5198.13587036,0.00736421
5200.06467773,0.00737938
5201.99348511,0.00748425
5203.92229248,0.00736159
5205.85109985,0.00717787
5207.77990723,0.00712552
5209.70871460,0.00733225
5211.63752197,0.00737267
5213.56632935,0.00724813
5215.49513672,0.00725896
5217.42394409,0.00726879
5219.35275146,0.00731483
5221.28155884,0.00729386
5223.21036621,0.00725120
5225.13917358,0.00701903
5227.06798096,0.00701979
5228.99678833,0.00720110
5230.92559570,0.00708441
5232.85440308,0.00711437
5234.78321045,0.00712168
5236.71201782,0.00708411
5238.64082520,0.00704663
5240.56963257,0.00710418
5242.49843994,0.00710298
5244.42724731,0.00693499
5246.35605469,0.00703887
5248.28486206,0.00688815
5250.21366943,0.00681945
5252.14247681,0.00704730
5254.07128418,0.00688223
5256.00009155,0.00677369
5257.92889893,0.00688642
5259.85770630,0.00689059
5261.78651367,0.00682893
5263.71532104,0.00671424
5265.64412842,0.00670125
5267.57293579,0.00684684
5269.50174316,0.00678315
5271.43055054,0.00672225
5273.35935791,0.00676749
5275.28816528,0.00672063
5277.21697266,0.00673740
5279.14578003,0.00664812
5281.07458740,0.00665958
5283.00339478,0.00669605
5284.93220215,0.00657208
5286.86100952,0.00667574
5288.78981689,0.00666170
5290.71862427,0.00649601
5292.64743164,0.00654416
5294.57623901,0.00659773
5296.50504639,0.00661705
5298.43385376,0.00657409
5300.36266113,0.00649592
5302.29146851,0.00653322
5304.22027588,0.00653721
5306.14908325,0.00647813
5308.07789062,0.00636768
5310.00669800,0.00640732
5311.93550537,0.00651165
5313.86431274,0.00643549
5315.79312012,0.00641934
5317.72192749,0.00635148
5319.65073486,0.00635696
5321.57954224,0.00638291
5323.50834961,0.00637396
5325.43715698,0.00638744
5327.36596436,0.00620548
5329.29477173,0.00626016
5331.22357910,0.00628169
5333.15238647,0.00616927
5335.08119385,0.00624569
5337.01000122,0.00616772
5338.93880859,0.00596014
5340.86761597,0.00610996
5342.79642334,0.00623735
5344.72523071,0.00589328
5346.65403809,0.00603561
5348.58284546,0.00611938
5350.51165283,0.00598806
5352.44046020,0.00607796
5354.36926758,0.00586298
5356.29807495,0.00604399
5358.22688232,0.00610019
5360.15568970,0.00600178
5362.08449707,0.00598881
5364.01330444,0.00587416
5365.94211182,0.00605002
5367.87091919,0.00595219
5369.79972656,0.00596678
5371.72853394,0.00594657
5373.65734131,0.00586111
5375.58614868,0.00587244
5377.51495605,0.00576473
5379.44376343,0.00586954
5381.37257080,0.00584658
5383.30137817,0.00589300
5385.23018555,0.00574206
5387.15899292,0.00570178
5389.08780029,0.00591015
5391.01660767,0.00589160
5392.94541504,0.00583513
5394.87422241,0.00552785
5396.80302978,0.00564634
5398.73183716,0.00573591
5400.66064453,0.00567708
5402.58945190,0.00576011
5404.51825928,0.00555656
5406.44706665,0.00568878
5408.37587402,0.00567214
5410.30468140,0.00556495
5412.23348877,0.00556363
5414.16229614,0.00539392
5416.09110352,0.00547329
5418.01991089,0.00559048
5419.94871826,0.00559690
5421.87752563,0.00558064
5423.80633301,0.00559659
5425.73514038,0.00553406
5427.66394775,0.00546928
5429.59275513,0.00540355
5431.52156250,0.00542564
5433.45036987,0.00546666
5435.37917725,0.00532614
5437.30798462,0.00546064
5439.23679199,0.00544761
5441.16559936,0.00526604
5443.09440674,0.00536153
5445.02321411,0.00535427
5446.95202148,0.00525330
5448.88082886,0.00530196
5450.80963623,0.00537474
5452.73844360,0.00535008
5454.66725098,0.00532474
5456.59605835,0.00527102
5458.52486572,0.00533842
5460.45367310,0.00520643
5462.38248047,0.00506570
5464.31128784,0.00529145
5466.24009521,0.00527173
5468.16890259,0.00522120
5470.09770996,0.00515016
5472.02651733,0.00518290
5473.95532471,0.00520876
5475.88413208,0.00491755
5477.81293945,0.00506767
5479.74174683,0.00523197
5481.67055420,0.00517174
5483.59936157,0.00516546
5485.52816895,0.00508815
5487.45697632,0.00509014
5489.38578369,0.00509087
5491.31459106,0.00509668
5493.24339844,0.00500762
5495.17220581,0.00503522
5497.10101318,0.00509867
5499.02982056,0.00493899
5500.95862793,0.00501527
5502.88743530,0.00498297
5504.81624268,0.00488525
5506.74505005,0.00506285
5508.67385742,0.00493904
5510.60266479,0.00488114
5512.53147217,0.00495011
5514.46027954,0.00486373
5516.38908691,0.00496006
5518.31789429,0.00487648
5520.24670166,0.00484787
5522.17550903,0.00492897
5524.10431641,0.00480698
5526.03312378,0.00485576
5527.96193115,0.00486177
5529.89073853,0.00481270
5531.81954590,0.00480199
5533.74835327,0.00476647
5535.67716064,0.00480266
5537.60596802,0.00478619
5539.53477539,0.00470782
5541.46358276,0.00476647
5543.39239014,0.00485968
5545.32119751,0.00469166
5547.25000488,0.00466094
5549.17881226,0.00470682
5551.10761963,0.00464347
5553.03642700,0.00470110
5554.96523437,0.00467525
5556.89404175,0.00465702
5558.82284912,0.00462151
5560.75165649,0.00459852
5562.68046387,0.00465128
5564.60927124,0.00466515
5566.53807861,0.00465627
5568.46688599,0.00457028
5570.39569336,0.00455567
5572.32450073,0.00457217
5574.25330811,0.00452877
5576.18211548,0.00450510
5578.11092285,0.00455210
5580.03973022,0.00452066
5581.96853760,0.00449783
5583.89734497,0.00456041
5585.82615234,0.00447563
5587.75495972,0.00444082
5589.68376709,0.00444555
5591.61257446,0.00446047
5593.54138184,0.00443349
5595.47018921,0.00437139
5597.39899658,0.00439157
5599.32780395,0.00438474
5601.25661133,0.00447191
5603.18541870,0.00442251
5605.11422607,0.00432657
5607.04303345,0.00434546
5608.97184082,0.00438925
5610.90064819,0.00444999
5612.82945557,0.00437203
5614.75826294,0.00434274
5616.68707031,0.00433142
5618.61587769,0.00434060
5620.54468506,0.00434217
5622.47349243,0.00433552
5624.40229980,0.00432858
5626.33110718,0.00422820
5628.25991455,0.00425188
5630.18872192,0.00422592
5632.11752930,0.00422714
5634.04633667,0.00427185
5635.97514404,0.00420643
5637.90395142,0.00414339
5639.83275879,0.00414615
5641.76156616,0.00420165
5643.69037353,0.00414741
5645.61918091,0.00419763
5647.54798828,0.00420476
5649.47679565,0.00411309
5651.40560303,0.00412839
5653.33441040,0.00413914
5655.26321777,0.00410373
5657.19202515,0.00403494
5659.12083252,0.00410399
5661.04963989,0.00406075
5662.97844727,0.00404409
5664.90725464,0.00410184
5666.83606201,0.00405255
5668.76486938,0.00412588
5670.69367676,0.00405501
5672.62248413,0.00402413
5674.55129150,0.00402379
5676.48009888,0.00395152
5678.40890625,0.00400522
5680.33771362,0.00396692
5682.26652100,0.00395493
5684.19532837,0.00397932
5686.12413574,0.00394652
5688.05294311,0.00391894
5689.98175049,0.00393571
5691.91055786,0.00390035
5693.83936523,0.00387515
5695.76817261,0.00390205
5697.69697998,0.00382758
5699.62578735,0.00386822
5701.55459473,0.00383985
5703.48340210,0.00378268
5705.41220947,0.00386921
5707.34101685,0.00381765
5709.26982422,0.00382797
5711.19863159,0.00385020
5713.12743896,0.00375516
5715.05624634,0.00373970
5716.98505371,0.00375669
5718.91386108,0.00377532
5720.84266846,0.00375926
5722.77147583,0.00367467
5724.70028320,0.00366594
5726.62909058,0.00369583
5728.55789795,0.00371081
5730.48670532,0.00372593
5732.41551270,0.00368135
5734.34432007,0.00372912
5736.27312744,0.00374433
5738.20193481,0.00363306
5740.13074219,0.00362217
5742.05954956,0.00361289
5743.98835693,0.00360317
5745.91716431,0.00365742
5747.84597168,0.00361647
5749.77477905,0.00354322
5751.70358643,0.00357621
5753.63239380,0.00358923
5755.56120117,0.00358020
5757.49000854,0.00359633
5759.41881592,0.00355882
5761.34762329,0.00354968
5763.27643066,0.00353679
5765.20523804,0.00346012
5767.13404541,0.00345896
5769.06285278,0.00348623
5770.99166016,0.00346297
5772.92046753,0.00352561
5774.84927490,0.00346701
5776.77808228,0.00335446
5778.70688965,0.00349626
5780.63569702,0.00344605
5782.56450439,0.00333030
5784.49331177,0.00345795
5786.42211914,0.00344332
5788.35092651,0.00337471
5790.27973389,0.00337383
5792.20854126,0.00331849
5794.13734863,0.00331027
5796.06615601,0.00334890
5797.99496338,0.00336634
5799.92377075,0.00337445
5801.85257812,0.00336149
5803.78138550,0.00336382
5805.71019287,0.00331814
5807.63900024,0.00329784
5809.56780762,0.00332351
5811.49661499,0.00329948
5813.42542236,0.00334551
5815.35422974,0.00328412
5817.28303711,0.00322291
5819.21184448,0.00324913
5821.14065186,0.00326341
5823.06945923,0.00328422
5824.99826660,0.00319770
5826.92707397,0.00325182
5828.85588135,0.00320327
5830.78468872,0.00311520
5832.71349609,0.00321060
5834.64230347,0.00316443
5836.57111084,0.00315095
5838.49991821,0.00315173
5840.42872559,0.00315977
5842.35753296,0.00314738
5844.28634033,0.00312918
5846.21514770,0.00308349
5848.14395508,0.00303064
5850.07276245,0.00311944
5852.00156982,0.00304389
5853.93037720,0.00307382
5855.85918457,0.00313724
5857.78799194,0.00304225
5859.71679932,0.00303145
5861.64560669,0.00307830
5863.57441406,0.00308217
5865.50322144,0.00295456
5867.43202881,0.00302993
5869.36083618,0.00306045
5871.28964355,0.00299411
5873.21845093,0.00298226
5875.14725830,0.00292660
5877.07606567,0.00297695
5879.00487305,0.00292453
5880.93368042,0.00300191
5882.86248779,0.00299755
5884.79129517,0.00289034
5886.72010254,0.00298592
5888.64890991,0.00296429
5890.57771728,0.00293349
5892.50652466,0.00291941
5894.43533203,0.00295061
5896.36413940,0.00289323
5898.29294678,0.00286841
5900.22175415,0.00296708
5902.15056152,0.00290070
5904.07936890,0.00287092
5906.00817627,0.00289268
5907.93698364,0.00291497
5909.86579102,0.00283645
5911.79459839,0.00282762
5913.72340576,0.00288073
5915.65221313,0.00278152
5917.58102051,0.00277962
5919.50982788,0.00279447
5921.43863525,0.00282500
5923.36744263,0.00283671
5925.29625000,0.00278027
5927.22505737,0.00277245
5929.15386475,0.00274500
5931.08267212,0.00268935
5933.01147949,0.00274703
5934.94028686,0.00278904
5936.86909424,0.00268153
5938.79790161,0.00271217
5940.72670898,0.00274950
5942.65551636,0.00277592
5944.58432373,0.00277934
5946.51313110,0.00271283
5948.44193848,0.00270963
5950.37074585,0.00263903
5952.29955322,0.00266494
5954.22836060,0.00266626
5956.15716797,0.00266038
5958.08597534,0.00263818
5960.01478271,0.00262858
5961.94359009,0.00271984
5963.87239746,0.00261314
5965.80120483,0.00261936
5967.73001221,0.00261076
5969.65881958,0.00258507
5971.58762695,0.00260693
5973.51643433,0.00255646
5975.44524170,0.00258798
5977.37404907,0.00248999
5979.30285645,0.00258156
5981.23166382,0.00263233
5983.16047119,0.00256856
5985.08927856,0.00264141
5987.01808594,0.00254784
5988.94689331,0.00255044
5990.87570068,0.00256334
5992.80450806,0.00251766
5994.73331543,0.00249852
5996.66212280,0.00247907
5998.59093018,0.00249961
6000.51973755,0.00247053
