399.26312622,0.00035176
401.19193359,0.00025266
403.12074097,0.00006388
405.04954834,0.00027485
406.97835571,0.00040710
408.90716309,-0.00000160
410.83597046,-0.00003024
412.76477783,0.00014396
414.69358521,0.00018850
416.62239258,0.00015099
418.55119995,0.00001325
420.48000732,0.00016288
422.40881470,0.00011604
424.33762207,0.00019085
426.26642944,0.00016657
428.19523682,0.00003016
430.12404419,0.00028590
432.05285156,-0.00004375
433.98165894,-0.00014359
435.91046631,0.00022605
437.83927368,-0.00001387
439.76808105,0.00015929
441.69688843,0.00025413
443.62569580,0.00002791
445.55450317,0.00028075
447.48331055,0.00015045
449.41211792,0.00013595
451.34092529,0.00016319
453.26973267,-0.00012247
455.19854004,-0.00000867
457.12734741,0.00015642
459.05615479,0.00014292
460.98496216,-0.00002034
462.91376953,-0.00003217
464.84257690,-0.00005119
466.77138428,-0.00000092
468.70019165,0.00026191
470.62899902,0.00002884
472.55780640,-0.00004560
474.48661377,0.00031334
476.41542114,0.00020724
478.34422852,-0.00004468
480.27303589,0.00005444
482.20184326,0.00023718
484.13065063,0.00026262
486.05945801,0.00031715
487.98826538,0.00013308
489.91707275,0.00018116
491.84588013,0.00047788
493.77468750,0.00014308
495.70349487,0.00008441
497.63230225,0.00016531
499.56110962,0.00016171
501.48991699,0.00034780
503.41872437,0.00015293
505.34753174,0.00009654
507.27633911,0.00017341
509.20514648,0.00013830
511.13395386,0.00013293
513.06276123,0.00008668
514.99156860,0.00008675
516.92037598,0.00007551
518.84918335,0.00005972
520.77799072,0.00023606
522.70679810,0.00014912
524.63560547,-0.00009908
526.56441284,0.00015296
528.49322021,0.00023902
530.42202759,0.00020225
532.35083496,0.00008995
534.27964233,-0.00003229
536.20844971,0.00017246
538.13725708,0.00017507
540.06606445,0.00025333
541.99487183,0.00017697
543.92367920,-0.00006745
545.85248657,0.00006788
547.78129395,0.00015550
549.71010132,0.00012610
551.63890869,0.00015016
553.56771606,0.00026838
555.49652344,0.00019456
557.42533081,0.00007256
559.35413818,0.00017786
561.28294556,0.00002627
563.21175293,0.00005436
565.14056030,0.00026612
567.06936768,0.00007152
568.99817505,0.00008104
570.92698242,0.00013079
572.85578979,0.00016149
574.78459717,0.00027417
576.71340454,-0.00005207
578.64221191,0.00012149
580.57101929,0.00034036
582.49982666,0.00010119
584.42863403,0.00025820
586.35744141,0.00019579
588.28624878,0.00007480
590.21505615,0.00023392
592.14386353,0.00037531
594.07267090,0.00021422
596.00147827,0.00004178
597.93028564,0.00002951
599.85909302,0.00001888
601.78790039,0.00023690
603.71670776,0.00016006
605.64551514,0.00011774
607.57432251,0.00009768
609.50312988,-0.00000082
611.43193726,0.00029867
613.36074463,0.00016927
615.28955200,0.00019560
617.21835938,0.00032086
619.14716675,0.00000106
621.07597412,0.00019725
623.00478149,0.00014423
624.93358887,0.00005587
626.86239624,0.00031898
628.79120361,0.00012674
630.72001099,0.00007345
632.64881836,0.00014942
634.57762573,0.00011569
636.50643311,0.00005534
638.43524048,0.00012069
640.36404785,0.00040858
642.29285522,0.00016468
644.22166260,-0.00000530
646.15046997,0.00034345
648.07927734,0.00026020
650.00808472,-0.00002429
651.93689209,0.00007585
653.86569946,0.00022661
655.79450684,0.00023331
657.72331421,0.00024284
659.65212158,0.00023028
661.58092896,0.00008432
663.50973633,0.00007102
665.43854370,0.00027386
667.36735107,0.00024194
669.29615845,0.00022318
671.22496582,0.00029237
673.15377319,0.00027001
675.08258057,0.00031857
677.01138794,0.00016600
678.94019531,0.00013999
680.86900269,0.00030112
682.79781006,0.00015744
684.72661743,0.00019685
686.65542480,0.00043519
688.58423218,0.00014753
690.51303955,0.00016047
692.44184692,0.00047093
694.37065430,0.00027800
696.29946167,0.00037360
698.22826904,0.00033718
700.15707642,0.00029187
702.08588379,0.00046384
704.01469116,0.00034707
705.94349854,0.00051008
707.87230591,0.00028449
709.80111328,0.00005407
711.72992065,0.00027305
713.65872803,0.00012418
715.58753540,-0.00003423
717.51634277,0.00008418
719.44515015,0.00033810
721.37395752,0.00022318
723.30276489,0.00005140
725.23157227,0.00005835
727.16037964,0.00000242
729.08918701,0.00020621
731.01799438,0.00025886
732.94680176,0.00017796
734.87560913,0.00027563
736.80441650,0.00022472
738.73322388,0.00014936
740.66203125,0.00026523
742.59083862,0.00020564
744.51964600,0.00010246
746.44845337,0.00027253
748.37726074,0.00034223
750.30606812,0.00029241
752.23487549,0.00014091
754.16368286,0.00027698
756.09249023,0.00041827
758.02129761,0.00008108
759.95010498,0.00026553
761.87891235,0.00030708
763.80771973,0.00001217
765.73652710,0.00019700
767.66533447,0.00017485
769.59414185,0.00028270
771.52294922,0.00034883
773.45175659,0.00023327
775.38056396,0.00035383
777.30937134,0.00030625
779.23817871,0.00037597
781.16698608,0.00027841
783.09579346,0.00033987
785.02460083,0.00033536
786.95340820,-0.00006330
788.88221558,0.00020170
790.81102295,0.00023769
792.73983032,0.00016890
794.66863770,0.00021492
796.59744507,0.00010974
798.52625244,0.00032325
800.45505981,0.00010915
802.38386719,0.00017277
804.31267456,0.00031916
806.24148193,0.00017891
808.17028931,0.00041468
810.09909668,0.00026651
812.02790405,0.00018350
813.95671143,0.00018125
815.88551880,0.00014514
817.81432617,0.00038414
819.74313354,0.00023989
821.67194092,0.00015518
823.60074829,0.00017626
825.52955566,0.00019793
827.45836304,0.00040767
829.38717041,0.00026058
831.31597778,0.00018674
833.24478516,0.00029878
835.17359253,0.00026820
837.10239990,0.00035715
839.03120728,0.00028286
840.96001465,0.00025565
842.88882202,0.00045107
844.81762939,0.00024913
846.74643677,0.00002497
848.67524414,0.00017165
850.60405151,0.00038600
852.53285889,0.00037153
854.46166626,0.00024995
856.39047363,0.00036318
858.31928101,0.00034998
860.24808838,0.00025796
862.17689575,0.00024711
864.10570313,0.00027277
866.03451050,0.00030913
867.96331787,0.00017439
869.89212524,0.00013214
871.82093262,0.00018729
873.74973999,0.00041756
875.67854736,0.00041757
877.60735474,0.00010702
879.53616211,0.00025898
881.46496948,0.00035409
883.39377686,0.00026541
885.32258423,0.00040717
887.25139160,0.00036093
889.18019897,0.00021248
891.10900635,0.00030357
893.03781372,0.00017553
894.96662109,0.00017548
896.89542847,0.00050721
898.82423584,0.00041471
900.75304321,0.00050545
902.68185059,0.00039838
904.61065796,0.00006634
906.53946533,0.00036914
908.46827271,0.00035654
910.39708008,0.00037354
912.32588745,0.00043252
914.25469482,0.00030946
916.18350220,0.00046859
918.11230957,0.00038507
920.04111694,0.00039425
921.96992432,0.00044784
923.89873169,0.00037170
925.82753906,0.00046165
927.75634644,0.00048823
929.68515381,0.00028759
931.61396118,0.00023035
933.54276855,0.00046753
935.47157593,0.00042787
937.40038330,0.00031922
939.32919067,0.00030138
941.25799805,0.00043909
943.18680542,0.00057716
945.11561279,0.00037337
947.04442017,0.00037789
948.97322754,0.00046362
950.90203491,0.00046318
952.83084229,0.00045661
954.75964966,0.00035463
956.68845703,0.00039679
958.61726440,0.00061882
960.54607178,0.00062683
962.47487915,0.00045648
964.40368652,0.00054431
966.33249390,0.00055037
968.26130127,0.00043784
970.19010864,0.00049655
972.11891602,0.00060384
974.04772339,0.00051217
975.97653076,0.00041431
977.90533813,0.00056639
979.83414551,0.00050021
981.76295288,0.00053561
983.69176025,0.00055669
985.62056763,0.00038606
987.54937500,0.00056472
989.47818237,0.00058691
991.40698975,0.00051939
993.33579712,0.00069000
995.26460449,0.00093497
997.19341187,0.00089036
999.12221924,0.00081802
1001.05102661,0.00084587
1002.97983398,0.00064164
1004.90864136,0.00075455
1006.83744873,0.00082933
1008.76625610,0.00093715
1010.69506348,0.00105747
1012.62387085,0.00095538
1014.55267822,0.00097524
1016.48148560,0.00097981
1018.41029297,0.00123615
1020.33910034,0.00110235
1022.26790771,0.00107941
1024.19671509,0.00136660
1026.12552246,0.00123667
1028.05432983,0.00128330
1029.98313721,0.00127118
1031.91194458,0.00136955
1033.84075195,0.00124522
1035.76955933,0.00112241
1037.69836670,0.00148215
1039.62717407,0.00143432
1041.55598145,0.00145361
1043.48478882,0.00152505
1045.41359619,0.00140959
1047.34240356,0.00134899
1049.27121094,0.00121852
1051.20001831,0.00129782
1053.12882568,0.00133226
1055.05763306,0.00111471
1056.98644043,0.00121713
1058.91524780,0.00132584
1060.84405518,0.00115952
1062.77286255,0.00131933
1064.70166992,0.00142554
1066.63047729,0.00130090
1068.55928467,0.00121345
1070.48809204,0.00116584
1072.41689941,0.00105677
1074.34570679,0.00101005
1076.27451416,0.00123448
1078.20332153,0.00106248
1080.13212891,0.00088820
1082.06093628,0.00093812
1083.98974365,0.00092840
1085.91855103,0.00101849
1087.84735840,0.00096026
1089.77616577,0.00095263
1091.70497314,0.00088694
1093.63378052,0.00094598
1095.56258789,0.00097438
1097.49139526,0.00086704
1099.42020264,0.00090108
1101.34901001,0.00079577
1103.27781738,0.00089118
1105.20662476,0.00079620
1107.13543213,0.00068728
1109.06423950,0.00080438
1110.99304687,0.00079682
1112.92185425,0.00099692
1114.85066162,0.00093653
1116.77946899,0.00089496
1118.70827637,0.00096520
1120.63708374,0.00095514
1122.56589111,0.00113117
1124.49469849,0.00102362
1126.42350586,0.00103945
1128.35231323,0.00099609
1130.28112061,0.00086201
1132.20992798,0.00106854
1134.13873535,0.00083801
1136.06754272,0.00089688
1137.99635010,0.00111012
1139.92515747,0.00084179
1141.85396484,0.00116394
1143.78277222,0.00126224
1145.71157959,0.00106225
1147.64038696,0.00121279
1149.56919434,0.00123474
1151.49800171,0.00136568
1153.42680908,0.00125586
1155.35561646,0.00120232
1157.28442383,0.00130631
1159.21323120,0.00122640
1161.14203857,0.00126243
1163.07084595,0.00121932
1164.99965332,0.00150261
1166.92846069,0.00167552
1168.85726807,0.00156504
1170.78607544,0.00159610
1172.71488281,0.00146424
1174.64369019,0.00146882
1176.57249756,0.00149889
1178.50130493,0.00165595
1180.43011230,0.00177326
1182.35891968,0.00179147
1184.28772705,0.00199349
1186.21653442,0.00183539
1188.14534180,0.00186205
1190.07414917,0.00211120
1192.00295654,0.00206363
1193.93176392,0.00215542
1195.86057129,0.00218650
1197.78937866,0.00211600
1199.71818604,0.00233888
1201.64699341,0.00251708
1203.57580078,0.00253371
1205.50460815,0.00252622
1207.43341553,0.00261041
1209.36222290,0.00286265
1211.29103027,0.00271049
1213.21983765,0.00269983
1215.14864502,0.00302547
1217.07745239,0.00296973
1219.00625977,0.00301671
1220.93506714,0.00313042
1222.86387451,0.00319124
1224.79268188,0.00313282
1226.72148926,0.00303353
1228.65029663,0.00317237
1230.57910400,0.00326858
1232.50791138,0.00332605
1234.43671875,0.00320576
1236.36552612,0.00325054
1238.29433350,0.00328789
1240.22314087,0.00321347
1242.15194824,0.00329251
1244.08075562,0.00314565
1246.00956299,0.00317263
1247.93837036,0.00305746
1249.86717773,0.00308250
1251.79598511,0.00327115
1253.72479248,0.00301821
1255.65359985,0.00314718
1257.58240723,0.00309443
1259.51121460,0.00299550
1261.44002197,0.00323304
1263.36882935,0.00308410
1265.29763672,0.00296876
1267.22644409,0.00297176
1269.15525146,0.00297570
1271.08405884,0.00295165
1273.01286621,0.00290758
1274.94167358,0.00286401
1276.87048096,0.00283018
1278.79928833,0.00282250
1280.72809570,0.00266216
1282.65690308,0.00267625
1284.58571045,0.00270420
1286.51451782,0.00268386
1288.44332520,0.00278443
1290.37213257,0.00268407
1292.30093994,0.00258322
1294.22974731,0.00266168
1296.15855469,0.00271772
1298.08736206,0.00265288
1300.01616943,0.00258086
1301.94497681,0.00248745
1303.87378418,0.00251316
1305.80259155,0.00266470
1307.73139893,0.00267650
1309.66020630,0.00276577
1311.58901367,0.00279998
1313.51782104,0.00275581
1315.44662842,0.00282425
1317.37543579,0.00290025
1319.30424316,0.00298358
1321.23305054,0.00305288
1323.16185791,0.00318544
1325.09066528,0.00309281
1327.01947266,0.00312602
1328.94828003,0.00345938
1330.87708740,0.00339029
1332.80589478,0.00342387
1334.73470215,0.00356490
1336.66350952,0.00351196
1338.59231689,0.00347950
1340.52112427,0.00349117
1342.44993164,0.00373673
1344.37873901,0.00366698
1346.30754639,0.00357410
1348.23635376,0.00372449
1350.16516113,0.00364496
1352.09396851,0.00369554
1354.02277588,0.00362228
1355.95158325,0.00349481
1357.88039062,0.00357587
1359.80919800,0.00361131
1361.73800537,0.00348917
1363.66681274,0.00332821
1365.59562012,0.00341560
1367.52442749,0.00331753
1369.45323486,0.00340437
1371.38204224,0.00361190
1373.31084961,0.00341539
1375.23965698,0.00340594
1377.16846436,0.00328446
1379.09727173,0.00329399
1381.02607910,0.00343892
1382.95488647,0.00325220
1384.88369385,0.00323675
1386.81250122,0.00330473
1388.74130859,0.00341698
1390.67011597,0.00348960
1392.59892334,0.00344579
1394.52773071,0.00331902
1396.45653809,0.00324993
1398.38534546,0.00336490
1400.31415283,0.00348331
1402.24296021,0.00361785
1404.17176758,0.00347489
1406.10057495,0.00352835
1408.02938232,0.00362973
1409.95818970,0.00341000
1411.88699707,0.00339192
1413.81580444,0.00341579
1415.74461182,0.00358856
1417.67341919,0.00328283
1419.60222656,0.00294385
1421.53103394,0.00334541
1423.45984131,0.00339824
1425.38864868,0.00327278
1427.31745605,0.00327385
1429.24626343,0.00306771
1431.17507080,0.00278204
1433.10387817,0.00294901
1435.03268555,0.00295086
1436.96149292,0.00256129
1438.89030029,0.00281215
1440.81910767,0.00283593
1442.74791504,0.00272397
1444.67672241,0.00282412
1446.60552979,0.00267705
1448.53433716,0.00273200
1450.46314453,0.00274901
1452.39195190,0.00286333
1454.32075928,0.00281941
1456.24956665,0.00256099
1458.17837402,0.00275287
1460.10718140,0.00307128
1462.03598877,0.00324575
1463.96479614,0.00330161
1465.89360352,0.00344745
1467.82241089,0.00369423
1469.75121826,0.00377324
1471.68002563,0.00363426
1473.60883301,0.00367856
1475.53764038,0.00399996
1477.46644775,0.00436519
1479.39525513,0.00461805
1481.32406250,0.00470376
1483.25286987,0.00492440
1485.18167725,0.00489030
1487.11048462,0.00497061
1489.03929199,0.00507459
1490.96809937,0.00500815
1492.89690674,0.00569610
1494.82571411,0.00556661
1496.75452148,0.00508635
1498.68332886,0.00566699
1500.61213623,0.00584830
1502.54094360,0.00617984
1504.46975098,0.00587762
1506.39855835,0.00467542
1508.32736572,0.00544502
1510.25617310,0.00621934
1512.18498047,0.00606453
1514.11378784,0.00640713
1516.04259521,0.00598626
1517.97140259,0.00618462
1519.90020996,0.00592246
1521.82901733,0.00527005
1523.75782471,0.00630521
1525.68663208,0.00617100
1527.61543945,0.00610647
1529.54424683,0.00671445
1531.47305420,0.00641255
1533.40186157,0.00596881
1535.33066895,0.00624755
1537.25947632,0.00669992
1539.18828369,0.00525668
1541.11709106,0.00523188
1543.04589844,0.00609340
1544.97470581,0.00609174
1546.90351318,0.00682457
1548.83232056,0.00638496
1550.76112793,0.00667310
1552.68993530,0.00648205
1554.61874268,0.00599213
1556.54755005,0.00642025
1558.47635742,0.00470163
1560.40516479,0.00518746
1562.33397217,0.00702499
1564.26277954,0.00668414
1566.19158691,0.00674477
1568.12039429,0.00653067
1570.04920166,0.00605874
1571.97800903,0.00675580
1573.90681641,0.00679142
1575.83562378,0.00570370
1577.76443115,0.00623213
1579.69323853,0.00716866
1581.62204590,0.00694577
1583.55085327,0.00686672
1585.47966064,0.00690569
1587.40846802,0.00686897
1589.33727539,0.00672404
1591.26608276,0.00684447
1593.19489014,0.00675551
1595.12369751,0.00661230
1597.05250488,0.00685194
1598.98131226,0.00691940
1600.91011963,0.00679425
1602.83892700,0.00659893
1604.76773437,0.00666240
1606.69654175,0.00652371
1608.62534912,0.00673145
1610.55415649,0.00668424
1612.48296387,0.00665409
1614.41177124,0.00688035
1616.34057861,0.00567668
1618.26938599,0.00607742
1620.19819336,0.00694886
1622.12700073,0.00629300
1624.05580811,0.00636769
1625.98461548,0.00650849
1627.91342285,0.00660443
1629.84223022,0.00660795
1631.77103760,0.00694250
1633.69984497,0.00654003
1635.62865234,0.00556762
1637.55745972,0.00633604
1639.48626709,0.00668590
1641.41507446,0.00651058
1643.34388184,0.00681633
1645.27268921,0.00614875
1647.20149658,0.00557565
1649.13030396,0.00672800
1651.05911133,0.00622522
1652.98791870,0.00431664
1654.91672607,0.00571179
1656.84553345,0.00688434
1658.77434082,0.00653825
1660.70314819,0.00676198
1662.63195557,0.00628813
1664.56076294,0.00662631
1666.48957031,0.00708066
1668.41837769,0.00623976
1670.34718506,0.00616204
1672.27599243,0.00686529
1674.20479980,0.00643506
1676.13360718,0.00628392
1678.06241455,0.00692229
1679.99122192,0.00678016
1681.92002930,0.00670171
1683.84883667,0.00557547
1685.77764404,0.00564017
1687.70645142,0.00718198
1689.63525879,0.00641139
1691.56406616,0.00693271
1693.49287354,0.00697050
1695.42168091,0.00560084
1697.35048828,0.00650673
1699.27929565,0.00570987
1701.20810303,0.00545769
1703.13691040,0.00706942
1705.06571777,0.00640288
1706.99452515,0.00639651
1708.92333252,0.00697632
1710.85213989,0.00666719
1712.78094727,0.00676734
1714.70975464,0.00640412
1716.63856201,0.00583840
1718.56736938,0.00587439
1720.49617676,0.00666754
1722.42498413,0.00683099
1724.35379150,0.00648497
1726.28259888,0.00687653
1728.21140625,0.00650198
1730.14021362,0.00655978
1732.06902100,0.00633040
1733.99782837,0.00514885
1735.92663574,0.00613873
1737.85544312,0.00666976
1739.78425049,0.00613365
1741.71305786,0.00660501
1743.64186523,0.00663998
1745.57067261,0.00652796
1747.49947998,0.00655545
1749.42828735,0.00639268
1751.35709473,0.00621371
1753.28590210,0.00665851
1755.21470947,0.00688696
1757.14351685,0.00653646
1759.07232422,0.00693677
1761.00113159,0.00660985
1762.92993896,0.00651747
1764.85874634,0.00705012
1766.78755371,0.00665540
1768.71636108,0.00682354
1770.64516846,0.00660965
1772.57397583,0.00607665
1774.50278320,0.00658037
1776.43159058,0.00697106
1778.36039795,0.00685752
1780.28920532,0.00667864
1782.21801270,0.00682500
1784.14682007,0.00683146
1786.07562744,0.00681408
1788.00443481,0.00705464
1789.93324219,0.00682226
1791.86204956,0.00641355
1793.79085693,0.00656567
1795.71966431,0.00687224
1797.64847168,0.00687020
1799.57727905,0.00673516
1801.50608643,0.00660769
1803.43489380,0.00686077
1805.36370117,0.00698187
1807.29250854,0.00699218
1809.22131592,0.00710468
1811.15012329,0.00678730
1813.07893066,0.00690591
1815.00773804,0.00705246
1816.93654541,0.00686255
1818.86535278,0.00687016
1820.79416016,0.00704377
1822.72296753,0.00698204
1824.65177490,0.00649216
1826.58058228,0.00686664
1828.50938965,0.00690503
1830.43819702,0.00650434
1832.36700439,0.00693851
1834.29581177,0.00692351
1836.22461914,0.00695498
1838.15342651,0.00698522
1840.08223389,0.00691240
1842.01104126,0.00684747
1843.93984863,0.00631917
1845.86865601,0.00654622
1847.79746338,0.00686327
1849.72627075,0.00678560
1851.65507812,0.00693850
1853.58388550,0.00683681
1855.51269287,0.00680003
1857.44150024,0.00689495
1859.37030762,0.00681832
1861.29911499,0.00685236
1863.22792236,0.00688099
1865.15672974,0.00692877
1867.08553711,0.00681598
1869.01434448,0.00638579
1870.94315186,0.00665460
1872.87195923,0.00697872
1874.80076660,0.00676432
1876.72957397,0.00690483
1878.65838135,0.00681423
1880.58718872,0.00671394
1882.51599609,0.00683205
1884.44480347,0.00675666
1886.37361084,0.00681421
1888.30241821,0.00664746
1890.23122559,0.00660078
1892.16003296,0.00677344
1894.08884033,0.00669092
1896.01764771,0.00671172
1897.94645508,0.00666654
1899.87526245,0.00668296
1901.80406982,0.00675089
1903.73287720,0.00652438
1905.66168457,0.00656729
1907.59049194,0.00663195
1909.51929932,0.00660578
1911.44810669,0.00660794
1913.37691406,0.00649132
1915.30572144,0.00665525
1917.23452881,0.00650020
1919.16333618,0.00646730
1921.09214355,0.00672851
1923.02095093,0.00652662
1924.94975830,0.00663497
1926.87856567,0.00668455
1928.80737305,0.00665309
1930.73618042,0.00673633
1932.66498779,0.00655987
1934.59379517,0.00658936
1936.52260254,0.00661857
1938.45140991,0.00663046
1940.38021729,0.00659130
1942.30902466,0.00643182
1944.23783203,0.00640140
1946.16663940,0.00652917
1948.09544678,0.00657028
1950.02425415,0.00656375
1951.95306152,0.00670612
1953.88186890,0.00657145
1955.81067627,0.00661915
1957.73948364,0.00664526
1959.66829102,0.00644777
1961.59709839,0.00657036
1963.52590576,0.00660369
1965.45471313,0.00649329
1967.38352051,0.00628909
1969.31232788,0.00648849
1971.24113525,0.00668011
1973.16994263,0.00651865
1975.09875000,0.00650858
1977.02755737,0.00641352
1978.95636475,0.00652872
1980.88517212,0.00642018
1982.81397949,0.00640262
1984.74278687,0.00659689
1986.67159424,0.00639716
1988.60040161,0.00634301
1990.52920898,0.00628486
1992.45801636,0.00638921
1994.38682373,0.00637788
1996.31563110,0.00633356
1998.24443848,0.00638028
2000.17324585,0.00620723
2002.10205322,0.00646515
2004.03086060,0.00643465
2005.95966797,0.00629381
2007.88847534,0.00640444
2009.81728271,0.00626703
2011.74609009,0.00631170
2013.67489746,0.00631234
2015.60370483,0.00625046
2017.53251221,0.00618255
2019.46131958,0.00609337
2021.39012695,0.00621099
2023.31893433,0.00628527
2025.24774170,0.00619639
2027.17654907,0.00622378
2029.10535645,0.00629740
2031.03416382,0.00619173
2032.96297119,0.00618694
2034.89177856,0.00613655
2036.82058594,0.00611151
2038.74939331,0.00618539
2040.67820068,0.00612474
2042.60700806,0.00605864
2044.53581543,0.00602966
2046.46462280,0.00617867
2048.39343018,0.00612610
2050.32223755,0.00600266
2052.25104492,0.00598899
2054.17985229,0.00589794
2056.10865967,0.00602850
2058.03746704,0.00598029
2059.96627441,0.00593847
2061.89508179,0.00602701
2063.82388916,0.00599415
2065.75269653,0.00597591
2067.68150391,0.00595818
2069.61031128,0.00611873
2071.53911865,0.00605442
2073.46792603,0.00594479
2075.39673340,0.00595518
2077.32554077,0.00591295
2079.25434814,0.00595808
2081.18315552,0.00579455
2083.11196289,0.00589485
2085.04077026,0.00594508
2086.96957764,0.00574561
2088.89838501,0.00582040
2090.82719238,0.00576262
2092.75599976,0.00585384
2094.68480713,0.00588558
2096.61361450,0.00579385
2098.54242187,0.00592693
2100.47122925,0.00576166
2102.40003662,0.00570578
2104.32884399,0.00586915
2106.25765137,0.00581381
2108.18645874,0.00579582
2110.11526611,0.00582842
2112.04407349,0.00576460
2113.97288086,0.00570302
2115.90168823,0.00563390
2117.83049561,0.00555653
2119.75930298,0.00569166
2121.68811035,0.00581782
2123.61691772,0.00571373
2125.54572510,0.00567505
2127.47453247,0.00566502
2129.40333984,0.00559318
2131.33214722,0.00569748
2133.26095459,0.00574008
2135.18976196,0.00562096
2137.11856934,0.00568966
2139.04737671,0.00570650
2140.97618408,0.00570225
2142.90499146,0.00562066
2144.83379883,0.00546075
2146.76260620,0.00568212
2148.69141357,0.00565050
2150.62022095,0.00554239
2152.54902832,0.00569922
2154.47783569,0.00562494
2156.40664307,0.00561642
2158.33545044,0.00554409
2160.26425781,0.00559520
2162.19306519,0.00575428
2164.12187256,0.00555029
2166.05067993,0.00552297
2167.97948730,0.00558829
2169.90829468,0.00550194
2171.83710205,0.00557004
2173.76590942,0.00568340
2175.69471680,0.00553842
2177.62352417,0.00541524
2179.55233154,0.00560307
2181.48113892,0.00566128
2183.40994629,0.00546318
2185.33875366,0.00535848
2187.26756104,0.00553220
2189.19636841,0.00554000
2191.12517578,0.00539797
2193.05398315,0.00552448
2194.98279053,0.00549446
2196.91159790,0.00548856
2198.84040527,0.00552970
2200.76921265,0.00536548
2202.69802002,0.00548243
2204.62682739,0.00561194
2206.55563477,0.00551108
2208.48444214,0.00546172
2210.41324951,0.00541291
2212.34205688,0.00538639
2214.27086426,0.00544281
2216.19967163,0.00541109
2218.12847900,0.00531024
2220.05728638,0.00527810
2221.98609375,0.00531897
2223.91490112,0.00539089
2225.84370850,0.00534492
2227.77251587,0.00539156
2229.70132324,0.00544468
2231.63013062,0.00531227
2233.55893799,0.00538238
2235.48774536,0.00545760
2237.41655273,0.00530259
2239.34536011,0.00521667
2241.27416748,0.00536423
2243.20297485,0.00537704
2245.13178223,0.00524691
2247.06058960,0.00524965
2248.98939697,0.00515901
2250.91820435,0.00521836
2252.84701172,0.00522119
2254.77581909,0.00516920
2256.70462646,0.00529624
2258.63343384,0.00526369
2260.56224121,0.00533350
2262.49104858,0.00522291
2264.41985596,0.00525545
2266.34866333,0.00544493
2268.27747070,0.00516699
2270.20627808,0.00515523
2272.13508545,0.00518893
2274.06389282,0.00512772
2275.99270020,0.00514938
2277.92150757,0.00508186
2279.85031494,0.00518991
2281.77912231,0.00525547
2283.70792969,0.00521242
2285.63673706,0.00512202
2287.56554443,0.00511576
2289.49435181,0.00515012
2291.42315918,0.00516360
2293.35196655,0.00520559
2295.28077393,0.00511295
2297.20958130,0.00505193
2299.13838867,0.00500041
2301.06719604,0.00501855
2302.99600342,0.00501228
2304.92481079,0.00501521
2306.85361816,0.00504591
2308.78242554,0.00493272
2310.71123291,0.00499608
2312.64004028,0.00489942
2314.56884766,0.00477407
2316.49765503,0.00485122
2318.42646240,0.00471473
2320.35526978,0.00455608
2322.28407715,0.00459585
2324.21288452,0.00466214
2326.14169189,0.00456079
2328.07049927,0.00451235
2329.99930664,0.00443009
2331.92811401,0.00445563
2333.85692139,0.00450259
2335.78572876,0.00434220
2337.71453613,0.00443284
2339.64334351,0.00434607
2341.57215088,0.00430804
2343.50095825,0.00443814
2345.42976562,0.00446301
2347.35857300,0.00473215
2349.28738037,0.00476481
2351.21618774,0.00467177
2353.14499512,0.00451738
2355.07380249,0.00426692
2357.00260986,0.00425779
2358.93141724,0.00420763
2360.86022461,0.00411412
2362.78903198,0.00408879
2364.71783936,0.00414902
2366.64664673,0.00420899
2368.57545410,0.00426422
2370.50426147,0.00436459
2372.43306885,0.00447590
2374.36187622,0.00454998
2376.29068359,0.00459557
2378.21949097,0.00470622
2380.14829834,0.00469367
2382.07710571,0.00472099
2384.00591309,0.00481226
2385.93472046,0.00488747
2387.86352783,0.00491134
2389.79233521,0.00479349
2391.72114258,0.00490255
2393.64994995,0.00491436
2395.57875732,0.00476331
2397.50756470,0.00486202
2399.43637207,0.00486932
2401.36517944,0.00472267
2403.29398682,0.00474084
2405.22279419,0.00479658
2407.15160156,0.00476499
2409.08040894,0.00483218
2411.00921631,0.00478865
2412.93802368,0.00469745
2414.86683105,0.00478010
2416.79563843,0.00480465
2418.72444580,0.00480374
2420.65325317,0.00476661
2422.58206055,0.00470490
2424.51086792,0.00474247
2426.43967529,0.00469396
2428.36848267,0.00458134
2430.29729004,0.00464873
2432.22609741,0.00474020
2434.15490479,0.00474608
2436.08371216,0.00467474
2438.01251953,0.00463833
2439.94132690,0.00472474
2441.87013428,0.00466092
2443.79894165,0.00462182
2445.72774902,0.00459265
2447.65655640,0.00461438
2449.58536377,0.00472985
2451.51417114,0.00463507
2453.44297852,0.00462014
2455.37178589,0.00455870
2457.30059326,0.00455602
2459.22940063,0.00467215
2461.15820801,0.00465411
2463.08701538,0.00467044
2465.01582275,0.00458239
2466.94463013,0.00463544
2468.87343750,0.00472385
2470.80224487,0.00454824
2472.73105225,0.00444486
2474.65985962,0.00455703
2476.58866699,0.00453677
2478.51747437,0.00442140
2480.44628174,0.00451753
2482.37508911,0.00453236
2484.30389648,0.00465863
2486.23270386,0.00466974
2488.16151123,0.00448441
2490.09031860,0.00454221
2492.01912598,0.00457588
2493.94793335,0.00455340
2495.87674072,0.00446129
2497.80554810,0.00455553
2499.73435547,0.00452392
2501.66316284,0.00440392
2503.59197021,0.00454213
2505.52077759,0.00444025
2507.44958496,0.00441587
2509.37839233,0.00442698
2511.30719971,0.00452475
2513.23600708,0.00450969
2515.16481445,0.00433537
2517.09362183,0.00450313
2519.02242920,0.00443364
2520.95123657,0.00444069
2522.88004395,0.00454021
2524.80885132,0.00442475
2526.73765869,0.00435472
2528.66646606,0.00439980
2530.59527344,0.00448831
2532.52408081,0.00434561
2534.45288818,0.00439022
2536.38169556,0.00442146
2538.31050293,0.00436128
2540.23931030,0.00434473
2542.16811768,0.00432110
2544.09692505,0.00447307
2546.02573242,0.00433350
2547.95453979,0.00428178
2549.88334717,0.00437051
2551.81215454,0.00437594
2553.74096191,0.00436750
2555.66976929,0.00427389
2557.59857666,0.00435240
2559.52738403,0.00420429
2561.45619141,0.00414368
2563.38499878,0.00426342
2565.31380615,0.00418274
2567.24261353,0.00419662
2569.17142090,0.00424391
2571.10022827,0.00425632
2573.02903564,0.00421470
2574.95784302,0.00427955
2576.88665039,0.00431156
2578.81545776,0.00429858
2580.74426514,0.00429653
2582.67307251,0.00423771
2584.60187988,0.00429660
2586.53068726,0.00418387
2588.45949463,0.00420770
2590.38830200,0.00423020
2592.31710937,0.00414442
2594.24591675,0.00424671
2596.17472412,0.00413585
2598.10353149,0.00415168
2600.03233887,0.00410411
2601.96114624,0.00409287
2603.88995361,0.00430934
2605.81876099,0.00415613
2607.74756836,0.00409837
2609.67637573,0.00416261
2611.60518311,0.00416297
2613.53399048,0.00413836
2615.46279785,0.00412638
2617.39160522,0.00416710
2619.32041260,0.00411506
2621.24921997,0.00417859
2623.17802734,0.00408667
2625.10683472,0.00411593
2627.03564209,0.00420352
2628.96444946,0.00402145
2630.89325684,0.00408679
2632.82206421,0.00402286
2634.75087158,0.00401147
2636.67967895,0.00411570
2638.60848633,0.00404065
2640.53729370,0.00407765
2642.46610107,0.00404158
2644.39490845,0.00408104
2646.32371582,0.00404411
2648.25252319,0.00398380
2650.18133057,0.00407289
2652.11013794,0.00401506
2654.03894531,0.00399719
2655.96775269,0.00398783
2657.89656006,0.00407431
2659.82536743,0.00413602
2661.75417480,0.00403041
2663.68298218,0.00401454
2665.61178955,0.00401049
2667.54059692,0.00396202
2669.46940430,0.00392061
2671.39821167,0.00399181
2673.32701904,0.00392291
2675.25582642,0.00382591
2677.18463379,0.00402173
2679.11344116,0.00405891
2681.04224854,0.00392572
2682.97105591,0.00392669
2684.89986328,0.00393196
2686.82867065,0.00391530
2688.75747803,0.00394093
2690.68628540,0.00387656
2692.61509277,0.00390161
2694.54390015,0.00397724
2696.47270752,0.00393552
2698.40151489,0.00398299
2700.33032227,0.00393365
2702.25912964,0.00388943
2704.18793701,0.00388658
2706.11674438,0.00385460
2708.04555176,0.00386397
2709.97435913,0.00375577
2711.90316650,0.00382664
2713.83197388,0.00389865
2715.76078125,0.00382699
2717.68958862,0.00380334
2719.61839600,0.00375914
2721.54720337,0.00380964
2723.47601074,0.00379099
2725.40481812,0.00377661
2727.33362549,0.00378095
2729.26243286,0.00367621
2731.19124023,0.00375645
2733.12004761,0.00386322
2735.04885498,0.00379495
2736.97766235,0.00378637
2738.90646973,0.00380257
2740.83527710,0.00376143
2742.76408447,0.00372889
2744.69289185,0.00370328
2746.62169922,0.00381796
2748.55050659,0.00378814
2750.47931396,0.00361245
2752.40812134,0.00369900
2754.33692871,0.00372549
2756.26573608,0.00366828
2758.19454346,0.00368540
2760.12335083,0.00367682
2762.05215820,0.00365547
2763.98096558,0.00362925
2765.90977295,0.00360965
2767.83858032,0.00360946
2769.76738770,0.00367882
2771.69619507,0.00362589
2773.62500244,0.00363962
2775.55380981,0.00375600
2777.48261719,0.00367516
2779.41142456,0.00367237
2781.34023193,0.00361195
2783.26903931,0.00352269
2785.19784668,0.00364417
2787.12665405,0.00363309
2789.05546143,0.00356404
2790.98426880,0.00357465
2792.91307617,0.00354634
2794.84188354,0.00352529
2796.77069092,0.00350013
2798.69949829,0.00351916
2800.62830566,0.00349098
2802.55711304,0.00344078
2804.48592041,0.00361726
2806.41472778,0.00360325
2808.34353516,0.00342591
2810.27234253,0.00351593
2812.20114990,0.00352261
2814.12995728,0.00345933
2816.05876465,0.00351655
2817.98757202,0.00353293
2819.91637939,0.00353838
2821.84518677,0.00354021
2823.77399414,0.00345355
2825.70280151,0.00346587
2827.63160889,0.00350199
2829.56041626,0.00337354
2831.48922363,0.00344683
2833.41803101,0.00349638
2835.34683838,0.00336262
2837.27564575,0.00335898
2839.20445312,0.00336245
2841.13326050,0.00343487
2843.06206787,0.00345528
2844.99087524,0.00335477
2846.91968262,0.00332441
2848.84848999,0.00329094
2850.77729736,0.00331257
2852.70610474,0.00338606
2854.63491211,0.00330986
2856.56371948,0.00322597
2858.49252686,0.00330263
2860.42133423,0.00336473
2862.35014160,0.00341016
2864.27894897,0.00330804
2866.20775635,0.00320489
2868.13656372,0.00333347
2870.06537109,0.00335632
2871.99417847,0.00330786
2873.92298584,0.00326875
2875.85179321,0.00324433
2877.78060059,0.00319052
2879.70940796,0.00316422
2881.63821533,0.00326460
2883.56702270,0.00326842
2885.49583008,0.00326464
2887.42463745,0.00320595
2889.35344482,0.00320145
2891.28225220,0.00324702
2893.21105957,0.00314432
2895.13986694,0.00314721
2897.06867432,0.00320263
2898.99748169,0.00319856
2900.92628906,0.00311835
2902.85509644,0.00314654
2904.78390381,0.00315611
2906.71271118,0.00300711
2908.64151855,0.00306604
2910.57032593,0.00314388
2912.49913330,0.00319423
2914.42794067,0.00319747
2916.35674805,0.00306967
2918.28555542,0.00303406
2920.21436279,0.00297636
2922.14317017,0.00293469
2924.07197754,0.00303486
2926.00078491,0.00308449
2927.92959229,0.00303723
2929.85839966,0.00300204
2931.78720703,0.00296078
2933.71601440,0.00303473
2935.64482178,0.00308926
2937.57362915,0.00300876
2939.50243652,0.00303157
2941.43124390,0.00307311
2943.36005127,0.00302882
2945.28885864,0.00289098
2947.21766602,0.00290162
2949.14647339,0.00295237
2951.07528076,0.00294580
2953.00408813,0.00302770
2954.93289551,0.00290215
2956.86170288,0.00296104
2958.79051025,0.00304913
2960.71931763,0.00295270
2962.64812500,0.00299647
2964.57693237,0.00290409
2966.50573975,0.00294103
2968.43454712,0.00293019
2970.36335449,0.00289185
2972.29216187,0.00304378
2974.22096924,0.00295111
2976.14977661,0.00288133
2978.07858398,0.00283413
2980.00739136,0.00287349
2981.93619873,0.00300474
2983.86500610,0.00293329
2985.79381348,0.00289963
2987.72262085,0.00291096
2989.65142822,0.00297076
2991.58023560,0.00294184
2993.50904297,0.00285152
2995.43785034,0.00288533
2997.36665771,0.00286648
2999.29546509,0.00289282
3001.22427246,0.00289303
3003.15307983,0.00283686
3005.08188721,0.00283582
3007.01069458,0.00281679
3008.93950195,0.00283493
3010.86830933,0.00285874
3012.79711670,0.00282974
3014.72592407,0.00281078
3016.65473145,0.00288168
3018.58353882,0.00278336
3020.51234619,0.00267200
3022.44115356,0.00284203
3024.36996094,0.00281347
3026.29876831,0.00281558
3028.22757568,0.00287812
3030.15638306,0.00269962
3032.08519043,0.00274580
3034.01399780,0.00276469
3035.94280518,0.00270413
3037.87161255,0.00282322
3039.80041992,0.00284009
3041.72922729,0.00279410
3043.65803467,0.00270136
3045.58684204,0.00267841
3047.51564941,0.00276134
3049.44445679,0.00268872
3051.37326416,0.00267476
3053.30207153,0.00276713
3055.23087891,0.00272576
3057.15968628,0.00271573
3059.08849365,0.00275704
3061.01730103,0.00274625
3062.94610840,0.00265360
3064.87491577,0.00256456
3066.80372314,0.00268627
3068.73253052,0.00273291
3070.66133789,0.00269219
3072.59014526,0.00270924
3074.51895264,0.00264469
3076.44776001,0.00258401
3078.37656738,0.00260231
3080.30537476,0.00270429
3082.23418213,0.00266752
3084.16298950,0.00266902
3086.09179687,0.00265303
3088.02060425,0.00257708
3089.94941162,0.00273261
3091.87821899,0.00261353
3093.80702637,0.00260520
3095.73583374,0.00264863
3097.66464111,0.00244943
3099.59344849,0.00260590
3101.52225586,0.00262284
3103.45106323,0.00252064
3105.37987061,0.00251988
3107.30867798,0.00260128
3109.23748535,0.00266891
3111.16629272,0.00252722
3113.09510010,0.00256635
3115.02390747,0.00257018
3116.95271484,0.00257054
3118.88152222,0.00249631
3120.81032959,0.00243828
3122.73913696,0.00258494
3124.66794434,0.00248080
3126.59675171,0.00252590
3128.52555908,0.00255247
3130.45436645,0.00248875
3132.38317383,0.00253781
3134.31198120,0.00242370
3136.24078857,0.00252987
3138.16959595,0.00259666
3140.09840332,0.00240843
3142.02721069,0.00234902
3143.95601807,0.00237722
3145.88482544,0.00240645
3147.81363281,0.00245919
3149.74244019,0.00241927
3151.67124756,0.00239330
3153.60005493,0.00247149
3155.52886230,0.00242448
3157.45766968,0.00245126
3159.38647705,0.00237606
3161.31528442,0.00227814
3163.24409180,0.00239327
3165.17289917,0.00230850
3167.10170654,0.00234059
3169.03051392,0.00238771
3170.95932129,0.00232253
3172.88812866,0.00230776
3174.81693604,0.00220415
3176.74574341,0.00230289
3178.67455078,0.00236078
3180.60335815,0.00233219
3182.53216553,0.00232023
3184.46097290,0.00219201
3186.38978027,0.00222598
3188.31858765,0.00225506
3190.24739502,0.00220039
3192.17620239,0.00221668
3194.10500977,0.00220827
3196.03381714,0.00221582
3197.96262451,0.00221043
3199.89143188,0.00216135
3201.82023926,0.00217385
3203.74904663,0.00214691
3205.67785400,0.00214656
3207.60666138,0.00223232
3209.53546875,0.00224214
3211.46427612,0.00228951
3213.39308350,0.00222321
3215.32189087,0.00212166
3217.25069824,0.00217135
3219.17950562,0.00215521
3221.10831299,0.00219259
3223.03712036,0.00212342
3224.96592773,0.00205190
3226.89473511,0.00218871
3228.82354248,0.00213629
3230.75234985,0.00210540
3232.68115723,0.00219502
3234.60996460,0.00210849
3236.53877197,0.00212459
3238.46757935,0.00221849
3240.39638672,0.00212666
3242.32519409,0.00210079
3244.25400146,0.00204582
3246.18280884,0.00203476
3248.11161621,0.00223858
3250.04042358,0.00220960
3251.96923096,0.00215544
3253.89803833,0.00216153
3255.82684570,0.00206966
3257.75565308,0.00214749
3259.68446045,0.00215940
3261.61326782,0.00205467
3263.54207520,0.00212040
3265.47088257,0.00218742
3267.39968994,0.00212355
3269.32849731,0.00213151
3271.25730469,0.00207170
3273.18611206,0.00205777
3275.11491943,0.00218351
3277.04372681,0.00210384
3278.97253418,0.00210487
3280.90134155,0.00213313
3282.83014893,0.00212970
3284.75895630,0.00211536
3286.68776367,0.00206857
3288.61657104,0.00219923
3290.54537842,0.00210148
3292.47418579,0.00211677
3294.40299316,0.00216378
3296.33180054,0.00203546
3298.26060791,0.00212691
3300.18941528,0.00202391
3302.11822266,0.00205218
3304.04703003,0.00213366
3305.97583740,0.00208581
3307.90464478,0.00219941
3309.83345215,0.00213913
3311.76225952,0.00209209
3313.69106689,0.00210688
3315.61987427,0.00207886
3317.54868164,0.00206615
3319.47748901,0.00211292
3321.40629639,0.00211804
3323.33510376,0.00206645
3325.26391113,0.00209224
3327.19271851,0.00201948
3329.12152588,0.00207468
3331.05033325,0.00212942
3332.97914062,0.00208827
3334.90794800,0.00204613
3336.83675537,0.00202195
3338.76556274,0.00217550
3340.69437012,0.00210550
3342.62317749,0.00209224
3344.55198486,0.00213190
3346.48079224,0.00200795
3348.40959961,0.00205902
3350.33840698,0.00207734
3352.26721436,0.00208904
3354.19602173,0.00204591
3356.12482910,0.00202836
3358.05363647,0.00205169
3359.98244385,0.00203239
3361.91125122,0.00212287
3363.84005859,0.00208813
3365.76886597,0.00204518
3367.69767334,0.00206613
3369.62648071,0.00208989
3371.55528809,0.00205046
3373.48409546,0.00205404
3375.41290283,0.00217477
3377.34171020,0.00209439
3379.27051758,0.00205464
3381.19932495,0.00204721
3383.12813232,0.00206284
3385.05693970,0.00205780
3386.98574707,0.00191696
3388.91455444,0.00205993
3390.84336182,0.00207778
3392.77216919,0.00192618
3394.70097656,0.00200295
3396.62978394,0.00204297
3398.55859131,0.00202693
3400.48739868,0.00200329
3402.41620605,0.00201679
3404.34501343,0.00202311
3406.27382080,0.00201941
3408.20262817,0.00203635
3410.13143555,0.00194365
3412.06024292,0.00194797
3413.98905029,0.00195904
3415.91785767,0.00191545
3417.84666504,0.00204824
3419.77547241,0.00199430
3421.70427979,0.00193408
3423.63308716,0.00207385
3425.56189453,0.00197837
3427.49070190,0.00193672
3429.41950928,0.00193402
3431.34831665,0.00187985
3433.27712402,0.00199856
3435.20593140,0.00200086
3437.13473877,0.00196728
3439.06354614,0.00196388
3440.99235352,0.00194858
3442.92116089,0.00189617
3444.84996826,0.00184600
3446.77877563,0.00196076
3448.70758301,0.00194689
3450.63639038,0.00195644
3452.56519775,0.00199650
3454.49400513,0.00188932
3456.42281250,0.00185514
3458.35161987,0.00185538
3460.28042725,0.00198033
3462.20923462,0.00198295
3464.13804199,0.00188317
3466.06684937,0.00194010
3467.99565674,0.00189502
3469.92446411,0.00190382
3471.85327148,0.00195368
3473.78207886,0.00195253
3475.71088623,0.00195824
3477.63969360,0.00186801
3479.56850098,0.00183046
3481.49730835,0.00186828
3483.42611572,0.00190571
3485.35492310,0.00193759
3487.28373047,0.00193894
3489.21253784,0.00192309
3491.14134521,0.00197201
3493.07015259,0.00197604
3494.99895996,0.00186741
3496.92776733,0.00189049
3498.85657471,0.00193614
3500.78538208,0.00189002
3502.71418945,0.00186793
3504.64299683,0.00192740
3506.57180420,0.00197525
3508.50061157,0.00193389
3510.42941895,0.00195037
3512.35822632,0.00193360
3514.28703369,0.00192615
3516.21584106,0.00189565
3518.14464844,0.00183405
3520.07345581,0.00195219
3522.00226318,0.00194885
3523.93107056,0.00188022
3525.85987793,0.00191406
3527.78868530,0.00188256
3529.71749268,0.00184562
3531.64630005,0.00188262
3533.57510742,0.00192314
3535.50391479,0.00187371
3537.43272217,0.00188172
3539.36152954,0.00190999
3541.29033691,0.00194023
3543.21914429,0.00193170
3545.14795166,0.00179174
3547.07675903,0.00181962
3549.00556641,0.00188199
3550.93437378,0.00186976
3552.86318115,0.00189449
3554.79198853,0.00184422
3556.72079590,0.00181840
3558.64960327,0.00188760
3560.57841064,0.00190956
3562.50721802,0.00183630
3564.43602539,0.00181945
3566.36483276,0.00180600
3568.29364014,0.00180046
3570.22244751,0.00185398
3572.15125488,0.00187290
3574.08006226,0.00188494
3576.00886963,0.00186256
3577.93767700,0.00187755
3579.86648437,0.00187289
3581.79529175,0.00189335
3583.72409912,0.00195317
3585.65290649,0.00186429
3587.58171387,0.00177647
3589.51052124,0.00176347
3591.43932861,0.00189356
3593.36813599,0.00192364
3595.29694336,0.00185248
3597.22575073,0.00194862
3599.15455811,0.00187020
3601.08336548,0.00182523
3603.01217285,0.00190262
3604.94098022,0.00191942
3606.86978760,0.00187479
3608.79859497,0.00168873
3610.72740234,0.00179209
3612.65620972,0.00186109
3614.58501709,0.00179105
3616.51382446,0.00190579
3618.44263184,0.00172415
3620.37143921,0.00171967
3622.30024658,0.00187650
3624.22905395,0.00187153
3626.15786133,0.00196868
3628.08666870,0.00165574
3630.01547607,0.00160826
3631.94428345,0.00193878
3633.87309082,0.00181956
3635.80189819,0.00181509
3637.73070557,0.00191616
3639.65951294,0.00191887
3641.58832031,0.00188066
3643.51712769,0.00184391
3645.44593506,0.00186205
3647.37474243,0.00169725
3649.30354980,0.00156017
3651.23235718,0.00168408
3653.16116455,0.00193818
3655.08997192,0.00178760
3657.01877930,0.00169952
3658.94758667,0.00191859
3660.87639404,0.00182467
3662.80520142,0.00192084
3664.73400879,0.00191455
3666.66281616,0.00190374
3668.59162354,0.00188421
3670.52043091,0.00152070
3672.44923828,0.00180340
3674.37804565,0.00176845
3676.30685303,0.00147286
3678.23566040,0.00186884
3680.16446777,0.00195564
3682.09327515,0.00191440
3684.02208252,0.00198169
3685.95088989,0.00193688
3687.87969727,0.00176809
3689.80850464,0.00165403
3691.73731201,0.00181551
3693.66611938,0.00182260
3695.59492676,0.00182269
3697.52373413,0.00190752
3699.45254150,0.00188122
3701.38134888,0.00179920
3703.31015625,0.00181490
3705.23896362,0.00196344
3707.16777100,0.00187359
3709.09657837,0.00173889
3711.02538574,0.00166909
3712.95419312,0.00164128
3714.88300049,0.00177203
3716.81180786,0.00178132
3718.74061523,0.00183425
3720.66942261,0.00185257
3722.59822998,0.00177713
3724.52703735,0.00183309
3726.45584473,0.00176372
3728.38465210,0.00175238
3730.31345947,0.00180100
3732.24226685,0.00169962
3734.17107422,0.00163059
3736.09988159,0.00160221
3738.02868896,0.00166634
3739.95749634,0.00179749
3741.88630371,0.00178268
3743.81511108,0.00145911
3745.74391846,0.00141538
3747.67272583,0.00176097
3749.60153320,0.00155506
3751.53034058,0.00139971
3753.45914795,0.00165533
3755.38795532,0.00169331
3757.31676270,0.00173162
3759.24557007,0.00162248
3761.17437744,0.00163268
3763.10318481,0.00184635
3765.03199219,0.00178409
3766.96079956,0.00178098
3768.88960693,0.00166203
3770.81841431,0.00158316
3772.74722168,0.00175489
3774.67602905,0.00175606
3776.60483643,0.00181354
3778.53364380,0.00181777
3780.46245117,0.00173863
3782.39125854,0.00174699
3784.32006592,0.00177310
3786.24887329,0.00178167
3788.17768066,0.00169349
3790.10648804,0.00174711
3792.03529541,0.00180272
3793.96410278,0.00178163
3795.89291016,0.00166279
3797.82171753,0.00166591
3799.75052490,0.00172052
3801.67933228,0.00139095
3803.60813965,0.00162418
3805.53694702,0.00173703
3807.46575439,0.00147405
3809.39456177,0.00173557
3811.32336914,0.00166967
3813.25217651,0.00170296
3815.18098389,0.00155455
3817.10979126,0.00143429
3819.03859863,0.00177493
3820.96740601,0.00145054
3822.89621338,0.00157478
3824.82502075,0.00178929
3826.75382812,0.00156601
3828.68263550,0.00170011
3830.61144287,0.00165330
3832.54025024,0.00161276
3834.46905762,0.00161261
3836.39786499,0.00159923
3838.32667236,0.00149358
3840.25547974,0.00147264
3842.18428711,0.00163238
3844.11309448,0.00155950
3846.04190186,0.00166642
3847.97070923,0.00171337
3849.89951660,0.00172160
3851.82832397,0.00154452
3853.75713135,0.00112677
3855.68593872,0.00137631
3857.61474609,0.00165373
3859.54355347,0.00159538
3861.47236084,0.00164470
3863.40116821,0.00159454
3865.32997559,0.00150477
3867.25878296,0.00163913
3869.18759033,0.00154227
3871.11639770,0.00136118
3873.04520508,0.00160043
3874.97401245,0.00154647
3876.90281982,0.00159743
3878.83162720,0.00166364
3880.76043457,0.00138087
3882.68924194,0.00160072
3884.61804932,0.00152585
3886.54685669,0.00144662
3888.47566406,0.00170732
3890.40447144,0.00148475
3892.33327881,0.00146785
3894.26208618,0.00159078
3896.19089355,0.00168352
3898.11970093,0.00165719
3900.04850830,0.00137431
3901.97731567,0.00143143
3903.90612305,0.00143573
3905.83493042,0.00143454
3907.76373779,0.00159201
3909.69254517,0.00157614
3911.62135254,0.00161488
3913.55015991,0.00161164
3915.47896728,0.00155510
3917.40777466,0.00148191
3919.33658203,0.00145575
3921.26538940,0.00154082
3923.19419678,0.00153011
3925.12300415,0.00147246
3927.05181152,0.00145769
3928.98061890,0.00155715
3930.90942627,0.00154575
3932.83823364,0.00145244
3934.76704102,0.00143649
3936.69584839,0.00144207
3938.62465576,0.00156379
3940.55346313,0.00151238
3942.48227051,0.00146933
3944.41107788,0.00151528
3946.33988525,0.00150085
3948.26869263,0.00157339
3950.19750000,0.00146249
3952.12630737,0.00144855
3954.05511475,0.00157714
3955.98392212,0.00154410
3957.91272949,0.00148754
3959.84153687,0.00146397
3961.77034424,0.00148772
3963.69915161,0.00148111
3965.62795898,0.00149856
3967.55676636,0.00144189
3969.48557373,0.00146863
3971.41438110,0.00156936
3973.34318848,0.00149627
3975.27199585,0.00156349
3977.20080322,0.00155337
3979.12961060,0.00143294
3981.05841797,0.00141651
3982.98722534,0.00146016
3984.91603271,0.00153089
3986.84484009,0.00147011
3988.77364746,0.00147873
3990.70245483,0.00148178
3992.63126221,0.00147008
3994.56006958,0.00146611
3996.48887695,0.00142410
3998.41768433,0.00152344
4000.34649170,0.00147574
4002.27529907,0.00145867
4004.20410645,0.00147316
4006.13291382,0.00141990
4008.06172119,0.00158008
4009.99052856,0.00150424
4011.91933594,0.00134866
4013.84814331,0.00141587
4015.77695068,0.00146883
4017.70575806,0.00149151
4019.63456543,0.00142165
4021.56337280,0.00141937
4023.49218018,0.00145342
4025.42098755,0.00139568
4027.34979492,0.00131028
4029.27860229,0.00136129
4031.20740967,0.00149861
4033.13621704,0.00142712
4035.06502441,0.00146994
4036.99383179,0.00147694
4038.92263916,0.00134656
4040.85144653,0.00142230
4042.78025391,0.00136767
4044.70906128,0.00135592
4046.63786865,0.00145268
4048.56667603,0.00142774
4050.49548340,0.00139970
4052.42429077,0.00137545
4054.35309814,0.00137275
4056.28190552,0.00134615
4058.21071289,0.00140965
4060.13952026,0.00136294
4062.06832764,0.00130174
4063.99713501,0.00143964
4065.92594238,0.00138583
4067.85474976,0.00134726
4069.78355713,0.00142848
4071.71236450,0.00144449
4073.64117187,0.00139586
4075.56997925,0.00138971
4077.49878662,0.00142295
4079.42759399,0.00137492
4081.35640137,0.00142415
4083.28520874,0.00138648
4085.21401611,0.00132438
4087.14282349,0.00137781
4089.07163086,0.00136694
4091.00043823,0.00133312
4092.92924561,0.00125922
4094.85805298,0.00133230
4096.78686035,0.00143549
4098.71566772,0.00134888
4100.64447510,0.00125622
4102.57328247,0.00131260
4104.50208984,0.00137814
4106.43089722,0.00138383
4108.35970459,0.00143113
4110.28851196,0.00127587
4112.21731934,0.00125394
4114.14612671,0.00136938
4116.07493408,0.00124431
4118.00374145,0.00131865
4119.93254883,0.00136769
4121.86135620,0.00125897
4123.79016357,0.00131248
4125.71897095,0.00128255
4127.64777832,0.00121330
4129.57658569,0.00127881
4131.50539307,0.00126236
4133.43420044,0.00124320
4135.36300781,0.00130856
4137.29181519,0.00123916
4139.22062256,0.00120423
4141.14942993,0.00121778
4143.07823730,0.00123491
4145.00704468,0.00127917
4146.93585205,0.00120739
4148.86465942,0.00122203
4150.79346680,0.00128206
4152.72227417,0.00127492
4154.65108154,0.00123854
4156.57988892,0.00123608
4158.50869629,0.00130232
4160.43750366,0.00125791
4162.36631103,0.00126617
4164.29511841,0.00131811
4166.22392578,0.00122307
4168.15273315,0.00123909
4170.08154053,0.00132504
4172.01034790,0.00122055
4173.93915527,0.00122229
4175.86796265,0.00127401
4177.79677002,0.00120757
4179.72557739,0.00131035
4181.65438477,0.00128879
4183.58319214,0.00123969
4185.51199951,0.00131131
4187.44080688,0.00120910
4189.36961426,0.00116268
4191.29842163,0.00115659
4193.22722900,0.00119534
4195.15603638,0.00122574
4197.08484375,0.00118753
4199.01365112,0.00122327
4200.94245850,0.00118178
4202.87126587,0.00117870
4204.80007324,0.00119699
4206.72888062,0.00116508
4208.65768799,0.00118065
4210.58649536,0.00123897
4212.51530273,0.00127964
4214.44411011,0.00118354
4216.37291748,0.00117101
4218.30172485,0.00121169
4220.23053223,0.00116161
4222.15933960,0.00114706
4224.08814697,0.00111315
4226.01695435,0.00115137
4227.94576172,0.00120851
4229.87456909,0.00116028
4231.80337646,0.00118903
4233.73218384,0.00117422
4235.66099121,0.00109149
4237.58979858,0.00115828
4239.51860596,0.00116754
4241.44741333,0.00113859
4243.37622070,0.00117161
4245.30502808,0.00114949
4247.23383545,0.00121239
4249.16264282,0.00117958
4251.09145020,0.00110068
4253.02025757,0.00118277
4254.94906494,0.00117666
4256.87787231,0.00117252
4258.80667969,0.00115027
4260.73548706,0.00112225
4262.66429443,0.00117929
4264.59310181,0.00112589
4266.52190918,0.00113906
4268.45071655,0.00113315
4270.37952393,0.00106758
4272.30833130,0.00115701
4274.23713867,0.00114924
4276.16594604,0.00114010
4278.09475342,0.00116557
4280.02356079,0.00110436
4281.95236816,0.00116483
4283.88117554,0.00113608
4285.80998291,0.00107517
4287.73879028,0.00117948
4289.66759766,0.00114395
4291.59640503,0.00110014
4293.52521240,0.00115452
4295.45401978,0.00114970
4297.38282715,0.00117436
4299.31163452,0.00112989
4301.24044189,0.00109525
4303.16924927,0.00113514
4305.09805664,0.00107035
4307.02686401,0.00109508
4308.95567139,0.00111784
4310.88447876,0.00105458
4312.81328613,0.00109578
4314.74209351,0.00109815
4316.67090088,0.00110118
4318.59970825,0.00111214
4320.52851562,0.00109513
4322.45732300,0.00107771
4324.38613037,0.00104951
4326.31493774,0.00110630
4328.24374512,0.00108916
4330.17255249,0.00106430
4332.10135986,0.00105798
4334.03016724,0.00101610
4335.95897461,0.00109205
4337.88778198,0.00106334
4339.81658936,0.00102279
4341.74539673,0.00107674
4343.67420410,0.00104022
4345.60301147,0.00102785
4347.53181885,0.00105863
4349.46062622,0.00108055
4351.38943359,0.00106355
4353.31824097,0.00102536
4355.24704834,0.00102399
4357.17585571,0.00105381
4359.10466309,0.00106015
4361.03347046,0.00107387
4362.96227783,0.00112699
4364.89108520,0.00101791
4366.81989258,0.00095634
4368.74869995,0.00105741
4370.67750732,0.00099949
4372.60631470,0.00099781
4374.53512207,0.00109653
4376.46392944,0.00106557
4378.39273682,0.00102972
4380.32154419,0.00105473
4382.25035156,0.00109012
4384.17915894,0.00102527
4386.10796631,0.00099239
4388.03677368,0.00104875
4389.96558105,0.00099813
4391.89438843,0.00098193
4393.82319580,0.00098911
4395.75200317,0.00100169
4397.68081055,0.00105580
4399.60961792,0.00102288
4401.53842529,0.00106240
4403.46723267,0.00105072
4405.39604004,0.00093194
4407.32484741,0.00095958
4409.25365478,0.00098654
4411.18246216,0.00093650
4413.11126953,0.00092810
4415.04007690,0.00100324
4416.96888428,0.00103290
4418.89769165,0.00097129
4420.82649902,0.00101022
4422.75530640,0.00105788
4424.68411377,0.00099188
4426.61292114,0.00093056
4428.54172852,0.00092609
4430.47053589,0.00094427
4432.39934326,0.00097389
4434.32815063,0.00102786
4436.25695801,0.00103988
4438.18576538,0.00097115
4440.11457275,0.00092932
4442.04338013,0.00092600
4443.97218750,0.00089902
4445.90099487,0.00092917
4447.82980225,0.00098274
4449.75860962,0.00095071
4451.68741699,0.00091273
4453.61622437,0.00093142
4455.54503174,0.00092969
4457.47383911,0.00089128
4459.40264648,0.00089184
4461.33145386,0.00090502
4463.26026123,0.00091269
4465.18906860,0.00097271
4467.11787598,0.00100927
4469.04668335,0.00094394
4470.97549072,0.00094184
4472.90429810,0.00096509
4474.83310547,0.00091252
4476.76191284,0.00092732
4478.69072021,0.00087847
4480.61952759,0.00091560
4482.54833496,0.00100585
4484.47714233,0.00086338
4486.40594971,0.00088356
4488.33475708,0.00093882
4490.26356445,0.00090511
4492.19237183,0.00093803
4494.12117920,0.00088683
4496.04998657,0.00093314
4497.97879395,0.00096523
4499.90760132,0.00092773
4501.83640869,0.00094863
4503.76521606,0.00092010
4505.69402344,0.00087927
4507.62283081,0.00087857
4509.55163818,0.00088995
4511.48044556,0.00087587
4513.40925293,0.00091078
4515.33806030,0.00086000
4517.26686768,0.00081193
4519.19567505,0.00089316
4521.12448242,0.00085650
4523.05328979,0.00083791
4524.98209717,0.00085575
4526.91090454,0.00086799
4528.83971191,0.00093327
4530.76851929,0.00091045
4532.69732666,0.00081818
4534.62613403,0.00082003
4536.55494141,0.00084916
4538.48374878,0.00082149
4540.41255615,0.00091985
4542.34136353,0.00087880
4544.27017090,0.00082326
4546.19897827,0.00096612
4548.12778564,0.00090379
4550.05659302,0.00081469
4551.98540039,0.00081348
4553.91420776,0.00088405
4555.84301514,0.00081770
4557.77182251,0.00074569
4559.70062988,0.00095758
4561.62943726,0.00088816
4563.55824463,0.00085438
4565.48705200,0.00094652
4567.41585937,0.00086524
4569.34466675,0.00088705
4571.27347412,0.00087116
4573.20228149,0.00086907
4575.13108887,0.00081252
4577.05989624,0.00081490
4578.98870361,0.00090614
4580.91751099,0.00082495
4582.84631836,0.00084947
4584.77512573,0.00090975
4586.70393311,0.00091052
4588.63274048,0.00087259
4590.56154785,0.00082037
4592.49035522,0.00085006
4594.41916260,0.00085645
4596.34796997,0.00083429
4598.27677734,0.00077794
4600.20558472,0.00079931
4602.13439209,0.00082805
4604.06319946,0.00081637
4605.99200684,0.00087641
4607.92081421,0.00082367
4609.84962158,0.00075462
4611.77842895,0.00083999
4613.70723633,0.00086158
4615.63604370,0.00080127
4617.56485107,0.00085636
4619.49365845,0.00083766
4621.42246582,0.00078179
4623.35127319,0.00079637
4625.28008057,0.00072191
4627.20888794,0.00081260
4629.13769531,0.00087103
4631.06650269,0.00077513
4632.99531006,0.00080512
4634.92411743,0.00074729
4636.85292480,0.00067898
4638.78173218,0.00073975
4640.71053955,0.00080655
4642.63934692,0.00080373
4644.56815430,0.00080715
4646.49696167,0.00080940
4648.42576904,0.00071561
4650.35457642,0.00076909
4652.28338379,0.00082420
4654.21219116,0.00077519
4656.14099853,0.00077896
4658.06980591,0.00071115
4659.99861328,0.00072965
4661.92742065,0.00080948
4663.85622803,0.00080069
4665.78503540,0.00079064
4667.71384277,0.00075340
4669.64265015,0.00073047
4671.57145752,0.00076264
4673.50026489,0.00075584
4675.42907227,0.00071063
4677.35787964,0.00076322
4679.28668701,0.00076447
4681.21549438,0.00072250
4683.14430176,0.00077087
4685.07310913,0.00072705
4687.00191650,0.00074916
4688.93072388,0.00076924
4690.85953125,0.00073267
4692.78833862,0.00074558
4694.71714600,0.00066152
4696.64595337,0.00075943
4698.57476074,0.00080208
4700.50356812,0.00070517
4702.43237549,0.00076219
4704.36118286,0.00071502
4706.28999023,0.00074424
4708.21879761,0.00078074
4710.14760498,0.00068927
4712.07641235,0.00065764
4714.00521973,0.00068289
4715.93402710,0.00075548
4717.86283447,0.00075136
4719.79164185,0.00077346
4721.72044922,0.00074164
4723.64925659,0.00069237
4725.57806396,0.00072675
4727.50687134,0.00070956
4729.43567871,0.00073689
4731.36448608,0.00072011
4733.29329346,0.00073022
4735.22210083,0.00070634
4737.15090820,0.00067530
4739.07971558,0.00069988
4741.00852295,0.00059325
4742.93733032,0.00063680
4744.86613770,0.00070929
4746.79494507,0.00072341
4748.72375244,0.00076056
4750.65255981,0.00070745
4752.58136719,0.00068254
4754.51017456,0.00069884
4756.43898193,0.00073722
4758.36778931,0.00069294
4760.29659668,0.00068290
4762.22540405,0.00068265
4764.15421143,0.00066908
4766.08301880,0.00071559
4768.01182617,0.00060932
4769.94063354,0.00064901
4771.86944092,0.00075960
4773.79824829,0.00066759
4775.72705566,0.00061101
4777.65586304,0.00066499
4779.58467041,0.00074465
4781.51347778,0.00072077
4783.44228516,0.00064054
4785.37109253,0.00062996
4787.29989990,0.00071775
4789.22870728,0.00065570
4791.15751465,0.00054044
4793.08632202,0.00066088
4795.01512939,0.00073563
4796.94393677,0.00066476
4798.87274414,0.00066159
4800.80155151,0.00075722
4802.73035889,0.00068864
4804.65916626,0.00062802
4806.58797363,0.00067864
4808.51678101,0.00064734
4810.44558838,0.00066548
4812.37439575,0.00061787
4814.30320312,0.00066885
4816.23201050,0.00073272
4818.16081787,0.00066242
4820.08962524,0.00069194
4822.01843262,0.00062905
4823.94723999,0.00059775
4825.87604736,0.00065135
4827.80485474,0.00065251
4829.73366211,0.00065718
4831.66246948,0.00067237
4833.59127686,0.00068579
4835.52008423,0.00070204
4837.44889160,0.00068270
4839.37769897,0.00060463
4841.30650635,0.00062339
4843.23531372,0.00059075
4845.16412109,0.00059451
4847.09292847,0.00060134
4849.02173584,0.00057303
4850.95054321,0.00071633
4852.87935059,0.00063887
4854.80815796,0.00060815
4856.73696533,0.00066325
4858.66577270,0.00064675
4860.59458008,0.00074676
4862.52338745,0.00066664
4864.45219482,0.00061993
4866.38100220,0.00062082
4868.30980957,0.00062413
4870.23861694,0.00065740
4872.16742432,0.00065522
4874.09623169,0.00070688
4876.02503906,0.00063270
4877.95384644,0.00063066
4879.88265381,0.00064892
4881.81146118,0.00061941
4883.74026855,0.00064322
4885.66907593,0.00063445
4887.59788330,0.00062717
4889.52669067,0.00057133
4891.45549805,0.00061894
4893.38430542,0.00060003
4895.31311279,0.00051623
4897.24192017,0.00053751
4899.17072754,0.00055919
4901.09953491,0.00065143
4903.02834228,0.00062510
4904.95714966,0.00059162
4906.88595703,0.00061740
4908.81476440,0.00058172
4910.74357178,0.00062031
4912.67237915,0.00065725
4914.60118652,0.00066274
4916.52999390,0.00063032
4918.45880127,0.00058847
4920.38760864,0.00054809
4922.31641602,0.00058546
4924.24522339,0.00065090
4926.17403076,0.00059767
4928.10283813,0.00065518
4930.03164551,0.00064212
4931.96045288,0.00054746
4933.88926025,0.00060479
4935.81806763,0.00054246
4937.74687500,0.00051327
4939.67568237,0.00057235
4941.60448975,0.00057291
4943.53329712,0.00062325
4945.46210449,0.00060595
4947.39091187,0.00060092
4949.31971924,0.00058639
4951.24852661,0.00054584
4953.17733398,0.00060750
4955.10614136,0.00059055
4957.03494873,0.00059314
4958.96375610,0.00061254
4960.89256348,0.00056769
4962.82137085,0.00054931
4964.75017822,0.00052950
4966.67898560,0.00057414
4968.60779297,0.00057933
4970.53660034,0.00057621
4972.46540771,0.00058953
4974.39421509,0.00054468
4976.32302246,0.00054850
4978.25182983,0.00054966
4980.18063721,0.00059116
4982.10944458,0.00057788
4984.03825195,0.00047466
4985.96705933,0.00051928
4987.89586670,0.00058608
4989.82467407,0.00052660
4991.75348145,0.00048544
4993.68228882,0.00051641
4995.61109619,0.00050417
4997.53990356,0.00051342
4999.46871094,0.00056897
5001.39751831,0.00056313
5003.32632568,0.00055039
5005.25513306,0.00051876
5007.18394043,0.00049668
5009.11274780,0.00055613
5011.04155518,0.00055766
5012.97036255,0.00049970
5014.89916992,0.00052071
5016.82797729,0.00052732
5018.75678467,0.00050102
5020.68559204,0.00053070
5022.61439941,0.00054231
5024.54320679,0.00049898
5026.47201416,0.00050601
5028.40082153,0.00059251
5030.32962891,0.00059035
5032.25843628,0.00055249
5034.18724365,0.00049885
5036.11605103,0.00045482
5038.04485840,0.00056862
5039.97366577,0.00055067
5041.90247314,0.00049604
5043.83128052,0.00053747
5045.76008789,0.00049305
5047.68889526,0.00049204
5049.61770264,0.00050924
5051.54651001,0.00054480
5053.47531738,0.00054565
5055.40412476,0.00054183
5057.33293213,0.00053848
5059.26173950,0.00046767
5061.19054687,0.00051475
5063.11935425,0.00044614
5065.04816162,0.00044278
5066.97696899,0.00058709
5068.90577637,0.00046326
5070.83458374,0.00045149
5072.76339111,0.00054269
5074.69219849,0.00051112
5076.62100586,0.00049631
5078.54981323,0.00046852
5080.47862061,0.00050587
5082.40742798,0.00049949
5084.33623535,0.00051628
5086.26504272,0.00056796
5088.19385010,0.00053641
5090.12265747,0.00057782
5092.05146484,0.00053153
5093.98027222,0.00048536
5095.90907959,0.00050981
5097.83788696,0.00047169
5099.76669434,0.00048450
5101.69550171,0.00045696
5103.62430908,0.00048062
5105.55311645,0.00051226
5107.48192383,0.00049028
5109.41073120,0.00053809
5111.33953857,0.00047786
5113.26834595,0.00042661
5115.19715332,0.00045819
5117.12596069,0.00047416
5119.05476807,0.00045434
5120.98357544,0.00042467
5122.91238281,0.00048221
5124.84119019,0.00046528
5126.76999756,0.00043854
5128.69880493,0.00048661
5130.62761230,0.00048347
5132.55641968,0.00047936
5134.48522705,0.00046991
5136.41403442,0.00045451
5138.34284180,0.00046393
5140.27164917,0.00045822
5142.20045654,0.00041019
5144.12926392,0.00045725
5146.05807129,0.00050248
5147.98687866,0.00040719
5149.91568603,0.00045408
5151.84449341,0.00047074
5153.77330078,0.00037163
5155.70210815,0.00045789
5157.63091553,0.00046369
5159.55972290,0.00037065
5161.48853027,0.00044025
5163.41733765,0.00048344
5165.34614502,0.00040714
5167.27495239,0.00039011
5169.20375977,0.00045203
5171.13256714,0.00045934
5173.06137451,0.00047642
5174.99018188,0.00042945
5176.91898926,0.00031586
5178.84779663,0.00041893
5180.77660400,0.00049110
5182.70541138,0.00043984
5184.63421875,0.00044570
5186.56302612,0.00040335
5188.49183350,0.00045101
5190.42064087,0.00050615
5192.34944824,0.00040794
5194.27825562,0.00038882
5196.20706299,0.00040705
5198.13587036,0.00033348
5200.06467773,0.00038606
5201.99348511,0.00049913
5203.92229248,0.00046019
5205.85109985,0.00039842
5207.77990723,0.00038602
5209.70871460,0.00043797
5211.63752197,0.00042752
5213.56632935,0.00041731
5215.49513672,0.00048631
5217.42394409,0.00043462
5219.35275146,0.00041639
5221.28155884,0.00043903
5223.21036621,0.00044192
5225.13917358,0.00042035
5227.06798096,0.00041704
5228.99678833,0.00044419
5230.92559570,0.00039128
5232.85440308,0.00044349
5234.78321045,0.00041632
5236.71201782,0.00037928
5238.64082520,0.00043993
5240.56963257,0.00041646
5242.49843994,0.00043002
5244.42724731,0.00038628
5246.35605469,0.00042399
5248.28486206,0.00047459
5250.21366943,0.00042395
5252.14247681,0.00036889
5254.07128418,0.00037084
5256.00009155,0.00044326
5257.92889893,0.00037028
5259.85770630,0.00041280
5261.78651367,0.00042442
5263.71532104,0.00035563
5265.64412842,0.00040083
5267.57293579,0.00042682
5269.50174316,0.00052198
5271.43055054,0.00043393
5273.35935791,0.00036727
5275.28816528,0.00039166
5277.21697266,0.00038197
5279.14578003,0.00046012
5281.07458740,0.00041258
5283.00339478,0.00037574
5284.93220215,0.00040612
5286.86100952,0.00048605
5288.78981689,0.00042999
5290.71862427,0.00032172
5292.64743164,0.00041054
5294.57623901,0.00044895
5296.50504639,0.00042856
5298.43385376,0.00034602
5300.36266113,0.00034707
5302.29146851,0.00036489
5304.22027588,0.00037295
5306.14908325,0.00040831
5308.07789062,0.00035164
5310.00669800,0.00042925
5311.93550537,0.00040463
5313.86431274,0.00036192
5315.79312012,0.00043888
5317.72192749,0.00039844
5319.65073486,0.00034919
5321.57954224,0.00036978
5323.50834961,0.00040674
5325.43715698,0.00036665
5327.36596436,0.00042061
5329.29477173,0.00044149
5331.22357910,0.00038206
5333.15238647,0.00034969
5335.08119385,0.00033964
5337.01000122,0.00040982
5338.93880859,0.00032623
5340.86761597,0.00038056
5342.79642334,0.00043089
5344.72523071,0.00028652
5346.65403809,0.00030317
5348.58284546,0.00029019
5350.51165283,0.00033577
5352.44046020,0.00038264
5354.36926758,0.00037280
5356.29807495,0.00039343
5358.22688232,0.00036217
5360.15568970,0.00039153
5362.08449707,0.00036329
5364.01330444,0.00036309
5365.94211182,0.00039896
5367.87091919,0.00036044
5369.79972656,0.00037459
5371.72853394,0.00034612
5373.65734131,0.00032154
5375.58614868,0.00037722
5377.51495605,0.00037107
5379.44376343,0.00035656
5381.37257080,0.00037367
5383.30137817,0.00036913
5385.23018555,0.00039809
5387.15899292,0.00040680
5389.08780029,0.00034357
5391.01660767,0.00026718
5392.94541504,0.00032484
5394.87422241,0.00041931
5396.80302978,0.00035825
5398.73183716,0.00032706
5400.66064453,0.00033430
5402.58945190,0.00034313
5404.51825928,0.00039737
5406.44706665,0.00039495
5408.37587402,0.00029598
5410.30468140,0.00029125
5412.23348877,0.00037265
5414.16229614,0.00031981
5416.09110352,0.00034447
5418.01991089,0.00030997
5419.94871826,0.00027715
5421.87752563,0.00040285
5423.80633301,0.00033162
5425.73514038,0.00035677
5427.66394775,0.00040220
5429.59275513,0.00030804
5431.52156250,0.00032782
5433.45036987,0.00032312
5435.37917725,0.00033246
5437.30798462,0.00036987
5439.23679199,0.00032229
5441.16559936,0.00028737
5443.09440674,0.00035915
5445.02321411,0.00034627
5446.95202148,0.00028272
5448.88082886,0.00030599
5450.80963623,0.00033886
5452.73844360,0.00035223
5454.66725098,0.00030204
5456.59605835,0.00028229
5458.52486572,0.00022562
5460.45367310,0.00029882
5462.38248047,0.00038002
5464.31128784,0.00026258
5466.24009521,0.00032996
5468.16890259,0.00030516
5470.09770996,0.00024104
5472.02651733,0.00031809
5473.95532471,0.00034834
5475.88413208,0.00032347
5477.81293945,0.00025578
5479.74174683,0.00033872
5481.67055420,0.00030199
5483.59936157,0.00024235
5485.52816895,0.00027659
5487.45697632,0.00031563
5489.38578369,0.00043024
5491.31459106,0.00032135
5493.24339844,0.00028728
5495.17220581,0.00030507
5497.10101318,0.00022778
5499.02982056,0.00028867
5500.95862793,0.00035969
5502.88743530,0.00041576
5504.81624268,0.00032998
5506.74505005,0.00025617
5508.67385742,0.00034164
5510.60266479,0.00038019
5512.53147217,0.00033622
5514.46027954,0.00033262
5516.38908691,0.00032815
5518.31789429,0.00025805
5520.24670166,0.00032618
5522.17550903,0.00033577
5524.10431641,0.00028369
5526.03312378,0.00033564
5527.96193115,0.00031746
5529.89073853,0.00033950
5531.81954590,0.00035882
5533.74835327,0.00029118
5535.67716064,0.00027479
5537.60596802,0.00031051
5539.53477539,0.00029808
5541.46358276,0.00033263
5543.39239014,0.00039602
5545.32119751,0.00032325
5547.25000488,0.00031695
5549.17881226,0.00032876
5551.10761963,0.00029026
5553.03642700,0.00031543
5554.96523437,0.00029977
5556.89404175,0.00028955
5558.82284912,0.00027133
5560.75165649,0.00024369
5562.68046387,0.00025938
5564.60927124,0.00027818
5566.53807861,0.00033013
5568.46688599,0.00034073
5570.39569336,0.00030048
5572.32450073,0.00028400
5574.25330811,0.00025027
5576.18211548,0.00026640
5578.11092285,0.00035025
5580.03973022,0.00031755
5581.96853760,0.00022296
5583.89734497,0.00024030
5585.82615234,0.00028118
5587.75495972,0.00027926
5589.68376709,0.00033091
5591.61257446,0.00030231
5593.54138184,0.00019071
5595.47018921,0.00028086
5597.39899658,0.00031143
5599.32780395,0.00020004
5601.25661133,0.00024511
5603.18541870,0.00032873
5605.11422607,0.00035795
5607.04303345,0.00031796
5608.97184082,0.00027158
5610.90064819,0.00027070
5612.82945557,0.00025591
5614.75826294,0.00024802
5616.68707031,0.00026675
5618.61587769,0.00028578
5620.54468506,0.00026060
5622.47349243,0.00027686
5624.40229980,0.00026786
5626.33110718,0.00023501
5628.25991455,0.00028435
5630.18872192,0.00027924
5632.11752930,0.00026363
5634.04633667,0.00029083
5635.97514404,0.00030969
5637.90395142,0.00027191
5639.83275879,0.00024574
5641.76156616,0.00029901
5643.69037353,0.00023923
5645.61918091,0.00021475
5647.54798828,0.00027383
5649.47679565,0.00022773
5651.40560303,0.00024207
5653.33441040,0.00027670
5655.26321777,0.00026521
5657.19202515,0.00031008
5659.12083252,0.00034620
5661.04963989,0.00030545
5662.97844727,0.00024523
5664.90725464,0.00026063
5666.83606201,0.00027722
5668.76486938,0.00028074
5670.69367676,0.00029892
5672.62248413,0.00029307
5674.55129150,0.00025821
5676.48009888,0.00025517
5678.40890625,0.00034713
5680.33771362,0.00030823
5682.26652100,0.00023880
5684.19532837,0.00029242
5686.12413574,0.00029741
5688.05294311,0.00032812
5689.98175049,0.00027694
5691.91055786,0.00020315
5693.83936523,0.00020282
5695.76817261,0.00020561
5697.69697998,0.00031945
5699.62578735,0.00028326
5701.55459473,0.00018685
5703.48340210,0.00024431
5705.41220947,0.00027205
5707.34101685,0.00026828
5709.26982422,0.00020423
5711.19863159,0.00021503
5713.12743896,0.00030703
5715.05624634,0.00028247
5716.98505371,0.00022247
5718.91386108,0.00024749
5720.84266846,0.00025423
5722.77147583,0.00021901
5724.70028320,0.00025927
5726.62909058,0.00018050
5728.55789795,0.00020890
5730.48670532,0.00036259
5732.41551270,0.00025568
5734.34432007,0.00022734
5736.27312744,0.00020202
5738.20193481,0.00017306
5740.13074219,0.00028970
5742.05954956,0.00021565
5743.98835693,0.00019188
5745.91716431,0.00024318
5747.84597168,0.00020489
5749.77477905,0.00029456
5751.70358643,0.00033446
5753.63239380,0.00020655
5755.56120117,0.00021919
5757.49000854,0.00028617
5759.41881592,0.00021109
5761.34762329,0.00019234
5763.27643066,0.00022379
5765.20523804,0.00030018
5767.13404541,0.00030999
5769.06285278,0.00020128
5770.99166016,0.00022699
5772.92046753,0.00025994
5774.84927490,0.00028353
5776.77808228,0.00026187
5778.70688965,0.00019163
5780.63569702,0.00024208
5782.56450439,0.00023399
5784.49331177,0.00022414
5786.42211914,0.00027337
5788.35092651,0.00029901
5790.27973389,0.00025652
5792.20854126,0.00015437
5794.13734863,0.00019420
5796.06615601,0.00026733
5797.99496338,0.00025008
5799.92377075,0.00022075
5801.85257812,0.00018184
5803.78138550,0.00020098
5805.71019287,0.00023438
5807.63900024,0.00021411
5809.56780762,0.00023728
5811.49661499,0.00021924
5813.42542236,0.00017720
5815.35422974,0.00022465
5817.28303711,0.00021583
5819.21184448,0.00023316
5821.14065186,0.00025590
5823.06945923,0.00018345
5824.99826660,0.00016918
5826.92707397,0.00018795
5828.85588135,0.00022524
5830.78468872,0.00021695
5832.71349609,0.00021290
5834.64230347,0.00025674
5836.57111084,0.00021038
5838.49991821,0.00024534
5840.42872559,0.00027268
5842.35753296,0.00020360
5844.28634033,0.00021126
5846.21514770,0.00021973
5848.14395508,0.00024249
5850.07276245,0.00021080
5852.00156982,0.00017548
5853.93037720,0.00027104
5855.85918457,0.00027027
5857.78799194,0.00022579
5859.71679932,0.00025558
5861.64560669,0.00023918
5863.57441406,0.00020598
5865.50322144,0.00020069
5867.43202881,0.00021549
5869.36083618,0.00022189
5871.28964355,0.00022857
5873.21845093,0.00021026
5875.14725830,0.00017594
5877.07606567,0.00024030
5879.00487305,0.00024834
5880.93368042,0.00020354
5882.86248779,0.00021136
5884.79129517,0.00017574
5886.72010254,0.00021625
5888.64890991,0.00024751
5890.57771728,0.00019520
5892.50652466,0.00020238
5894.43533203,0.00023240
5896.36413940,0.00022570
5898.29294678,0.00020579
5900.22175415,0.00021372
5902.15056152,0.00016865
5904.07936890,0.00017286
5906.00817627,0.00020693
5907.93698364,0.00015446
5909.86579102,0.00013833
5911.79459839,0.00016400
5913.72340576,0.00027855
5915.65221313,0.00027786
5917.58102051,0.00018654
5919.50982788,0.00023148
5921.43863525,0.00018716
5923.36744263,0.00016391
5925.29625000,0.00021847
5927.22505737,0.00017751
5929.15386475,0.00016981
5931.08267212,0.00021371
5933.01147949,0.00017382
5934.94028686,0.00017390
5936.86909424,0.00022222
5938.79790161,0.00020843
5940.72670898,0.00025585
5942.65551636,0.00017255
5944.58432373,0.00014351
5946.51313110,0.00025728
5948.44193848,0.00013324
5950.37074585,0.00014766
5952.29955322,0.00020625
5954.22836060,0.00013353
5956.15716797,0.00021426
5958.08597534,0.00023729
5960.01478271,0.00019078
5961.94359009,0.00017073
5963.87239746,0.00017002
5965.80120483,0.00016388
5967.73001221,0.00015234
5969.65881958,0.00019593
5971.58762695,0.00021188
5973.51643433,0.00019716
5975.44524170,0.00017400
5977.37404907,0.00015503
5979.30285645,0.00016854
5981.23166382,0.00017923
5983.16047119,0.00016039
5985.08927856,0.00017194
5987.01808594,0.00014907
5988.94689331,0.00012968
5990.87570068,0.00019330
5992.80450806,0.00012689
5994.73331543,0.00016267
5996.66212280,0.00025120
5998.59093018,0.00015052
6000.51973755,0.00018672
