399.26312622,0.00180041
401.19193359,0.00258567
403.12074097,0.00316644
405.04954834,0.00290784
406.97835571,0.00249687
408.90716309,0.00320227
410.83597046,0.00366421
412.76477783,0.00364825
414.69358521,0.00338890
416.62239258,0.00335263
418.55119995,0.00286266
420.48000732,0.00288050
422.40881470,0.00333623
424.33762207,0.00329323
426.26642944,0.00371432
428.19523682,0.00357701
430.12404419,0.00359852
432.05285156,0.00382387
433.98165894,0.00340706
435.91046631,0.00283708
437.83927368,0.00313917
439.76808105,0.00378812
441.69688843,0.00304854
443.62569580,0.00267292
445.55450317,0.00293469
447.48331055,0.00301171
449.41211792,0.00270260
451.34092529,0.00252566
453.26973267,0.00294292
455.19854004,0.00240312
457.12734741,0.00193359
459.05615479,0.00202613
460.98496216,0.00183791
462.91376953,0.00177396
464.84257690,0.00180310
466.77138428,0.00147367
468.70019165,0.00156833
470.62899902,0.00157934
472.55780640,0.00064475
474.48661377,0.00113102
476.41542114,0.00140661
478.34422852,0.00088375
480.27303589,0.00106302
482.20184326,0.00048707
484.13065063,0.00080945
486.05945801,0.00108003
487.98826538,0.00043378
489.91707275,0.00069059
491.84588013,0.00050139
493.77468750,0.00031228
495.70349487,0.00056822
497.63230225,0.00031378
499.56110962,0.00005915
501.48991699,0.00002851
503.41872437,0.00009031
505.34753174,-0.00013005
507.27633911,0.00007408
509.20514648,0.00045185
511.13395386,0.00013652
513.06276123,-0.00007781
514.99156860,0.00019417
516.92037598,0.00018520
518.84918335,-0.00016286
520.77799072,0.00051876
522.70679810,0.00034014
524.63560547,-0.00020706
526.56441284,0.00029761
528.49322021,0.00006646
530.42202759,0.00024028
532.35083496,0.00024185
534.27964233,0.00064686
536.20844971,0.00092990
538.13725708,0.00004576
540.06606445,0.00010616
541.99487183,-0.00011092
543.92367920,0.00007560
545.85248657,0.00077920
547.78129395,0.00040152
549.71010132,-0.00013344
551.63890869,0.00034994
553.56771606,0.00033145
555.49652344,-0.00010629
557.42533081,0.00053817
559.35413818,0.00059667
561.28294556,-0.00015505
563.21175293,-0.00016270
565.14056030,0.00021857
567.06936768,0.00050267
568.99817505,0.00037501
570.92698242,0.00007592
572.85578979,0.00031049
574.78459717,0.00031289
576.71340454,0.00014922
578.64221191,0.00031932
580.57101929,0.00024093
582.49982666,0.00013384
584.42863403,0.00029189
586.35744141,0.00023135
588.28624878,0.00030056
590.21505615,0.00012781
592.14386353,-0.00018939
594.07267090,0.00006564
596.00147827,0.00027038
597.93028564,0.00044441
599.85909302,0.00019960
601.78790039,0.00015707
603.71670776,0.00073899
605.64551514,0.00036845
607.57432251,0.00023391
609.50312988,0.00014819
611.43193726,0.00000697
613.36074463,0.00009708
615.28955200,0.00000280
617.21835938,0.00019571
619.14716675,-0.00026273
621.07597412,-0.00031499
623.00478149,-0.00015359
624.93358887,-0.00023264
626.86239624,-0.00011431
628.79120361,-0.00008202
630.72001099,0.00064946
632.64881836,0.00139787
634.57762573,0.00186870
636.50643311,0.00220990
638.43524048,0.00273111
640.36404785,0.00296279
642.29285522,0.00283706
644.22166260,0.00345539
646.15046997,0.00372357
648.07927734,0.00374971
650.00808472,0.00408335
651.93689209,0.00448643
653.86569946,0.00465425
655.79450684,0.00439460
657.72331421,0.00487611
659.65212158,0.00552959
661.58092896,0.00521014
663.50973633,0.00537042
665.43854370,0.00578078
667.36735107,0.00510760
669.29615845,0.00588689
671.22496582,0.00691407
673.15377319,0.00657555
675.08258057,0.00722138
677.01138794,0.00713196
678.94019531,0.00691461
680.86900269,0.00757642
682.79781006,0.00733589
684.72661743,0.00714787
686.65542480,0.00734920
688.58423218,0.00721048
690.51303955,0.00708259
692.44184692,0.00767328
694.37065430,0.00833952
696.29946167,0.00929595
698.22826904,0.01081682
700.15707642,0.01158239
702.08588379,0.01126307
704.01469116,0.01049653
705.94349854,0.00941586
707.87230591,0.00766515
709.80111328,0.00629044
711.72992065,0.00487759
713.65872803,0.00292717
715.58753540,0.00127183
717.51634277,0.00039706
719.44515015,0.00057384
721.37395752,0.00026556
723.30276489,-0.00016100
725.23157227,-0.00012689
727.16037964,0.00002331
729.08918701,0.00006429
731.01799438,-0.00016531
732.94680176,0.00002247
734.87560913,-0.00018355
736.80441650,-0.00023833
738.73322388,-0.00024407
740.66203125,-0.00012353
742.59083862,0.00012331
744.51964600,-0.00015028
746.44845337,0.00030558
748.37726074,0.00022477
750.30606812,0.00002113
752.23487549,0.00021626
754.16368286,0.00016463
756.09249023,0.00029367
758.02129761,0.00004944
759.95010498,0.00015968
761.87891235,0.00027856
763.80771973,0.00032455
765.73652710,0.00035018
767.66533447,0.00010978
769.59414185,0.00028634
771.52294922,0.00029013
773.45175659,0.00047321
775.38056396,0.00030269
777.30937134,0.00049569
779.23817871,0.00069575
781.16698608,0.00022053
783.09579346,0.00070589
785.02460083,0.00079734
786.95340820,0.00050309
788.88221558,0.00063107
790.81102295,0.00053376
792.73983032,0.00057696
794.66863770,0.00075793
796.59744507,0.00078400
798.52625244,0.00106975
800.45505981,0.00162383
802.38386719,0.00142393
804.31267456,0.00085773
806.24148193,0.00091226
808.17028931,0.00100763
810.09909668,0.00057343
812.02790405,0.00044496
813.95671143,0.00075835
815.88551880,0.00061671
817.81432617,0.00026378
819.74313354,0.00037846
821.67194092,0.00068873
823.60074829,0.00055838
825.52955566,0.00061746
827.45836304,0.00090579
829.38717041,0.00118069
831.31597778,0.00146837
833.24478516,0.00170604
835.17359253,0.00237825
837.10239990,0.00222822
839.03120728,0.00219298
840.96001465,0.00278837
842.88882202,0.00204143
844.81762939,0.00164739
846.74643677,0.00203736
848.67524414,0.00192684
850.60405151,0.00169449
852.53285889,0.00160271
854.46166626,0.00133506
856.39047363,0.00085049
858.31928101,0.00095336
860.24808838,0.00107075
862.17689575,0.00074322
864.10570313,0.00045859
866.03451050,0.00020852
867.96331787,0.00025051
869.89212524,0.00039869
871.82093262,0.00037315
873.74973999,0.00022359
875.67854736,0.00011582
877.60735474,0.00020796
879.53616211,0.00027527
881.46496948,0.00045471
883.39377686,0.00067468
885.32258423,0.00047501
887.25139160,0.00041366
889.18019897,0.00047723
891.10900635,0.00041320
893.03781372,0.00058550
894.96662109,0.00050159
896.89542847,0.00033714
898.82423584,0.00043570
900.75304321,0.00052980
902.68185059,0.00050384
904.61065796,0.00057173
906.53946533,0.00072265
908.46827271,0.00056940
910.39708008,0.00062824
912.32588745,0.00080318
914.25469482,0.00085508
916.18350220,0.00112816
918.11230957,0.00153262
920.04111694,0.00163371
921.96992432,0.00155406
923.89873169,0.00176107
925.82753906,0.00207400
927.75634644,0.00218614
929.68515381,0.00220107
931.61396118,0.00256488
933.54276855,0.00276649
935.47157593,0.00293677
937.40038330,0.00324636
939.32919067,0.00331322
941.25799805,0.00355888
943.18680542,0.00351535
945.11561279,0.00344425
947.04442017,0.00345302
948.97322754,0.00353572
950.90203491,0.00356204
952.83084229,0.00335650
954.75964966,0.00340127
956.68845703,0.00305407
958.61726440,0.00321976
960.54607178,0.00340787
962.47487915,0.00321670
964.40368652,0.00350456
966.33249390,0.00352701
968.26130127,0.00379686
970.19010864,0.00380538
972.11891602,0.00398161
974.04772339,0.00462306
975.97653076,0.00470689
977.90533813,0.00488109
979.83414551,0.00535266
981.76295288,0.00621372
983.69176025,0.00696323
985.62056763,0.00757145
987.54937500,0.00836968
989.47818237,0.00933279
991.40698975,0.01053980
993.33579712,0.01156864
995.26460449,0.01247305
997.19341187,0.01353720
999.12221924,0.01482541
1001.05102661,0.01593301
1002.97983398,0.01700549
1004.90864136,0.01811520
1006.83744873,0.01927924
1008.76625610,0.02039354
1010.69506348,0.02145781
1012.62387085,0.02280599
1014.55267822,0.02380538
1016.48148560,0.02515011
1018.41029297,0.02655261
1020.33910034,0.02759926
1022.26790771,0.02885954
1024.19671509,0.02993398
1026.12552246,0.03105923
1028.05432983,0.03209401
1029.98313721,0.03319344
1031.91194458,0.03387047
1033.84075195,0.03423708
1035.76955933,0.03500949
1037.69836670,0.03563315
1039.62717407,0.03574025
1041.55598145,0.03564016
1043.48478882,0.03555605
1045.41359619,0.03475112
1047.34240356,0.03463014
1049.27121094,0.03437074
1051.20001831,0.03327961
1053.12882568,0.03298077
1055.05763306,0.03209502
1056.98644043,0.03132303
1058.91524780,0.03064464
1060.84405518,0.02978568
1062.77286255,0.02896041
1064.70166992,0.02785838
1066.63047729,0.02706909
1068.55928467,0.02564647
1070.48809204,0.02465101
1072.41689941,0.02356308
1074.34570679,0.02228764
1076.27451416,0.02166606
1078.20332153,0.02044512
1080.13212891,0.01941567
1082.06093628,0.01848584
1083.98974365,0.01774706
1085.91855103,0.01691815
1087.84735840,0.01593404
1089.77616577,0.01544833
1091.70497314,0.01455654
1093.63378052,0.01389275
1095.56258789,0.01359094
1097.49139526,0.01307841
1099.42020264,0.01276105
1101.34901001,0.01248411
1103.27781738,0.01211523
1105.20662476,0.01204405
1107.13543213,0.01166979
1109.06423950,0.01122128
1110.99304687,0.01119304
1112.92185425,0.01106617
1114.85066162,0.01086608
1116.77946899,0.01046502
1118.70827637,0.01098474
1120.63708374,0.01142652
1122.56589111,0.01099319
1124.49469849,0.01106414
1126.42350586,0.01118121
1128.35231323,0.01163024
1130.28112061,0.01186092
1132.20992798,0.01188263
1134.13873535,0.01243461
1136.06754272,0.01319870
1137.99635010,0.01375819
1139.92515747,0.01443914
1141.85396484,0.01564202
1143.78277222,0.01634669
1145.71157959,0.01764247
1147.64038696,0.01892990
1149.56919434,0.01966660
1151.49800171,0.02090649
1153.42680908,0.02186722
1155.35561646,0.02285301
1157.28442383,0.02366316
1159.21323120,0.02472911
1161.14203857,0.02578534
1163.07084595,0.02657174
1164.99965332,0.02753485
1166.92846069,0.02840351
1168.85726807,0.02967784
1170.78607544,0.03069189
1172.71488281,0.03192551
1174.64369019,0.03327394
1176.57249756,0.03447539
1178.50130493,0.03579588
1180.43011230,0.03679359
1182.35891968,0.03841513
1184.28772705,0.04031408
1186.21653442,0.04221579
1188.14534180,0.04421739
1190.07414917,0.04615969
1192.00295654,0.04821035
1193.93176392,0.05047417
1195.86057129,0.05288669
1197.78937866,0.05531365
1199.71818604,0.05781695
1201.64699341,0.06013119
1203.57580078,0.06275834
1205.50460815,0.06511880
1207.43341553,0.06747513
1209.36222290,0.07000253
1211.29103027,0.07194995
1213.21983765,0.07417154
1215.14864502,0.07598455
1217.07745239,0.07743551
1219.00625977,0.07881539
1220.93506714,0.08001520
1222.86387451,0.08112723
1224.79268188,0.08183566
1226.72148926,0.08252211
1228.65029663,0.08302882
1230.57910400,0.08332559
1232.50791138,0.08329602
1234.43671875,0.08353075
1236.36552612,0.08348431
1238.29433350,0.08303288
1240.22314087,0.08320588
1242.15194824,0.08296600
1244.08075562,0.08249316
1246.00956299,0.08201414
1247.93837036,0.08149899
1249.86717773,0.08097740
1251.79598511,0.08038870
1253.72479248,0.07956158
1255.65359985,0.07833956
1257.58240723,0.07740901
1259.51121460,0.07608528
1261.44002197,0.07497582
1263.36882935,0.07408468
1265.29763672,0.07280990
1267.22644409,0.07206780
1269.15525146,0.07121767
1271.08405884,0.06990463
1273.01286621,0.06875662
1274.94167358,0.06772688
1276.87048096,0.06633912
1278.79928833,0.06507162
1280.72809570,0.06376488
1282.65690308,0.06247566
1284.58571045,0.06140032
1286.51451782,0.05999833
1288.44332520,0.05894945
1290.37213257,0.05819361
1292.30093994,0.05773213
1294.22974731,0.05716033
1296.15855469,0.05667531
1298.08736206,0.05678172
1300.01616943,0.05686486
1301.94497681,0.05715917
1303.87378418,0.05752907
1305.80259155,0.05803275
1307.73139893,0.05864631
1309.66020630,0.05995283
1311.58901367,0.06076143
1313.51782104,0.06143383
1315.44662842,0.06363747
1317.37543579,0.06462297
1319.30424316,0.06600074
1321.23305054,0.06869480
1323.16185791,0.07069509
1325.09066528,0.07279576
1327.01947266,0.07486632
1328.94828003,0.07683259
1330.87708740,0.07871428
1332.80589478,0.08063859
1334.73470215,0.08208749
1336.66350952,0.08284122
1338.59231689,0.08216066
1340.52112427,0.08293834
1342.44993164,0.08669044
1344.37873901,0.08724656
1346.30754639,0.08694463
1348.23635376,0.08721761
1350.16516113,0.08638314
1352.09396851,0.08638940
1354.02277588,0.08509998
1355.95158325,0.08451566
1357.88039062,0.08429732
1359.80919800,0.08267432
1361.73800537,0.07905798
1363.66681274,0.07751319
1365.59562012,0.08144201
1367.52442749,0.07982488
1369.45323486,0.07884299
1371.38204224,0.08048136
1373.31084961,0.07586984
1375.23965698,0.07621401
1377.16846436,0.07854728
1379.09727173,0.07815323
1381.02607910,0.07824379
1382.95488647,0.07801431
1384.88369385,0.07806054
1386.81250122,0.07442781
1388.74130859,0.07503854
1390.67011597,0.08181870
1392.59892334,0.07986499
1394.52773071,0.07407802
1396.45653809,0.07802416
1398.38534546,0.07793155
1400.31415283,0.07729599
1402.24296021,0.08425540
1404.17176758,0.07926416
1406.10057495,0.07937328
1408.02938232,0.08323873
1409.95818970,0.07981472
1411.88699707,0.08150728
1413.81580444,0.07872568
1415.74461182,0.07997371
1417.67341919,0.07206082
1419.60222656,0.06369022
1421.53103394,0.07429388
1423.45984131,0.07215833
1425.38864868,0.06949455
1427.31745605,0.07091752
1429.24626343,0.06545232
1431.17507080,0.06324787
1433.10387817,0.06427820
1435.03268555,0.05908985
1436.96149292,0.04913945
1438.89030029,0.05589589
1440.81910767,0.05822183
1442.74791504,0.05346854
1444.67672241,0.05624758
1446.60552979,0.05137557
1448.53433716,0.05213826
1450.46314453,0.05398229
1452.39195190,0.05473842
1454.32075928,0.05712324
1456.24956665,0.04649779
1458.17837402,0.04819704
1460.10718140,0.06529552
1462.03598877,0.06988837
1463.96479614,0.06906873
1465.89360352,0.07200760
1467.82241089,0.08257028
1469.75121826,0.08912289
1471.68002563,0.07857840
1473.60883301,0.08224755
1475.53764038,0.09475836
1477.46644775,0.10198256
1479.39525513,0.11257835
1481.32406250,0.11431751
1483.25286987,0.12150328
1485.18167725,0.12581703
1487.11048462,0.12333758
1489.03929199,0.12259164
1490.96809937,0.12293057
1492.89690674,0.14450130
1494.82571411,0.14170879
1496.75452148,0.12569594
1498.68332886,0.14300151
1500.61213623,0.14801249
1502.54094360,0.15913245
1504.46975098,0.15111229
1506.39855835,0.10766975
1508.32736572,0.13157468
1510.25617310,0.15700525
1512.18498047,0.15171656
1514.11378784,0.16526972
1516.04259521,0.14844263
1517.97140259,0.15426230
1519.90020996,0.14980951
1521.82901733,0.12786783
1523.75782471,0.15825269
1525.68663208,0.15613419
1527.61543945,0.15472591
1529.54424683,0.17265287
1531.47305420,0.16579932
1533.40186157,0.15120065
1535.33066895,0.15997499
1537.25947632,0.17315497
1539.18828369,0.12233217
1541.11709106,0.12603635
1543.04589844,0.15392229
1544.97470581,0.14655837
1546.90351318,0.17564046
1548.83232056,0.16401702
1550.76112793,0.16835284
1552.68993530,0.16855416
1554.61874268,0.15120861
1556.54755005,0.16328560
1558.47635742,0.11323255
1560.40516479,0.12066944
1562.33397217,0.17687929
1564.26277954,0.16704729
1566.19158691,0.17181778
1568.12039429,0.17046338
1570.04920166,0.14947754
1571.97800903,0.17368026
1573.90681641,0.17695464
1575.83562378,0.13832241
1577.76443115,0.15637460
1579.69323853,0.17840853
1581.62204590,0.17058840
1583.55085327,0.17524606
1585.47966064,0.17252234
1587.40846802,0.17399256
1589.33727539,0.17243752
1591.26608276,0.17218858
1593.19489014,0.17261803
1595.12369751,0.17030472
1597.05250488,0.17306720
1598.98131226,0.17181009
1600.91011963,0.17280087
1602.83892700,0.16950032
1604.76773437,0.17262486
1606.69654175,0.17032108
1608.62534912,0.16955194
1610.55415649,0.16950308
1612.48296387,0.17038596
1614.41177124,0.17353223
1616.34057861,0.14046438
1618.26938599,0.15178990
1620.19819336,0.17921957
1622.12700073,0.15793496
1624.05580811,0.15810180
1625.98461548,0.16679612
1627.91342285,0.16585365
1629.84223022,0.16460694
1631.77103760,0.17651328
1633.69984497,0.16281968
1635.62865234,0.13225245
1637.55745972,0.15470970
1639.48626709,0.17196918
1641.41507446,0.16764310
1643.34388184,0.17243367
1645.27268921,0.15509488
1647.20149658,0.13425049
1649.13030396,0.16865462
1651.05911133,0.16140053
1652.98791870,0.10007393
1654.91672607,0.13726074
1656.84553345,0.17631471
1658.77434082,0.16816762
1660.70314819,0.17332494
1662.63195557,0.15687792
1664.56076294,0.16505373
1666.48957031,0.17865169
1668.41837769,0.15501797
1670.34718506,0.14951161
1672.27599243,0.17114758
1674.20479980,0.15800405
1676.13360718,0.15014769
1678.06241455,0.17460613
1679.99122192,0.16815823
1681.92002930,0.16600242
1683.84883667,0.13414204
1685.77764404,0.13098831
1687.70645142,0.18372110
1689.63525879,0.15881661
1691.56406616,0.17414354
1693.49287354,0.17960998
1695.42168091,0.12789768
1697.35048828,0.15932840
1699.27929565,0.14054304
1701.20810303,0.12380423
1703.13691040,0.17278896
1705.06571777,0.15831682
1706.99452515,0.15868670
1708.92333252,0.17406283
1710.85213989,0.16673431
1712.78094727,0.16990569
1714.70975464,0.15723073
1716.63856201,0.14018357
1718.56736938,0.13725942
1720.49617676,0.16398680
1722.42498413,0.17158410
1724.35379150,0.15822688
1726.28259888,0.17315266
1728.21140625,0.15958627
1730.14021362,0.16019243
1732.06902100,0.15719593
1733.99782837,0.11713742
1735.92663574,0.14668933
1737.85544312,0.16453743
1739.78425049,0.14496228
1741.71305786,0.15835848
1743.64186523,0.16090427
1745.57067261,0.16086337
1747.49947998,0.16241923
1749.42828735,0.15516455
1751.35709473,0.14765778
1753.28590210,0.16428775
1755.21470947,0.17311841
1757.14351685,0.15649340
1759.07232422,0.17300263
1761.00113159,0.16270497
1762.92993896,0.15546256
1764.85874634,0.18011251
1766.78755371,0.16168919
1768.71636108,0.16233099
1770.64516846,0.16178025
1772.57397583,0.14416368
1774.50278320,0.16167992
1776.43159058,0.17164758
1778.36039795,0.16905394
1780.28920532,0.16684909
1782.21801270,0.16820891
1784.14682007,0.16813706
1786.07562744,0.16438392
1788.00443481,0.17330566
1789.93324219,0.16922773
1791.86204956,0.15200314
1793.79085693,0.15836492
1795.71966431,0.17096451
1797.64847168,0.16888145
1799.57727905,0.16589883
1801.50608643,0.16265213
1803.43489380,0.16827954
1805.36370117,0.17235228
1807.29250854,0.16982234
1809.22131592,0.17045820
1811.15012329,0.16546699
1813.07893066,0.17100114
1815.00773804,0.17211708
1816.93654541,0.16973674
1818.86535278,0.17144082
1820.79416016,0.17052773
1822.72296753,0.17325976
1824.65177490,0.16137065
1826.58058228,0.16702259
1828.50938965,0.16783798
1830.43819702,0.15643391
1832.36700439,0.17103478
1834.29581177,0.17028575
1836.22461914,0.16974640
1838.15342651,0.16931675
1840.08223389,0.17028505
1842.01104126,0.17089455
1843.93984863,0.15039212
1845.86865601,0.16031316
1847.79746338,0.17022634
1849.72627075,0.16634652
1851.65507812,0.17157131
1853.58388550,0.16786996
1855.51269287,0.16972956
1857.44150024,0.16887479
1859.37030762,0.16752228
1861.29911499,0.16880332
1863.22792236,0.16677600
1865.15672974,0.16875821
1867.08553711,0.16291307
1869.01434448,0.15553069
1870.94315186,0.16194713
1872.87195923,0.16874853
1874.80076660,0.16584232
1876.72957397,0.16670927
1878.65838135,0.16629654
1880.58718872,0.16513817
1882.51599609,0.16683757
1884.44480347,0.16385239
1886.37361084,0.16630876
1888.30241821,0.16261643
1890.23122559,0.15899393
1892.16003296,0.16552463
1894.08884033,0.16298199
1896.01764771,0.16211894
1897.94645508,0.16438314
1899.87526245,0.16342090
1901.80406982,0.16382150
1903.73287720,0.16252549
1905.66168457,0.16331246
1907.59049194,0.16185547
1909.51929932,0.16065210
1911.44810669,0.16190037
1913.37691406,0.16182676
1915.30572144,0.16340938
1917.23452881,0.15609992
1919.16333618,0.15567993
1921.09214355,0.16239206
1923.02095093,0.15693414
1924.94975830,0.16001281
1926.87856567,0.16202709
1928.80737305,0.15971979
1930.73618042,0.16207710
1932.66498779,0.15947479
1934.59379517,0.16109040
1936.52260254,0.16006193
1938.45140991,0.16040224
1940.38021729,0.16064340
1942.30902466,0.15487647
1944.23783203,0.15794772
1946.16663940,0.15974030
1948.09544678,0.15931420
1950.02425415,0.15992406
1951.95306152,0.15932524
1953.88186890,0.15964705
1955.81067627,0.15868375
1957.73948364,0.15935005
1959.66829102,0.15904543
1961.59709839,0.15861809
1963.52590576,0.15914364
1965.45471313,0.15814304
1967.38352051,0.15658741
1969.31232788,0.15768778
1971.24113525,0.15892211
1973.16994263,0.15786502
1975.09875000,0.15859409
1977.02755737,0.15776992
1978.95636475,0.15778355
1980.88517212,0.15772150
1982.81397949,0.15698989
1984.74278687,0.15785569
1986.67159424,0.15609071
1988.60040161,0.15652770
1990.52920898,0.15530208
1992.45801636,0.15317458
1994.38682373,0.15559742
1996.31563110,0.15597044
1998.24443848,0.15521032
2000.17324585,0.15513647
2002.10205322,0.15483955
2004.03086060,0.15476646
2005.95966797,0.15455005
2007.88847534,0.15395078
2009.81728271,0.15363687
2011.74609009,0.15335578
2013.67489746,0.15329069
2015.60370483,0.15250957
2017.53251221,0.15098998
2019.46131958,0.15193251
2021.39012695,0.15206426
2023.31893433,0.15138268
2025.24774170,0.15138406
2027.17654907,0.15085426
2029.10535645,0.15084878
2031.03416382,0.15037373
2032.96297119,0.15013891
2034.89177856,0.14976457
2036.82058594,0.14957678
2038.74939331,0.14931288
2040.67820068,0.14846063
2042.60700806,0.14841017
2044.53581543,0.14818665
2046.46462280,0.14802107
2048.39343018,0.14768690
2050.32223755,0.14748898
2052.25104492,0.14731997
2054.17985229,0.14685580
2056.10865967,0.14660531
2058.03746704,0.14615408
2059.96627441,0.14594059
2061.89508179,0.14582938
2063.82388916,0.14510973
2065.75269653,0.14443788
2067.68150391,0.14501017
2069.61031128,0.14481992
2071.53911865,0.14442134
2073.46792603,0.14440227
2075.39673340,0.14372900
2077.32554077,0.14370343
2079.25434814,0.14320324
2081.18315552,0.14312595
2083.11196289,0.14296094
2085.04077026,0.14249624
2086.96957764,0.14255178
2088.89838501,0.14187744
2090.82719238,0.14165656
2092.75599976,0.14152443
2094.68480713,0.14144048
2096.61361450,0.14097847
2098.54242187,0.14066231
2100.47122925,0.14070150
2102.40003662,0.14029016
2104.32884399,0.14024934
2106.25765137,0.13978696
2108.18645874,0.13969728
2110.11526611,0.13953760
2112.04407349,0.13933530
2113.97288086,0.13920073
2115.90168823,0.13874745
2117.83049561,0.13878410
2119.75930298,0.13845500
2121.68811035,0.13837770
2123.61691772,0.13815086
2125.54572510,0.13793975
2127.47453247,0.13779312
2129.40333984,0.13751240
2131.33214722,0.13745871
2133.26095459,0.13712278
2135.18976196,0.13706097
2137.11856934,0.13670772
2139.04737671,0.13659772
2140.97618408,0.13635066
2142.90499146,0.13625434
2144.83379883,0.13632485
2146.76260620,0.13574982
2148.69141357,0.13585141
2150.62022095,0.13564496
2152.54902832,0.13551912
2154.47783569,0.13538516
2156.40664307,0.13506389
2158.33545044,0.13496688
2160.26425781,0.13468349
2162.19306519,0.13456249
2164.12187256,0.13420972
2166.05067993,0.13432550
2167.97948730,0.13420433
2169.90829468,0.13392827
2171.83710205,0.13375872
2173.76590942,0.13361368
2175.69471680,0.13364205
2177.62352417,0.13325521
2179.55233154,0.13330540
2181.48113892,0.13300061
2183.40994629,0.13286737
2185.33875366,0.13279539
2187.26756104,0.13258986
2189.19636841,0.13265349
2191.12517578,0.13222565
2193.05398315,0.13221508
2194.98279053,0.13199501
2196.91159790,0.13189587
2198.84040527,0.13169129
2200.76921265,0.13144694
2202.69802002,0.13150927
2204.62682739,0.13115790
2206.55563477,0.13114867
2208.48444214,0.13083306
2210.41324951,0.13071682
2212.34205688,0.13059951
2214.27086426,0.13035981
2216.19967163,0.13024932
2218.12847900,0.12995715
2220.05728638,0.12994762
2221.98609375,0.12971188
2223.91490112,0.12962276
2225.84370850,0.12928744
2227.77251587,0.12915361
2229.70132324,0.12897812
2231.63013062,0.12859079
2233.55893799,0.12860724
2235.48774536,0.12827937
2237.41655273,0.12824520
2239.34536011,0.12798502
2241.27416748,0.12781979
2243.20297485,0.12763155
2245.13178223,0.12739608
2247.06058960,0.12743530
2248.98939697,0.12699005
2250.91820435,0.12689152
2252.84701172,0.12657556
2254.77581909,0.12638950
2256.70462646,0.12628907
2258.63343384,0.12598631
2260.56224121,0.12591951
2262.49104858,0.12572983
2264.41985596,0.12548459
2266.34866333,0.12518303
2268.27747070,0.12534565
2270.20627808,0.12506843
2272.13508545,0.12485982
2274.06389282,0.12486826
2275.99270020,0.12469522
2277.92150757,0.12471566
2279.85031494,0.12432741
2281.77912231,0.12445737
2283.70792969,0.12431967
2285.63673706,0.12398558
2287.56554443,0.12364829
2289.49435181,0.12320617
2291.42315918,0.12321287
2293.35196655,0.12266111
2295.28077393,0.12228782
2297.20958130,0.12192768
2299.13838867,0.12142919
2301.06719604,0.12097582
2302.99600342,0.12037473
2304.92481079,0.11973222
2306.85361816,0.11890495
2308.78242554,0.11799840
2310.71123291,0.11683162
2312.64004028,0.11577424
2314.56884766,0.11452165
2316.49765503,0.11336096
2318.42646240,0.11180644
2320.35526978,0.11002672
2322.28407715,0.10849579
2324.21288452,0.10687037
2326.14169189,0.10586623
2328.07049927,0.10439129
2329.99930664,0.10308017
2331.92811401,0.10210069
2333.85692139,0.10170747
2335.78572876,0.10162542
2337.71453613,0.10105480
2339.64334351,0.10110585
2341.57215088,0.10124934
2343.50095825,0.10293743
2345.42976562,0.10499574
2347.35857300,0.10945804
2349.28738037,0.11373740
2351.21618774,0.10947588
2353.14499512,0.10352672
2355.07380249,0.09955761
2357.00260986,0.09620890
2358.93141724,0.09447619
2360.86022461,0.09318270
2362.78903198,0.09302575
2364.71783936,0.09350722
2366.64664673,0.09496507
2368.57545410,0.09699807
2370.50426147,0.09947973
2372.43306885,0.10238255
2374.36187622,0.10539433
2376.29068359,0.10861146
2378.21949097,0.11094471
2380.14829834,0.11312503
2382.07710571,0.11451957
2384.00591309,0.11521113
2385.93472046,0.11568137
2387.86352783,0.11577753
2389.79233521,0.11581746
2391.72114258,0.11557717
2393.64994995,0.11561082
2395.57875732,0.11541475
2397.50756470,0.11521196
2399.43637207,0.11507594
2401.36517944,0.11496535
2403.29398682,0.11486188
2405.22279419,0.11460748
2407.15160156,0.11454962
2409.08040894,0.11427657
2411.00921631,0.11427321
2412.93802368,0.11412018
2414.86683105,0.11394966
2416.79563843,0.11376634
2418.72444580,0.11347079
2420.65325317,0.11358464
2422.58206055,0.11330960
2424.51086792,0.11313720
2426.43967529,0.11306703
2428.36848267,0.11286687
2430.29729004,0.11262427
2432.22609741,0.11258874
2434.15490479,0.11258256
2436.08371216,0.11224896
2438.01251953,0.11216956
2439.94132690,0.11192976
2441.87013428,0.11193075
2443.79894165,0.11178340
2445.72774902,0.11144799
2447.65655640,0.11151129
2449.58536377,0.11137121
2451.51417114,0.11120710
2453.44297852,0.11098194
2455.37178589,0.11080328
2457.30059326,0.11054371
2459.22940063,0.11049154
2461.15820801,0.11047591
2463.08701538,0.11030886
2465.01582275,0.11024548
2466.94463013,0.10989389
2468.87343750,0.10978363
2470.80224487,0.10971709
2472.73105225,0.10962867
2474.65985962,0.10941374
2476.58866699,0.10920177
2478.51747437,0.10917090
2480.44628174,0.10894411
2482.37508911,0.10882710
2484.30389648,0.10860473
2486.23270386,0.10854265
2488.16151123,0.10831745
2490.09031860,0.10817053
2492.01912598,0.10812546
2493.94793335,0.10773010
2495.87674072,0.10774576
2497.80554810,0.10770353
2499.73435547,0.10753803
2501.66316284,0.10733195
2503.59197021,0.10721315
2505.52077759,0.10707067
2507.44958496,0.10693201
2509.37839233,0.10691573
2511.30719971,0.10669603
2513.23600708,0.10676223
2515.16481445,0.10659274
2517.09362183,0.10638566
2519.02242920,0.10604944
2520.95123657,0.10587560
2522.88004395,0.10607981
2524.80885132,0.10575092
2526.73765869,0.10562474
2528.66646606,0.10544339
2530.59527344,0.10530922
2532.52408081,0.10516499
2534.45288818,0.10505810
2536.38169556,0.10500890
2538.31050293,0.10464593
2540.23931030,0.10471749
2542.16811768,0.10446979
2544.09692505,0.10431295
2546.02573242,0.10428347
2547.95453979,0.10415878
2549.88334717,0.10410232
2551.81215454,0.10372124
2553.74096191,0.10368628
2555.66976929,0.10352859
2557.59857666,0.10344290
2559.52738403,0.10332857
2561.45619141,0.10317330
2563.38499878,0.10313709
2565.31380615,0.10290944
2567.24261353,0.10284029
2569.17142090,0.10259037
2571.10022827,0.10258518
2573.02903564,0.10240298
2574.95784302,0.10218352
2576.88665039,0.10215785
2578.81545776,0.10192207
2580.74426514,0.10177511
2582.67307251,0.10149042
2584.60187988,0.10157636
2586.53068726,0.10143733
2588.45949463,0.10125871
2590.38830200,0.10119697
2592.31710937,0.10092056
2594.24591675,0.10096928
2596.17472412,0.10065436
2598.10353149,0.10052307
2600.03233887,0.10052849
2601.96114624,0.10029007
2603.88995361,0.10022450
2605.81876099,0.10014880
2607.74756836,0.09991686
2609.67637573,0.09974545
2611.60518311,0.09982911
2613.53399048,0.09956517
2615.46279785,0.09939377
2617.39160522,0.09925805
2619.32041260,0.09907369
2621.24921997,0.09909386
2623.17802734,0.09885275
2625.10683472,0.09874216
2627.03564209,0.09864703
2628.96444946,0.09847644
2630.89325684,0.09828198
2632.82206421,0.09824114
2634.75087158,0.09814867
2636.67967895,0.09787859
2638.60848633,0.09777671
2640.53729370,0.09751790
2642.46610107,0.09744816
2644.39490845,0.09736107
2646.32371582,0.09724434
2648.25252319,0.09717001
2650.18133057,0.09696262
2652.11013794,0.09683278
2654.03894531,0.09661646
2655.96775269,0.09655184
2657.89656006,0.09639016
2659.82536743,0.09630818
2661.75417480,0.09616166
2663.68298218,0.09598050
2665.61178955,0.09600020
2667.54059692,0.09558126
2669.46940430,0.09553027
2671.39821167,0.09559624
2673.32701904,0.09532435
2675.25582642,0.09524383
2677.18463379,0.09512927
2679.11344116,0.09503952
2681.04224854,0.09482813
2682.97105591,0.09459670
2684.89986328,0.09459255
2686.82867065,0.09446290
2688.75747803,0.09427128
2690.68628540,0.09418342
2692.61509277,0.09393640
2694.54390015,0.09382865
2696.47270752,0.09380628
2698.40151489,0.09362984
2700.33032227,0.09348841
2702.25912964,0.09330525
2704.18793701,0.09327081
2706.11674438,0.09306635
2708.04555176,0.09292798
2709.97435913,0.09296037
2711.90316650,0.09270792
2713.83197388,0.09248634
2715.76078125,0.09228975
2717.68958862,0.09227450
2719.61839600,0.09214019
2721.54720337,0.09194423
2723.47601074,0.09189288
2725.40481812,0.09173450
2727.33362549,0.09164520
2729.26243286,0.09141003
2731.19124023,0.09124193
2733.12004761,0.09110500
2735.04885498,0.09098458
2736.97766235,0.09089055
2738.90646973,0.09069855
2740.83527710,0.09068342
2742.76408447,0.09054469
2744.69289185,0.09037225
2746.62169922,0.09025399
2748.55050659,0.09001514
2750.47931396,0.08976225
2752.40812134,0.08970211
2754.33692871,0.08962642
2756.26573608,0.08945255
2758.19454346,0.08943790
2760.12335083,0.08927633
2762.05215820,0.08908434
2763.98096558,0.08892271
2765.90977295,0.08878798
2767.83858032,0.08861130
2769.76738770,0.08842687
2771.69619507,0.08834763
2773.62500244,0.08814920
2775.55380981,0.08806825
2777.48261719,0.08788815
2779.41142456,0.08776844
2781.34023193,0.08758511
2783.26903931,0.08735482
2785.19784668,0.08739455
2787.12665405,0.08714504
2789.05546143,0.08701419
2790.98426880,0.08690087
2792.91307617,0.08669741
2794.84188354,0.08657137
2796.77069092,0.08643973
2798.69949829,0.08632076
2800.62830566,0.08602600
2802.55711304,0.08594187
2804.48592041,0.08576067
2806.41472778,0.08559995
2808.34353516,0.08550720
2810.27234253,0.08528277
2812.20114990,0.08514357
2814.12995728,0.08486615
2816.05876465,0.08482456
2817.98757202,0.08467487
2819.91637939,0.08440394
2821.84518677,0.08432736
2823.77399414,0.08416986
2825.70280151,0.08408609
2827.63160889,0.08396679
2829.56041626,0.08372217
2831.48922363,0.08346507
2833.41803101,0.08339271
2835.34683838,0.08323956
2837.27564575,0.08304760
2839.20445312,0.08284980
2841.13326050,0.08247943
2843.06206787,0.08226243
2844.99087524,0.08190851
2846.91968262,0.08140132
2848.84848999,0.08095427
2850.77729736,0.08074483
2852.70610474,0.08066475
2854.63491211,0.08058311
2856.56371948,0.08056609
2858.49252686,0.08037432
2860.42133423,0.08030808
2862.35014160,0.08020693
2864.27894897,0.08008775
2866.20775635,0.08002354
2868.13656372,0.07977645
2870.06537109,0.07968500
2871.99417847,0.07961875
2873.92298584,0.07944742
2875.85179321,0.07925572
2877.78060059,0.07917469
2879.70940796,0.07913570
2881.63821533,0.07901261
2883.56702270,0.07892782
2885.49583008,0.07887873
2887.42463745,0.07870895
2889.35344482,0.07846215
2891.28225220,0.07837573
2893.21105957,0.07813858
2895.13986694,0.07793801
2897.06867432,0.07781273
2898.99748169,0.07755256
2900.92628906,0.07740822
2902.85509644,0.07721570
2904.78390381,0.07700100
2906.71271118,0.07668322
2908.64151855,0.07646659
2910.57032593,0.07623465
2912.49913330,0.07579297
2914.42794067,0.07551844
2916.35674805,0.07513196
2918.28555542,0.07489330
2920.21436279,0.07485759
2922.14317017,0.07463656
2924.07197754,0.07452467
2926.00078491,0.07452463
2927.92959229,0.07437888
2929.85839966,0.07434513
2931.78720703,0.07437539
2933.71601440,0.07420598
2935.64482178,0.07425576
2937.57362915,0.07434341
2939.50243652,0.07427958
2941.43124390,0.07419755
2943.36005127,0.07412509
2945.28885864,0.07406586
2947.21766602,0.07385798
2949.14647339,0.07381906
2951.07528076,0.07373950
2953.00408813,0.07350729
2954.93289551,0.07337090
2956.86170288,0.07321136
2958.79051025,0.07293743
2960.71931763,0.07268624
2962.64812500,0.07259715
2964.57693237,0.07236306
2966.50573975,0.07235453
2968.43454712,0.07247940
2970.36335449,0.07243972
2972.29216187,0.07249182
2974.22096924,0.07240275
2976.14977661,0.07247868
2978.07858398,0.07254768
2980.00739136,0.07239993
2981.93619873,0.07248330
2983.86500610,0.07249938
2985.79381348,0.07235525
2987.72262085,0.07234102
2989.65142822,0.07218955
2991.58023560,0.07207157
2993.50904297,0.07205217
2995.43785034,0.07182153
2997.36665771,0.07184479
2999.29546509,0.07173674
3001.22427246,0.07152800
3003.15307983,0.07148165
3005.08188721,0.07118870
3007.01069458,0.07114575
3008.93950195,0.07110781
3010.86830933,0.07083136
3012.79711670,0.07052991
3014.72592407,0.07051042
3016.65473145,0.07053636
3018.58353882,0.07027841
3020.51234619,0.07026087
3022.44115356,0.07012083
3024.36996094,0.06988988
3026.29876831,0.06964369
3028.22757568,0.06958259
3030.15638306,0.06953672
3032.08519043,0.06915133
3034.01399780,0.06911652
3035.94280518,0.06901318
3037.87161255,0.06893852
3039.80041992,0.06875384
3041.72922729,0.06857334
3043.65803467,0.06864642
3045.58684204,0.06831043
3047.51564941,0.06821916
3049.44445679,0.06804939
3051.37326416,0.06792724
3053.30207153,0.06799564
3055.23087891,0.06765872
3057.15968628,0.06753203
3059.08849365,0.06750983
3061.01730103,0.06734233
3062.94610840,0.06712116
3064.87491577,0.06698474
3066.80372314,0.06679575
3068.73253052,0.06671892
3070.66133789,0.06676529
3072.59014526,0.06660894
3074.51895264,0.06655501
3076.44776001,0.06634356
3078.37656738,0.06613733
3080.30537476,0.06598166
3082.23418213,0.06582706
3084.16298950,0.06584644
3086.09179687,0.06572080
3088.02060425,0.06564035
3089.94941162,0.06548660
3091.87821899,0.06528897
3093.80702637,0.06519985
3095.73583374,0.06503753
3097.66464111,0.06490947
3099.59344849,0.06470053
3101.52225586,0.06446855
3103.45106323,0.06453484
3105.37987061,0.06447875
3107.30867798,0.06417479
3109.23748535,0.06407726
3111.16629272,0.06392877
3113.09510010,0.06372964
3115.02390747,0.06353036
3116.95271484,0.06334620
3118.88152222,0.06317014
3120.81032959,0.06297027
3122.73913696,0.06296270
3124.66794434,0.06286886
3126.59675171,0.06275040
3128.52555908,0.06262794
3130.45436645,0.06261069
3132.38317383,0.06235733
3134.31198120,0.06201770
3136.24078857,0.06202853
3138.16959595,0.06174651
3140.09840332,0.06168089
3142.02721069,0.06146064
3143.95601807,0.06122679
3145.88482544,0.06129660
3147.81363281,0.06103647
3149.74244019,0.06084796
3151.67124756,0.06056733
3153.60005493,0.06056201
3155.52886230,0.06031027
3157.45766968,0.06012066
3159.38647705,0.06021209
3161.31528442,0.05974948
3163.24409180,0.05978704
3165.17289917,0.05974906
3167.10170654,0.05948103
3169.03051392,0.05928729
3170.95932129,0.05909772
3172.88812866,0.05900640
3174.81693604,0.05877605
3176.74574341,0.05863758
3178.67455078,0.05832357
3180.60335815,0.05836172
3182.53216553,0.05819310
3184.46097290,0.05794812
3186.38978027,0.05798958
3188.31858765,0.05776120
3190.24739502,0.05773016
3192.17620239,0.05742510
3194.10500977,0.05747878
3196.03381714,0.05734645
3197.96262451,0.05681595
3199.89143188,0.05693055
3201.82023926,0.05687931
3203.74904663,0.05673443
3205.67785400,0.05657344
3207.60666138,0.05640881
3209.53546875,0.05628359
3211.46427612,0.05632291
3213.39308350,0.05618594
3215.32189087,0.05586912
3217.25069824,0.05589847
3219.17950562,0.05571382
3221.10831299,0.05560920
3223.03712036,0.05554035
3224.96592773,0.05552154
3226.89473511,0.05537923
3228.82354248,0.05521115
3230.75234985,0.05521195
3232.68115723,0.05495067
3234.60996460,0.05501893
3236.53877197,0.05492629
3238.46757935,0.05487503
3240.39638672,0.05478438
3242.32519409,0.05458159
3244.25400146,0.05463458
3246.18280884,0.05437885
3248.11161621,0.05451522
3250.04042358,0.05447665
3251.96923096,0.05428880
3253.89803833,0.05430316
3255.82684570,0.05412592
3257.75565308,0.05404777
3259.68446045,0.05395743
3261.61326782,0.05397093
3263.54207520,0.05381132
3265.47088257,0.05385097
3267.39968994,0.05384677
3269.32849731,0.05362355
3271.25730469,0.05359838
3273.18611206,0.05344099
3275.11491943,0.05340406
3277.04372681,0.05333450
3278.97253418,0.05328759
3280.90134155,0.05328773
3282.83014893,0.05332912
3284.75895630,0.05322928
3286.68776367,0.05305911
3288.61657104,0.05308350
3290.54537842,0.05286237
3292.47418579,0.05275714
3294.40299316,0.05268627
3296.33180054,0.05269719
3298.26060791,0.05270615
3300.18941528,0.05262508
3302.11822266,0.05262570
3304.04703003,0.05241933
3305.97583740,0.05228704
3307.90464478,0.05221478
3309.83345215,0.05232196
3311.76225952,0.05225192
3313.69106689,0.05211831
3315.61987427,0.05207787
3317.54868164,0.05195638
3319.47748901,0.05201462
3321.40629639,0.05181192
3323.33510376,0.05173238
3325.26391113,0.05163354
3327.19271851,0.05151329
3329.12152588,0.05153278
3331.05033325,0.05141460
3332.97914062,0.05135220
3334.90794800,0.05121132
3336.83675537,0.05118803
3338.76556274,0.05109490
3340.69437012,0.05104152
3342.62317749,0.05096236
3344.55198486,0.05091168
3346.48079224,0.05083174
3348.40959961,0.05064479
3350.33840698,0.05061441
3352.26721436,0.05041311
3354.19602173,0.05051509
3356.12482910,0.05029473
3358.05363647,0.05016505
3359.98244385,0.05025774
3361.91125122,0.05005870
3363.84005859,0.05009651
3365.76886597,0.04971839
3367.69767334,0.04974320
3369.62648071,0.04971301
3371.55528809,0.04957797
3373.48409546,0.04969894
3375.41290283,0.04952473
3377.34171020,0.04957651
3379.27051758,0.04932238
3381.19932495,0.04918482
3383.12813232,0.04907021
3385.05693970,0.04905399
3386.98574707,0.04895938
3388.91455444,0.04879546
3390.84336182,0.04867961
3392.77216919,0.04824542
3394.70097656,0.04857651
3396.62978394,0.04828294
3398.55859131,0.04807868
3400.48739868,0.04823178
3402.41620605,0.04789321
3404.34501343,0.04809342
3406.27382080,0.04799622
3408.20262817,0.04799002
3410.13143555,0.04778943
3412.06024292,0.04776070
3413.98905029,0.04775286
3415.91785767,0.04752465
3417.84666504,0.04763222
3419.77547241,0.04717752
3421.70427979,0.04716315
3423.63308716,0.04719032
3425.56189453,0.04717478
3427.49070190,0.04707768
3429.41950928,0.04682187
3431.34831665,0.04688079
3433.27712402,0.04674834
3435.20593140,0.04672991
3437.13473877,0.04640153
3439.06354614,0.04654969
3440.99235352,0.04636788
3442.92116089,0.04609294
3444.84996826,0.04634763
3446.77877563,0.04567583
3448.70758301,0.04574647
3450.63639038,0.04622446
3452.56519775,0.04619180
3454.49400513,0.04602591
3456.42281250,0.04585777
3458.35161987,0.04587374
3460.28042725,0.04580124
3462.20923462,0.04567342
3464.13804199,0.04558481
3466.06684937,0.04555471
3467.99565674,0.04532431
3469.92446411,0.04553276
3471.85327148,0.04543414
3473.78207886,0.04528483
3475.71088623,0.04530396
3477.63969360,0.04514628
3479.56850098,0.04530877
3481.49730835,0.04467487
3483.42611572,0.04486058
3485.35492310,0.04519379
3487.28373047,0.04486193
3489.21253784,0.04490454
3491.14134521,0.04487405
3493.07015259,0.04509740
3494.99895996,0.04475326
3496.92776733,0.04477986
3498.85657471,0.04487414
3500.78538208,0.04466572
3502.71418945,0.04409754
3504.64299683,0.04398443
3506.57180420,0.04502909
3508.50061157,0.04433993
3510.42941895,0.04414529
3512.35822632,0.04462649
3514.28703369,0.04463249
3516.21584106,0.04478569
3518.14464844,0.04437528
3520.07345581,0.04468160
3522.00226318,0.04422297
3523.93107056,0.04354263
3525.85987793,0.04373534
3527.78868530,0.04374886
3529.71749268,0.04381261
3531.64630005,0.04421667
3533.57510742,0.04459029
3535.50391479,0.04405027
3537.43272217,0.04392013
3539.36152954,0.04430005
3541.29033691,0.04430705
3543.21914429,0.04403131
3545.14795166,0.04302230
3547.07675903,0.04237390
3549.00556641,0.04384841
3550.93437378,0.04412531
3552.86318115,0.04288558
3554.79198853,0.04394543
3556.72079590,0.04419649
3558.64960327,0.04389554
3560.57841064,0.04357899
3562.50721802,0.04326187
3564.43602539,0.04360098
3566.36483276,0.04057059
3568.29364014,0.03963948
3570.22244751,0.04291427
3572.15125488,0.04394769
3574.08006226,0.04350530
3576.00886963,0.04370701
3577.93767700,0.04354311
3579.86648437,0.04337981
3581.79529175,0.04344853
3583.72409912,0.04361694
3585.65290649,0.04267046
3587.58171387,0.03902720
3589.51052124,0.04017510
3591.43932861,0.04394919
3593.36813599,0.04265528
3595.29694336,0.04183379
3597.22575073,0.04264954
3599.15455811,0.04299221
3601.08336548,0.04255728
3603.01217285,0.04302192
3604.94098022,0.04381425
3606.86978760,0.04218826
3608.79859497,0.03971142
3610.72740234,0.04054214
3612.65620972,0.04145586
3614.58501709,0.04025052
3616.51382446,0.04323851
3618.44263184,0.03995255
3620.37143921,0.03841405
3622.30024658,0.04353341
3624.22905395,0.04224522
3626.15786133,0.04422424
3628.08666870,0.03749842
3630.01547607,0.03380506
3631.94428345,0.04288500
3633.87309082,0.04183749
3635.80189819,0.04240996
3637.73070557,0.04344645
3639.65951294,0.04279155
3641.58832031,0.04312370
3643.51712769,0.04259612
3645.44593506,0.04307542
3647.37474243,0.03845346
3649.30354980,0.03521838
3651.23235718,0.03562173
3653.16116455,0.04244336
3655.08997192,0.04207330
3657.01877930,0.03744583
3658.94758667,0.04337454
3660.87639404,0.04251482
3662.80520142,0.04301676
3664.73400879,0.04296517
3666.66281616,0.04241889
3668.59162354,0.04117740
3670.52043091,0.03328896
3672.44923828,0.04052234
3674.37804565,0.03880748
3676.30685303,0.03177555
3678.23566040,0.04017307
3680.16446777,0.04124869
3682.09327515,0.04129894
3684.02208252,0.04259793
3685.95088989,0.04180639
3687.87969727,0.03759584
3689.80850464,0.03445208
3691.73731201,0.03931072
3693.66611938,0.04056391
3695.59492676,0.04157986
3697.52373413,0.04155276
3699.45254150,0.04111768
3701.38134888,0.03999656
3703.31015625,0.03849386
3705.23896362,0.04245802
3707.16777100,0.04036912
3709.09657837,0.03933804
3711.02538574,0.03698139
3712.95419312,0.03457026
3714.88300049,0.04064833
3716.81180786,0.04013206
3718.74061523,0.04037129
3720.66942261,0.03954800
3722.59822998,0.03823944
3724.52703735,0.03959375
3726.45584473,0.03668062
3728.38465210,0.03978235
3730.31345947,0.03935345
3732.24226685,0.03614623
3734.17107422,0.03513228
3736.09988159,0.03326932
3738.02868896,0.03537644
3739.95749634,0.03844657
3741.88630371,0.04032180
3743.81511108,0.03115838
3745.74391846,0.02916810
3747.67272583,0.03824162
3749.60153320,0.03293656
3751.53034058,0.03007223
3753.45914795,0.03473349
3755.38795532,0.03757656
3757.31676270,0.03907625
3759.24557007,0.03604715
3761.17437744,0.03733801
3763.10318481,0.03981778
3765.03199219,0.03709216
3766.96079956,0.03785124
3768.88960693,0.03741863
3770.81841431,0.03559132
3772.74722168,0.03861717
3774.67602905,0.03872105
3776.60483643,0.03870443
3778.53364380,0.03761316
3780.46245117,0.03614218
3782.39125854,0.03865637
3784.32006592,0.03767934
3786.24887329,0.03745869
3788.17768066,0.03833497
3790.10648804,0.03810707
3792.03529541,0.03778614
3793.96410278,0.03839531
3795.89291016,0.03616347
3797.82171753,0.03557801
3799.75052490,0.03771774
3801.67933228,0.02976071
3803.60813965,0.03471534
3805.53694702,0.03799075
3807.46575439,0.03069463
3809.39456177,0.03747778
3811.32336914,0.03686713
3813.25217651,0.03796406
3815.18098389,0.03434417
3817.10979126,0.02987286
3819.03859863,0.03800622
3820.96740601,0.03068230
3822.89621338,0.03218522
3824.82502075,0.03774704
3826.75382812,0.03405669
3828.68263550,0.03678544
3830.61144287,0.03524448
3832.54025024,0.03403340
3834.46905762,0.03478168
3836.39786499,0.03312690
3838.32667236,0.02986712
3840.25547974,0.03217531
3842.18428711,0.03488191
3844.11309448,0.03325377
3846.04190186,0.03607498
3847.97070923,0.03555480
3849.89951660,0.03559016
3851.82832397,0.03205357
3853.75713135,0.02377618
3855.68593872,0.02815442
3857.61474609,0.03557318
3859.54355347,0.03476907
3861.47236084,0.03420893
3863.40116821,0.03350504
3865.32997559,0.03116468
3867.25878296,0.03481791
3869.18759033,0.03184746
3871.11639770,0.02921921
3873.04520508,0.03477184
3874.97401245,0.03187217
3876.90281982,0.03448699
3878.83162720,0.03531998
3880.76043457,0.03005572
3882.68924194,0.03479650
3884.61804932,0.03256619
3886.54685669,0.02969695
3888.47566406,0.03491329
3890.40447144,0.03301454
3892.33327881,0.03083959
3894.26208618,0.03385951
3896.19089355,0.03457261
3898.11970093,0.03289551
3900.04850830,0.03095810
3901.97731567,0.03066436
3903.90612305,0.03035262
3905.83493042,0.03069967
3907.76373779,0.03377512
3909.69254517,0.03377225
3911.62135254,0.03345309
3913.55015991,0.03407847
3915.47896728,0.03282974
3917.40777466,0.03205748
3919.33658203,0.03176980
3921.26538940,0.03299223
3923.19419678,0.03285815
3925.12300415,0.03208061
3927.05181152,0.03279103
3928.98061890,0.03300497
3930.90942627,0.03232484
3932.83823364,0.03138247
3934.76704102,0.03257295
3936.69584839,0.03290742
3938.62465576,0.03270214
3940.55346313,0.03286937
3942.48227051,0.03152821
3944.41107788,0.03184539
3946.33988525,0.03240879
3948.26869263,0.03169476
3950.19750000,0.03170908
3952.12630737,0.03216341
3954.05511475,0.03214388
3955.98392212,0.03214613
3957.91272949,0.03207152
3959.84153687,0.03193074
3961.77034424,0.03179813
3963.69915161,0.03166943
3965.62795898,0.03203671
3967.55676636,0.03173662
3969.48557373,0.03166492
3971.41438110,0.03171135
3973.34318848,0.03150368
3975.27199585,0.03143435
3977.20080322,0.03123216
3979.12961060,0.03155376
3981.05841797,0.03124796
3982.98722534,0.03123675
3984.91603271,0.03127584
3986.84484009,0.03112837
3988.77364746,0.03117236
3990.70245483,0.03073368
3992.63126221,0.03096223
3994.56006958,0.03085702
3996.48887695,0.03083453
3998.41768433,0.03083949
4000.34649170,0.03068863
4002.27529907,0.03077970
4004.20410645,0.03055087
4006.13291382,0.03060990
4008.06172119,0.03037843
4009.99052856,0.03044077
4011.91933594,0.03043746
4013.84814331,0.03030530
4015.77695068,0.03031876
4017.70575806,0.03013067
4019.63456543,0.03012745
4021.56337280,0.02992293
4023.49218018,0.03004151
4025.42098755,0.02991196
4027.34979492,0.02990371
4029.27860229,0.02987398
4031.20740967,0.02966739
4033.13621704,0.02982674
4035.06502441,0.02954152
4036.99383179,0.02958534
4038.92263916,0.02953464
4040.85144653,0.02944532
4042.78025391,0.02936454
4044.70906128,0.02922509
4046.63786865,0.02935502
4048.56667603,0.02924505
4050.49548340,0.02924283
4052.42429077,0.02906179
4054.35309814,0.02906642
4056.28190552,0.02899736
4058.21071289,0.02889706
4060.13952026,0.02891497
4062.06832764,0.02878495
4063.99713501,0.02879827
4065.92594238,0.02863126
4067.85474976,0.02865111
4069.78355713,0.02852828
4071.71236450,0.02854515
4073.64117187,0.02847298
4075.56997925,0.02828999
4077.49878662,0.02830911
4079.42759399,0.02812508
4081.35640137,0.02822388
4083.28520874,0.02810691
4085.21401611,0.02816004
4087.14282349,0.02797039
4089.07163086,0.02786273
4091.00043823,0.02805952
4092.92924561,0.02774507
4094.85805298,0.02780082
4096.78686035,0.02772693
4098.71566772,0.02771067
4100.64447510,0.02758995
4102.57328247,0.02757603
4104.50208984,0.02756180
4106.43089722,0.02728574
4108.35970459,0.02748187
4110.28851196,0.02724913
4112.21731934,0.02725655
4114.14612671,0.02722090
4116.07493408,0.02717233
4118.00374145,0.02721790
4119.93254883,0.02694544
4121.86135620,0.02701540
4123.79016357,0.02686648
4125.71897095,0.02691711
4127.64777832,0.02677169
4129.57658569,0.02672792
4131.50539307,0.02678864
4133.43420044,0.02655259
4135.36300781,0.02665821
4137.29181519,0.02655789
4139.22062256,0.02653650
4141.14942993,0.02636805
4143.07823730,0.02635605
4145.00704468,0.02638493
4146.93585205,0.02622715
4148.86465942,0.02624802
4150.79346680,0.02615035
4152.72227417,0.02609042
4154.65108154,0.02588646
4156.57988892,0.02604344
4158.50869629,0.02599558
4160.43750366,0.02587627
4162.36631103,0.02589398
4164.29511841,0.02570140
4166.22392578,0.02576672
4168.15273315,0.02561081
4170.08154053,0.02566592
4172.01034790,0.02550244
4173.93915527,0.02545355
4175.86796265,0.02551955
4177.79677002,0.02531656
4179.72557739,0.02544039
4181.65438477,0.02521186
4183.58319214,0.02523088
4185.51199951,0.02518547
4187.44080688,0.02507281
4189.36961426,0.02506956
4191.29842163,0.02498558
4193.22722900,0.02510380
4195.15603638,0.02486854
4197.08484375,0.02489540
4199.01365112,0.02488068
4200.94245850,0.02477468
4202.87126587,0.02474460
4204.80007324,0.02467027
4206.72888062,0.02461502
4208.65768799,0.02445199
4210.58649536,0.02454124
4212.51530273,0.02435853
4214.44411011,0.02428320
4216.37291748,0.02425288
4218.30172485,0.02422028
4220.23053223,0.02425275
4222.15933960,0.02411067
4224.08814697,0.02414795
4226.01695435,0.02401669
4227.94576172,0.02413550
4229.87456909,0.02400088
4231.80337646,0.02385300
4233.73218384,0.02395745
4235.66099121,0.02375564
4237.58979858,0.02380951
4239.51860596,0.02370443
4241.44741333,0.02368744
4243.37622070,0.02365276
4245.30502808,0.02350564
4247.23383545,0.02354423
4249.16264282,0.02348224
4251.09145020,0.02346026
4253.02025757,0.02341119
4254.94906494,0.02331971
4256.87787231,0.02320611
4258.80667969,0.02327477
4260.73548706,0.02309445
4262.66429443,0.02301131
4264.59310181,0.02314734
4266.52190918,0.02291941
4268.45071655,0.02294659
4270.37952393,0.02293854
4272.30833130,0.02284410
4274.23713867,0.02279006
4276.16594604,0.02274916
4278.09475342,0.02277090
4280.02356079,0.02270033
4281.95236816,0.02268518
4283.88117554,0.02257178
4285.80998291,0.02249515
4287.73879028,0.02245799
4289.66759766,0.02244955
4291.59640503,0.02232161
4293.52521240,0.02223665
4295.45401978,0.02228924
4297.38282715,0.02223549
4299.31163452,0.02222521
4301.24044189,0.02213286
4303.16924927,0.02210080
4305.09805664,0.02201522
4307.02686401,0.02203728
4308.95567139,0.02196253
4310.88447876,0.02181347
4312.81328613,0.02193877
4314.74209351,0.02180157
4316.67090088,0.02174162
4318.59970825,0.02167224
4320.52851562,0.02166783
4322.45732300,0.02168133
4324.38613037,0.02153417
4326.31493774,0.02148991
4328.24374512,0.02137745
4330.17255249,0.02147235
4332.10135986,0.02142436
4334.03016724,0.02134049
4335.95897461,0.02130169
4337.88778198,0.02126841
4339.81658936,0.02130823
4341.74539673,0.02116131
4343.67420410,0.02107941
4345.60301147,0.02096971
4347.53181885,0.02105761
4349.46062622,0.02097833
4351.38943359,0.02088406
4353.31824097,0.02094729
4355.24704834,0.02080058
4357.17585571,0.02080136
4359.10466309,0.02069754
4361.03347046,0.02072679
4362.96227783,0.02069930
4364.89108520,0.02062551
4366.81989258,0.02062837
4368.74869995,0.02047071
4370.67750732,0.02042679
4372.60631470,0.02035912
4374.53512207,0.02037790
4376.46392944,0.02028458
4378.39273682,0.02025856
4380.32154419,0.02023899
4382.25035156,0.02013442
4384.17915894,0.02011660
4386.10796631,0.02006028
4388.03677368,0.02011524
4389.96558105,0.01995540
4391.89438843,0.01995445
4393.82319580,0.01997421
4395.75200317,0.01989090
4397.68081055,0.01984867
4399.60961792,0.01979472
4401.53842529,0.01985321
4403.46723267,0.01968712
4405.39604004,0.01970691
4407.32484741,0.01956793
4409.25365478,0.01952212
4411.18246216,0.01960539
4413.11126953,0.01948048
4415.04007690,0.01956051
4416.96888428,0.01938643
4418.89769165,0.01939086
4420.82649902,0.01930347
4422.75530640,0.01922811
4424.68411377,0.01929002
4426.61292114,0.01915513
4428.54172852,0.01921251
4430.47053589,0.01905723
4432.39934326,0.01904586
4434.32815063,0.01903997
4436.25695801,0.01900045
4438.18576538,0.01896644
4440.11457275,0.01885218
4442.04338013,0.01888126
4443.97218750,0.01879533
4445.90099487,0.01881296
4447.82980225,0.01865692
4449.75860962,0.01863262
4451.68741699,0.01859545
4453.61622437,0.01854861
4455.54503174,0.01863064
4457.47383911,0.01841764
4459.40264648,0.01850925
4461.33145386,0.01845128
4463.26026123,0.01836107
4465.18906860,0.01832903
4467.11787598,0.01823871
4469.04668335,0.01828209
4470.97549072,0.01818695
4472.90429810,0.01824145
4474.83310547,0.01811706
4476.76191284,0.01808176
4478.69072021,0.01805853
4480.61952759,0.01794581
4482.54833496,0.01798485
4484.47714233,0.01791041
4486.40594971,0.01791403
4488.33475708,0.01782695
4490.26356445,0.01781772
4492.19237183,0.01775597
4494.12117920,0.01771642
4496.04998657,0.01766578
4497.97879395,0.01755932
4499.90760132,0.01769325
4501.83640869,0.01752135
4503.76521606,0.01751421
4505.69402344,0.01759426
4507.62283081,0.01743140
4509.55163818,0.01740390
4511.48044556,0.01735980
4513.40925293,0.01731515
4515.33806030,0.01727463
4517.26686768,0.01725450
4519.19567505,0.01720624
4521.12448242,0.01718933
4523.05328979,0.01714588
4524.98209717,0.01707781
4526.91090454,0.01699253
4528.83971191,0.01692047
4530.76851929,0.01699367
4532.69732666,0.01698109
4534.62613403,0.01690412
4536.55494141,0.01680180
4538.48374878,0.01681011
4540.41255615,0.01678106
4542.34136353,0.01669606
4544.27017090,0.01662926
4546.19897827,0.01656814
4548.12778564,0.01666044
4550.05659302,0.01657752
4551.98540039,0.01661960
4553.91420776,0.01658308
4555.84301514,0.01642235
4557.77182251,0.01649976
4559.70062988,0.01638454
4561.62943726,0.01631337
4563.55824463,0.01629314
4565.48705200,0.01622481
4567.41585937,0.01620280
4569.34466675,0.01616765
4571.27347412,0.01606985
4573.20228149,0.01602115
4575.13108887,0.01606488
4577.05989624,0.01598445
4578.98870361,0.01599309
4580.91751099,0.01598064
4582.84631836,0.01588170
4584.77512573,0.01586852
4586.70393311,0.01593183
4588.63274048,0.01581620
4590.56154785,0.01568811
4592.49035522,0.01576238
4594.41916260,0.01567376
4596.34796997,0.01568670
4598.27677734,0.01560453
4600.20558472,0.01554915
4602.13439209,0.01558140
4604.06319946,0.01543488
4605.99200684,0.01549090
4607.92081421,0.01543828
4609.84962158,0.01539359
4611.77842895,0.01534681
4613.70723633,0.01530575
4615.63604370,0.01533728
4617.56485107,0.01527542
4619.49365845,0.01526994
4621.42246582,0.01514282
4623.35127319,0.01514383
4625.28008057,0.01515411
4627.20888794,0.01512322
4629.13769531,0.01503496
4631.06650269,0.01496631
4632.99531006,0.01503774
4634.92411743,0.01488987
4636.85292480,0.01490245
4638.78173218,0.01487286
4640.71053955,0.01478902
4642.63934692,0.01480225
4644.56815430,0.01476152
4646.49696167,0.01473165
4648.42576904,0.01460099
4650.35457642,0.01460897
4652.28338379,0.01456770
4654.21219116,0.01460906
4656.14099853,0.01467099
4658.06980591,0.01455200
4659.99861328,0.01450702
4661.92742065,0.01444923
4663.85622803,0.01448588
4665.78503540,0.01442719
4667.71384277,0.01428720
4669.64265015,0.01429557
4671.57145752,0.01428574
4673.50026489,0.01416712
4675.42907227,0.01425498
4677.35787964,0.01426855
4679.28668701,0.01407953
4681.21549438,0.01415472
4683.14430176,0.01406194
4685.07310913,0.01407065
4687.00191650,0.01408636
4688.93072388,0.01398268
4690.85953125,0.01405419
4692.78833862,0.01384731
4694.71714600,0.01385439
4696.64595337,0.01392456
4698.57476074,0.01386299
4700.50356812,0.01384352
4702.43237549,0.01374251
4704.36118286,0.01381087
4706.28999023,0.01379653
4708.21879761,0.01370359
4710.14760498,0.01361871
4712.07641235,0.01363427
4714.00521973,0.01365135
4715.93402710,0.01353509
4717.86283447,0.01356151
4719.79164185,0.01351886
4721.72044922,0.01341861
4723.64925659,0.01343490
4725.57806396,0.01339940
4727.50687134,0.01333401
4729.43567871,0.01332186
4731.36448608,0.01330767
4733.29329346,0.01328516
4735.22210083,0.01319729
4737.15090820,0.01324909
4739.07971558,0.01327958
4741.00852295,0.01309967
4742.93733032,0.01314134
4744.86613770,0.01311993
4746.79494507,0.01303640
4748.72375244,0.01304032
4750.65255981,0.01300248
4752.58136719,0.01293159
4754.51017456,0.01285224
4756.43898193,0.01291443
4758.36778931,0.01283520
4760.29659668,0.01286539
4762.22540405,0.01292122
4764.15421143,0.01282800
4766.08301880,0.01279173
4768.01182617,0.01272176
4769.94063354,0.01275367
4771.86944092,0.01267343
4773.79824829,0.01268004
4775.72705566,0.01267279
4777.65586304,0.01259075
4779.58467041,0.01260893
4781.51347778,0.01248969
4783.44228516,0.01248313
4785.37109253,0.01253904
4787.29989990,0.01252812
4789.22870728,0.01239157
4791.15751465,0.01240209
4793.08632202,0.01242452
4795.01512939,0.01229839
4796.94393677,0.01227125
4798.87274414,0.01225694
4800.80155151,0.01237143
4802.73035889,0.01225315
4804.65916626,0.01222230
4806.58797363,0.01222574
4808.51678101,0.01210655
4810.44558838,0.01213184
4812.37439575,0.01201150
4814.30320312,0.01209585
4816.23201050,0.01203919
4818.16081787,0.01200667
4820.08962524,0.01203070
4822.01843262,0.01193278
4823.94723999,0.01194895
4825.87604736,0.01179185
4827.80485474,0.01186699
4829.73366211,0.01185154
4831.66246948,0.01180698
4833.59127686,0.01181023
4835.52008423,0.01171405
4837.44889160,0.01167418
4839.37769897,0.01159145
4841.30650635,0.01171911
4843.23531372,0.01161817
4845.16412109,0.01164050
4847.09292847,0.01164554
4849.02173584,0.01151723
4850.95054321,0.01159221
4852.87935059,0.01141145
4854.80815796,0.01142535
4856.73696533,0.01143324
4858.66577270,0.01140193
4860.59458008,0.01143212
4862.52338745,0.01139309
4864.45219482,0.01133833
4866.38100220,0.01127228
4868.30980957,0.01134242
4870.23861694,0.01129463
4872.16742432,0.01132651
4874.09623169,0.01118947
4876.02503906,0.01119585
4877.95384644,0.01125968
4879.88265381,0.01104068
4881.81146118,0.01107454
4883.74026855,0.01100321
4885.66907593,0.01106659
4887.59788330,0.01100842
4889.52669067,0.01097347
4891.45549805,0.01107913
4893.38430542,0.01087636
4895.31311279,0.01089658
4897.24192017,0.01085687
4899.17072754,0.01086878
4901.09953491,0.01085808
4903.02834228,0.01079006
4904.95714966,0.01080388
4906.88595703,0.01074398
4908.81476440,0.01082036
4910.74357178,0.01071237
4912.67237915,0.01067831
4914.60118652,0.01066164
4916.52999390,0.01057618
4918.45880127,0.01060742
4920.38760864,0.01056582
4922.31641602,0.01054076
4924.24522339,0.01050263
4926.17403076,0.01048032
4928.10283813,0.01044116
4930.03164551,0.01048384
4931.96045288,0.01044955
4933.88926025,0.01032737
4935.81806763,0.01030891
4937.74687500,0.01036458
4939.67568237,0.01031640
4941.60448975,0.01013766
4943.53329712,0.01029503
4945.46210449,0.01031773
4947.39091187,0.01019236
4949.31971924,0.01015599
4951.24852661,0.01011399
4953.17733398,0.01018354
4955.10614136,0.01005874
4957.03494873,0.01008665
4958.96375610,0.01008482
4960.89256348,0.00996527
4962.82137085,0.00998429
4964.75017822,0.00997162
4966.67898560,0.00998838
4968.60779297,0.00989259
4970.53660034,0.00988732
4972.46540771,0.00989471
4974.39421509,0.00988179
4976.32302246,0.00988900
4978.25182983,0.00979296
4980.18063721,0.00979582
4982.10944458,0.00978052
4984.03825195,0.00971957
4985.96705933,0.00973114
4987.89586670,0.00976253
4989.82467407,0.00963004
4991.75348145,0.00962271
4993.68228882,0.00971053
4995.61109619,0.00959698
4997.53990356,0.00960148
4999.46871094,0.00959640
5001.39751831,0.00946881
5003.32632568,0.00944038
5005.25513306,0.00954980
5007.18394043,0.00949476
5009.11274780,0.00942099
5011.04155518,0.00948426
5012.97036255,0.00939188
5014.89916992,0.00937685
5016.82797729,0.00931661
5018.75678467,0.00923367
5020.68559204,0.00930626
5022.61439941,0.00928134
5024.54320679,0.00921088
5026.47201416,0.00924419
5028.40082153,0.00924613
5030.32962891,0.00914960
5032.25843628,0.00917836
5034.18724365,0.00915731
5036.11605103,0.00915298
5038.04485840,0.00914333
5039.97366577,0.00901219
5041.90247314,0.00902972
5043.83128052,0.00897972
5045.76008789,0.00895846
5047.68889526,0.00899507
5049.61770264,0.00891348
5051.54651001,0.00888378
5053.47531738,0.00892588
5055.40412476,0.00886124
5057.33293213,0.00877334
5059.26173950,0.00887435
5061.19054687,0.00885750
5063.11935425,0.00876147
5065.04816162,0.00876425
5066.97696899,0.00877193
5068.90577637,0.00877255
5070.83458374,0.00873317
5072.76339111,0.00867255
5074.69219849,0.00863401
5076.62100586,0.00864154
5078.54981323,0.00856590
5080.47862061,0.00854672
5082.40742798,0.00856940
5084.33623535,0.00855648
5086.26504272,0.00855763
5088.19385010,0.00851727
5090.12265747,0.00854658
5092.05146484,0.00854213
5093.98027222,0.00851714
5095.90907959,0.00843440
5097.83788696,0.00843012
5099.76669434,0.00846982
5101.69550171,0.00834071
5103.62430908,0.00834609
5105.55311645,0.00840770
5107.48192383,0.00842059
5109.41073120,0.00832744
5111.33953857,0.00824874
5113.26834595,0.00823285
5115.19715332,0.00821228
5117.12596069,0.00824815
5119.05476807,0.00819961
5120.98357544,0.00819171
5122.91238281,0.00812379
5124.84119019,0.00814915
5126.76999756,0.00813737
5128.69880493,0.00799063
5130.62761230,0.00808467
5132.55641968,0.00810864
5134.48522705,0.00804639
5136.41403442,0.00796748
5138.34284180,0.00799749
5140.27164917,0.00795010
5142.20045654,0.00785012
5144.12926392,0.00800175
5146.05807129,0.00796312
5147.98687866,0.00792211
5149.91568603,0.00792282
5151.84449341,0.00788870
5153.77330078,0.00784216
5155.70210815,0.00777320
5157.63091553,0.00782368
5159.55972290,0.00777652
5161.48853027,0.00780766
5163.41733765,0.00780630
5165.34614502,0.00771912
5167.27495239,0.00772262
5169.20375977,0.00769403
5171.13256714,0.00766394
5173.06137451,0.00763872
5174.99018188,0.00762859
5176.91898926,0.00763153
5178.84779663,0.00766742
5180.77660400,0.00761033
5182.70541138,0.00755129
5184.63421875,0.00750929
5186.56302612,0.00747367
5188.49183350,0.00754794
5190.42064087,0.00750582
5192.34944824,0.00750335
5194.27825562,0.00750067
5196.20706299,0.00735765
5198.13587036,0.00732686
5200.06467773,0.00741681
5201.99348511,0.00742165
5203.92229248,0.00739300
5205.85109985,0.00729565
5207.77990723,0.00712067
5209.70871460,0.00720334
5211.63752197,0.00728313
5213.56632935,0.00733668
5215.49513672,0.00733699
5217.42394409,0.00720321
5219.35275146,0.00721230
5221.28155884,0.00723198
5223.21036621,0.00725523
5225.13917358,0.00707336
5227.06798096,0.00700704
5228.99678833,0.00710803
5230.92559570,0.00708835
5232.85440308,0.00716093
5234.78321045,0.00707220
5236.71201782,0.00706252
5238.64082520,0.00708713
5240.56963257,0.00710647
5242.49843994,0.00705902
5244.42724731,0.00685010
5246.35605469,0.00693554
5248.28486206,0.00683356
5250.21366943,0.00683109
5252.14247681,0.00707477
5254.07128418,0.00691071
5256.00009155,0.00680970
5257.92889893,0.00687085
5259.85770630,0.00680871
5261.78651367,0.00675757
5263.71532104,0.00670382
5265.64412842,0.00672855
5267.57293579,0.00685402
5269.50174316,0.00676739
5271.43055054,0.00673600
5273.35935791,0.00679913
5275.28816528,0.00672740
5277.21697266,0.00671998
5279.14578003,0.00666100
5281.07458740,0.00669183
5283.00339478,0.00666139
5284.93220215,0.00655748
5286.86100952,0.00664889
5288.78981689,0.00656073
5290.71862427,0.00649699
5292.64743164,0.00662399
5294.57623901,0.00667584
5296.50504639,0.00659255
5298.43385376,0.00650675
5300.36266113,0.00654030
5302.29146851,0.00645912
5304.22027588,0.00644467
5306.14908325,0.00650801
5308.07789062,0.00635676
5310.00669800,0.00642609
5311.93550537,0.00650668
5313.86431274,0.00638324
5315.79312012,0.00643618
5317.72192749,0.00638839
5319.65073486,0.00632604
5321.57954224,0.00632320
5323.50834961,0.00637724
5325.43715698,0.00638407
5327.36596436,0.00618456
5329.29477173,0.00623598
5331.22357910,0.00625495
5333.15238647,0.00619528
5335.08119385,0.00622509
5337.01000122,0.00616286
5338.93880859,0.00601511
5340.86761597,0.00613676
5342.79642334,0.00629425
5344.72523071,0.00587139
5346.65403809,0.00597863
5348.58284546,0.00614044
5350.51165283,0.00602485
5352.44046020,0.00612413
5354.36926758,0.00580469
5356.29807495,0.00600114
5358.22688232,0.00612501
5360.15568970,0.00602183
5362.08449707,0.00602554
5364.01330444,0.00581338
5365.94211182,0.00608935
5367.87091919,0.00602350
5369.79972656,0.00595417
5371.72853394,0.00602218
5373.65734131,0.00590823
5375.58614868,0.00589497
5377.51495605,0.00572488
5379.44376343,0.00587714
5381.37257080,0.00587284
5383.30137817,0.00581547
5385.23018555,0.00582704
5387.15899292,0.00577656
5389.08780029,0.00590978
5391.01660767,0.00581561
5392.94541504,0.00573210
5394.87422241,0.00566238
5396.80302978,0.00571329
5398.73183716,0.00575752
5400.66064453,0.00577442
5402.58945190,0.00577076
5404.51825928,0.00557397
5406.44706665,0.00565241
5408.37587402,0.00561468
5410.30468140,0.00556400
5412.23348877,0.00555855
5414.16229614,0.00541430
5416.09110352,0.00549088
5418.01991089,0.00559562
5419.94871826,0.00567857
5421.87752563,0.00568573
5423.80633301,0.00555589
5425.73514038,0.00550059
5427.66394775,0.00555140
5429.59275513,0.00537757
5431.52156250,0.00540371
5433.45036987,0.00550194
5435.37917725,0.00520990
5437.30798462,0.00540299
5439.23679199,0.00551988
5441.16559936,0.00529092
5443.09440674,0.00538209
5445.02321411,0.00533243
5446.95202148,0.00525313
5448.88082886,0.00535370
5450.80963623,0.00532913
5452.73844360,0.00533974
5454.66725098,0.00537872
5456.59605835,0.00530233
5458.52486572,0.00539518
5460.45367310,0.00524356
5462.38248047,0.00515366
5464.31128784,0.00534042
5466.24009521,0.00520642
5468.16890259,0.00524596
5470.09770996,0.00515914
5472.02651733,0.00516903
5473.95532471,0.00525957
5475.88413208,0.00498310
5477.81293945,0.00514822
5479.74174683,0.00525908
5481.67055420,0.00521163
5483.59936157,0.00521243
5485.52816895,0.00517441
5487.45697632,0.00515157
5489.38578369,0.00496994
5491.31459106,0.00503973
5493.24339844,0.00504038
5495.17220581,0.00497042
5497.10101318,0.00503960
5499.02982056,0.00499922
5500.95862793,0.00498781
5502.88743530,0.00500178
5504.81624268,0.00502499
5506.74505005,0.00496147
5508.67385742,0.00492880
5510.60266479,0.00492967
5512.53147217,0.00493837
5514.46027954,0.00498654
5516.38908691,0.00493473
5518.31789429,0.00496109
5520.24670166,0.00496206
5522.17550903,0.00487202
5524.10431641,0.00485596
5526.03312378,0.00484441
5527.96193115,0.00483152
5529.89073853,0.00488631
5531.81954590,0.00487810
5533.74835327,0.00480338
5535.67716064,0.00479384
5537.60596802,0.00476939
5539.53477539,0.00474639
5541.46358276,0.00472332
5543.39239014,0.00476380
5545.32119751,0.00479900
5547.25000488,0.00475985
5549.17881226,0.00477641
5551.10761963,0.00470197
5553.03642700,0.00466769
5554.96523437,0.00473451
5556.89404175,0.00472179
5558.82284912,0.00467148
5560.75165649,0.00461206
5562.68046387,0.00462305
5564.60927124,0.00466395
5566.53807861,0.00464454
5568.46688599,0.00463528
5570.39569336,0.00460464
5572.32450073,0.00453999
5574.25330811,0.00455147
5576.18211548,0.00453576
5578.11092285,0.00455426
5580.03973022,0.00464871
5581.96853760,0.00458025
5583.89734497,0.00449208
5585.82615234,0.00449278
5587.75495972,0.00447251
5589.68376709,0.00442493
5591.61257446,0.00444830
5593.54138184,0.00447103
5595.47018921,0.00442030
5597.39899658,0.00445578
5599.32780395,0.00442660
5601.25661133,0.00439882
5603.18541870,0.00443632
5605.11422607,0.00436849
5607.04303345,0.00435109
5608.97184082,0.00436665
5610.90064819,0.00440708
5612.82945557,0.00442218
5614.75826294,0.00437668
5616.68707031,0.00439051
5618.61587769,0.00433599
5620.54468506,0.00430921
5622.47349243,0.00433381
5624.40229980,0.00431294
5626.33110718,0.00433568
5628.25991455,0.00428309
5630.18872192,0.00422935
5632.11752930,0.00425474
5634.04633667,0.00426011
5635.97514404,0.00422651
5637.90395142,0.00419317
5639.83275879,0.00426418
5641.76156616,0.00422111
5643.69037353,0.00415931
5645.61918091,0.00419054
5647.54798828,0.00414324
5649.47679565,0.00419183
5651.40560303,0.00416202
5653.33441040,0.00415513
5655.26321777,0.00419783
5657.19202515,0.00405460
5659.12083252,0.00409526
5661.04963989,0.00417891
5662.97844727,0.00408345
5664.90725464,0.00405055
5666.83606201,0.00414960
5668.76486938,0.00412205
5670.69367676,0.00400909
5672.62248413,0.00403052
5674.55129150,0.00398542
5676.48009888,0.00401613
5678.40890625,0.00406761
5680.33771362,0.00403876
5682.26652100,0.00402348
5684.19532837,0.00391697
5686.12413574,0.00395401
5688.05294311,0.00398120
5689.98175049,0.00393054
5691.91055786,0.00394271
5693.83936523,0.00384609
5695.76817261,0.00385095
5697.69697998,0.00391009
5699.62578735,0.00387030
5701.55459473,0.00389638
5703.48340210,0.00385221
5705.41220947,0.00380572
5707.34101685,0.00385348
5709.26982422,0.00379324
5711.19863159,0.00380648
5713.12743896,0.00385488
5715.05624634,0.00381199
5716.98505371,0.00381547
5718.91386108,0.00375512
5720.84266846,0.00376123
5722.77147583,0.00381475
5724.70028320,0.00377933
5726.62909058,0.00378953
5728.55789795,0.00375296
5730.48670532,0.00371031
5732.41551270,0.00371848
5734.34432007,0.00365433
5736.27312744,0.00365392
5738.20193481,0.00369059
5740.13074219,0.00361816
5742.05954956,0.00363803
5743.98835693,0.00365734
5745.91716431,0.00360105
5747.84597168,0.00364013
5749.77477905,0.00368150
5751.70358643,0.00361965
5753.63239380,0.00350480
5755.56120117,0.00361223
5757.49000854,0.00366993
5759.41881592,0.00352293
5761.34762329,0.00354677
5763.27643066,0.00357585
5765.20523804,0.00358633
5767.13404541,0.00353582
5769.06285278,0.00350282
5770.99166016,0.00358178
5772.92046753,0.00350286
5774.84927490,0.00349843
5776.77808228,0.00351486
5778.70688965,0.00342098
5780.63569702,0.00344784
5782.56450439,0.00345078
5784.49331177,0.00339134
5786.42211914,0.00339912
5788.35092651,0.00339558
5790.27973389,0.00340068
5792.20854126,0.00340926
5794.13734863,0.00340496
5796.06615601,0.00341770
5797.99496338,0.00334860
5799.92377075,0.00338840
5801.85257812,0.00340039
5803.78138550,0.00327151
5805.71019287,0.00332982
5807.63900024,0.00335931
5809.56780762,0.00332146
5811.49661499,0.00331049
5813.42542236,0.00327067
5815.35422974,0.00328101
5817.28303711,0.00326137
5819.21184448,0.00321669
5821.14065186,0.00323867
5823.06945923,0.00326195
5824.99826660,0.00324737
5826.92707397,0.00328641
5828.85588135,0.00325113
5830.78468872,0.00322452
5832.71349609,0.00322323
5834.64230347,0.00317440
5836.57111084,0.00320300
5838.49991821,0.00311459
5840.42872559,0.00317129
5842.35753296,0.00325445
5844.28634033,0.00314260
5846.21514770,0.00319229
5848.14395508,0.00317808
5850.07276245,0.00312084
5852.00156982,0.00313221
5853.93037720,0.00313788
5855.85918457,0.00311738
5857.78799194,0.00307142
5859.71679932,0.00307210
5861.64560669,0.00305310
5863.57441406,0.00310000
5865.50322144,0.00309427
5867.43202881,0.00303689
5869.36083618,0.00307650
5871.28964355,0.00309932
5873.21845093,0.00304284
5875.14725830,0.00299378
5877.07606567,0.00303174
5879.00487305,0.00301395
5880.93368042,0.00296788
5882.86248779,0.00298561
5884.79129517,0.00301511
5886.72010254,0.00294425
5888.64890991,0.00291138
5890.57771728,0.00298627
5892.50652466,0.00293735
5894.43533203,0.00294316
5896.36413940,0.00292103
5898.29294678,0.00284466
5900.22175415,0.00289191
5902.15056152,0.00288879
5904.07936890,0.00292024
5906.00817627,0.00293484
5907.93698364,0.00285354
5909.86579102,0.00287001
5911.79459839,0.00290694
5913.72340576,0.00284932
5915.65221313,0.00284441
5917.58102051,0.00281801
5919.50982788,0.00281511
5921.43863525,0.00285382
5923.36744263,0.00275414
5925.29625000,0.00283441
5927.22505737,0.00287867
5929.15386475,0.00281080
5931.08267212,0.00286147
5933.01147949,0.00276003
5934.94028686,0.00275537
5936.86909424,0.00280608
5938.79790161,0.00277475
5940.72670898,0.00279441
5942.65551636,0.00275763
5944.58432373,0.00270596
5946.51313110,0.00271515
5948.44193848,0.00276885
5950.37074585,0.00271801
5952.29955322,0.00272304
5954.22836060,0.00275793
5956.15716797,0.00270000
5958.08597534,0.00272760
5960.01478271,0.00270411
5961.94359009,0.00269945
5963.87239746,0.00266652
5965.80120483,0.00259629
5967.73001221,0.00264387
5969.65881958,0.00259464
5971.58762695,0.00260465
5973.51643433,0.00263845
5975.44524170,0.00255394
5977.37404907,0.00261904
5979.30285645,0.00264018
5981.23166382,0.00255102
5983.16047119,0.00259676
5985.08927856,0.00263434
5987.01808594,0.00261416
5988.94689331,0.00260270
5990.87570068,0.00254487
5992.80450806,0.00253199
5994.73331543,0.00255142
5996.66212280,0.00249650
5998.59093018,0.00251336
6000.51973755,0.00257085
