399.26312622,0.00190085
401.19193359,0.00268262
403.12074097,0.00325370
405.04954834,0.00333417
406.97835571,0.00319702
408.90716309,0.00291497
410.83597046,0.00351059
412.76477783,0.00370368
414.69358521,0.00382146
416.62239258,0.00393448
418.55119995,0.00317160
420.48000732,0.00335428
422.40881470,0.00392391
424.33762207,0.00404495
426.26642944,0.00448737
428.19523682,0.00428829
430.12404419,0.00401102
432.05285156,0.00456366
433.98165894,0.00473415
435.91046631,0.00385735
437.83927368,0.00387059
439.76808105,0.00419343
441.69688843,0.00343255
443.62569580,0.00410319
445.55450317,0.00376421
447.48331055,0.00285423
449.41211792,0.00369886
451.34092529,0.00262387
453.26973267,0.00253340
455.19854004,0.00334802
457.12734741,0.00241311
459.05615479,0.00239440
460.98496216,0.00232441
462.91376953,0.00214601
464.84257690,0.00212009
466.77138428,0.00171531
468.70019165,0.00185772
470.62899902,0.00211955
472.55780640,0.00185250
474.48661377,0.00147145
476.41542114,0.00127799
478.34422852,0.00110748
480.27303589,0.00156540
482.20184326,0.00140799
484.13065063,0.00080082
486.05945801,0.00084435
487.98826538,0.00089464
489.91707275,0.00107352
491.84588013,0.00066639
493.77468750,0.00107869
495.70349487,0.00151871
497.63230225,0.00020113
499.56110962,-0.00000993
501.48991699,0.00084976
503.41872437,0.00084740
505.34753174,0.00025885
507.27633911,0.00042565
509.20514648,0.00057762
511.13395386,0.00032257
513.06276123,0.00063331
514.99156860,0.00046181
516.92037598,0.00044545
518.84918335,0.00049338
520.77799072,0.00057481
522.70679810,0.00099614
524.63560547,0.00041446
526.56441284,0.00050040
528.49322021,0.00117885
530.42202759,0.00090035
532.35083496,0.00018835
534.27964233,-0.00012407
536.20844971,0.00047075
538.13725708,0.00067941
540.06606445,0.00062198
541.99487183,0.00062334
543.92367920,0.00038658
545.85248657,0.00052490
547.78129395,0.00067991
549.71010132,0.00087721
551.63890869,0.00042739
553.56771606,0.00023535
555.49652344,0.00114085
557.42533081,0.00069622
559.35413818,0.00044181
561.28294556,0.00103436
563.21175293,0.00057249
565.14056030,0.00042597
567.06936768,0.00026882
568.99817505,0.00029196
570.92698242,0.00057719
572.85578979,0.00039752
574.78459717,0.00071518
576.71340454,0.00039320
578.64221191,0.00047238
580.57101929,0.00106942
582.49982666,0.00055099
584.42863403,0.00053844
586.35744141,0.00051061
588.28624878,0.00046737
590.21505615,0.00054027
592.14386353,0.00008694
594.07267090,0.00030288
596.00147827,0.00055780
597.93028564,0.00065126
599.85909302,0.00065051
601.78790039,0.00035794
603.71670776,0.00040124
605.64551514,0.00053521
607.57432251,0.00059424
609.50312988,0.00059598
611.43193726,0.00033957
613.36074463,0.00010534
615.28955200,0.00010297
617.21835938,0.00032510
619.14716675,0.00036345
621.07597412,-0.00006306
623.00478149,0.00016868
624.93358887,0.00037171
626.86239624,0.00032280
628.79120361,0.00048462
630.72001099,0.00080810
632.64881836,0.00171826
634.57762573,0.00249620
636.50643311,0.00303449
638.43524048,0.00310012
640.36404785,0.00324664
642.29285522,0.00388481
644.22166260,0.00395474
646.15046997,0.00416832
648.07927734,0.00505467
650.00808472,0.00505052
651.93689209,0.00483104
653.86569946,0.00539828
655.79450684,0.00533153
657.72331421,0.00512355
659.65212158,0.00572758
661.58092896,0.00620935
663.50973633,0.00629427
665.43854370,0.00626823
667.36735107,0.00606606
669.29615845,0.00648191
671.22496582,0.00731002
673.15377319,0.00748435
675.08258057,0.00802701
677.01138794,0.00842766
678.94019531,0.00817678
680.86900269,0.00806834
682.79781006,0.00800056
684.72661743,0.00823760
686.65542480,0.00809870
688.58423218,0.00805675
690.51303955,0.00839507
692.44184692,0.00875239
694.37065430,0.00965512
696.29946167,0.01056664
698.22826904,0.01196010
700.15707642,0.01297932
702.08588379,0.01276138
704.01469116,0.01207705
705.94349854,0.01056229
707.87230591,0.00893665
709.80111328,0.00729323
711.72992065,0.00520111
713.65872803,0.00318765
715.58753540,0.00163600
717.51634277,0.00109759
719.44515015,0.00070561
721.37395752,0.00030456
723.30276489,0.00054742
725.23157227,0.00033301
727.16037964,-0.00017985
729.08918701,-0.00011657
731.01799438,0.00002102
732.94680176,-0.00012316
734.87560913,0.00003584
736.80441650,0.00042766
738.73322388,0.00025897
740.66203125,0.00015908
742.59083862,0.00010513
744.51964600,0.00005067
746.44845337,0.00035312
748.37726074,0.00041310
750.30606812,0.00040987
752.23487549,0.00030714
754.16368286,0.00032807
756.09249023,0.00034241
758.02129761,0.00030297
759.95010498,0.00063736
761.87891235,0.00048606
763.80771973,0.00045084
765.73652710,0.00074271
767.66533447,0.00057172
769.59414185,0.00058260
771.52294922,0.00053704
773.45175659,0.00061784
775.38056396,0.00065133
777.30937134,0.00052773
779.23817871,0.00069883
781.16698608,0.00068633
783.09579346,0.00062229
785.02460083,0.00065699
786.95340820,0.00088900
788.88221558,0.00095978
790.81102295,0.00063405
792.73983032,0.00077061
794.66863770,0.00107578
796.59744507,0.00101378
798.52625244,0.00145587
800.45505981,0.00183423
802.38386719,0.00165197
804.31267456,0.00151497
806.24148193,0.00100064
808.17028931,0.00078656
810.09909668,0.00085569
812.02790405,0.00062747
813.95671143,0.00055800
815.88551880,0.00074320
817.81432617,0.00075887
819.74313354,0.00045038
821.67194092,0.00083147
823.60074829,0.00102275
825.52955566,0.00102258
827.45836304,0.00129228
829.38717041,0.00136483
831.31597778,0.00193412
833.24478516,0.00209942
835.17359253,0.00243740
837.10239990,0.00266847
839.03120728,0.00241588
840.96001465,0.00263741
842.88882202,0.00231016
844.81762939,0.00209773
846.74643677,0.00205003
848.67524414,0.00199599
850.60405151,0.00191047
852.53285889,0.00165900
854.46166626,0.00184544
856.39047363,0.00150674
858.31928101,0.00117041
860.24808838,0.00110384
862.17689575,0.00067574
864.10570313,0.00053025
866.03451050,0.00053187
867.96331787,0.00044506
869.89212524,0.00044809
871.82093262,0.00049821
873.74973999,0.00063861
875.67854736,0.00060512
877.60735474,0.00043658
879.53616211,0.00042789
881.46496948,0.00037588
883.39377686,0.00048886
885.32258423,0.00032811
887.25139160,0.00021025
889.18019897,0.00058934
891.10900635,0.00046601
893.03781372,0.00035776
894.96662109,0.00046292
896.89542847,0.00054763
898.82423584,0.00055163
900.75304321,0.00043476
902.68185059,0.00043194
904.61065796,0.00044166
906.53946533,0.00095487
908.46827271,0.00110112
910.39708008,0.00081449
912.32588745,0.00093527
914.25469482,0.00113735
916.18350220,0.00135962
918.11230957,0.00151791
920.04111694,0.00167739
921.96992432,0.00176881
923.89873169,0.00216391
925.82753906,0.00234375
927.75634644,0.00235848
929.68515381,0.00284672
931.61396118,0.00297107
933.54276855,0.00309634
935.47157593,0.00335540
937.40038330,0.00354067
939.32919067,0.00386829
941.25799805,0.00411548
943.18680542,0.00407001
945.11561279,0.00408395
947.04442017,0.00398514
948.97322754,0.00363108
950.90203491,0.00391032
952.83084229,0.00392948
954.75964966,0.00380653
956.68845703,0.00388720
958.61726440,0.00365007
960.54607178,0.00376189
962.47487915,0.00388324
964.40368652,0.00390959
966.33249390,0.00394858
968.26130127,0.00419755
970.19010864,0.00434142
972.11891602,0.00453369
974.04772339,0.00514797
975.97653076,0.00544626
977.90533813,0.00584022
979.83414551,0.00621259
981.76295288,0.00678616
983.69176025,0.00759319
985.62056763,0.00844210
987.54937500,0.00948122
989.47818237,0.01046807
991.40698975,0.01183083
993.33579712,0.01301394
995.26460449,0.01418221
997.19341187,0.01535822
999.12221924,0.01638809
1001.05102661,0.01752182
1002.97983398,0.01876006
1004.90864136,0.02026354
1006.83744873,0.02138431
1008.76625610,0.02280975
1010.69506348,0.02413686
1012.62387085,0.02516637
1014.55267822,0.02662041
1016.48148560,0.02796321
1018.41029297,0.02941197
1020.33910034,0.03061910
1022.26790771,0.03181961
1024.19671509,0.03310966
1026.12552246,0.03425594
1028.05432983,0.03542685
1029.98313721,0.03659655
1031.91194458,0.03761431
1033.84075195,0.03832673
1035.76955933,0.03914309
1037.69836670,0.03929079
1039.62717407,0.03938415
1041.55598145,0.03956838
1043.48478882,0.03909585
1045.41359619,0.03878821
1047.34240356,0.03820107
1049.27121094,0.03747427
1051.20001831,0.03687349
1053.12882568,0.03624354
1055.05763306,0.03546705
1056.98644043,0.03460029
1058.91524780,0.03377490
1060.84405518,0.03281761
1062.77286255,0.03208530
1064.70166992,0.03095051
1066.63047729,0.02960335
1068.55928467,0.02839788
1070.48809204,0.02718080
1072.41689941,0.02591357
1074.34570679,0.02466488
1076.27451416,0.02378873
1078.20332153,0.02250488
1080.13212891,0.02145796
1082.06093628,0.02056830
1083.98974365,0.01941991
1085.91855103,0.01869861
1087.84735840,0.01767138
1089.77616577,0.01680990
1091.70497314,0.01621467
1093.63378052,0.01544041
1095.56258789,0.01479285
1097.49139526,0.01424321
1099.42020264,0.01401758
1101.34901001,0.01376160
1103.27781738,0.01336474
1105.20662476,0.01323436
1107.13543213,0.01307248
1109.06423950,0.01269977
1110.99304687,0.01255295
1112.92185425,0.01236307
1114.85066162,0.01200953
1116.77946899,0.01221596
1118.70827637,0.01240381
1120.63708374,0.01221846
1122.56589111,0.01229770
1124.49469849,0.01236769
1126.42350586,0.01258470
1128.35231323,0.01289235
1130.28112061,0.01304200
1132.20992798,0.01344336
1134.13873535,0.01387155
1136.06754272,0.01455880
1137.99635010,0.01524928
1139.92515747,0.01620831
1141.85396484,0.01742110
1143.78277222,0.01820194
1145.71157959,0.01972931
1147.64038696,0.02090512
1149.56919434,0.02178363
1151.49800171,0.02317441
1153.42680908,0.02402089
1155.35561646,0.02520303
1157.28442383,0.02626019
1159.21323120,0.02724185
1161.14203857,0.02845148
1163.07084595,0.02943178
1164.99965332,0.03045657
1166.92846069,0.03141626
1168.85726807,0.03278971
1170.78607544,0.03408795
1172.71488281,0.03529426
1174.64369019,0.03662609
1176.57249756,0.03806692
1178.50130493,0.03949561
1180.43011230,0.04076982
1182.35891968,0.04280969
1184.28772705,0.04479258
1186.21653442,0.04649123
1188.14534180,0.04857924
1190.07414917,0.05097360
1192.00295654,0.05348313
1193.93176392,0.05579567
1195.86057129,0.05828456
1197.78937866,0.06100300
1199.71818604,0.06367864
1201.64699341,0.06638611
1203.57580078,0.06929909
1205.50460815,0.07192156
1207.43341553,0.07456301
1209.36222290,0.07710725
1211.29103027,0.07929105
1213.21983765,0.08168729
1215.14864502,0.08363299
1217.07745239,0.08562021
1219.00625977,0.08711144
1220.93506714,0.08818415
1222.86387451,0.08953416
1224.79268188,0.09025162
1226.72148926,0.09108146
1228.65029663,0.09154866
1230.57910400,0.09185261
1232.50791138,0.09214272
1234.43671875,0.09192889
1236.36552612,0.09193890
1238.29433350,0.09186703
1240.22314087,0.09174578
1242.15194824,0.09126805
1244.08075562,0.09084216
1246.00956299,0.09040948
1247.93837036,0.08975898
1249.86717773,0.08934854
1251.79598511,0.08846575
1253.72479248,0.08763157
1255.65359985,0.08678830
1257.58240723,0.08550220
1259.51121460,0.08395310
1261.44002197,0.08261682
1263.36882935,0.08176662
1265.29763672,0.08055060
1267.22644409,0.07938605
1269.15525146,0.07843049
1271.08405884,0.07712559
1273.01286621,0.07588588
1274.94167358,0.07476034
1276.87048096,0.07321385
1278.79928833,0.07165390
1280.72809570,0.07025231
1282.65690308,0.06882734
1284.58571045,0.06769247
1286.51451782,0.06633390
1288.44332520,0.06510721
1290.37213257,0.06426722
1292.30093994,0.06358267
1294.22974731,0.06313255
1296.15855469,0.06254270
1298.08736206,0.06246721
1300.01616943,0.06266004
1301.94497681,0.06281538
1303.87378418,0.06356293
1305.80259155,0.06416378
1307.73139893,0.06488647
1309.66020630,0.06615514
1311.58901367,0.06682590
1313.51782104,0.06805485
1315.44662842,0.07016353
1317.37543579,0.07138698
1319.30424316,0.07321591
1321.23305054,0.07587066
1323.16185791,0.07811294
1325.09066528,0.08049846
1327.01947266,0.08273869
1328.94828003,0.08476952
1330.87708740,0.08690099
1332.80589478,0.08899108
1334.73470215,0.09076836
1336.66350952,0.09150111
1338.59231689,0.09036019
1340.52112427,0.09153779
1342.44993164,0.09578687
1344.37873901,0.09637883
1346.30754639,0.09592101
1348.23635376,0.09606753
1350.16516113,0.09526655
1352.09396851,0.09541918
1354.02277588,0.09417819
1355.95158325,0.09323931
1357.88039062,0.09269526
1359.80919800,0.09104799
1361.73800537,0.08725114
1363.66681274,0.08555885
1365.59562012,0.08996074
1367.52442749,0.08822355
1369.45323486,0.08690669
1371.38204224,0.08858823
1373.31084961,0.08348614
1375.23965698,0.08392019
1377.16846436,0.08645269
1379.09727173,0.08601006
1381.02607910,0.08640925
1382.95488647,0.08624221
1384.88369385,0.08603366
1386.81250122,0.08193870
1388.74130859,0.08280727
1390.67011597,0.09026338
1392.59892334,0.08798169
1394.52773071,0.08160953
1396.45653809,0.08584246
1398.38534546,0.08588107
1400.31415283,0.08539970
1402.24296021,0.09268498
1404.17176758,0.08727802
1406.10057495,0.08771410
1408.02938232,0.09168893
1409.95818970,0.08815789
1411.88699707,0.09012759
1413.81580444,0.08682194
1415.74461182,0.08836049
1417.67341919,0.07967061
1419.60222656,0.07018115
1421.53103394,0.08181733
1423.45984131,0.07968777
1425.38864868,0.07679693
1427.31745605,0.07849896
1429.24626343,0.07207733
1431.17507080,0.06962992
1433.10387817,0.07123905
1435.03268555,0.06484774
1436.96149292,0.05407465
1438.89030029,0.06207844
1440.81910767,0.06414627
1442.74791504,0.05877312
1444.67672241,0.06212616
1446.60552979,0.05666009
1448.53433716,0.05732512
1450.46314453,0.05965997
1452.39195190,0.06047909
1454.32075928,0.06309079
1456.24956665,0.05136831
1458.17837402,0.05320196
1460.10718140,0.07208528
1462.03598877,0.07695893
1463.96479614,0.07615223
1465.89360352,0.07926829
1467.82241089,0.09091181
1469.75121826,0.09793970
1471.68002563,0.08644280
1473.60883301,0.09093083
1475.53764038,0.10436800
1477.46644775,0.11250667
1479.39525513,0.12404112
1481.32406250,0.12568781
1483.25286987,0.13357674
1485.18167725,0.13826224
1487.11048462,0.13578022
1489.03929199,0.13482371
1490.96809937,0.13544841
1492.89690674,0.15894523
1494.82571411,0.15555826
1496.75452148,0.13851728
1498.68332886,0.15761802
1500.61213623,0.16298078
1502.54094360,0.17520258
1504.46975098,0.16605905
1506.39855835,0.11830540
1508.32736572,0.14504331
1510.25617310,0.17261454
1512.18498047,0.16677897
1514.11378784,0.18169750
1516.04259521,0.16302392
1517.97140259,0.16996714
1519.90020996,0.16478509
1521.82901733,0.14079106
1523.75782471,0.17421728
1525.68663208,0.17159450
1527.61543945,0.17024484
1529.54424683,0.18980500
1531.47305420,0.18224123
1533.40186157,0.16605514
1535.33066895,0.17621380
1537.25947632,0.19034809
1539.18828369,0.13429981
1541.11709106,0.13908848
1543.04589844,0.16931796
1544.97470581,0.16154337
1546.90351318,0.19317654
1548.83232056,0.18001728
1550.76112793,0.18474106
1552.68993530,0.18485034
1554.61874268,0.16653141
1556.54755005,0.17913359
1558.47635742,0.12449072
1560.40516479,0.13323474
1562.33397217,0.19431384
1564.26277954,0.18379346
1566.19158691,0.18886457
1568.12039429,0.18730980
1570.04920166,0.16433726
1571.97800903,0.19073080
1573.90681641,0.19426051
1575.83562378,0.15186149
1577.76443115,0.17218578
1579.69323853,0.19650522
1581.62204590,0.18761685
1583.55085327,0.19248211
1585.47966064,0.18955281
1587.40846802,0.19105482
1589.33727539,0.18915857
1591.26608276,0.18909171
1593.19489014,0.18954018
1595.12369751,0.18694286
1597.05250488,0.18987954
1598.98131226,0.18842658
1600.91011963,0.18957278
1602.83892700,0.18598957
1604.76773437,0.18933615
1606.69654175,0.18660614
1608.62534912,0.18594638
1610.55415649,0.18612525
1612.48296387,0.18702598
1614.41177124,0.19019607
1616.34057861,0.15406367
1618.26938599,0.16678570
1620.19819336,0.19646561
1622.12700073,0.17316356
1624.05580811,0.17358592
1625.98461548,0.18283868
1627.91342285,0.18181247
1629.84223022,0.18065166
1631.77103760,0.19359842
1633.69984497,0.17834319
1635.62865234,0.14510237
1637.55745972,0.16981095
1639.48626709,0.18842918
1641.41507446,0.18383405
1643.34388184,0.18907747
1645.27268921,0.16981515
1647.20149658,0.14715704
1649.13030396,0.18508106
1651.05911133,0.17678578
1652.98791870,0.10980345
1654.91672607,0.15114039
1656.84553345,0.19354422
1658.77434082,0.18449213
1660.70314819,0.19010654
1662.63195557,0.17171611
1664.56076294,0.18106256
1666.48957031,0.19605502
1668.41837769,0.16982597
1670.34718506,0.16408798
1672.27599243,0.18757321
1674.20479980,0.17263143
1676.13360718,0.16445592
1678.06241455,0.19136010
1679.99122192,0.18410301
1681.92002930,0.18164811
1683.84883667,0.14688022
1685.77764404,0.14403427
1687.70645142,0.20117730
1689.63525879,0.17381456
1691.56406616,0.19092061
1693.49287354,0.19625148
1695.42168091,0.14025770
1697.35048828,0.17474793
1699.27929565,0.15379339
1701.20810303,0.13596100
1703.13691040,0.18932518
1705.06571777,0.17333719
1706.99452515,0.17383313
1708.92333252,0.19058505
1710.85213989,0.18253055
1712.78094727,0.18596545
1714.70975464,0.17202255
1716.63856201,0.15327421
1718.56736938,0.15049292
1720.49617676,0.17984986
1722.42498413,0.18786186
1724.35379150,0.17320216
1726.28259888,0.18935211
1728.21140625,0.17465402
1730.14021362,0.17526865
1732.06902100,0.17151178
1733.99782837,0.12830037
1735.92663574,0.16087201
1737.85544312,0.17978579
1739.78425049,0.15859628
1741.71305786,0.17332661
1743.64186523,0.17607090
1745.57067261,0.17622042
1747.49947998,0.17776863
1749.42828735,0.16962919
1751.35709473,0.16167918
1753.28590210,0.18006453
1755.21470947,0.18914476
1757.14351685,0.17116758
1759.07232422,0.18937659
1761.00113159,0.17786779
1762.92993896,0.17040235
1764.85874634,0.19685248
1766.78755371,0.17651424
1768.71636108,0.17772588
1770.64516846,0.17704424
1772.57397583,0.15774539
1774.50278320,0.17688867
1776.43159058,0.18786392
1778.36039795,0.18487656
1780.28920532,0.18250835
1782.21801270,0.18417469
1784.14682007,0.18397698
1786.07562744,0.17994718
1788.00443481,0.18955362
1789.93324219,0.18486436
1791.86204956,0.16609347
1793.79085693,0.17330208
1795.71966431,0.18695700
1797.64847168,0.18448786
1799.57727905,0.18154827
1801.50608643,0.17796636
1803.43489380,0.18397996
1805.36370117,0.18859388
1807.29250854,0.18581142
1809.22131592,0.18642640
1811.15012329,0.18103218
1813.07893066,0.18690340
1815.00773804,0.18799859
1816.93654541,0.18553910
1818.86535278,0.18732044
1820.79416016,0.18653381
1822.72296753,0.18943244
1824.65177490,0.17621404
1826.58058228,0.18272090
1828.50938965,0.18345031
1830.43819702,0.17105335
1832.36700439,0.18716943
1834.29581177,0.18608427
1836.22461914,0.18553725
1838.15342651,0.18510729
1840.08223389,0.18611145
1842.01104126,0.18666747
1843.93984863,0.16452922
1845.86865601,0.17548919
1847.79746338,0.18602765
1849.72627075,0.18186656
1851.65507812,0.18742552
1853.58388550,0.18346179
1855.51269287,0.18554620
1857.44150024,0.18421711
1859.37030762,0.18292877
1861.29911499,0.18440941
1863.22792236,0.18208440
1865.15672974,0.18424173
1867.08553711,0.17778087
1869.01434448,0.16992161
1870.94315186,0.17689076
1872.87195923,0.18417177
1874.80076660,0.18122563
1876.72957397,0.18209089
1878.65838135,0.18144727
1880.58718872,0.18041331
1882.51599609,0.18229693
1884.44480347,0.17904606
1886.37361084,0.18178335
1888.30241821,0.17762552
1890.23122559,0.17369983
1892.16003296,0.18068479
1894.08884033,0.17797619
1896.01764771,0.17706043
1897.94645508,0.17932193
1899.87526245,0.17837203
1901.80406982,0.17882869
1903.73287720,0.17761974
1905.66168457,0.17833972
1907.59049194,0.17654106
1909.51929932,0.17530102
1911.44810669,0.17642230
1913.37691406,0.17663655
1915.30572144,0.17827570
1917.23452881,0.17008713
1919.16333618,0.17010716
1921.09214355,0.17722353
1923.02095093,0.17107177
1924.94975830,0.17465742
1926.87856567,0.17681392
1928.80737305,0.17415075
1930.73618042,0.17674932
1932.66498779,0.17404360
1934.59379517,0.17573531
1936.52260254,0.17444809
1938.45140991,0.17473437
1940.38021729,0.17508912
1942.30902466,0.16889346
1944.23783203,0.17221820
1946.16663940,0.17413026
1948.09544678,0.17373516
1950.02425415,0.17451957
1951.95306152,0.17372259
1953.88186890,0.17401028
1955.81067627,0.17308515
1957.73948364,0.17381367
1959.66829102,0.17348245
1961.59709839,0.17305547
1963.52590576,0.17349935
1965.45471313,0.17226140
1967.38352051,0.17058103
1969.31232788,0.17185086
1971.24113525,0.17330766
1973.16994263,0.17194535
1975.09875000,0.17261502
1977.02755737,0.17195162
1978.95636475,0.17192921
1980.88517212,0.17181900
1982.81397949,0.17087516
1984.74278687,0.17180109
1986.67159424,0.17019084
1988.60040161,0.17047192
1990.52920898,0.16895518
1992.45801636,0.16693810
1994.38682373,0.16967081
1996.31563110,0.16980413
1998.24443848,0.16891471
2000.17324585,0.16906866
2002.10205322,0.16876529
2004.03086060,0.16845968
2005.95966797,0.16808820
2007.88847534,0.16766697
2009.81728271,0.16746429
2011.74609009,0.16700950
2013.67489746,0.16689694
2015.60370483,0.16588111
2017.53251221,0.16424154
2019.46131958,0.16543385
2021.39012695,0.16536556
2023.31893433,0.16463852
2025.24774170,0.16473366
2027.17654907,0.16408381
2029.10535645,0.16411734
2031.03416382,0.16339087
2032.96297119,0.16331874
2034.89177856,0.16305012
2036.82058594,0.16236460
2038.74939331,0.16226882
2040.67820068,0.16129419
2042.60700806,0.16101038
2044.53581543,0.16123232
2046.46462280,0.16091354
2048.39343018,0.16055560
2050.32223755,0.16051412
2052.25104492,0.15997148
2054.17985229,0.15955997
2056.10865967,0.15947893
2058.03746704,0.15897423
2059.96627441,0.15856464
2061.89508179,0.15841234
2063.82388916,0.15796840
2065.75269653,0.15714034
2067.68150391,0.15759727
2069.61031128,0.15736176
2071.53911865,0.15673319
2073.46792603,0.15670440
2075.39673340,0.15604243
2077.32554077,0.15609346
2079.25434814,0.15569410
2081.18315552,0.15558308
2083.11196289,0.15522636
2085.04077026,0.15475306
2086.96957764,0.15485159
2088.89838501,0.15403034
2090.82719238,0.15394264
2092.75599976,0.15371042
2094.68480713,0.15344921
2096.61361450,0.15318817
2098.54242187,0.15278745
2100.47122925,0.15266718
2102.40003662,0.15229064
2104.32884399,0.15226632
2106.25765137,0.15191618
2108.18645874,0.15180269
2110.11526611,0.15139690
2112.04407349,0.15105315
2113.97288086,0.15083671
2115.90168823,0.15042856
2117.83049561,0.15055658
2119.75930298,0.15023664
2121.68811035,0.15009665
2123.61691772,0.14974374
2125.54572510,0.14951462
2127.47453247,0.14925188
2129.40333984,0.14910072
2131.33214722,0.14916575
2133.26095459,0.14859754
2135.18976196,0.14857577
2137.11856934,0.14816976
2139.04737671,0.14810070
2140.97618408,0.14801112
2142.90499146,0.14776139
2144.83379883,0.14776298
2146.76260620,0.14716801
2148.69141357,0.14722231
2150.62022095,0.14694762
2152.54902832,0.14681503
2154.47783569,0.14668915
2156.40664307,0.14636284
2158.33545044,0.14625007
2160.26425781,0.14599867
2162.19306519,0.14601155
2164.12187256,0.14553779
2166.05067993,0.14562973
2167.97948730,0.14542472
2169.90829468,0.14511022
2171.83710205,0.14522702
2173.76590942,0.14483607
2175.69471680,0.14469305
2177.62352417,0.14436649
2179.55233154,0.14432923
2181.48113892,0.14417596
2183.40994629,0.14405936
2185.33875366,0.14395046
2187.26756104,0.14355102
2189.19636841,0.14340921
2191.12517578,0.14321232
2193.05398315,0.14319053
2194.98279053,0.14278835
2196.91159790,0.14277151
2198.84040527,0.14270933
2200.76921265,0.14236109
2202.69802002,0.14229719
2204.62682739,0.14210424
2206.55563477,0.14204347
2208.48444214,0.14174964
2210.41324951,0.14170158
2212.34205688,0.14132339
2214.27086426,0.14111522
2216.19967163,0.14108339
2218.12847900,0.14074418
2220.05728638,0.14070606
2221.98609375,0.14035618
2223.91490112,0.14024663
2225.84370850,0.13993251
2227.77251587,0.13982940
2229.70132324,0.13965738
2231.63013062,0.13939790
2233.55893799,0.13939919
2235.48774536,0.13890241
2237.41655273,0.13896751
2239.34536011,0.13858664
2241.27416748,0.13832515
2243.20297485,0.13821733
2245.13178223,0.13776651
2247.06058960,0.13772559
2248.98939697,0.13737586
2250.91820435,0.13724646
2252.84701172,0.13702825
2254.77581909,0.13683623
2256.70462646,0.13651553
2258.63343384,0.13637263
2260.56224121,0.13630471
2262.49104858,0.13593179
2264.41985596,0.13600114
2266.34866333,0.13558339
2268.27747070,0.13534205
2270.20627808,0.13517344
2272.13508545,0.13503613
2274.06389282,0.13500038
2275.99270020,0.13482159
2277.92150757,0.13478851
2279.85031494,0.13437456
2281.77912231,0.13445842
2283.70792969,0.13433757
2285.63673706,0.13398030
2287.56554443,0.13363740
2289.49435181,0.13328713
2291.42315918,0.13313055
2293.35196655,0.13261807
2295.28077393,0.13232976
2297.20958130,0.13187574
2299.13838867,0.13148554
2301.06719604,0.13073312
2302.99600342,0.13005462
2304.92481079,0.12954429
2306.85361816,0.12847717
2308.78242554,0.12767619
2310.71123291,0.12635709
2312.64004028,0.12514564
2314.56884766,0.12388453
2316.49765503,0.12235434
2318.42646240,0.12074272
2320.35526978,0.11882935
2322.28407715,0.11723052
2324.21288452,0.11563005
2326.14169189,0.11439104
2328.07049927,0.11295217
2329.99930664,0.11150143
2331.92811401,0.11046273
2333.85692139,0.11002140
2335.78572876,0.10959624
2337.71453613,0.10921778
2339.64334351,0.10938045
2341.57215088,0.10954233
2343.50095825,0.11136691
2345.42976562,0.11338729
2347.35857300,0.11832081
2349.28738037,0.12285038
2351.21618774,0.11823346
2353.14499512,0.11192849
2355.07380249,0.10753015
2357.00260986,0.10388725
2358.93141724,0.10198690
2360.86022461,0.10065572
2362.78903198,0.10063373
2364.71783936,0.10115236
2366.64664673,0.10257451
2368.57545410,0.10474737
2370.50426147,0.10746498
2372.43306885,0.11061139
2374.36187622,0.11389066
2376.29068359,0.11717530
2378.21949097,0.11974949
2380.14829834,0.12217575
2382.07710571,0.12353485
2384.00591309,0.12442102
2385.93472046,0.12487420
2387.86352783,0.12483530
2389.79233521,0.12498644
2391.72114258,0.12474263
2393.64994995,0.12475918
2395.57875732,0.12443731
2397.50756470,0.12423988
2399.43637207,0.12425122
2401.36517944,0.12395171
2403.29398682,0.12377929
2405.22279419,0.12360822
2407.15160156,0.12354785
2409.08040894,0.12328103
2411.00921631,0.12314256
2412.93802368,0.12297777
2414.86683105,0.12284155
2416.79563843,0.12258662
2418.72444580,0.12230768
2420.65325317,0.12229541
2422.58206055,0.12200564
2424.51086792,0.12193279
2426.43967529,0.12167428
2428.36848267,0.12152390
2430.29729004,0.12144445
2432.22609741,0.12120885
2434.15490479,0.12122084
2436.08371216,0.12093428
2438.01251953,0.12075371
2439.94132690,0.12059943
2441.87013428,0.12049633
2443.79894165,0.12040393
2445.72774902,0.12009294
2447.65655640,0.11986099
2449.58536377,0.11982981
2451.51417114,0.11974185
2453.44297852,0.11944109
2455.37178589,0.11937624
2457.30059326,0.11916347
2459.22940063,0.11901801
2461.15820801,0.11886552
2463.08701538,0.11863215
2465.01582275,0.11854909
2466.94463013,0.11832923
2468.87343750,0.11829768
2470.80224487,0.11806303
2472.73105225,0.11779006
2474.65985962,0.11760675
2476.58866699,0.11749895
2478.51747437,0.11735465
2480.44628174,0.11717992
2482.37508911,0.11720421
2484.30389648,0.11684226
2486.23270386,0.11671494
2488.16151123,0.11661549
2490.09031860,0.11642273
2492.01912598,0.11640678
2493.94793335,0.11621562
2495.87674072,0.11601791
2497.80554810,0.11579595
2499.73435547,0.11570262
2501.66316284,0.11547001
2503.59197021,0.11541369
2505.52077759,0.11531790
2507.44958496,0.11512734
2509.37839233,0.11502758
2511.30719971,0.11473201
2513.23600708,0.11471897
2515.16481445,0.11450085
2517.09362183,0.11429203
2519.02242920,0.11415680
2520.95123657,0.11409600
2522.88004395,0.11396289
2524.80885132,0.11361000
2526.73765869,0.11366823
2528.66646606,0.11336690
2530.59527344,0.11317323
2532.52408081,0.11311445
2534.45288818,0.11293530
2536.38169556,0.11289293
2538.31050293,0.11267996
2540.23931030,0.11258454
2542.16811768,0.11241265
2544.09692505,0.11235617
2546.02573242,0.11213180
2547.95453979,0.11194350
2549.88334717,0.11186495
2551.81215454,0.11160871
2553.74096191,0.11149918
2555.66976929,0.11126760
2557.59857666,0.11120425
2559.52738403,0.11104193
2561.45619141,0.11092299
2563.38499878,0.11083864
2565.31380615,0.11055776
2567.24261353,0.11035105
2569.17142090,0.11015654
2571.10022827,0.11008827
2573.02903564,0.10986520
2574.95784302,0.10984135
2576.88665039,0.10963851
2578.81545776,0.10940135
2580.74426514,0.10939012
2582.67307251,0.10911429
2584.60187988,0.10903230
2586.53068726,0.10888408
2588.45949463,0.10882204
2590.38830200,0.10859630
2592.31710937,0.10834353
2594.24591675,0.10832846
2596.17472412,0.10814166
2598.10353149,0.10806639
2600.03233887,0.10789029
2601.96114624,0.10770433
2603.88995361,0.10750268
2605.81876099,0.10745773
2607.74756836,0.10732941
2609.67637573,0.10709529
2611.60518311,0.10701359
2613.53399048,0.10686792
2615.46279785,0.10683824
2617.39160522,0.10652956
2619.32041260,0.10645138
2621.24921997,0.10632746
2623.17802734,0.10602529
2625.10683472,0.10593340
2627.03564209,0.10567242
2628.96444946,0.10559270
2630.89325684,0.10541055
2632.82206421,0.10531980
2634.75087158,0.10512242
2636.67967895,0.10502185
2638.60848633,0.10501236
2640.53729370,0.10467039
2642.46610107,0.10464816
2644.39490845,0.10443287
2646.32371582,0.10433749
2648.25252319,0.10419342
2650.18133057,0.10390073
2652.11013794,0.10390490
2654.03894531,0.10373503
2655.96775269,0.10354982
2657.89656006,0.10336487
2659.82536743,0.10324940
2661.75417480,0.10305694
2663.68298218,0.10305682
2665.61178955,0.10286980
2667.54059692,0.10254215
2669.46940430,0.10257597
2671.39821167,0.10230626
2673.32701904,0.10215940
2675.25582642,0.10200624
2677.18463379,0.10183857
2679.11344116,0.10177760
2681.04224854,0.10168975
2682.97105591,0.10154577
2684.89986328,0.10127492
2686.82867065,0.10120682
2688.75747803,0.10100806
2690.68628540,0.10099997
2692.61509277,0.10078674
2694.54390015,0.10052764
2696.47270752,0.10053594
2698.40151489,0.10026479
2700.33032227,0.10019741
2702.25912964,0.10003519
2704.18793701,0.09989007
2706.11674438,0.09966028
2708.04555176,0.09950503
2709.97435913,0.09948465
2711.90316650,0.09915102
2713.83197388,0.09902815
2715.76078125,0.09894156
2717.68958862,0.09888356
2719.61839600,0.09862806
2721.54720337,0.09843402
2723.47601074,0.09829139
2725.40481812,0.09802166
2727.33362549,0.09809782
2729.26243286,0.09792292
2731.19124023,0.09763885
2733.12004761,0.09750721
2735.04885498,0.09741285
2736.97766235,0.09714573
2738.90646973,0.09711061
2740.83527710,0.09713235
2742.76408447,0.09672423
2744.69289185,0.09668270
2746.62169922,0.09648570
2748.55050659,0.09631556
2750.47931396,0.09623550
2752.40812134,0.09593695
2754.33692871,0.09584519
2756.26573608,0.09571882
2758.19454346,0.09558903
2760.12335083,0.09538037
2762.05215820,0.09538314
2763.98096558,0.09514840
2765.90977295,0.09495132
2767.83858032,0.09499055
2769.76738770,0.09451102
2771.69619507,0.09442483
2773.62500244,0.09439026
2775.55380981,0.09413733
2777.48261719,0.09405965
2779.41142456,0.09388216
2781.34023193,0.09365991
2783.26903931,0.09343721
2785.19784668,0.09332627
2787.12665405,0.09315139
2789.05546143,0.09303857
2790.98426880,0.09289356
2792.91307617,0.09263535
2794.84188354,0.09252048
2796.77069092,0.09231077
2798.69949829,0.09208342
2800.62830566,0.09210031
2802.55711304,0.09187017
2804.48592041,0.09156531
2806.41472778,0.09165159
2808.34353516,0.09138831
2810.27234253,0.09115306
2812.20114990,0.09100090
2814.12995728,0.09073886
2816.05876465,0.09072001
2817.98757202,0.09043723
2819.91637939,0.09029551
2821.84518677,0.09008448
2823.77399414,0.08978847
2825.70280151,0.08978429
2827.63160889,0.08966936
2829.56041626,0.08945172
2831.48922363,0.08913015
2833.41803101,0.08898616
2835.34683838,0.08883943
2837.27564575,0.08865984
2839.20445312,0.08842535
2841.13326050,0.08809963
2843.06206787,0.08778130
2844.99087524,0.08734743
2846.91968262,0.08701696
2848.84848999,0.08642665
2850.77729736,0.08606634
2852.70610474,0.08612453
2854.63491211,0.08600578
2856.56371948,0.08582443
2858.49252686,0.08575259
2860.42133423,0.08581834
2862.35014160,0.08564397
2864.27894897,0.08551739
2866.20775635,0.08542679
2868.13656372,0.08520774
2870.06537109,0.08505929
2871.99417847,0.08494045
2873.92298584,0.08484131
2875.85179321,0.08458810
2877.78060059,0.08449675
2879.70940796,0.08440914
2881.63821533,0.08426534
2883.56702270,0.08418624
2885.49583008,0.08401726
2887.42463745,0.08386591
2889.35344482,0.08366135
2891.28225220,0.08354800
2893.21105957,0.08340582
2895.13986694,0.08321345
2897.06867432,0.08298429
2898.99748169,0.08277380
2900.92628906,0.08253630
2902.85509644,0.08222386
2904.78390381,0.08207813
2906.71271118,0.08186009
2908.64151855,0.08161964
2910.57032593,0.08121766
2912.49913330,0.08088592
2914.42794067,0.08057046
2916.35674805,0.08005027
2918.28555542,0.07990944
2920.21436279,0.07981089
2922.14317017,0.07964306
2924.07197754,0.07949236
2926.00078491,0.07943287
2927.92959229,0.07934402
2929.85839966,0.07914971
2931.78720703,0.07918225
2933.71601440,0.07914929
2935.64482178,0.07913423
2937.57362915,0.07913286
2939.50243652,0.07905706
2941.43124390,0.07897297
2943.36005127,0.07902898
2945.28885864,0.07898972
2947.21766602,0.07873175
2949.14647339,0.07867496
2951.07528076,0.07850221
2953.00408813,0.07836686
2954.93289551,0.07816337
2956.86170288,0.07790887
2958.79051025,0.07766457
2960.71931763,0.07732355
2962.64812500,0.07726217
2964.57693237,0.07705558
2966.50573975,0.07704507
2968.43454712,0.07710579
2970.36335449,0.07701394
2972.29216187,0.07710550
2974.22096924,0.07714713
2976.14977661,0.07715730
2978.07858398,0.07711388
2980.00739136,0.07723194
2981.93619873,0.07714052
2983.86500610,0.07711491
2985.79381348,0.07709812
2987.72262085,0.07678840
2989.65142822,0.07686883
2991.58023560,0.07676789
2993.50904297,0.07659042
2995.43785034,0.07649943
2997.36665771,0.07634276
2999.29546509,0.07621197
3001.22427246,0.07602734
3003.15307983,0.07594943
3005.08188721,0.07571186
3007.01069458,0.07564181
3008.93950195,0.07559718
3010.86830933,0.07526550
3012.79711670,0.07504283
3014.72592407,0.07495491
3016.65473145,0.07479458
3018.58353882,0.07473531
3020.51234619,0.07469197
3022.44115356,0.07444975
3024.36996094,0.07439899
3026.29876831,0.07418056
3028.22757568,0.07407816
3030.15638306,0.07388927
3032.08519043,0.07342671
3034.01399780,0.07345234
3035.94280518,0.07333503
3037.87161255,0.07327105
3039.80041992,0.07310747
3041.72922729,0.07286258
3043.65803467,0.07280962
3045.58684204,0.07256678
3047.51564941,0.07250185
3049.44445679,0.07231021
3051.37326416,0.07220522
3053.30207153,0.07212127
3055.23087891,0.07190213
3057.15968628,0.07170010
3059.08849365,0.07154407
3061.01730103,0.07153068
3062.94610840,0.07130641
3064.87491577,0.07113604
3066.80372314,0.07087048
3068.73253052,0.07092204
3070.66133789,0.07095834
3072.59014526,0.07065320
3074.51895264,0.07070596
3076.44776001,0.07048433
3078.37656738,0.07024774
3080.30537476,0.06999330
3082.23418213,0.06984293
3084.16298950,0.06985483
3086.09179687,0.06970184
3088.02060425,0.06969810
3089.94941162,0.06945278
3091.87821899,0.06940992
3093.80702637,0.06929721
3095.73583374,0.06897935
3097.66464111,0.06890938
3099.59344849,0.06863976
3101.52225586,0.06839232
3103.45106323,0.06833201
3105.37987061,0.06835350
3107.30867798,0.06814265
3109.23748535,0.06788883
3111.16629272,0.06783141
3113.09510010,0.06765296
3115.02390747,0.06737978
3116.95271484,0.06718954
3118.88152222,0.06712544
3120.81032959,0.06701119
3122.73913696,0.06676924
3124.66794434,0.06650138
3126.59675171,0.06643794
3128.52555908,0.06633236
3130.45436645,0.06614900
3132.38317383,0.06594616
3134.31198120,0.06584618
3136.24078857,0.06582232
3138.16959595,0.06550312
3140.09840332,0.06540409
3142.02721069,0.06517504
3143.95601807,0.06501836
3145.88482544,0.06489202
3147.81363281,0.06450325
3149.74244019,0.06451705
3151.67124756,0.06422342
3153.60005493,0.06412049
3155.52886230,0.06405962
3157.45766968,0.06372037
3159.38647705,0.06366991
3161.31528442,0.06349923
3163.24409180,0.06334452
3165.17289917,0.06306584
3167.10170654,0.06302431
3169.03051392,0.06286526
3170.95932129,0.06256654
3172.88812866,0.06255254
3174.81693604,0.06234416
3176.74574341,0.06209136
3178.67455078,0.06178928
3180.60335815,0.06182439
3182.53216553,0.06168999
3184.46097290,0.06140380
3186.38978027,0.06124131
3188.31858765,0.06102975
3190.24739502,0.06106976
3192.17620239,0.06081698
3194.10500977,0.06070150
3196.03381714,0.06051421
3197.96262451,0.06027577
3199.89143188,0.06027643
3201.82023926,0.06011704
3203.74904663,0.06001364
3205.67785400,0.05985356
3207.60666138,0.05979046
3209.53546875,0.05955324
3211.46427612,0.05946617
3213.39308350,0.05934530
3215.32189087,0.05920490
3217.25069824,0.05922665
3219.17950562,0.05880851
3221.10831299,0.05887129
3223.03712036,0.05887672
3224.96592773,0.05874677
3226.89473511,0.05860489
3228.82354248,0.05826187
3230.75234985,0.05836669
3232.68115723,0.05822375
3234.60996460,0.05815857
3236.53877197,0.05814067
3238.46757935,0.05795543
3240.39638672,0.05788362
3242.32519409,0.05777484
3244.25400146,0.05761107
3246.18280884,0.05752470
3248.11161621,0.05760764
3250.04042358,0.05741737
3251.96923096,0.05741687
3253.89803833,0.05730090
3255.82684570,0.05709423
3257.75565308,0.05718176
3259.68446045,0.05702852
3261.61326782,0.05694325
3263.54207520,0.05690248
3265.47088257,0.05694436
3267.39968994,0.05681599
3269.32849731,0.05662724
3271.25730469,0.05659185
3273.18611206,0.05655517
3275.11491943,0.05649531
3277.04372681,0.05630914
3278.97253418,0.05636316
3280.90134155,0.05629156
3282.83014893,0.05626282
3284.75895630,0.05617331
3286.68776367,0.05605544
3288.61657104,0.05606170
3290.54537842,0.05582955
3292.47418579,0.05583004
3294.40299316,0.05568615
3296.33180054,0.05567218
3298.26060791,0.05560661
3300.18941528,0.05546614
3302.11822266,0.05554665
3304.04703003,0.05530750
3305.97583740,0.05518917
3307.90464478,0.05500231
3309.83345215,0.05500862
3311.76225952,0.05504813
3313.69106689,0.05495792
3315.61987427,0.05497315
3317.54868164,0.05487271
3319.47748901,0.05485428
3321.40629639,0.05467696
3323.33510376,0.05463577
3325.26391113,0.05444993
3327.19271851,0.05432829
3329.12152588,0.05439935
3331.05033325,0.05426161
3332.97914062,0.05424062
3334.90794800,0.05403307
3336.83675537,0.05382516
3338.76556274,0.05383628
3340.69437012,0.05396023
3342.62317749,0.05371226
3344.55198486,0.05362154
3346.48079224,0.05366969
3348.40959961,0.05335617
3350.33840698,0.05339485
3352.26721436,0.05328918
3354.19602173,0.05319884
3356.12482910,0.05308995
3358.05363647,0.05304588
3359.98244385,0.05294463
3361.91125122,0.05270611
3363.84005859,0.05275400
3365.76886597,0.05244909
3367.69767334,0.05238558
3369.62648071,0.05226476
3371.55528809,0.05238736
3373.48409546,0.05242033
3375.41290283,0.05203743
3377.34171020,0.05218405
3379.27051758,0.05198831
3381.19932495,0.05195707
3383.12813232,0.05183725
3385.05693970,0.05164504
3386.98574707,0.05153786
3388.91455444,0.05147159
3390.84336182,0.05137996
3392.77216919,0.05088626
3394.70097656,0.05110837
3396.62978394,0.05088758
3398.55859131,0.05075381
3400.48739868,0.05080047
3402.41620605,0.05055642
3404.34501343,0.05066109
3406.27382080,0.05041968
3408.20262817,0.05055806
3410.13143555,0.05041040
3412.06024292,0.05042837
3413.98905029,0.05027589
3415.91785767,0.05005462
3417.84666504,0.05027472
3419.77547241,0.04967988
3421.70427979,0.04967302
3423.63308716,0.04958312
3425.56189453,0.04957265
3427.49070190,0.04960521
3429.41950928,0.04936904
3431.34831665,0.04940368
3433.27712402,0.04908633
3435.20593140,0.04918413
3437.13473877,0.04888066
3439.06354614,0.04895044
3440.99235352,0.04885381
3442.92116089,0.04848362
3444.84996826,0.04868910
3446.77877563,0.04803082
3448.70758301,0.04823758
3450.63639038,0.04861683
3452.56519775,0.04842039
3454.49400513,0.04846848
3456.42281250,0.04830262
3458.35161987,0.04819400
3460.28042725,0.04801778
3462.20923462,0.04789949
3464.13804199,0.04793286
3466.06684937,0.04790218
3467.99565674,0.04764090
3469.92446411,0.04784766
3471.85327148,0.04786219
3473.78207886,0.04761685
3475.71088623,0.04756355
3477.63969360,0.04751044
3479.56850098,0.04757476
3481.49730835,0.04686645
3483.42611572,0.04704231
3485.35492310,0.04744057
3487.28373047,0.04708424
3489.21253784,0.04711578
3491.14134521,0.04714566
3493.07015259,0.04739142
3494.99895996,0.04717492
3496.92776733,0.04693898
3498.85657471,0.04707317
3500.78538208,0.04709474
3502.71418945,0.04611339
3504.64299683,0.04604676
3506.57180420,0.04725213
3508.50061157,0.04651488
3510.42941895,0.04642102
3512.35822632,0.04674608
3514.28703369,0.04676967
3516.21584106,0.04699652
3518.14464844,0.04653859
3520.07345581,0.04683983
3522.00226318,0.04641195
3523.93107056,0.04582885
3525.85987793,0.04588658
3527.78868530,0.04589833
3529.71749268,0.04603561
3531.64630005,0.04634447
3533.57510742,0.04678826
3535.50391479,0.04621314
3537.43272217,0.04605412
3539.36152954,0.04653171
3541.29033691,0.04647540
3543.21914429,0.04611812
3545.14795166,0.04510248
3547.07675903,0.04446629
3549.00556641,0.04595805
3550.93437378,0.04630872
3552.86318115,0.04506946
3554.79198853,0.04602387
3556.72079590,0.04630005
3558.64960327,0.04599883
3560.57841064,0.04566597
3562.50721802,0.04549486
3564.43602539,0.04581748
3566.36483276,0.04251477
3568.29364014,0.04140308
3570.22244751,0.04489828
3572.15125488,0.04624861
3574.08006226,0.04569634
3576.00886963,0.04577472
3577.93767700,0.04575062
3579.86648437,0.04561536
3581.79529175,0.04559023
3583.72409912,0.04572233
3585.65290649,0.04470463
3587.58171387,0.04093228
3589.51052124,0.04215228
3591.43932861,0.04597944
3593.36813599,0.04459881
3595.29694336,0.04379555
3597.22575073,0.04463737
3599.15455811,0.04503894
3601.08336548,0.04462622
3603.01217285,0.04505041
3604.94098022,0.04585470
3606.86978760,0.04413810
3608.79859497,0.04151133
3610.72740234,0.04245088
3612.65620972,0.04338504
3614.58501709,0.04204773
3616.51382446,0.04528227
3618.44263184,0.04187068
3620.37143921,0.04012601
3622.30024658,0.04547442
3624.22905395,0.04429322
3626.15786133,0.04634960
3628.08666870,0.03914982
3630.01547607,0.03544083
3631.94428345,0.04496609
3633.87309082,0.04374780
3635.80189819,0.04450526
3637.73070557,0.04544830
3639.65951294,0.04467807
3641.58832031,0.04521202
3643.51712769,0.04456643
3645.44593506,0.04501259
3647.37474243,0.04021460
3649.30354980,0.03686222
3651.23235718,0.03725731
3653.16116455,0.04441852
3655.08997192,0.04415774
3657.01877930,0.03928956
3658.94758667,0.04538141
3660.87639404,0.04434644
3662.80520142,0.04494069
3664.73400879,0.04486465
3666.66281616,0.04428312
3668.59162354,0.04317189
3670.52043091,0.03485890
3672.44923828,0.04244472
3674.37804565,0.04049192
3676.30685303,0.03314846
3678.23566040,0.04223032
3680.16446777,0.04320810
3682.09327515,0.04319221
3684.02208252,0.04451243
3685.95088989,0.04369323
3687.87969727,0.03931550
3689.80850464,0.03599680
3691.73731201,0.04116612
3693.66611938,0.04237413
3695.59492676,0.04349626
3697.52373413,0.04348139
3699.45254150,0.04297195
3701.38134888,0.04185387
3703.31015625,0.04020043
3705.23896362,0.04432695
3707.16777100,0.04209827
3709.09657837,0.04107425
3711.02538574,0.03860044
3712.95419312,0.03607886
3714.88300049,0.04251512
3716.81180786,0.04185660
3718.74061523,0.04216620
3720.66942261,0.04130669
3722.59822998,0.03991368
3724.52703735,0.04132070
3726.45584473,0.03817121
3728.38465210,0.04158691
3730.31345947,0.04109599
3732.24226685,0.03762976
3734.17107422,0.03673556
3736.09988159,0.03478175
3738.02868896,0.03688540
3739.95749634,0.04004288
3741.88630371,0.04202268
3743.81511108,0.03255176
3745.74391846,0.03055295
3747.67272583,0.03993107
3749.60153320,0.03428914
3751.53034058,0.03146068
3753.45914795,0.03627583
3755.38795532,0.03910701
3757.31676270,0.04078826
3759.24557007,0.03761579
3761.17437744,0.03893532
3763.10318481,0.04153598
3765.03199219,0.03865232
3766.96079956,0.03947104
3768.88960693,0.03905710
3770.81841431,0.03711190
3772.74722168,0.04031149
3774.67602905,0.04051680
3776.60483643,0.04041041
3778.53364380,0.03929955
3780.46245117,0.03772838
3782.39125854,0.04025240
3784.32006592,0.03935687
3786.24887329,0.03911232
3788.17768066,0.03997294
3790.10648804,0.03962594
3792.03529541,0.03941491
3793.96410278,0.04011866
3795.89291016,0.03756940
3797.82171753,0.03704444
3799.75052490,0.03917534
3801.67933228,0.03098004
3803.60813965,0.03624739
3805.53694702,0.03952426
3807.46575439,0.03207957
3809.39456177,0.03900134
3811.32336914,0.03839279
3813.25217651,0.03956523
3815.18098389,0.03574409
3817.10979126,0.03122474
3819.03859863,0.03952074
3820.96740601,0.03192814
3822.89621338,0.03353347
3824.82502075,0.03928698
3826.75382812,0.03534569
3828.68263550,0.03821706
3830.61144287,0.03686292
3832.54025024,0.03541930
3834.46905762,0.03620397
3836.39786499,0.03446588
3838.32667236,0.03100646
3840.25547974,0.03359229
3842.18428711,0.03638147
3844.11309448,0.03465007
3846.04190186,0.03746101
3847.97070923,0.03699528
3849.89951660,0.03703809
3851.82832397,0.03317646
3853.75713135,0.02473662
3855.68593872,0.02935765
3857.61474609,0.03697672
3859.54355347,0.03616757
3861.47236084,0.03568494
3863.40116821,0.03485009
3865.32997559,0.03237167
3867.25878296,0.03615804
3869.18759033,0.03300697
3871.11639770,0.03048472
3873.04520508,0.03625292
3874.97401245,0.03330892
3876.90281982,0.03595890
3878.83162720,0.03658106
3880.76043457,0.03127903
3882.68924194,0.03608689
3884.61804932,0.03377028
3886.54685669,0.03088638
3888.47566406,0.03618424
3890.40447144,0.03437123
3892.33327881,0.03213373
3894.26208618,0.03520304
3896.19089355,0.03591669
3898.11970093,0.03417814
3900.04850830,0.03222056
3901.97731567,0.03184444
3903.90612305,0.03155067
3905.83493042,0.03192914
3907.76373779,0.03506107
3909.69254517,0.03511576
3911.62135254,0.03476497
3913.55015991,0.03539446
3915.47896728,0.03420471
3917.40777466,0.03327221
3919.33658203,0.03291873
3921.26538940,0.03428788
3923.19419678,0.03407532
3925.12300415,0.03329841
3927.05181152,0.03393591
3928.98061890,0.03423236
3930.90942627,0.03368332
3932.83823364,0.03246737
3934.76704102,0.03382140
3936.69584839,0.03419308
3938.62465576,0.03381767
3940.55346313,0.03416085
3942.48227051,0.03275841
3944.41107788,0.03306844
3946.33988525,0.03369147
3948.26869263,0.03291487
3950.19750000,0.03284317
3952.12630737,0.03329628
3954.05511475,0.03341928
3955.98392212,0.03332042
3957.91272949,0.03318433
3959.84153687,0.03307284
3961.77034424,0.03288906
3963.69915161,0.03279372
3965.62795898,0.03308896
3967.55676636,0.03280637
3969.48557373,0.03274730
3971.41438110,0.03278253
3973.34318848,0.03273443
3975.27199585,0.03258834
3977.20080322,0.03232446
3979.12961060,0.03271299
3981.05841797,0.03245726
3982.98722534,0.03242506
3984.91603271,0.03234237
3986.84484009,0.03235964
3988.77364746,0.03241510
3990.70245483,0.03187653
3992.63126221,0.03210946
3994.56006958,0.03185338
3996.48887695,0.03187740
3998.41768433,0.03188837
4000.34649170,0.03173272
4002.27529907,0.03183893
4004.20410645,0.03157847
4006.13291382,0.03175454
4008.06172119,0.03142091
4009.99052856,0.03142717
4011.91933594,0.03144554
4013.84814331,0.03128907
4015.77695068,0.03136425
4017.70575806,0.03113420
4019.63456543,0.03119541
4021.56337280,0.03106632
4023.49218018,0.03111836
4025.42098755,0.03092375
4027.34979492,0.03090246
4029.27860229,0.03092838
4031.20740967,0.03073818
4033.13621704,0.03087765
4035.06502441,0.03062124
4036.99383179,0.03065916
4038.92263916,0.03050591
4040.85144653,0.03047202
4042.78025391,0.03047201
4044.70906128,0.03022713
4046.63786865,0.03032552
4048.56667603,0.03023448
4050.49548340,0.03024588
4052.42429077,0.03006788
4054.35309814,0.03001168
4056.28190552,0.02997759
4058.21071289,0.02993364
4060.13952026,0.02984208
4062.06832764,0.02968390
4063.99713501,0.02980631
4065.92594238,0.02964029
4067.85474976,0.02960743
4069.78355713,0.02943368
4071.71236450,0.02945017
4073.64117187,0.02943553
4075.56997925,0.02932413
4077.49878662,0.02937512
4079.42759399,0.02912662
4081.35640137,0.02916697
4083.28520874,0.02899069
4085.21401611,0.02911103
4087.14282349,0.02898725
4089.07163086,0.02875709
4091.00043823,0.02895383
4092.92924561,0.02867009
4094.85805298,0.02869168
4096.78686035,0.02862119
4098.71566772,0.02857721
4100.64447510,0.02845004
4102.57328247,0.02839493
4104.50208984,0.02840685
4106.43089722,0.02825944
4108.35970459,0.02837096
4110.28851196,0.02807636
4112.21731934,0.02823207
4114.14612671,0.02821995
4116.07493408,0.02808786
4118.00374145,0.02804540
4119.93254883,0.02783354
4121.86135620,0.02799917
4123.79016357,0.02770193
4125.71897095,0.02775473
4127.64777832,0.02764336
4129.57658569,0.02750903
4131.50539307,0.02762687
4133.43420044,0.02735203
4135.36300781,0.02747280
4137.29181519,0.02741122
4139.22062256,0.02730382
4141.14942993,0.02720137
4143.07823730,0.02718090
4145.00704468,0.02716674
4146.93585205,0.02703316
4148.86465942,0.02700762
4150.79346680,0.02688854
4152.72227417,0.02688952
4154.65108154,0.02674152
4156.57988892,0.02673622
4158.50869629,0.02663175
4160.43750366,0.02661898
4162.36631103,0.02662204
4164.29511841,0.02649170
4166.22392578,0.02661937
4168.15273315,0.02637987
4170.08154053,0.02634315
4172.01034790,0.02632268
4173.93915527,0.02625387
4175.86796265,0.02614793
4177.79677002,0.02606319
4179.72557739,0.02612843
4181.65438477,0.02596916
4183.58319214,0.02608111
4185.51199951,0.02582109
4187.44080688,0.02572160
4189.36961426,0.02577398
4191.29842163,0.02574253
4193.22722900,0.02582429
4195.15603638,0.02556063
4197.08484375,0.02561250
4199.01365112,0.02547626
4200.94245850,0.02546247
4202.87126587,0.02539014
4204.80007324,0.02521342
4206.72888062,0.02533379
4208.65768799,0.02513422
4210.58649536,0.02515482
4212.51530273,0.02511785
4214.44411011,0.02509376
4216.37291748,0.02505270
4218.30172485,0.02495219
4220.23053223,0.02487884
4222.15933960,0.02480653
4224.08814697,0.02487354
4226.01695435,0.02465075
4227.94576172,0.02464978
4229.87456909,0.02464874
4231.80337646,0.02465926
4233.73218384,0.02456946
4235.66099121,0.02439249
4237.58979858,0.02446892
4239.51860596,0.02435760
4241.44741333,0.02437611
4243.37622070,0.02429726
4245.30502808,0.02433720
4247.23383545,0.02426138
4249.16264282,0.02410233
4251.09145020,0.02411112
4253.02025757,0.02395902
4254.94906494,0.02402697
4256.87787231,0.02388206
4258.80667969,0.02383830
4260.73548706,0.02381362
4262.66429443,0.02369367
4264.59310181,0.02365301
4266.52190918,0.02354953
4268.45071655,0.02357351
4270.37952393,0.02349896
4272.30833130,0.02356025
4274.23713867,0.02345468
4276.16594604,0.02335442
4278.09475342,0.02324647
4280.02356079,0.02321962
4281.95236816,0.02330390
4283.88117554,0.02312448
4285.80998291,0.02318598
4287.73879028,0.02304431
4289.66759766,0.02307014
4291.59640503,0.02300501
4293.52521240,0.02283360
4295.45401978,0.02290394
4297.38282715,0.02278611
4299.31163452,0.02290090
4301.24044189,0.02272862
4303.16924927,0.02270992
4305.09805664,0.02264441
4307.02686401,0.02248051
4308.95567139,0.02255707
4310.88447876,0.02237719
4312.81328613,0.02244883
4314.74209351,0.02235660
4316.67090088,0.02232833
4318.59970825,0.02226011
4320.52851562,0.02211495
4322.45732300,0.02216863
4324.38613037,0.02203166
4326.31493774,0.02204703
4328.24374512,0.02204097
4330.17255249,0.02205505
4332.10135986,0.02197022
4334.03016724,0.02190531
4335.95897461,0.02182842
4337.88778198,0.02171066
4339.81658936,0.02172175
4341.74539673,0.02169040
4343.67420410,0.02174630
4345.60301147,0.02152768
4347.53181885,0.02148160
4349.46062622,0.02143621
4351.38943359,0.02137082
4353.31824097,0.02143878
4355.24704834,0.02130221
4357.17585571,0.02131840
4359.10466309,0.02119361
4361.03347046,0.02122706
4362.96227783,0.02112469
4364.89108520,0.02097087
4366.81989258,0.02100581
4368.74869995,0.02095660
4370.67750732,0.02098222
4372.60631470,0.02081171
4374.53512207,0.02090326
4376.46392944,0.02076842
4378.39273682,0.02065817
4380.32154419,0.02076781
4382.25035156,0.02063861
4384.17915894,0.02066305
4386.10796631,0.02051404
4388.03677368,0.02053995
4389.96558105,0.02048282
4391.89438843,0.02036877
4393.82319580,0.02041543
4395.75200317,0.02036408
4397.68081055,0.02027903
4399.60961792,0.02012267
4401.53842529,0.02018617
4403.46723267,0.02009204
4405.39604004,0.02007691
4407.32484741,0.02003015
4409.25365478,0.01996301
4411.18246216,0.02004716
4413.11126953,0.01986858
4415.04007690,0.01983692
4416.96888428,0.01975131
4418.89769165,0.01971560
4420.82649902,0.01970032
4422.75530640,0.01970660
4424.68411377,0.01968092
4426.61292114,0.01950661
4428.54172852,0.01957751
4430.47053589,0.01949325
4432.39934326,0.01940088
4434.32815063,0.01939790
4436.25695801,0.01945378
4438.18576538,0.01937356
4440.11457275,0.01922361
4442.04338013,0.01925100
4443.97218750,0.01915985
4445.90099487,0.01911252
4447.82980225,0.01907706
4449.75860962,0.01912784
4451.68741699,0.01896905
4453.61622437,0.01895170
4455.54503174,0.01900615
4457.47383911,0.01881960
4459.40264648,0.01890605
4461.33145386,0.01874956
4463.26026123,0.01877110
4465.18906860,0.01877595
4467.11787598,0.01861144
4469.04668335,0.01864673
4470.97549072,0.01855882
4472.90429810,0.01855791
4474.83310547,0.01847605
4476.76191284,0.01849667
4478.69072021,0.01842577
4480.61952759,0.01835017
4482.54833496,0.01833493
4484.47714233,0.01829193
4486.40594971,0.01833963
4488.33475708,0.01816273
4490.26356445,0.01821431
4492.19237183,0.01814432
4494.12117920,0.01801901
4496.04998657,0.01799477
4497.97879395,0.01792542
4499.90760132,0.01796697
4501.83640869,0.01783437
4503.76521606,0.01783210
4505.69402344,0.01778541
4507.62283081,0.01775075
4509.55163818,0.01767552
4511.48044556,0.01762259
4513.40925293,0.01763991
4515.33806030,0.01750745
4517.26686768,0.01755857
4519.19567505,0.01746244
4521.12448242,0.01747028
4523.05328979,0.01742778
4524.98209717,0.01731603
4526.91090454,0.01738187
4528.83971191,0.01732097
4530.76851929,0.01726220
4532.69732666,0.01712953
4534.62613403,0.01721243
4536.55494141,0.01714318
4538.48374878,0.01704344
4540.41255615,0.01711389
4542.34136353,0.01695672
4544.27017090,0.01693733
4546.19897827,0.01691745
4548.12778564,0.01691222
4550.05659302,0.01687782
4551.98540039,0.01677621
4553.91420776,0.01672392
4555.84301514,0.01669183
4557.77182251,0.01662581
4559.70062988,0.01657720
4561.62943726,0.01661020
4563.55824463,0.01652913
4565.48705200,0.01656195
4567.41585937,0.01649234
4569.34466675,0.01641534
4571.27347412,0.01638167
4573.20228149,0.01631432
4575.13108887,0.01634807
4577.05989624,0.01621426
4578.98870361,0.01620726
4580.91751099,0.01617758
4582.84631836,0.01615465
4584.77512573,0.01613449
4586.70393311,0.01611486
4588.63274048,0.01609089
4590.56154785,0.01594900
4592.49035522,0.01603095
4594.41916260,0.01590515
4596.34796997,0.01591067
4598.27677734,0.01583901
4600.20558472,0.01566416
4602.13439209,0.01580950
4604.06319946,0.01566914
4605.99200684,0.01565113
4607.92081421,0.01562982
4609.84962158,0.01557337
4611.77842895,0.01557312
4613.70723633,0.01551856
4615.63604370,0.01553058
4617.56485107,0.01543806
4619.49365845,0.01544150
4621.42246582,0.01538315
4623.35127319,0.01537598
4625.28008057,0.01535122
4627.20888794,0.01525407
4629.13769531,0.01522780
4631.06650269,0.01523464
4632.99531006,0.01521491
4634.92411743,0.01509873
4636.85292480,0.01515721
4638.78173218,0.01507772
4640.71053955,0.01506707
4642.63934692,0.01505624
4644.56815430,0.01490586
4646.49696167,0.01494438
4648.42576904,0.01487500
4650.35457642,0.01480886
4652.28338379,0.01475535
4654.21219116,0.01477453
4656.14099853,0.01470443
4658.06980591,0.01471241
4659.99861328,0.01477338
4661.92742065,0.01461655
4663.85622803,0.01463421
4665.78503540,0.01457057
4667.71384277,0.01453312
4669.64265015,0.01446439
4671.57145752,0.01445343
4673.50026489,0.01443840
4675.42907227,0.01430769
4677.35787964,0.01442654
4679.28668701,0.01428987
4681.21549438,0.01421284
4683.14430176,0.01427413
4685.07310913,0.01420223
4687.00191650,0.01412867
4688.93072388,0.01415297
4690.85953125,0.01418767
4692.78833862,0.01406808
4694.71714600,0.01413659
4696.64595337,0.01401268
4698.57476074,0.01392900
4700.50356812,0.01400508
4702.43237549,0.01395067
4704.36118286,0.01391802
4706.28999023,0.01384878
4708.21879761,0.01388795
4710.14760498,0.01374896
4712.07641235,0.01372070
4714.00521973,0.01378117
4715.93402710,0.01369664
4717.86283447,0.01366039
4719.79164185,0.01363949
4721.72044922,0.01368158
4723.64925659,0.01355747
4725.57806396,0.01351309
4727.50687134,0.01345624
4729.43567871,0.01344941
4731.36448608,0.01347636
4733.29329346,0.01334918
4735.22210083,0.01335937
4737.15090820,0.01335035
4739.07971558,0.01334560
4741.00852295,0.01320083
4742.93733032,0.01322199
4744.86613770,0.01322567
4746.79494507,0.01312743
4748.72375244,0.01328642
4750.65255981,0.01314011
4752.58136719,0.01304099
4754.51017456,0.01303605
4756.43898193,0.01297667
4758.36778931,0.01303379
4760.29659668,0.01303070
4762.22540405,0.01288294
4764.15421143,0.01279132
4766.08301880,0.01285943
4768.01182617,0.01277342
4769.94063354,0.01283152
4771.86944092,0.01283707
4773.79824829,0.01278804
4775.72705566,0.01281368
4777.65586304,0.01271170
4779.58467041,0.01266632
4781.51347778,0.01261718
4783.44228516,0.01263565
4785.37109253,0.01251388
4787.29989990,0.01259153
4789.22870728,0.01257774
4791.15751465,0.01239049
4793.08632202,0.01252729
4795.01512939,0.01242601
4796.94393677,0.01244932
4798.87274414,0.01241366
4800.80155151,0.01227590
4802.73035889,0.01227754
4804.65916626,0.01225199
4806.58797363,0.01230243
4808.51678101,0.01217429
4810.44558838,0.01218077
4812.37439575,0.01215478
4814.30320312,0.01209655
4816.23201050,0.01207885
4818.16081787,0.01208590
4820.08962524,0.01211484
4822.01843262,0.01195306
4823.94723999,0.01203362
4825.87604736,0.01196977
4827.80485474,0.01186584
4829.73366211,0.01189624
4831.66246948,0.01187727
4833.59127686,0.01192737
4835.52008423,0.01185615
4837.44889160,0.01186455
4839.37769897,0.01177499
4841.30650635,0.01168883
4843.23531372,0.01168212
4845.16412109,0.01165922
4847.09292847,0.01166438
4849.02173584,0.01158363
4850.95054321,0.01157368
4852.87935059,0.01157446
4854.80815796,0.01156798
4856.73696533,0.01148653
4858.66577270,0.01145562
4860.59458008,0.01143499
4862.52338745,0.01140744
4864.45219482,0.01137897
4866.38100220,0.01128822
4868.30980957,0.01137304
4870.23861694,0.01135059
4872.16742432,0.01127633
4874.09623169,0.01118544
4876.02503906,0.01120062
4877.95384644,0.01120489
4879.88265381,0.01113094
4881.81146118,0.01120711
4883.74026855,0.01107262
4885.66907593,0.01117760
4887.59788330,0.01111517
4889.52669067,0.01096031
4891.45549805,0.01111066
4893.38430542,0.01096149
4895.31311279,0.01094976
4897.24192017,0.01090134
4899.17072754,0.01087696
4901.09953491,0.01089174
4903.02834228,0.01083998
4904.95714966,0.01090999
4906.88595703,0.01079163
4908.81476440,0.01077831
4910.74357178,0.01071583
4912.67237915,0.01065871
4914.60118652,0.01069356
4916.52999390,0.01067180
4918.45880127,0.01064475
4920.38760864,0.01051207
4922.31641602,0.01052480
4924.24522339,0.01051274
4926.17403076,0.01047115
4928.10283813,0.01047634
4930.03164551,0.01043930
4931.96045288,0.01042173
4933.88926025,0.01039124
4935.81806763,0.01035199
4937.74687500,0.01032220
4939.67568237,0.01038178
4941.60448975,0.01033244
4943.53329712,0.01026626
4945.46210449,0.01021973
4947.39091187,0.01014647
4949.31971924,0.01020983
4951.24852661,0.01021698
4953.17733398,0.01018860
4955.10614136,0.01015825
4957.03494873,0.01004115
4958.96375610,0.00998100
4960.89256348,0.01005078
4962.82137085,0.00996253
4964.75017822,0.00992352
4966.67898560,0.01003507
4968.60779297,0.00989600
4970.53660034,0.00985649
4972.46540771,0.00988797
4974.39421509,0.00985324
4976.32302246,0.00983114
4978.25182983,0.00973527
4980.18063721,0.00976562
4982.10944458,0.00977204
4984.03825195,0.00968227
4985.96705933,0.00967489
4987.89586670,0.00972448
4989.82467407,0.00962416
4991.75348145,0.00957005
4993.68228882,0.00964073
4995.61109619,0.00950240
4997.53990356,0.00946808
4999.46871094,0.00956650
5001.39751831,0.00951771
5003.32632568,0.00946041
5005.25513306,0.00948445
5007.18394043,0.00944647
5009.11274780,0.00939168
5011.04155518,0.00948931
5012.97036255,0.00941032
5014.89916992,0.00929920
5016.82797729,0.00941027
5018.75678467,0.00937937
5020.68559204,0.00933182
5022.61439941,0.00931627
5024.54320679,0.00919172
5026.47201416,0.00919471
5028.40082153,0.00921010
5030.32962891,0.00910475
5032.25843628,0.00908868
5034.18724365,0.00917090
5036.11605103,0.00914728
5038.04485840,0.00909291
5039.97366577,0.00908438
5041.90247314,0.00898496
5043.83128052,0.00901064
5045.76008789,0.00897567
5047.68889526,0.00885207
5049.61770264,0.00892188
5051.54651001,0.00887115
5053.47531738,0.00882315
5055.40412476,0.00881837
5057.33293213,0.00883078
5059.26173950,0.00886091
5061.19054687,0.00882468
5063.11935425,0.00879587
5065.04816162,0.00867392
5066.97696899,0.00871599
5068.90577637,0.00870143
5070.83458374,0.00867276
5072.76339111,0.00873614
5074.69219849,0.00864738
5076.62100586,0.00868501
5078.54981323,0.00863872
5080.47862061,0.00861468
5082.40742798,0.00859591
5084.33623535,0.00850811
5086.26504272,0.00853529
5088.19385010,0.00851808
5090.12265747,0.00848165
5092.05146484,0.00838017
5093.98027222,0.00842547
5095.90907959,0.00839387
5097.83788696,0.00833702
5099.76669434,0.00842756
5101.69550171,0.00835301
5103.62430908,0.00830504
5105.55311645,0.00821341
5107.48192383,0.00822557
5109.41073120,0.00826490
5111.33953857,0.00819710
5113.26834595,0.00819180
5115.19715332,0.00816755
5117.12596069,0.00819692
5119.05476807,0.00811866
5120.98357544,0.00808574
5122.91238281,0.00817891
5124.84119019,0.00814149
5126.76999756,0.00804266
5128.69880493,0.00802793
5130.62761230,0.00805457
5132.55641968,0.00809811
5134.48522705,0.00807558
5136.41403442,0.00796989
5138.34284180,0.00799911
5140.27164917,0.00787926
5142.20045654,0.00780640
5144.12926392,0.00788281
5146.05807129,0.00784377
5147.98687866,0.00786024
5149.91568603,0.00782421
5151.84449341,0.00778936
5153.77330078,0.00771804
5155.70210815,0.00778928
5157.63091553,0.00783065
5159.55972290,0.00771190
5161.48853027,0.00770392
5163.41733765,0.00760786
5165.34614502,0.00763117
5167.27495239,0.00763649
5169.20375977,0.00765987
5171.13256714,0.00757664
5173.06137451,0.00745313
5174.99018188,0.00761146
5176.91898926,0.00754165
5178.84779663,0.00752948
5180.77660400,0.00753571
5182.70541138,0.00750468
5184.63421875,0.00748074
5186.56302612,0.00734869
5188.49183350,0.00736644
5190.42064087,0.00736578
5192.34944824,0.00742548
5194.27825562,0.00740276
5196.20706299,0.00734591
5198.13587036,0.00728453
5200.06467773,0.00729143
5201.99348511,0.00738827
5203.92229248,0.00726852
5205.85109985,0.00717352
5207.77990723,0.00706602
5209.70871460,0.00716899
5211.63752197,0.00727037
5213.56632935,0.00724400
5215.49513672,0.00724625
5217.42394409,0.00717661
5219.35275146,0.00717239
5221.28155884,0.00701568
5223.21036621,0.00710087
5225.13917358,0.00706016
5227.06798096,0.00697846
5228.99678833,0.00712542
5230.92559570,0.00694940
5232.85440308,0.00702029
5234.78321045,0.00705384
5236.71201782,0.00699430
5238.64082520,0.00693642
5240.56963257,0.00689404
5242.49843994,0.00692003
5244.42724731,0.00674875
5246.35605469,0.00688020
5248.28486206,0.00677111
5250.21366943,0.00674411
5252.14247681,0.00692818
5254.07128418,0.00675069
5256.00009155,0.00680122
5257.92889893,0.00677281
5259.85770630,0.00678233
5261.78651367,0.00677831
5263.71532104,0.00660757
5265.64412842,0.00667155
5267.57293579,0.00671037
5269.50174316,0.00668704
5271.43055054,0.00663815
5273.35935791,0.00667803
5275.28816528,0.00670995
5277.21697266,0.00668512
5279.14578003,0.00661736
5281.07458740,0.00655873
5283.00339478,0.00665551
5284.93220215,0.00653620
5286.86100952,0.00657825
5288.78981689,0.00661460
5290.71862427,0.00633074
5292.64743164,0.00651401
5294.57623901,0.00664768
5296.50504639,0.00641682
5298.43385376,0.00638643
5300.36266113,0.00645658
5302.29146851,0.00647168
5304.22027588,0.00642482
5306.14908325,0.00639425
5308.07789062,0.00630816
5310.00669800,0.00630148
5311.93550537,0.00638665
5313.86431274,0.00636964
5315.79312012,0.00630288
5317.72192749,0.00623704
5319.65073486,0.00635653
5321.57954224,0.00630445
5323.50834961,0.00622607
5325.43715698,0.00629044
5327.36596436,0.00611344
5329.29477173,0.00613837
5331.22357910,0.00614803
5333.15238647,0.00606215
5335.08119385,0.00616201
5337.01000122,0.00606125
5338.93880859,0.00583107
5340.86761597,0.00597325
5342.79642334,0.00613165
5344.72523071,0.00581426
5346.65403809,0.00588559
5348.58284546,0.00604521
5350.51165283,0.00598243
5352.44046020,0.00598036
5354.36926758,0.00576540
5356.29807495,0.00596825
5358.22688232,0.00605891
5360.15568970,0.00590847
5362.08449707,0.00588883
5364.01330444,0.00578052
5365.94211182,0.00587728
5367.87091919,0.00587315
5369.79972656,0.00587198
5371.72853394,0.00585157
5373.65734131,0.00583790
5375.58614868,0.00577461
5377.51495605,0.00566387
5379.44376343,0.00583558
5381.37257080,0.00577647
5383.30137817,0.00575224
5385.23018555,0.00572408
5387.15899292,0.00564523
5389.08780029,0.00572400
5391.01660767,0.00567933
5392.94541504,0.00565554
5394.87422241,0.00556384
5396.80302978,0.00562679
5398.73183716,0.00570092
5400.66064453,0.00563225
5402.58945190,0.00557875
5404.51825928,0.00551817
5406.44706665,0.00562945
5408.37587402,0.00561289
5410.30468140,0.00547876
5412.23348877,0.00542151
5414.16229614,0.00534731
5416.09110352,0.00534932
5418.01991089,0.00549881
5419.94871826,0.00550098
5421.87752563,0.00547924
5423.80633301,0.00554049
5425.73514038,0.00543287
5427.66394775,0.00533313
5429.59275513,0.00513997
5431.52156250,0.00530535
5433.45036987,0.00539986
5435.37917725,0.00513446
5437.30798462,0.00541827
5439.23679199,0.00540414
5441.16559936,0.00520046
5443.09440674,0.00528914
5445.02321411,0.00522487
5446.95202148,0.00521669
5448.88082886,0.00523215
5450.80963623,0.00528453
5452.73844360,0.00533034
5454.66725098,0.00526228
5456.59605835,0.00514600
5458.52486572,0.00520924
5460.45367310,0.00518802
5462.38248047,0.00510790
5464.31128784,0.00522285
5466.24009521,0.00512389
5468.16890259,0.00510991
5470.09770996,0.00511834
5472.02651733,0.00510129
5473.95532471,0.00507556
5475.88413208,0.00491337
5477.81293945,0.00504214
5479.74174683,0.00512032
5481.67055420,0.00504441
5483.59936157,0.00499527
5485.52816895,0.00504652
5487.45697632,0.00501392
5489.38578369,0.00487611
5491.31459106,0.00494918
5493.24339844,0.00485074
5495.17220581,0.00491409
5497.10101318,0.00500865
5499.02982056,0.00481864
5500.95862793,0.00486650
5502.88743530,0.00488278
5504.81624268,0.00488339
5506.74505005,0.00486719
5508.67385742,0.00479356
5510.60266479,0.00488154
5512.53147217,0.00482248
5514.46027954,0.00475461
5516.38908691,0.00478272
5518.31789429,0.00477274
5520.24670166,0.00478457
5522.17550903,0.00472003
5524.10431641,0.00474949
5526.03312378,0.00480707
5527.96193115,0.00472473
5529.89073853,0.00471760
5531.81954590,0.00471844
5533.74835327,0.00468950
5535.67716064,0.00469122
5537.60596802,0.00469013
5539.53477539,0.00465810
5541.46358276,0.00465241
5543.39239014,0.00467190
5545.32119751,0.00463033
5547.25000488,0.00462112
5549.17881226,0.00457268
5551.10761963,0.00459050
5553.03642700,0.00459812
5554.96523437,0.00449336
5556.89404175,0.00454643
5558.82284912,0.00454118
5560.75165649,0.00451791
5562.68046387,0.00454639
5564.60927124,0.00447220
5566.53807861,0.00447060
5568.46688599,0.00452526
5570.39569336,0.00446592
5572.32450073,0.00442102
5574.25330811,0.00450532
5576.18211548,0.00445377
5578.11092285,0.00437436
5580.03973022,0.00438989
5581.96853760,0.00441601
5583.89734497,0.00439282
5585.82615234,0.00428956
5587.75495972,0.00432499
5589.68376709,0.00433542
5591.61257446,0.00434642
5593.54138184,0.00438529
5595.47018921,0.00432882
5597.39899658,0.00431930
5599.32780395,0.00432484
5601.25661133,0.00433389
5603.18541870,0.00426364
5605.11422607,0.00426930
5607.04303345,0.00427762
5608.97184082,0.00416040
5610.90064819,0.00420971
5612.82945557,0.00430457
5614.75826294,0.00424307
5616.68707031,0.00413383
5618.61587769,0.00417735
5620.54468506,0.00420449
5622.47349243,0.00417279
5624.40229980,0.00418379
5626.33110718,0.00415003
5628.25991455,0.00415018
5630.18872192,0.00412869
5632.11752930,0.00406304
5634.04633667,0.00402838
5635.97514404,0.00412741
5637.90395142,0.00412326
5639.83275879,0.00398767
5641.76156616,0.00402609
5643.69037353,0.00403862
5645.61918091,0.00403958
5647.54798828,0.00402641
5649.47679565,0.00399706
5651.40560303,0.00403865
5653.33441040,0.00396579
5655.26321777,0.00390173
5657.19202515,0.00399803
5659.12083252,0.00401529
5661.04963989,0.00392231
5662.97844727,0.00390909
5664.90725464,0.00388803
5666.83606201,0.00395785
5668.76486938,0.00397374
5670.69367676,0.00390183
5672.62248413,0.00393475
5674.55129150,0.00387100
5676.48009888,0.00387893
5678.40890625,0.00388926
5680.33771362,0.00390473
5682.26652100,0.00392320
5684.19532837,0.00383102
5686.12413574,0.00386086
5688.05294311,0.00383406
5689.98175049,0.00378800
5691.91055786,0.00379039
5693.83936523,0.00380685
5695.76817261,0.00377034
5697.69697998,0.00375055
5699.62578735,0.00380585
5701.55459473,0.00371700
5703.48340210,0.00372578
5705.41220947,0.00369127
5707.34101685,0.00367221
5709.26982422,0.00374600
5711.19863159,0.00365487
5713.12743896,0.00365717
5715.05624634,0.00368092
5716.98505371,0.00365358
5718.91386108,0.00362674
5720.84266846,0.00365193
5722.77147583,0.00365053
5724.70028320,0.00361882
5726.62909058,0.00367519
5728.55789795,0.00360439
5730.48670532,0.00355783
5732.41551270,0.00357822
5734.34432007,0.00356060
5736.27312744,0.00356781
5738.20193481,0.00357415
5740.13074219,0.00353176
5742.05954956,0.00350268
5743.98835693,0.00355942
5745.91716431,0.00359403
5747.84597168,0.00357275
5749.77477905,0.00345812
5751.70358643,0.00348212
5753.63239380,0.00350742
5755.56120117,0.00344511
5757.49000854,0.00350699
5759.41881592,0.00340261
5761.34762329,0.00341127
5763.27643066,0.00348033
5765.20523804,0.00339923
5767.13404541,0.00341163
5769.06285278,0.00342205
5770.99166016,0.00342155
5772.92046753,0.00338755
5774.84927490,0.00344537
5776.77808228,0.00340561
5778.70688965,0.00326859
5780.63569702,0.00334089
5782.56450439,0.00332762
5784.49331177,0.00328914
5786.42211914,0.00334397
5788.35092651,0.00328651
5790.27973389,0.00323578
5792.20854126,0.00326692
5794.13734863,0.00320645
5796.06615601,0.00321666
5797.99496338,0.00326134
5799.92377075,0.00320956
5801.85257812,0.00325708
5803.78138550,0.00322344
5805.71019287,0.00319549
5807.63900024,0.00319973
5809.56780762,0.00315226
5811.49661499,0.00319770
5813.42542236,0.00317329
5815.35422974,0.00317993
5817.28303711,0.00317725
5819.21184448,0.00312137
5821.14065186,0.00316270
5823.06945923,0.00311288
5824.99826660,0.00306116
5826.92707397,0.00314919
5828.85588135,0.00310117
5830.78468872,0.00302544
5832.71349609,0.00311220
5834.64230347,0.00306470
5836.57111084,0.00305281
5838.49991821,0.00305627
5840.42872559,0.00296525
5842.35753296,0.00308344
5844.28634033,0.00309769
5846.21514770,0.00301878
5848.14395508,0.00302166
5850.07276245,0.00298973
5852.00156982,0.00299930
5853.93037720,0.00296512
5855.85918457,0.00297147
5857.78799194,0.00302408
5859.71679932,0.00297985
5861.64560669,0.00292714
5863.57441406,0.00293287
5865.50322144,0.00293877
5867.43202881,0.00289956
5869.36083618,0.00287199
5871.28964355,0.00292022
5873.21845093,0.00292615
5875.14725830,0.00281705
5877.07606567,0.00286880
5879.00487305,0.00288209
5880.93368042,0.00274185
5882.86248779,0.00283599
5884.79129517,0.00286038
5886.72010254,0.00278923
5888.64890991,0.00282314
5890.57771728,0.00277982
5892.50652466,0.00281121
5894.43533203,0.00283208
5896.36413940,0.00275580
5898.29294678,0.00274697
5900.22175415,0.00276798
5902.15056152,0.00278058
5904.07936890,0.00280425
5906.00817627,0.00280547
5907.93698364,0.00275922
5909.86579102,0.00277062
5911.79459839,0.00276152
5913.72340576,0.00274781
5915.65221313,0.00275798
5917.58102051,0.00269827
5919.50982788,0.00273446
5921.43863525,0.00273542
5923.36744263,0.00271981
5925.29625000,0.00271454
5927.22505737,0.00263500
5929.15386475,0.00269301
5931.08267212,0.00265952
5933.01147949,0.00258061
5934.94028686,0.00264774
5936.86909424,0.00269106
5938.79790161,0.00262753
5940.72670898,0.00256652
5942.65551636,0.00265167
5944.58432373,0.00263449
5946.51313110,0.00261616
5948.44193848,0.00265154
5950.37074585,0.00258369
5952.29955322,0.00258927
5954.22836060,0.00259094
5956.15716797,0.00254276
5958.08597534,0.00251773
5960.01478271,0.00255359
5961.94359009,0.00256274
5963.87239746,0.00252332
5965.80120483,0.00250576
5967.73001221,0.00250925
5969.65881958,0.00248046
5971.58762695,0.00244762
5973.51643433,0.00257979
5975.44524170,0.00253227
5977.37404907,0.00245706
5979.30285645,0.00251118
5981.23166382,0.00243244
5983.16047119,0.00248345
5985.08927856,0.00243650
5987.01808594,0.00239952
5988.94689331,0.00247490
5990.87570068,0.00243402
5992.80450806,0.00245488
5994.73331543,0.00243076
5996.66212280,0.00241787
5998.59093018,0.00237740
6000.51973755,0.00235765
