399.26312622,0.00148938
401.19193359,0.00232944
403.12074097,0.00257349
405.04954834,0.00240015
406.97835571,0.00250772
408.90716309,0.00244099
410.83597046,0.00308494
412.76477783,0.00300167
414.69358521,0.00333705
416.62239258,0.00301921
418.55119995,0.00249271
420.48000732,0.00319781
422.40881470,0.00286139
424.33762207,0.00306775
426.26642944,0.00311523
428.19523682,0.00356170
430.12404419,0.00391998
432.05285156,0.00290067
433.98165894,0.00332821
435.91046631,0.00317989
437.83927368,0.00258970
439.76808105,0.00301120
441.69688843,0.00291824
443.62569580,0.00258087
445.55450317,0.00303032
447.48331055,0.00294788
449.41211792,0.00241850
451.34092529,0.00293626
453.26973267,0.00251023
455.19854004,0.00232728
457.12734741,0.00228469
459.05615479,0.00195800
460.98496216,0.00228248
462.91376953,0.00193015
464.84257690,0.00205783
466.77138428,0.00166026
468.70019165,0.00165484
470.62899902,0.00180417
472.55780640,0.00126012
474.48661377,0.00168611
476.41542114,0.00125394
478.34422852,0.00094258
480.27303589,0.00061232
482.20184326,0.00061884
484.13065063,0.00119506
486.05945801,0.00067133
487.98826538,0.00066959
489.91707275,0.00090356
491.84588013,0.00056850
493.77468750,0.00019480
495.70349487,0.00087175
497.63230225,0.00106522
499.56110962,0.00067141
501.48991699,0.00088719
503.41872437,0.00033501
505.34753174,0.00034194
507.27633911,0.00042981
509.20514648,0.00069616
511.13395386,0.00125498
513.06276123,0.00059152
514.99156860,0.00045208
516.92037598,0.00049614
518.84918335,0.00042267
520.77799072,0.00064241
522.70679810,0.00021223
524.63560547,0.00030923
526.56441284,0.00056024
528.49322021,-0.00005692
530.42202759,0.00001727
532.35083496,0.00020583
534.27964233,0.00035823
536.20844971,0.00075578
538.13725708,0.00006426
540.06606445,0.00035311
541.99487183,0.00042904
543.92367920,-0.00020207
545.85248657,0.00012615
547.78129395,0.00014675
549.71010132,0.00041288
551.63890869,0.00029937
553.56771606,0.00030112
555.49652344,0.00018923
557.42533081,0.00018798
559.35413818,0.00037527
561.28294556,0.00009237
563.21175293,0.00037770
565.14056030,0.00058447
567.06936768,0.00048393
568.99817505,0.00041202
570.92698242,0.00023475
572.85578979,0.00038867
574.78459717,-0.00002671
576.71340454,0.00006261
578.64221191,0.00058605
580.57101929,0.00020963
582.49982666,0.00002815
584.42863403,0.00020902
586.35744141,0.00019793
588.28624878,-0.00001472
590.21505615,-0.00020135
592.14386353,-0.00012522
594.07267090,0.00022067
596.00147827,0.00013431
597.93028564,-0.00007238
599.85909302,-0.00003264
601.78790039,0.00022342
603.71670776,0.00051404
605.64551514,-0.00006053
607.57432251,-0.00000091
609.50312988,0.00013876
611.43193726,0.00015058
613.36074463,0.00033309
615.28955200,-0.00017232
617.21835938,-0.00004984
619.14716675,-0.00006411
621.07597412,-0.00002696
623.00478149,0.00032198
624.93358887,0.00021131
626.86239624,0.00022349
628.79120361,0.00020108
630.72001099,0.00091979
632.64881836,0.00159413
634.57762573,0.00185505
636.50643311,0.00199779
638.43524048,0.00218601
640.36404785,0.00290398
642.29285522,0.00279405
644.22166260,0.00276270
646.15046997,0.00338639
648.07927734,0.00352143
650.00808472,0.00360371
651.93689209,0.00373117
653.86569946,0.00401467
655.79450684,0.00414173
657.72331421,0.00408055
659.65212158,0.00474351
661.58092896,0.00474778
663.50973633,0.00454525
665.43854370,0.00515411
667.36735107,0.00456822
669.29615845,0.00473711
671.22496582,0.00581542
673.15377319,0.00568407
675.08258057,0.00601184
677.01138794,0.00627445
678.94019531,0.00615103
680.86900269,0.00621962
682.79781006,0.00613353
684.72661743,0.00615878
686.65542480,0.00614160
688.58423218,0.00618151
690.51303955,0.00646209
692.44184692,0.00694038
694.37065430,0.00708369
696.29946167,0.00761490
698.22826904,0.00895735
700.15707642,0.00957301
702.08588379,0.00952108
704.01469116,0.00918906
705.94349854,0.00806770
707.87230591,0.00667108
709.80111328,0.00547513
711.72992065,0.00394820
713.65872803,0.00229368
715.58753540,0.00123134
717.51634277,0.00095722
719.44515015,0.00080339
721.37395752,0.00046544
723.30276489,0.00036824
725.23157227,0.00020754
727.16037964,0.00022184
729.08918701,0.00020967
731.01799438,0.00014753
732.94680176,0.00029506
734.87560913,0.00028066
736.80441650,0.00029730
738.73322388,0.00008913
740.66203125,0.00029037
742.59083862,0.00032196
744.51964600,-0.00004790
746.44845337,0.00019620
748.37726074,0.00042369
750.30606812,0.00054793
752.23487549,0.00036184
754.16368286,0.00027098
756.09249023,0.00004609
758.02129761,0.00010661
759.95010498,0.00055427
761.87891235,0.00035344
763.80771973,0.00048843
765.73652710,0.00054296
767.66533447,0.00046587
769.59414185,0.00048505
771.52294922,0.00061467
773.45175659,0.00050113
775.38056396,0.00029748
777.30937134,0.00064531
779.23817871,0.00070013
781.16698608,0.00072005
783.09579346,0.00042294
785.02460083,0.00046083
786.95340820,0.00068872
788.88221558,0.00056565
790.81102295,0.00085070
792.73983032,0.00064149
794.66863770,0.00061931
796.59744507,0.00089797
798.52625244,0.00149616
800.45505981,0.00156600
802.38386719,0.00114191
804.31267456,0.00135923
806.24148193,0.00077909
808.17028931,0.00080029
810.09909668,0.00080733
812.02790405,0.00052881
813.95671143,0.00065827
815.88551880,0.00048919
817.81432617,0.00117500
819.74313354,0.00088054
821.67194092,0.00047695
823.60074829,0.00099231
825.52955566,0.00082346
827.45836304,0.00069819
829.38717041,0.00106127
831.31597778,0.00152971
833.24478516,0.00156904
835.17359253,0.00199918
837.10239990,0.00221631
839.03120728,0.00190550
840.96001465,0.00187268
842.88882202,0.00190719
844.81762939,0.00187970
846.74643677,0.00159728
848.67524414,0.00159728
850.60405151,0.00130366
852.53285889,0.00142811
854.46166626,0.00143187
856.39047363,0.00067191
858.31928101,0.00096964
860.24808838,0.00080284
862.17689575,0.00058014
864.10570313,0.00090415
866.03451050,0.00076719
867.96331787,0.00067549
869.89212524,0.00043486
871.82093262,0.00062508
873.74973999,0.00053410
875.67854736,0.00018691
877.60735474,0.00060477
879.53616211,0.00077158
881.46496948,0.00059017
883.39377686,0.00036704
885.32258423,0.00025213
887.25139160,0.00046519
889.18019897,0.00049662
891.10900635,0.00034979
893.03781372,0.00037924
894.96662109,0.00044465
896.89542847,0.00054756
898.82423584,0.00047203
900.75304321,0.00048181
902.68185059,0.00082706
904.61065796,0.00091083
906.53946533,0.00069957
908.46827271,0.00063700
910.39708008,0.00090894
912.32588745,0.00103978
914.25469482,0.00108744
916.18350220,0.00120856
918.11230957,0.00121163
920.04111694,0.00139024
921.96992432,0.00160903
923.89873169,0.00164230
925.82753906,0.00173910
927.75634644,0.00220367
929.68515381,0.00226953
931.61396118,0.00208221
933.54276855,0.00253798
935.47157593,0.00289235
937.40038330,0.00296716
939.32919067,0.00297209
941.25799805,0.00297664
943.18680542,0.00319841
945.11561279,0.00331027
947.04442017,0.00306862
948.97322754,0.00287934
950.90203491,0.00299621
952.83084229,0.00303503
954.75964966,0.00281482
956.68845703,0.00272796
958.61726440,0.00312218
960.54607178,0.00301182
962.47487915,0.00279811
964.40368652,0.00329939
966.33249390,0.00326230
968.26130127,0.00303514
970.19010864,0.00324978
972.11891602,0.00360275
974.04772339,0.00388554
975.97653076,0.00407526
977.90533813,0.00440088
979.83414551,0.00481424
981.76295288,0.00542624
983.69176025,0.00593209
985.62056763,0.00648170
987.54937500,0.00733728
989.47818237,0.00817659
991.40698975,0.00900083
993.33579712,0.00985690
995.26460449,0.01062656
997.19341187,0.01151488
999.12221924,0.01260382
1001.05102661,0.01332294
1002.97983398,0.01411455
1004.90864136,0.01511086
1006.83744873,0.01603210
1008.76625610,0.01707205
1010.69506348,0.01805859
1012.62387085,0.01912054
1014.55267822,0.02013753
1016.48148560,0.02123088
1018.41029297,0.02221298
1020.33910034,0.02316173
1022.26790771,0.02421547
1024.19671509,0.02517973
1026.12552246,0.02642659
1028.05432983,0.02719776
1029.98313721,0.02772573
1031.91194458,0.02843622
1033.84075195,0.02907663
1035.76955933,0.02974826
1037.69836670,0.02994061
1039.62717407,0.02996494
1041.55598145,0.02995325
1043.48478882,0.02964434
1045.41359619,0.02928843
1047.34240356,0.02902808
1049.27121094,0.02864170
1051.20001831,0.02810902
1053.12882568,0.02748651
1055.05763306,0.02704815
1056.98644043,0.02667359
1058.91524780,0.02572663
1060.84405518,0.02505300
1062.77286255,0.02434670
1064.70166992,0.02344551
1066.63047729,0.02267509
1068.55928467,0.02169560
1070.48809204,0.02098230
1072.41689941,0.01976267
1074.34570679,0.01860347
1076.27451416,0.01795390
1078.20332153,0.01722477
1080.13212891,0.01638424
1082.06093628,0.01548907
1083.98974365,0.01496233
1085.91855103,0.01412755
1087.84735840,0.01349347
1089.77616577,0.01284795
1091.70497314,0.01215915
1093.63378052,0.01191406
1095.56258789,0.01140335
1097.49139526,0.01109963
1099.42020264,0.01067258
1101.34901001,0.01051402
1103.27781738,0.01038920
1105.20662476,0.01005381
1107.13543213,0.00991227
1109.06423950,0.00952877
1110.99304687,0.00953666
1112.92185425,0.00945867
1114.85066162,0.00944099
1116.77946899,0.00937274
1118.70827637,0.00927427
1120.63708374,0.00944272
1122.56589111,0.00930361
1124.49469849,0.00943841
1126.42350586,0.00954734
1128.35231323,0.01004999
1130.28112061,0.01024515
1132.20992798,0.01015062
1134.13873535,0.01079658
1136.06754272,0.01094538
1137.99635010,0.01148444
1139.92515747,0.01232404
1141.85396484,0.01302336
1143.78277222,0.01404648
1145.71157959,0.01490941
1147.64038696,0.01595594
1149.56919434,0.01672554
1151.49800171,0.01743679
1153.42680908,0.01838480
1155.35561646,0.01909942
1157.28442383,0.02015727
1159.21323120,0.02095746
1161.14203857,0.02136202
1163.07084595,0.02243967
1164.99965332,0.02317615
1166.92846069,0.02385274
1168.85726807,0.02521063
1170.78607544,0.02597256
1172.71488281,0.02668495
1174.64369019,0.02762964
1176.57249756,0.02866197
1178.50130493,0.02996350
1180.43011230,0.03111345
1182.35891968,0.03254551
1184.28772705,0.03401940
1186.21653442,0.03536198
1188.14534180,0.03700978
1190.07414917,0.03883994
1192.00295654,0.04058800
1193.93176392,0.04235662
1195.86057129,0.04433605
1197.78937866,0.04653431
1199.71818604,0.04867061
1201.64699341,0.05068446
1203.57580078,0.05285800
1205.50460815,0.05464010
1207.43341553,0.05677364
1209.36222290,0.05909109
1211.29103027,0.06052103
1213.21983765,0.06223828
1215.14864502,0.06389915
1217.07745239,0.06530955
1219.00625977,0.06660871
1220.93506714,0.06735259
1222.86387451,0.06829128
1224.79268188,0.06901157
1226.72148926,0.06929909
1228.65029663,0.06978251
1230.57910400,0.07023291
1232.50791138,0.07030489
1234.43671875,0.07030580
1236.36552612,0.07040411
1238.29433350,0.07027407
1240.22314087,0.07005466
1242.15194824,0.06975450
1244.08075562,0.06934386
1246.00956299,0.06915452
1247.93837036,0.06878925
1249.86717773,0.06812754
1251.79598511,0.06765527
1253.72479248,0.06684089
1255.65359985,0.06590983
1257.58240723,0.06528848
1259.51121460,0.06407078
1261.44002197,0.06291994
1263.36882935,0.06237238
1265.29763672,0.06138538
1267.22644409,0.06053676
1269.15525146,0.05994967
1271.08405884,0.05877316
1273.01286621,0.05787599
1274.94167358,0.05694220
1276.87048096,0.05574524
1278.79928833,0.05477014
1280.72809570,0.05343457
1282.65690308,0.05254033
1284.58571045,0.05176659
1286.51451782,0.05055687
1288.44332520,0.04966497
1290.37213257,0.04914240
1292.30093994,0.04858067
1294.22974731,0.04793732
1296.15855469,0.04782847
1298.08736206,0.04764857
1300.01616943,0.04780468
1301.94497681,0.04812967
1303.87378418,0.04815279
1305.80259155,0.04875328
1307.73139893,0.04927212
1309.66020630,0.05027161
1311.58901367,0.05109229
1313.51782104,0.05181159
1315.44662842,0.05349793
1317.37543579,0.05453433
1319.30424316,0.05574885
1321.23305054,0.05779037
1323.16185791,0.05957101
1325.09066528,0.06110391
1327.01947266,0.06288603
1328.94828003,0.06459396
1330.87708740,0.06618753
1332.80589478,0.06782430
1334.73470215,0.06910839
1336.66350952,0.06982139
1338.59231689,0.06887998
1340.52112427,0.06979050
1342.44993164,0.07302552
1344.37873901,0.07345469
1346.30754639,0.07318379
1348.23635376,0.07312399
1350.16516113,0.07283108
1352.09396851,0.07289003
1354.02277588,0.07159767
1355.95158325,0.07089512
1357.88039062,0.07079662
1359.80919800,0.06963477
1361.73800537,0.06623872
1363.66681274,0.06531942
1365.59562012,0.06886543
1367.52442749,0.06720787
1369.45323486,0.06636912
1371.38204224,0.06761103
1373.31084961,0.06375988
1375.23965698,0.06410781
1377.16846436,0.06599058
1379.09727173,0.06577703
1381.02607910,0.06582977
1382.95488647,0.06568919
1384.88369385,0.06585216
1386.81250122,0.06254929
1388.74130859,0.06321046
1390.67011597,0.06888527
1392.59892334,0.06692357
1394.52773071,0.06213084
1396.45653809,0.06545998
1398.38534546,0.06561278
1400.31415283,0.06498097
1402.24296021,0.07058781
1404.17176758,0.06644344
1406.10057495,0.06669460
1408.02938232,0.07010294
1409.95818970,0.06697103
1411.88699707,0.06855084
1413.81580444,0.06620757
1415.74461182,0.06714511
1417.67341919,0.06066425
1419.60222656,0.05338772
1421.53103394,0.06236895
1423.45984131,0.06053138
1425.38864868,0.05838549
1427.31745605,0.05980904
1429.24626343,0.05488096
1431.17507080,0.05318590
1433.10387817,0.05417263
1435.03268555,0.04950944
1436.96149292,0.04121547
1438.89030029,0.04697120
1440.81910767,0.04889873
1442.74791504,0.04492286
1444.67672241,0.04725669
1446.60552979,0.04311337
1448.53433716,0.04364627
1450.46314453,0.04542788
1452.39195190,0.04611363
1454.32075928,0.04789208
1456.24956665,0.03911021
1458.17837402,0.04044424
1460.10718140,0.05472157
1462.03598877,0.05878247
1463.96479614,0.05812409
1465.89360352,0.06041157
1467.82241089,0.06931784
1469.75121826,0.07502082
1471.68002563,0.06597330
1473.60883301,0.06919387
1475.53764038,0.07973887
1477.46644775,0.08564439
1479.39525513,0.09481907
1481.32406250,0.09623368
1483.25286987,0.10228710
1485.18167725,0.10600299
1487.11048462,0.10391550
1489.03929199,0.10341284
1490.96809937,0.10354021
1492.89690674,0.12155046
1494.82571411,0.11951914
1496.75452148,0.10625952
1498.68332886,0.12078996
1500.61213623,0.12507343
1502.54094360,0.13439491
1504.46975098,0.12775117
1506.39855835,0.09085125
1508.32736572,0.11083226
1510.25617310,0.13267171
1512.18498047,0.12800473
1514.11378784,0.13968484
1516.04259521,0.12552646
1517.97140259,0.13032988
1519.90020996,0.12702100
1521.82901733,0.10805599
1523.75782471,0.13367388
1525.68663208,0.13196087
1527.61543945,0.13048548
1529.54424683,0.14601365
1531.47305420,0.14020763
1533.40186157,0.12767974
1535.33066895,0.13531229
1537.25947632,0.14649910
1539.18828369,0.10316287
1541.11709106,0.10618377
1543.04589844,0.13013619
1544.97470581,0.12388583
1546.90351318,0.14847538
1548.83232056,0.13860953
1550.76112793,0.14204168
1552.68993530,0.14249241
1554.61874268,0.12772679
1556.54755005,0.13809100
1558.47635742,0.09606186
1560.40516479,0.10172088
1562.33397217,0.14955562
1564.26277954,0.14137998
1566.19158691,0.14510933
1568.12039429,0.14446259
1570.04920166,0.12632573
1571.97800903,0.14668950
1573.90681641,0.14985073
1575.83562378,0.11692876
1577.76443115,0.13222378
1579.69323853,0.15099877
1581.62204590,0.14445809
1583.55085327,0.14847857
1585.47966064,0.14615801
1587.40846802,0.14708807
1589.33727539,0.14579098
1591.26608276,0.14593613
1593.19489014,0.14624959
1595.12369751,0.14422354
1597.05250488,0.14639696
1598.98131226,0.14536551
1600.91011963,0.14624298
1602.83892700,0.14356944
1604.76773437,0.14636728
1606.69654175,0.14404166
1608.62534912,0.14370763
1610.55415649,0.14380154
1612.48296387,0.14429465
1614.41177124,0.14725357
1616.34057861,0.11891970
1618.26938599,0.12829486
1620.19819336,0.15191588
1622.12700073,0.13392909
1624.05580811,0.13380355
1625.98461548,0.14122960
1627.91342285,0.14075553
1629.84223022,0.13958880
1631.77103760,0.14973097
1633.69984497,0.13821587
1635.62865234,0.11191599
1637.55745972,0.13084206
1639.48626709,0.14573294
1641.41507446,0.14219144
1643.34388184,0.14622846
1645.27268921,0.13168827
1647.20149658,0.11367974
1649.13030396,0.14270583
1651.05911133,0.13728639
1652.98791870,0.08487497
1654.91672607,0.11608870
1656.84553345,0.14977479
1658.77434082,0.14283192
1660.70314819,0.14723544
1662.63195557,0.13294101
1664.56076294,0.13980892
1666.48957031,0.15191270
1668.41837769,0.13166058
1670.34718506,0.12674966
1672.27599243,0.14525564
1674.20479980,0.13414139
1676.13360718,0.12732376
1678.06241455,0.14827895
1679.99122192,0.14300680
1681.92002930,0.14114678
1683.84883667,0.11396132
1685.77764404,0.11069979
1687.70645142,0.15586406
1689.63525879,0.13492340
1691.56406616,0.14761907
1693.49287354,0.15288417
1695.42168091,0.10861202
1697.35048828,0.13523555
1699.27929565,0.11962275
1701.20810303,0.10467733
1703.13691040,0.14656577
1705.06571777,0.13460144
1706.99452515,0.13480669
1708.92333252,0.14810285
1710.85213989,0.14164644
1712.78094727,0.14419137
1714.70975464,0.13347046
1716.63856201,0.11911279
1718.56736938,0.11638904
1720.49617676,0.13912456
1722.42498413,0.14618529
1724.35379150,0.13438177
1726.28259888,0.14717239
1728.21140625,0.13592070
1730.14021362,0.13590316
1732.06902100,0.13379484
1733.99782837,0.09950255
1735.92663574,0.12443402
1737.85544312,0.14016433
1739.78425049,0.12311774
1741.71305786,0.13446783
1743.64186523,0.13674578
1745.57067261,0.13663131
1747.49947998,0.13807602
1749.42828735,0.13187099
1751.35709473,0.12538026
1753.28590210,0.13955635
1755.21470947,0.14738956
1757.14351685,0.13298781
1759.07232422,0.14696920
1761.00113159,0.13846651
1762.92993896,0.13211101
1764.85874634,0.15319806
1766.78755371,0.13742170
1768.71636108,0.13802516
1770.64516846,0.13777006
1772.57397583,0.12252486
1774.50278320,0.13729337
1776.43159058,0.14591983
1778.36039795,0.14398091
1780.28920532,0.14196855
1782.21801270,0.14330024
1784.14682007,0.14336003
1786.07562744,0.13980186
1788.00443481,0.14766425
1789.93324219,0.14411655
1791.86204956,0.12913573
1793.79085693,0.13475642
1795.71966431,0.14547428
1797.64847168,0.14360628
1799.57727905,0.14122272
1801.50608643,0.13840489
1803.43489380,0.14316541
1805.36370117,0.14685968
1807.29250854,0.14456296
1809.22131592,0.14515969
1811.15012329,0.14089701
1813.07893066,0.14542192
1815.00773804,0.14657509
1816.93654541,0.14447638
1818.86535278,0.14579573
1820.79416016,0.14495671
1822.72296753,0.14749201
1824.65177490,0.13730389
1826.58058228,0.14209378
1828.50938965,0.14316669
1830.43819702,0.13300560
1832.36700439,0.14555269
1834.29581177,0.14510208
1836.22461914,0.14435273
1838.15342651,0.14408544
1840.08223389,0.14491378
1842.01104126,0.14568821
1843.93984863,0.12801890
1845.86865601,0.13647106
1847.79746338,0.14508568
1849.72627075,0.14152524
1851.65507812,0.14625317
1853.58388550,0.14315279
1855.51269287,0.14458311
1857.44150024,0.14367658
1859.37030762,0.14263514
1861.29911499,0.14397544
1863.22792236,0.14210373
1865.15672974,0.14377767
1867.08553711,0.13880259
1869.01434448,0.13250272
1870.94315186,0.13783577
1872.87195923,0.14378759
1874.80076660,0.14147702
1876.72957397,0.14212990
1878.65838135,0.14177993
1880.58718872,0.14073199
1882.51599609,0.14227670
1884.44480347,0.13967271
1886.37361084,0.14193718
1888.30241821,0.13877290
1890.23122559,0.13547418
1892.16003296,0.14112353
1894.08884033,0.13885242
1896.01764771,0.13836846
1897.94645508,0.14026266
1899.87526245,0.13942821
1901.80406982,0.13996935
1903.73287720,0.13871998
1905.66168457,0.13949645
1907.59049194,0.13811362
1909.51929932,0.13689324
1911.44810669,0.13804391
1913.37691406,0.13809849
1915.30572144,0.13936244
1917.23452881,0.13310474
1919.16333618,0.13288820
1921.09214355,0.13855393
1923.02095093,0.13395689
1924.94975830,0.13658194
1926.87856567,0.13840701
1928.80737305,0.13645494
1930.73618042,0.13824630
1932.66498779,0.13606462
1934.59379517,0.13761383
1936.52260254,0.13665737
1938.45140991,0.13676837
1940.38021729,0.13713984
1942.30902466,0.13206074
1944.23783203,0.13471925
1946.16663940,0.13644850
1948.09544678,0.13597357
1950.02425415,0.13669464
1951.95306152,0.13618134
1953.88186890,0.13647063
1955.81067627,0.13555229
1957.73948364,0.13610609
1959.66829102,0.13594870
1961.59709839,0.13546991
1963.52590576,0.13602129
1965.45471313,0.13508436
1967.38352051,0.13382021
1969.31232788,0.13473514
1971.24113525,0.13586187
1973.16994263,0.13501373
1975.09875000,0.13534178
1977.02755737,0.13476101
1978.95636475,0.13480905
1980.88517212,0.13488284
1982.81397949,0.13412064
1984.74278687,0.13480462
1986.67159424,0.13358606
1988.60040161,0.13387901
1990.52920898,0.13288240
1992.45801636,0.13083202
1994.38682373,0.13299415
1996.31563110,0.13343588
1998.24443848,0.13263971
2000.17324585,0.13276519
2002.10205322,0.13233632
2004.03086060,0.13224159
2005.95966797,0.13195977
2007.88847534,0.13152897
2009.81728271,0.13160846
2011.74609009,0.13122144
2013.67489746,0.13115680
2015.60370483,0.13046786
2017.53251221,0.12924731
2019.46131958,0.13005479
2021.39012695,0.13002101
2023.31893433,0.12975363
2025.24774170,0.12967615
2027.17654907,0.12906305
2029.10535645,0.12925956
2031.03416382,0.12879005
2032.96297119,0.12863944
2034.89177856,0.12816381
2036.82058594,0.12791412
2038.74939331,0.12804170
2040.67820068,0.12714392
2042.60700806,0.12703153
2044.53581543,0.12698802
2046.46462280,0.12672445
2048.39343018,0.12645930
2050.32223755,0.12632436
2052.25104492,0.12618697
2054.17985229,0.12576231
2056.10865967,0.12558462
2058.03746704,0.12529901
2059.96627441,0.12517419
2061.89508179,0.12505412
2063.82388916,0.12448011
2065.75269653,0.12389213
2067.68150391,0.12423721
2069.61031128,0.12425053
2071.53911865,0.12384473
2073.46792603,0.12384930
2075.39673340,0.12337938
2077.32554077,0.12325288
2079.25434814,0.12294648
2081.18315552,0.12266062
2083.11196289,0.12273596
2085.04077026,0.12251300
2086.96957764,0.12223430
2088.89838501,0.12173682
2090.82719238,0.12152529
2092.75599976,0.12146704
2094.68480713,0.12138546
2096.61361450,0.12112953
2098.54242187,0.12096947
2100.47122925,0.12077442
2102.40003662,0.12055597
2104.32884399,0.12049263
2106.25765137,0.12016139
2108.18645874,0.12017056
2110.11526611,0.11983941
2112.04407349,0.11961986
2113.97288086,0.11949439
2115.90168823,0.11926803
2117.83049561,0.11930609
2119.75930298,0.11894971
2121.68811035,0.11893004
2123.61691772,0.11867186
2125.54572510,0.11847793
2127.47453247,0.11836568
2129.40333984,0.11817366
2131.33214722,0.11815145
2133.26095459,0.11781465
2135.18976196,0.11771917
2137.11856934,0.11748531
2139.04737671,0.11758596
2140.97618408,0.11740948
2142.90499146,0.11716901
2144.83379883,0.11711684
2146.76260620,0.11676796
2148.69141357,0.11692678
2150.62022095,0.11656377
2152.54902832,0.11643776
2154.47783569,0.11632562
2156.40664307,0.11618129
2158.33545044,0.11625537
2160.26425781,0.11591112
2162.19306519,0.11595228
2164.12187256,0.11562023
2166.05067993,0.11556868
2167.97948730,0.11547226
2169.90829468,0.11519106
2171.83710205,0.11518413
2173.76590942,0.11493232
2175.69471680,0.11494308
2177.62352417,0.11474538
2179.55233154,0.11468557
2181.48113892,0.11452578
2183.40994629,0.11440657
2185.33875366,0.11431031
2187.26756104,0.11405624
2189.19636841,0.11407200
2191.12517578,0.11389147
2193.05398315,0.11386828
2194.98279053,0.11357835
2196.91159790,0.11347748
2198.84040527,0.11340931
2200.76921265,0.11322095
2202.69802002,0.11322147
2204.62682739,0.11291172
2206.55563477,0.11292575
2208.48444214,0.11286122
2210.41324951,0.11287934
2212.34205688,0.11261410
2214.27086426,0.11223833
2216.19967163,0.11218774
2218.12847900,0.11204286
2220.05728638,0.11218710
2221.98609375,0.11186834
2223.91490112,0.11160986
2225.84370850,0.11145615
2227.77251587,0.11125098
2229.70132324,0.11127914
2231.63013062,0.11110425
2233.55893799,0.11085794
2235.48774536,0.11068984
2237.41655273,0.11068219
2239.34536011,0.11032602
2241.27416748,0.11018373
2243.20297485,0.10997267
2245.13178223,0.10978492
2247.06058960,0.10980262
2248.98939697,0.10950448
2250.91820435,0.10951401
2252.84701172,0.10910496
2254.77581909,0.10898767
2256.70462646,0.10891955
2258.63343384,0.10867236
2260.56224121,0.10874185
2262.49104858,0.10836729
2264.41985596,0.10834220
2266.34866333,0.10820949
2268.27747070,0.10805449
2270.20627808,0.10792410
2272.13508545,0.10778712
2274.06389282,0.10781863
2275.99270020,0.10756521
2277.92150757,0.10748689
2279.85031494,0.10728084
2281.77912231,0.10730007
2283.70792969,0.10707379
2285.63673706,0.10688049
2287.56554443,0.10689029
2289.49435181,0.10636730
2291.42315918,0.10621134
2293.35196655,0.10587622
2295.28077393,0.10553835
2297.20958130,0.10529099
2299.13838867,0.10483487
2301.06719604,0.10446794
2302.99600342,0.10392313
2304.92481079,0.10342941
2306.85361816,0.10277182
2308.78242554,0.10197853
2310.71123291,0.10119343
2312.64004028,0.10016788
2314.56884766,0.09891906
2316.49765503,0.09779271
2318.42646240,0.09651523
2320.35526978,0.09511414
2322.28407715,0.09369431
2324.21288452,0.09227626
2326.14169189,0.09137495
2328.07049927,0.09025736
2329.99930664,0.08910993
2331.92811401,0.08828473
2333.85692139,0.08788099
2335.78572876,0.08753952
2337.71453613,0.08725543
2339.64334351,0.08740535
2341.57215088,0.08758473
2343.50095825,0.08898436
2345.42976562,0.09067864
2347.35857300,0.09453601
2349.28738037,0.09815697
2351.21618774,0.09462231
2353.14499512,0.08946121
2355.07380249,0.08606885
2357.00260986,0.08310720
2358.93141724,0.08156413
2360.86022461,0.08066155
2362.78903198,0.08041334
2364.71783936,0.08078057
2366.64664673,0.08207549
2368.57545410,0.08377109
2370.50426147,0.08599856
2372.43306885,0.08864433
2374.36187622,0.09114327
2376.29068359,0.09384337
2378.21949097,0.09590513
2380.14829834,0.09773552
2382.07710571,0.09897847
2384.00591309,0.09967445
2385.93472046,0.10025533
2387.86352783,0.10019684
2389.79233521,0.10013296
2391.72114258,0.10013537
2393.64994995,0.10004748
2395.57875732,0.09994012
2397.50756470,0.09987797
2399.43637207,0.09964123
2401.36517944,0.09952527
2403.29398682,0.09939481
2405.22279419,0.09908463
2407.15160156,0.09907131
2409.08040894,0.09900374
2411.00921631,0.09896085
2412.93802368,0.09874742
2414.86683105,0.09865589
2416.79563843,0.09848756
2418.72444580,0.09823129
2420.65325317,0.09839585
2422.58206055,0.09819648
2424.51086792,0.09796518
2426.43967529,0.09780098
2428.36848267,0.09781478
2430.29729004,0.09770446
2432.22609741,0.09742878
2434.15490479,0.09748086
2436.08371216,0.09721625
2438.01251953,0.09713838
2439.94132690,0.09707233
2441.87013428,0.09690974
2443.79894165,0.09683654
2445.72774902,0.09669344
2447.65655640,0.09664902
2449.58536377,0.09636942
2451.51417114,0.09626269
2453.44297852,0.09624306
2455.37178589,0.09608991
2457.30059326,0.09588580
2459.22940063,0.09576557
2461.15820801,0.09575801
2463.08701538,0.09567590
2465.01582275,0.09563023
2466.94463013,0.09536037
2468.87343750,0.09520584
2470.80224487,0.09508020
2472.73105225,0.09488804
2474.65985962,0.09488313
2476.58866699,0.09478420
2478.51747437,0.09463171
2480.44628174,0.09442276
2482.37508911,0.09436591
2484.30389648,0.09437309
2486.23270386,0.09422766
2488.16151123,0.09405728
2490.09031860,0.09401131
2492.01912598,0.09389214
2493.94793335,0.09361187
2495.87674072,0.09345518
2497.80554810,0.09337201
2499.73435547,0.09340084
2501.66316284,0.09321409
2503.59197021,0.09300674
2505.52077759,0.09297512
2507.44958496,0.09284473
2509.37839233,0.09279522
2511.30719971,0.09268688
2513.23600708,0.09253931
2515.16481445,0.09239592
2517.09362183,0.09234760
2519.02242920,0.09218257
2520.95123657,0.09199525
2522.88004395,0.09198819
2524.80885132,0.09181540
2526.73765869,0.09169243
2528.66646606,0.09150529
2530.59527344,0.09143766
2532.52408081,0.09149030
2534.45288818,0.09136224
2536.38169556,0.09121573
2538.31050293,0.09108322
2540.23931030,0.09101103
2542.16811768,0.09087186
2544.09692505,0.09081908
2546.02573242,0.09072897
2547.95453979,0.09058125
2549.88334717,0.09033424
2551.81215454,0.09019667
2553.74096191,0.09032425
2555.66976929,0.09006815
2557.59857666,0.08989848
2559.52738403,0.08982147
2561.45619141,0.08969294
2563.38499878,0.08960065
2565.31380615,0.08937249
2567.24261353,0.08936517
2569.17142090,0.08925571
2571.10022827,0.08904672
2573.02903564,0.08898966
2574.95784302,0.08897844
2576.88665039,0.08875519
2578.81545776,0.08866372
2580.74426514,0.08876621
2582.67307251,0.08843549
2584.60187988,0.08829147
2586.53068726,0.08827604
2588.45949463,0.08807862
2590.38830200,0.08796152
2592.31710937,0.08789477
2594.24591675,0.08785124
2596.17472412,0.08769646
2598.10353149,0.08760306
2600.03233887,0.08747241
2601.96114624,0.08730228
2603.88995361,0.08721134
2605.81876099,0.08717394
2607.74756836,0.08706846
2609.67637573,0.08683866
2611.60518311,0.08674909
2613.53399048,0.08666615
2615.46279785,0.08652464
2617.39160522,0.08644820
2619.32041260,0.08637429
2621.24921997,0.08616731
2623.17802734,0.08610784
2625.10683472,0.08606791
2627.03564209,0.08586600
2628.96444946,0.08580878
2630.89325684,0.08562092
2632.82206421,0.08551545
2634.75087158,0.08538887
2636.67967895,0.08520636
2638.60848633,0.08523733
2640.53729370,0.08507113
2642.46610107,0.08491035
2644.39490845,0.08484375
2646.32371582,0.08473934
2648.25252319,0.08458006
2650.18133057,0.08447006
2652.11013794,0.08440079
2654.03894531,0.08434268
2655.96775269,0.08424930
2657.89656006,0.08401529
2659.82536743,0.08396441
2661.75417480,0.08385443
2663.68298218,0.08375265
2665.61178955,0.08354895
2667.54059692,0.08333664
2669.46940430,0.08342093
2671.39821167,0.08316068
2673.32701904,0.08305833
2675.25582642,0.08306758
2677.18463379,0.08289529
2679.11344116,0.08287883
2681.04224854,0.08271542
2682.97105591,0.08256481
2684.89986328,0.08247345
2686.82867065,0.08232404
2688.75747803,0.08222333
2690.68628540,0.08219662
2692.61509277,0.08207072
2694.54390015,0.08195847
2696.47270752,0.08188836
2698.40151489,0.08171210
2700.33032227,0.08164820
2702.25912964,0.08153273
2704.18793701,0.08138208
2706.11674438,0.08125866
2708.04555176,0.08121170
2709.97435913,0.08117053
2711.90316650,0.08089884
2713.83197388,0.08073814
2715.76078125,0.08073319
2717.68958862,0.08059776
2719.61839600,0.08039409
2721.54720337,0.08034618
2723.47601074,0.08025011
2725.40481812,0.08008213
2727.33362549,0.07992415
2729.26243286,0.07978471
2731.19124023,0.07973292
2733.12004761,0.07962570
2735.04885498,0.07954805
2736.97766235,0.07930845
2738.90646973,0.07926680
2740.83527710,0.07935233
2742.76408447,0.07909748
2744.69289185,0.07895613
2746.62169922,0.07882723
2748.55050659,0.07866995
2750.47931396,0.07850685
2752.40812134,0.07845642
2754.33692871,0.07840101
2756.26573608,0.07825392
2758.19454346,0.07817928
2760.12335083,0.07799180
2762.05215820,0.07791579
2763.98096558,0.07772527
2765.90977295,0.07763851
2767.83858032,0.07752140
2769.76738770,0.07730686
2771.69619507,0.07730160
2773.62500244,0.07707474
2775.55380981,0.07710287
2777.48261719,0.07691851
2779.41142456,0.07667738
2781.34023193,0.07667004
2783.26903931,0.07640186
2785.19784668,0.07647961
2787.12665405,0.07627337
2789.05546143,0.07597595
2790.98426880,0.07601470
2792.91307617,0.07581417
2794.84188354,0.07566336
2796.77069092,0.07560331
2798.69949829,0.07547867
2800.62830566,0.07529714
2802.55711304,0.07518719
2804.48592041,0.07507613
2806.41472778,0.07493138
2808.34353516,0.07481228
2810.27234253,0.07470715
2812.20114990,0.07455112
2814.12995728,0.07436512
2816.05876465,0.07432394
2817.98757202,0.07415764
2819.91637939,0.07393404
2821.84518677,0.07384301
2823.77399414,0.07379499
2825.70280151,0.07363005
2827.63160889,0.07346927
2829.56041626,0.07345197
2831.48922363,0.07326421
2833.41803101,0.07300644
2835.34683838,0.07281767
2837.27564575,0.07270706
2839.20445312,0.07253936
2841.13326050,0.07234356
2843.06206787,0.07207893
2844.99087524,0.07171018
2846.91968262,0.07140326
2848.84848999,0.07092376
2850.77729736,0.07068354
2852.70610474,0.07068177
2854.63491211,0.07069181
2856.56371948,0.07066968
2858.49252686,0.07051949
2860.42133423,0.07048406
2862.35014160,0.07036106
2864.27894897,0.07030015
2866.20775635,0.07015208
2868.13656372,0.07003909
2870.06537109,0.06997030
2871.99417847,0.06976546
2873.92298584,0.06978913
2875.85179321,0.06959555
2877.78060059,0.06952399
2879.70940796,0.06950754
2881.63821533,0.06935339
2883.56702270,0.06934704
2885.49583008,0.06918253
2887.42463745,0.06910192
2889.35344482,0.06885432
2891.28225220,0.06862886
2893.21105957,0.06863493
2895.13986694,0.06847569
2897.06867432,0.06827234
2898.99748169,0.06812451
2900.92628906,0.06800491
2902.85509644,0.06778397
2904.78390381,0.06753676
2906.71271118,0.06729516
2908.64151855,0.06714329
2910.57032593,0.06691715
2912.49913330,0.06656992
2914.42794067,0.06621489
2916.35674805,0.06589715
2918.28555542,0.06582395
2920.21436279,0.06561030
2922.14317017,0.06547336
2924.07197754,0.06544146
2926.00078491,0.06532766
2927.92959229,0.06537665
2929.85839966,0.06532308
2931.78720703,0.06524507
2933.71601440,0.06524905
2935.64482178,0.06529388
2937.57362915,0.06520564
2939.50243652,0.06520355
2941.43124390,0.06536131
2943.36005127,0.06528398
2945.28885864,0.06516296
2947.21766602,0.06503773
2949.14647339,0.06493926
2951.07528076,0.06480811
2953.00408813,0.06463867
2954.93289551,0.06449287
2956.86170288,0.06432950
2958.79051025,0.06412823
2960.71931763,0.06399940
2962.64812500,0.06392861
2964.57693237,0.06351304
2966.50573975,0.06346378
2968.43454712,0.06371238
2970.36335449,0.06368752
2972.29216187,0.06377031
2974.22096924,0.06374349
2976.14977661,0.06379507
2978.07858398,0.06389686
2980.00739136,0.06379539
2981.93619873,0.06374764
2983.86500610,0.06375270
2985.79381348,0.06370714
2987.72262085,0.06361666
2989.65142822,0.06353999
2991.58023560,0.06348456
2993.50904297,0.06337154
2995.43785034,0.06319089
2997.36665771,0.06315497
2999.29546509,0.06304666
3001.22427246,0.06296117
3003.15307983,0.06284997
3005.08188721,0.06264552
3007.01069458,0.06267761
3008.93950195,0.06252896
3010.86830933,0.06234458
3012.79711670,0.06211619
3014.72592407,0.06203735
3016.65473145,0.06204131
3018.58353882,0.06184699
3020.51234619,0.06190349
3022.44115356,0.06167656
3024.36996094,0.06158244
3026.29876831,0.06152857
3028.22757568,0.06126934
3030.15638306,0.06120344
3032.08519043,0.06092006
3034.01399780,0.06088557
3035.94280518,0.06088369
3037.87161255,0.06074843
3039.80041992,0.06059916
3041.72922729,0.06045946
3043.65803467,0.06041676
3045.58684204,0.06028900
3047.51564941,0.06025905
3049.44445679,0.06002323
3051.37326416,0.05987915
3053.30207153,0.05982441
3055.23087891,0.05967149
3057.15968628,0.05952704
3059.08849365,0.05942515
3061.01730103,0.05946033
3062.94610840,0.05921963
3064.87491577,0.05904473
3066.80372314,0.05888133
3068.73253052,0.05886304
3070.66133789,0.05895537
3072.59014526,0.05881750
3074.51895264,0.05875786
3076.44776001,0.05850019
3078.37656738,0.05834866
3080.30537476,0.05824994
3082.23418213,0.05810874
3084.16298950,0.05799401
3086.09179687,0.05796839
3088.02060425,0.05799685
3089.94941162,0.05778402
3091.87821899,0.05775388
3093.80702637,0.05752944
3095.73583374,0.05741806
3097.66464111,0.05740302
3099.59344849,0.05710703
3101.52225586,0.05699471
3103.45106323,0.05691865
3105.37987061,0.05694115
3107.30867798,0.05671146
3109.23748535,0.05656897
3111.16629272,0.05648829
3113.09510010,0.05621409
3115.02390747,0.05615107
3116.95271484,0.05597655
3118.88152222,0.05584269
3120.81032959,0.05567130
3122.73913696,0.05561032
3124.66794434,0.05556428
3126.59675171,0.05536659
3128.52555908,0.05528831
3130.45436645,0.05510759
3132.38317383,0.05497569
3134.31198120,0.05489359
3136.24078857,0.05481183
3138.16959595,0.05467982
3140.09840332,0.05455346
3142.02721069,0.05439449
3143.95601807,0.05424555
3145.88482544,0.05413725
3147.81363281,0.05395871
3149.74244019,0.05379712
3151.67124756,0.05354726
3153.60005493,0.05353374
3155.52886230,0.05340862
3157.45766968,0.05324730
3159.38647705,0.05311228
3161.31528442,0.05293448
3163.24409180,0.05303306
3165.17289917,0.05280690
3167.10170654,0.05264949
3169.03051392,0.05240271
3170.95932129,0.05229297
3172.88812866,0.05230085
3174.81693604,0.05201288
3176.74574341,0.05197982
3178.67455078,0.05167358
3180.60335815,0.05169237
3182.53216553,0.05155800
3184.46097290,0.05125433
3186.38978027,0.05136527
3188.31858765,0.05113990
3190.24739502,0.05103530
3192.17620239,0.05084118
3194.10500977,0.05085820
3196.03381714,0.05075812
3197.96262451,0.05040033
3199.89143188,0.05040014
3201.82023926,0.05035764
3203.74904663,0.05030775
3205.67785400,0.05016330
3207.60666138,0.05013208
3209.53546875,0.04986636
3211.46427612,0.04977380
3213.39308350,0.04977192
3215.32189087,0.04954073
3217.25069824,0.04962119
3219.17950562,0.04934873
3221.10831299,0.04928039
3223.03712036,0.04927453
3224.96592773,0.04915706
3226.89473511,0.04913719
3228.82354248,0.04892442
3230.75234985,0.04895084
3232.68115723,0.04889338
3234.60996460,0.04881265
3236.53877197,0.04873884
3238.46757935,0.04867092
3240.39638672,0.04858395
3242.32519409,0.04856778
3244.25400146,0.04842775
3246.18280884,0.04821251
3248.11161621,0.04839507
3250.04042358,0.04826733
3251.96923096,0.04825124
3253.89803833,0.04808217
3255.82684570,0.04784742
3257.75565308,0.04797916
3259.68446045,0.04786015
3261.61326782,0.04787582
3263.54207520,0.04776144
3265.47088257,0.04776036
3267.39968994,0.04772963
3269.32849731,0.04761006
3271.25730469,0.04756374
3273.18611206,0.04740431
3275.11491943,0.04744176
3277.04372681,0.04727904
3278.97253418,0.04732613
3280.90134155,0.04738830
3282.83014893,0.04728031
3284.75895630,0.04715734
3286.68776367,0.04714770
3288.61657104,0.04725146
3290.54537842,0.04697177
3292.47418579,0.04695306
3294.40299316,0.04686262
3296.33180054,0.04680134
3298.26060791,0.04681979
3300.18941528,0.04671900
3302.11822266,0.04676331
3304.04703003,0.04662536
3305.97583740,0.04658531
3307.90464478,0.04632588
3309.83345215,0.04634447
3311.76225952,0.04645924
3313.69106689,0.04627761
3315.61987427,0.04629034
3317.54868164,0.04617749
3319.47748901,0.04614259
3321.40629639,0.04603243
3323.33510376,0.04603297
3325.26391113,0.04595789
3327.19271851,0.04577083
3329.12152588,0.04576822
3331.05033325,0.04574562
3332.97914062,0.04574104
3334.90794800,0.04554585
3336.83675537,0.04550793
3338.76556274,0.04547577
3340.69437012,0.04542499
3342.62317749,0.04531361
3344.55198486,0.04530057
3346.48079224,0.04532756
3348.40959961,0.04501831
3350.33840698,0.04502033
3352.26721436,0.04496608
3354.19602173,0.04495905
3356.12482910,0.04484018
3358.05363647,0.04471031
3359.98244385,0.04472032
3361.91125122,0.04448140
3363.84005859,0.04455817
3365.76886597,0.04444314
3367.69767334,0.04434893
3369.62648071,0.04423286
3371.55528809,0.04417256
3373.48409546,0.04423797
3375.41290283,0.04409632
3377.34171020,0.04417480
3379.27051758,0.04398314
3381.19932495,0.04391060
3383.12813232,0.04381365
3385.05693970,0.04365523
3386.98574707,0.04361998
3388.91455444,0.04366312
3390.84336182,0.04351926
3392.77216919,0.04303937
3394.70097656,0.04330881
3396.62978394,0.04316616
3398.55859131,0.04291788
3400.48739868,0.04294307
3402.41620605,0.04273916
3404.34501343,0.04288263
3406.27382080,0.04282553
3408.20262817,0.04287554
3410.13143555,0.04266305
3412.06024292,0.04255658
3413.98905029,0.04258386
3415.91785767,0.04253177
3417.84666504,0.04255947
3419.77547241,0.04205082
3421.70427979,0.04197612
3423.63308716,0.04210095
3425.56189453,0.04209620
3427.49070190,0.04192799
3429.41950928,0.04187061
3431.34831665,0.04182930
3433.27712402,0.04163730
3435.20593140,0.04171012
3437.13473877,0.04142302
3439.06354614,0.04159762
3440.99235352,0.04141181
3442.92116089,0.04120469
3444.84996826,0.04141138
3446.77877563,0.04075169
3448.70758301,0.04083005
3450.63639038,0.04126680
3452.56519775,0.04119468
3454.49400513,0.04106144
3456.42281250,0.04099820
3458.35161987,0.04092709
3460.28042725,0.04082214
3462.20923462,0.04068160
3464.13804199,0.04066090
3466.06684937,0.04077899
3467.99565674,0.04049716
3469.92446411,0.04058817
3471.85327148,0.04054412
3473.78207886,0.04051269
3475.71088623,0.04044529
3477.63969360,0.04033849
3479.56850098,0.04049693
3481.49730835,0.03985553
3483.42611572,0.04016487
3485.35492310,0.04030139
3487.28373047,0.04000499
3489.21253784,0.04018021
3491.14134521,0.04006614
3493.07015259,0.04029172
3494.99895996,0.03992141
3496.92776733,0.03990662
3498.85657471,0.04001806
3500.78538208,0.03992239
3502.71418945,0.03938679
3504.64299683,0.03929077
3506.57180420,0.04032131
3508.50061157,0.03958596
3510.42941895,0.03953281
3512.35822632,0.03998679
3514.28703369,0.03986720
3516.21584106,0.04002578
3518.14464844,0.03964449
3520.07345581,0.03996230
3522.00226318,0.03954867
3523.93107056,0.03902379
3525.85987793,0.03915633
3527.78868530,0.03905813
3529.71749268,0.03919743
3531.64630005,0.03957317
3533.57510742,0.03995851
3535.50391479,0.03940242
3537.43272217,0.03921464
3539.36152954,0.03975107
3541.29033691,0.03969663
3543.21914429,0.03925162
3545.14795166,0.03853567
3547.07675903,0.03800615
3549.00556641,0.03915299
3550.93437378,0.03955894
3552.86318115,0.03854240
3554.79198853,0.03935880
3556.72079590,0.03956604
3558.64960327,0.03936065
3560.57841064,0.03905347
3562.50721802,0.03871546
3564.43602539,0.03912816
3566.36483276,0.03640731
3568.29364014,0.03541038
3570.22244751,0.03841892
3572.15125488,0.03947569
3574.08006226,0.03897955
3576.00886963,0.03912562
3577.93767700,0.03907396
3579.86648437,0.03894865
3581.79529175,0.03900681
3583.72409912,0.03911112
3585.65290649,0.03824528
3587.58171387,0.03503134
3589.51052124,0.03609960
3591.43932861,0.03939658
3593.36813599,0.03814263
3595.29694336,0.03751185
3597.22575073,0.03827230
3599.15455811,0.03858036
3601.08336548,0.03819735
3603.01217285,0.03850954
3604.94098022,0.03925087
3606.86978760,0.03786238
3608.79859497,0.03557283
3610.72740234,0.03629386
3612.65620972,0.03719112
3614.58501709,0.03601945
3616.51382446,0.03870434
3618.44263184,0.03579624
3620.37143921,0.03427016
3622.30024658,0.03909224
3624.22905395,0.03800907
3626.15786133,0.03970916
3628.08666870,0.03384157
3630.01547607,0.03032760
3631.94428345,0.03841487
3633.87309082,0.03765048
3635.80189819,0.03818454
3637.73070557,0.03901631
3639.65951294,0.03837492
3641.58832031,0.03885148
3643.51712769,0.03825230
3645.44593506,0.03860099
3647.37474243,0.03455069
3649.30354980,0.03155122
3651.23235718,0.03201705
3653.16116455,0.03821021
3655.08997192,0.03786183
3657.01877930,0.03365090
3658.94758667,0.03885025
3660.87639404,0.03814022
3662.80520142,0.03863748
3664.73400879,0.03853068
3666.66281616,0.03806041
3668.59162354,0.03700895
3670.52043091,0.02987405
3672.44923828,0.03642668
3674.37804565,0.03483377
3676.30685303,0.02846439
3678.23566040,0.03620060
3680.16446777,0.03709493
3682.09327515,0.03712011
3684.02208252,0.03822686
3685.95088989,0.03753311
3687.87969727,0.03392603
3689.80850464,0.03087521
3691.73731201,0.03527802
3693.66611938,0.03652818
3695.59492676,0.03735446
3697.52373413,0.03732590
3699.45254150,0.03703988
3701.38134888,0.03611407
3703.31015625,0.03461590
3705.23896362,0.03818089
3707.16777100,0.03625714
3709.09657837,0.03541518
3711.02538574,0.03330949
3712.95419312,0.03094792
3714.88300049,0.03660366
3716.81180786,0.03611710
3718.74061523,0.03636850
3720.66942261,0.03559844
3722.59822998,0.03430473
3724.52703735,0.03570086
3726.45584473,0.03291035
3728.38465210,0.03578081
3730.31345947,0.03553769
3732.24226685,0.03252812
3734.17107422,0.03165917
3736.09988159,0.02995918
3738.02868896,0.03178753
3739.95749634,0.03452946
3741.88630371,0.03638977
3743.81511108,0.02816384
3745.74391846,0.02629643
3747.67272583,0.03451094
3749.60153320,0.02965382
3751.53034058,0.02709640
3753.45914795,0.03124627
3755.38795532,0.03370558
3757.31676270,0.03509455
3759.24557007,0.03244029
3761.17437744,0.03368486
3763.10318481,0.03590519
3765.03199219,0.03342494
3766.96079956,0.03413130
3768.88960693,0.03378151
3770.81841431,0.03218623
3772.74722168,0.03495292
3774.67602905,0.03500884
3776.60483643,0.03498872
3778.53364380,0.03399180
3780.46245117,0.03263573
3782.39125854,0.03499832
3784.32006592,0.03398740
3786.24887329,0.03364996
3788.17768066,0.03449276
3790.10648804,0.03434109
3792.03529541,0.03418513
3793.96410278,0.03468765
3795.89291016,0.03263532
3797.82171753,0.03214735
3799.75052490,0.03397245
3801.67933228,0.02677552
3803.60813965,0.03125609
3805.53694702,0.03429183
3807.46575439,0.02781505
3809.39456177,0.03379594
3811.32336914,0.03319515
3813.25217651,0.03433858
3815.18098389,0.03103866
3817.10979126,0.02698556
3819.03859863,0.03441325
3820.96740601,0.02763996
3822.89621338,0.02894951
3824.82502075,0.03411109
3826.75382812,0.03070430
3828.68263550,0.03320542
3830.61144287,0.03194214
3832.54025024,0.03078428
3834.46905762,0.03144316
3836.39786499,0.02993766
3838.32667236,0.02696795
3840.25547974,0.02909482
3842.18428711,0.03151581
3844.11309448,0.03004148
3846.04190186,0.03262622
3847.97070923,0.03214268
3849.89951660,0.03219866
3851.82832397,0.02896275
3853.75713135,0.02138105
3855.68593872,0.02545688
3857.61474609,0.03218607
3859.54355347,0.03137024
3861.47236084,0.03103852
3863.40116821,0.03037132
3865.32997559,0.02814715
3867.25878296,0.03151927
3869.18759033,0.02874932
3871.11639770,0.02638753
3873.04520508,0.03151123
3874.97401245,0.02894662
3876.90281982,0.03132958
3878.83162720,0.03199030
3880.76043457,0.02718952
3882.68924194,0.03147352
3884.61804932,0.02947190
3886.54685669,0.02684589
3888.47566406,0.03150658
3890.40447144,0.02991505
3892.33327881,0.02799345
3894.26208618,0.03062831
3896.19089355,0.03133237
3898.11970093,0.02983233
3900.04850830,0.02801109
3901.97731567,0.02777432
3903.90612305,0.02753243
3905.83493042,0.02784790
3907.76373779,0.03062437
3909.69254517,0.03068080
3911.62135254,0.03032664
3913.55015991,0.03090907
3915.47896728,0.02989986
3917.40777466,0.02900473
3919.33658203,0.02874290
3921.26538940,0.02989515
3923.19419678,0.02975065
3925.12300415,0.02913697
3927.05181152,0.02964533
3928.98061890,0.03000999
3930.90942627,0.02940922
3932.83823364,0.02826175
3934.76704102,0.02953523
3936.69584839,0.02991359
3938.62465576,0.02960912
3940.55346313,0.02980793
3942.48227051,0.02861341
3944.41107788,0.02890175
3946.33988525,0.02942293
3948.26869263,0.02874666
3950.19750000,0.02875275
3952.12630737,0.02921223
3954.05511475,0.02921551
3955.98392212,0.02918572
3957.91272949,0.02905016
3959.84153687,0.02897258
3961.77034424,0.02881745
3963.69915161,0.02864070
3965.62795898,0.02908410
3967.55676636,0.02879937
3969.48557373,0.02876156
3971.41438110,0.02875977
3973.34318848,0.02853829
3975.27199585,0.02866472
3977.20080322,0.02843911
3979.12961060,0.02862671
3981.05841797,0.02844038
3982.98722534,0.02845395
3984.91603271,0.02841059
3986.84484009,0.02832259
3988.77364746,0.02842935
3990.70245483,0.02805092
3992.63126221,0.02818413
3994.56006958,0.02798615
3996.48887695,0.02808659
3998.41768433,0.02801995
4000.34649170,0.02782778
4002.27529907,0.02802509
4004.20410645,0.02776035
4006.13291382,0.02785797
4008.06172119,0.02762393
4009.99052856,0.02760146
4011.91933594,0.02764976
4013.84814331,0.02752180
4015.77695068,0.02747954
4017.70575806,0.02740611
4019.63456543,0.02751661
4021.56337280,0.02726418
4023.49218018,0.02740834
4025.42098755,0.02725800
4027.34979492,0.02714992
4029.27860229,0.02717944
4031.20740967,0.02701489
4033.13621704,0.02714603
4035.06502441,0.02691577
4036.99383179,0.02698283
4038.92263916,0.02688999
4040.85144653,0.02691552
4042.78025391,0.02685199
4044.70906128,0.02658557
4046.63786865,0.02672258
4048.56667603,0.02655414
4050.49548340,0.02659695
4052.42429077,0.02653585
4054.35309814,0.02654437
4056.28190552,0.02652301
4058.21071289,0.02638068
4060.13952026,0.02630253
4062.06832764,0.02623558
4063.99713501,0.02629603
4065.92594238,0.02604954
4067.85474976,0.02617696
4069.78355713,0.02604225
4071.71236450,0.02599106
4073.64117187,0.02608579
4075.56997925,0.02586129
4077.49878662,0.02592101
4079.42759399,0.02576073
4081.35640137,0.02578835
4083.28520874,0.02562365
4085.21401611,0.02560732
4087.14282349,0.02562770
4089.07163086,0.02546520
4091.00043823,0.02553998
4092.92924561,0.02536818
4094.85805298,0.02549898
4096.78686035,0.02533105
4098.71566772,0.02524203
4100.64447510,0.02530208
4102.57328247,0.02516980
4104.50208984,0.02517537
4106.43089722,0.02502597
4108.35970459,0.02504646
4110.28851196,0.02492602
4112.21731934,0.02494142
4114.14612671,0.02485766
4116.07493408,0.02482268
4118.00374145,0.02487150
4119.93254883,0.02471086
4121.86135620,0.02473547
4123.79016357,0.02459782
4125.71897095,0.02465499
4127.64777832,0.02444931
4129.57658569,0.02440451
4131.50539307,0.02448341
4133.43420044,0.02429529
4135.36300781,0.02436640
4137.29181519,0.02418920
4139.22062256,0.02420708
4141.14942993,0.02416325
4143.07823730,0.02412380
4145.00704468,0.02407548
4146.93585205,0.02404028
4148.86465942,0.02407178
4150.79346680,0.02381371
4152.72227417,0.02398006
4154.65108154,0.02388616
4156.57988892,0.02375083
4158.50869629,0.02373113
4160.43750366,0.02367831
4162.36631103,0.02373508
4164.29511841,0.02357801
4166.22392578,0.02362440
4168.15273315,0.02350015
4170.08154053,0.02345753
4172.01034790,0.02340800
4173.93915527,0.02336838
4175.86796265,0.02335158
4177.79677002,0.02321249
4179.72557739,0.02333178
4181.65438477,0.02312915
4183.58319214,0.02306687
4185.51199951,0.02312724
4187.44080688,0.02307006
4189.36961426,0.02299417
4191.29842163,0.02292340
4193.22722900,0.02296032
4195.15603638,0.02280133
4197.08484375,0.02277842
4199.01365112,0.02277049
4200.94245850,0.02272530
4202.87126587,0.02258462
4204.80007324,0.02254766
4206.72888062,0.02254055
4208.65768799,0.02250540
4210.58649536,0.02254010
4212.51530273,0.02232764
4214.44411011,0.02244090
4216.37291748,0.02231911
4218.30172485,0.02223931
4220.23053223,0.02227417
4222.15933960,0.02203004
4224.08814697,0.02210821
4226.01695435,0.02205813
4227.94576172,0.02208766
4229.87456909,0.02195524
4231.80337646,0.02194188
4233.73218384,0.02200222
4235.66099121,0.02184635
4237.58979858,0.02188513
4239.51860596,0.02166143
4241.44741333,0.02172413
4243.37622070,0.02173726
4245.30502808,0.02162610
4247.23383545,0.02164919
4249.16264282,0.02155091
4251.09145020,0.02153335
4253.02025757,0.02146438
4254.94906494,0.02148678
4256.87787231,0.02137048
4258.80667969,0.02137872
4260.73548706,0.02137617
4262.66429443,0.02123331
4264.59310181,0.02117816
4266.52190918,0.02112627
4268.45071655,0.02117216
4270.37952393,0.02102493
4272.30833130,0.02105396
4274.23713867,0.02103190
4276.16594604,0.02091949
4278.09475342,0.02094807
4280.02356079,0.02088898
4281.95236816,0.02084951
4283.88117554,0.02079240
4285.80998291,0.02076418
4287.73879028,0.02066698
4289.66759766,0.02072418
4291.59640503,0.02056032
4293.52521240,0.02045609
4295.45401978,0.02056191
4297.38282715,0.02040625
4299.31163452,0.02043187
4301.24044189,0.02032155
4303.16924927,0.02029897
4305.09805664,0.02027273
4307.02686401,0.02022266
4308.95567139,0.02023451
4310.88447876,0.02013760
4312.81328613,0.02020292
4314.74209351,0.02002392
4316.67090088,0.02000422
4318.59970825,0.01999721
4320.52851562,0.01993953
4322.45732300,0.01995130
4324.38613037,0.01987260
4326.31493774,0.01986327
4328.24374512,0.01977471
4330.17255249,0.01985659
4332.10135986,0.01971208
4334.03016724,0.01965433
4335.95897461,0.01966237
4337.88778198,0.01960931
4339.81658936,0.01962444
4341.74539673,0.01945208
4343.67420410,0.01956420
4345.60301147,0.01936592
4347.53181885,0.01926826
4349.46062622,0.01929232
4351.38943359,0.01918146
4353.31824097,0.01927685
4355.24704834,0.01914702
4357.17585571,0.01923357
4359.10466309,0.01913917
4361.03347046,0.01906263
4362.96227783,0.01915387
4364.89108520,0.01902881
4366.81989258,0.01891944
4368.74869995,0.01882866
4370.67750732,0.01892692
4372.60631470,0.01881287
4374.53512207,0.01877644
4376.46392944,0.01882008
4378.39273682,0.01873261
4380.32154419,0.01871539
4382.25035156,0.01867921
4384.17915894,0.01863637
4386.10796631,0.01853022
4388.03677368,0.01855775
4389.96558105,0.01846491
4391.89438843,0.01846719
4393.82319580,0.01847642
4395.75200317,0.01835996
4397.68081055,0.01834750
4399.60961792,0.01826026
4401.53842529,0.01830741
4403.46723267,0.01821487
4405.39604004,0.01815489
4407.32484741,0.01811112
4409.25365478,0.01805418
4411.18246216,0.01800493
4413.11126953,0.01787189
4415.04007690,0.01797349
4416.96888428,0.01792144
4418.89769165,0.01788885
4420.82649902,0.01782608
4422.75530640,0.01782408
4424.68411377,0.01783950
4426.61292114,0.01771276
4428.54172852,0.01774314
4430.47053589,0.01760763
4432.39934326,0.01758206
4434.32815063,0.01751930
4436.25695801,0.01756642
4438.18576538,0.01763497
4440.11457275,0.01748176
4442.04338013,0.01746273
4443.97218750,0.01737710
4445.90099487,0.01742532
4447.82980225,0.01731616
4449.75860962,0.01728380
4451.68741699,0.01727418
4453.61622437,0.01715745
4455.54503174,0.01725983
4457.47383911,0.01714903
4459.40264648,0.01714329
4461.33145386,0.01709274
4463.26026123,0.01700040
4465.18906860,0.01694713
4467.11787598,0.01687483
4469.04668335,0.01694354
4470.97549072,0.01689251
4472.90429810,0.01683969
4474.83310547,0.01678210
4476.76191284,0.01682344
4478.69072021,0.01674096
4480.61952759,0.01665827
4482.54833496,0.01671256
4484.47714233,0.01665002
4486.40594971,0.01659873
4488.33475708,0.01653931
4490.26356445,0.01657737
4492.19237183,0.01645620
4494.12117920,0.01639755
4496.04998657,0.01640083
4497.97879395,0.01632520
4499.90760132,0.01631948
4501.83640869,0.01622353
4503.76521606,0.01623364
4505.69402344,0.01614771
4507.62283081,0.01616841
4509.55163818,0.01619045
4511.48044556,0.01613759
4513.40925293,0.01617369
4515.33806030,0.01609467
4517.26686768,0.01611833
4519.19567505,0.01598778
4521.12448242,0.01593395
4523.05328979,0.01596548
4524.98209717,0.01584602
4526.91090454,0.01578688
4528.83971191,0.01579715
4530.76851929,0.01579083
4532.69732666,0.01570539
4534.62613403,0.01572163
4536.55494141,0.01565713
4538.48374878,0.01568488
4540.41255615,0.01562095
4542.34136353,0.01547830
4544.27017090,0.01549453
4546.19897827,0.01544258
4548.12778564,0.01554075
4550.05659302,0.01544296
4551.98540039,0.01540222
4553.91420776,0.01538764
4555.84301514,0.01526579
4557.77182251,0.01531924
4559.70062988,0.01524474
4561.62943726,0.01524999
4563.55824463,0.01520224
4565.48705200,0.01514467
4567.41585937,0.01511414
4569.34466675,0.01510291
4571.27347412,0.01507731
4573.20228149,0.01500926
4575.13108887,0.01505239
4577.05989624,0.01488959
4578.98870361,0.01490021
4580.91751099,0.01490831
4582.84631836,0.01482210
4584.77512573,0.01485759
4586.70393311,0.01479850
4588.63274048,0.01480226
4590.56154785,0.01477873
4592.49035522,0.01475899
4594.41916260,0.01463496
4596.34796997,0.01455718
4598.27677734,0.01451571
4600.20558472,0.01445829
4602.13439209,0.01445955
4604.06319946,0.01440356
4605.99200684,0.01445119
4607.92081421,0.01437606
4609.84962158,0.01435977
4611.77842895,0.01433223
4613.70723633,0.01431576
4615.63604370,0.01434344
4617.56485107,0.01422607
4619.49365845,0.01428722
4621.42246582,0.01422946
4623.35127319,0.01413264
4625.28008057,0.01409926
4627.20888794,0.01409660
4629.13769531,0.01403280
4631.06650269,0.01392073
4632.99531006,0.01395482
4634.92411743,0.01394962
4636.85292480,0.01403106
4638.78173218,0.01392717
4640.71053955,0.01387348
4642.63934692,0.01388117
4644.56815430,0.01375985
4646.49696167,0.01377211
4648.42576904,0.01373987
4650.35457642,0.01375784
4652.28338379,0.01367647
4654.21219116,0.01364424
4656.14099853,0.01361602
4658.06980591,0.01358570
4659.99861328,0.01361345
4661.92742065,0.01351867
4663.85622803,0.01348830
4665.78503540,0.01340876
4667.71384277,0.01346416
4669.64265015,0.01342519
4671.57145752,0.01340714
4673.50026489,0.01336277
4675.42907227,0.01324594
4677.35787964,0.01335300
4679.28668701,0.01316881
4681.21549438,0.01317083
4683.14430176,0.01320316
4685.07310913,0.01316315
4687.00191650,0.01317233
4688.93072388,0.01306364
4690.85953125,0.01315290
4692.78833862,0.01303751
4694.71714600,0.01303761
4696.64595337,0.01306367
4698.57476074,0.01301576
4700.50356812,0.01299629
4702.43237549,0.01287879
4704.36118286,0.01294710
4706.28999023,0.01289155
4708.21879761,0.01287661
4710.14760498,0.01285517
4712.07641235,0.01279292
4714.00521973,0.01272503
4715.93402710,0.01265046
4717.86283447,0.01272877
4719.79164185,0.01269090
4721.72044922,0.01265863
4723.64925659,0.01263473
4725.57806396,0.01260687
4727.50687134,0.01250762
4729.43567871,0.01251474
4731.36448608,0.01247455
4733.29329346,0.01244897
4735.22210083,0.01257952
4737.15090820,0.01231653
4739.07971558,0.01235686
4741.00852295,0.01237452
4742.93733032,0.01226414
4744.86613770,0.01237852
4746.79494507,0.01221958
4748.72375244,0.01227914
4750.65255981,0.01224589
4752.58136719,0.01218362
4754.51017456,0.01216472
4756.43898193,0.01200513
4758.36778931,0.01213019
4760.29659668,0.01209727
4762.22540405,0.01196408
4764.15421143,0.01205024
4766.08301880,0.01207205
4768.01182617,0.01194728
4769.94063354,0.01195732
4771.86944092,0.01195289
4773.79824829,0.01186202
4775.72705566,0.01182510
4777.65586304,0.01179935
4779.58467041,0.01186290
4781.51347778,0.01180239
4783.44228516,0.01177535
4785.37109253,0.01178850
4787.29989990,0.01171753
4789.22870728,0.01168205
4791.15751465,0.01171385
4793.08632202,0.01171810
4795.01512939,0.01154177
4796.94393677,0.01153043
4798.87274414,0.01156535
4800.80155151,0.01154012
4802.73035889,0.01148471
4804.65916626,0.01146629
4806.58797363,0.01151387
4808.51678101,0.01137835
4810.44558838,0.01142949
4812.37439575,0.01144201
4814.30320312,0.01132594
4816.23201050,0.01131772
4818.16081787,0.01126427
4820.08962524,0.01123189
4822.01843262,0.01122521
4823.94723999,0.01126340
4825.87604736,0.01124204
4827.80485474,0.01126280
4829.73366211,0.01120143
4831.66246948,0.01107010
4833.59127686,0.01109504
4835.52008423,0.01108858
4837.44889160,0.01103260
4839.37769897,0.01099924
4841.30650635,0.01105385
4843.23531372,0.01098330
4845.16412109,0.01090934
4847.09292847,0.01092274
4849.02173584,0.01090405
4850.95054321,0.01089027
4852.87935059,0.01080262
4854.80815796,0.01084121
4856.73696533,0.01083115
4858.66577270,0.01073981
4860.59458008,0.01075340
4862.52338745,0.01078108
4864.45219482,0.01069346
4866.38100220,0.01064746
4868.30980957,0.01070772
4870.23861694,0.01059076
4872.16742432,0.01059768
4874.09623169,0.01056993
4876.02503906,0.01052457
4877.95384644,0.01058925
4879.88265381,0.01050973
4881.81146118,0.01052870
4883.74026855,0.01046155
4885.66907593,0.01040621
4887.59788330,0.01042983
4889.52669067,0.01041627
4891.45549805,0.01039103
4893.38430542,0.01032735
4895.31311279,0.01035080
4897.24192017,0.01030569
4899.17072754,0.01026298
4901.09953491,0.01024197
4903.02834228,0.01020105
4904.95714966,0.01012648
4906.88595703,0.01011650
4908.81476440,0.01014330
4910.74357178,0.01011190
4912.67237915,0.01017759
4914.60118652,0.01010014
4916.52999390,0.01005332
4918.45880127,0.01004561
4920.38760864,0.00998513
4922.31641602,0.00997033
4924.24522339,0.00992964
4926.17403076,0.00994463
4928.10283813,0.00990439
4930.03164551,0.00995294
4931.96045288,0.00987761
4933.88926025,0.00972165
4935.81806763,0.00974485
4937.74687500,0.00976621
4939.67568237,0.00975218
4941.60448975,0.00970709
4943.53329712,0.00978793
4945.46210449,0.00974752
4947.39091187,0.00968288
4949.31971924,0.00961372
4951.24852661,0.00952651
4953.17733398,0.00962588
4955.10614136,0.00955147
4957.03494873,0.00946929
4958.96375610,0.00951394
4960.89256348,0.00963860
4962.82137085,0.00954851
4964.75017822,0.00938378
4966.67898560,0.00945655
4968.60779297,0.00940617
4970.53660034,0.00940289
4972.46540771,0.00935193
4974.39421509,0.00934729
4976.32302246,0.00938262
4978.25182983,0.00928693
4980.18063721,0.00931128
4982.10944458,0.00930990
4984.03825195,0.00927582
4985.96705933,0.00917308
4987.89586670,0.00915688
4989.82467407,0.00922041
4991.75348145,0.00922116
4993.68228882,0.00920720
4995.61109619,0.00912967
4997.53990356,0.00914008
4999.46871094,0.00916402
5001.39751831,0.00909241
5003.32632568,0.00895984
5005.25513306,0.00893291
5007.18394043,0.00898520
5009.11274780,0.00899075
5011.04155518,0.00890843
5012.97036255,0.00891522
5014.89916992,0.00902024
5016.82797729,0.00888852
5018.75678467,0.00889464
5020.68559204,0.00888579
5022.61439941,0.00878293
5024.54320679,0.00884408
5026.47201416,0.00885361
5028.40082153,0.00883430
5030.32962891,0.00871172
5032.25843628,0.00875174
5034.18724365,0.00875831
5036.11605103,0.00866457
5038.04485840,0.00866672
5039.97366577,0.00860425
5041.90247314,0.00864177
5043.83128052,0.00856590
5045.76008789,0.00850928
5047.68889526,0.00853241
5049.61770264,0.00852616
5051.54651001,0.00851457
5053.47531738,0.00850276
5055.40412476,0.00855266
5057.33293213,0.00844090
5059.26173950,0.00840284
5061.19054687,0.00843173
5063.11935425,0.00845588
5065.04816162,0.00840336
5066.97696899,0.00835920
5068.90577637,0.00846471
5070.83458374,0.00832681
5072.76339111,0.00829098
5074.69219849,0.00829837
5076.62100586,0.00822791
5078.54981323,0.00828387
5080.47862061,0.00822834
5082.40742798,0.00822166
5084.33623535,0.00821799
5086.26504272,0.00812938
5088.19385010,0.00813650
5090.12265747,0.00817392
5092.05146484,0.00811388
5093.98027222,0.00808801
5095.90907959,0.00805641
5097.83788696,0.00805675
5099.76669434,0.00812396
5101.69550171,0.00806696
5103.62430908,0.00805073
5105.55311645,0.00800847
5107.48192383,0.00801542
5109.41073120,0.00799495
5111.33953857,0.00788681
5113.26834595,0.00788684
5115.19715332,0.00784273
5117.12596069,0.00787897
5119.05476807,0.00782502
5120.98357544,0.00782628
5122.91238281,0.00789991
5124.84119019,0.00776093
5126.76999756,0.00776970
5128.69880493,0.00776919
5130.62761230,0.00766815
5132.55641968,0.00766553
5134.48522705,0.00770631
5136.41403442,0.00770536
5138.34284180,0.00767741
5140.27164917,0.00763535
5142.20045654,0.00763783
5144.12926392,0.00765336
5146.05807129,0.00755407
5147.98687866,0.00758062
5149.91568603,0.00755616
5151.84449341,0.00748892
5153.77330078,0.00753322
5155.70210815,0.00747806
5157.63091553,0.00744993
5159.55972290,0.00743654
5161.48853027,0.00744307
5163.41733765,0.00740225
5165.34614502,0.00737730
5167.27495239,0.00742554
5169.20375977,0.00737517
5171.13256714,0.00734799
5173.06137451,0.00732703
5174.99018188,0.00732975
5176.91898926,0.00734049
5178.84779663,0.00730402
5180.77660400,0.00729308
5182.70541138,0.00726659
5184.63421875,0.00720470
5186.56302612,0.00720598
5188.49183350,0.00720388
5190.42064087,0.00710628
5192.34944824,0.00716250
5194.27825562,0.00721718
5196.20706299,0.00708111
5198.13587036,0.00708109
5200.06467773,0.00714549
5201.99348511,0.00708240
5203.92229248,0.00706678
5205.85109985,0.00690832
5207.77990723,0.00681834
5209.70871460,0.00704919
5211.63752197,0.00701198
5213.56632935,0.00700460
5215.49513672,0.00701674
5217.42394409,0.00687967
5219.35275146,0.00693031
5221.28155884,0.00691698
5223.21036621,0.00692954
5225.13917358,0.00675443
5227.06798096,0.00674655
5228.99678833,0.00692719
5230.92559570,0.00680109
5232.85440308,0.00684910
5234.78321045,0.00685074
5236.71201782,0.00683738
5238.64082520,0.00676971
5240.56963257,0.00673673
5242.49843994,0.00678829
5244.42724731,0.00662472
5246.35605469,0.00671063
5248.28486206,0.00657861
5250.21366943,0.00652939
5252.14247681,0.00676227
5254.07128418,0.00659770
5256.00009155,0.00656042
5257.92889893,0.00663420
5259.85770630,0.00668450
5261.78651367,0.00664339
5263.71532104,0.00644157
5265.64412842,0.00646688
5267.57293579,0.00654951
5269.50174316,0.00651125
5271.43055054,0.00652849
5273.35935791,0.00657472
5275.28816528,0.00656579
5277.21697266,0.00658331
5279.14578003,0.00646667
5281.07458740,0.00638529
5283.00339478,0.00645860
5284.93220215,0.00637765
5286.86100952,0.00640060
5288.78981689,0.00640564
5290.71862427,0.00627729
5292.64743164,0.00634873
5294.57623901,0.00638272
5296.50504639,0.00636796
5298.43385376,0.00634558
5300.36266113,0.00627871
5302.29146851,0.00631557
5304.22027588,0.00625349
5306.14908325,0.00619489
5308.07789062,0.00621896
5310.00669800,0.00620813
5311.93550537,0.00622706
5313.86431274,0.00624798
5315.79312012,0.00626550
5317.72192749,0.00621106
5319.65073486,0.00622015
5321.57954224,0.00617377
5323.50834961,0.00613492
5325.43715698,0.00616055
5327.36596436,0.00595670
5329.29477173,0.00599837
5331.22357910,0.00606677
5333.15238647,0.00597975
5335.08119385,0.00605696
5337.01000122,0.00596248
5338.93880859,0.00579242
5340.86761597,0.00589785
5342.79642334,0.00596449
5344.72523071,0.00570384
5346.65403809,0.00581109
5348.58284546,0.00596913
5350.51165283,0.00587094
5352.44046020,0.00582153
5354.36926758,0.00565157
5356.29807495,0.00590034
5358.22688232,0.00593102
5360.15568970,0.00580361
5362.08449707,0.00588472
5364.01330444,0.00569218
5365.94211182,0.00579695
5367.87091919,0.00582233
5369.79972656,0.00579274
5371.72853394,0.00580486
5373.65734131,0.00575165
5375.58614868,0.00573469
5377.51495605,0.00557378
5379.44376343,0.00572246
5381.37257080,0.00575592
5383.30137817,0.00567412
5385.23018555,0.00562680
5387.15899292,0.00556816
5389.08780029,0.00565500
5391.01660767,0.00559376
5392.94541504,0.00554485
5394.87422241,0.00541552
5396.80302978,0.00552305
5398.73183716,0.00563967
5400.66064453,0.00552338
5402.58945190,0.00557309
5404.51825928,0.00553625
5406.44706665,0.00558888
5408.37587402,0.00548904
5410.30468140,0.00539353
5412.23348877,0.00543933
5414.16229614,0.00526364
5416.09110352,0.00535398
5418.01991089,0.00554244
5419.94871826,0.00550676
5421.87752563,0.00543289
5423.80633301,0.00544922
5425.73514038,0.00548630
5427.66394775,0.00534368
5429.59275513,0.00518197
5431.52156250,0.00531045
5433.45036987,0.00536449
5435.37917725,0.00514385
5437.30798462,0.00528841
5439.23679199,0.00540359
5441.16559936,0.00518104
5443.09440674,0.00520794
5445.02321411,0.00520694
5446.95202148,0.00513430
5448.88082886,0.00523098
5450.80963623,0.00518830
5452.73844360,0.00517360
5454.66725098,0.00521197
5456.59605835,0.00515225
5458.52486572,0.00517412
5460.45367310,0.00503972
5462.38248047,0.00501913
5464.31128784,0.00515925
5466.24009521,0.00513771
5468.16890259,0.00509211
5470.09770996,0.00504248
5472.02651733,0.00520843
5473.95532471,0.00507171
5475.88413208,0.00490271
5477.81293945,0.00513359
5479.74174683,0.00506655
5481.67055420,0.00506801
5483.59936157,0.00507393
5485.52816895,0.00499837
5487.45697632,0.00495557
5489.38578369,0.00490926
5491.31459106,0.00500139
5493.24339844,0.00485286
5495.17220581,0.00486074
5497.10101318,0.00491226
5499.02982056,0.00485721
5500.95862793,0.00494763
5502.88743530,0.00486986
5504.81624268,0.00486567
5506.74505005,0.00485661
5508.67385742,0.00483295
5510.60266479,0.00480670
5512.53147217,0.00476484
5514.46027954,0.00491070
5516.38908691,0.00485240
5518.31789429,0.00478439
5520.24670166,0.00477990
5522.17550903,0.00471850
5524.10431641,0.00481751
5526.03312378,0.00479033
5527.96193115,0.00476310
5529.89073853,0.00475659
5531.81954590,0.00466556
5533.74835327,0.00471454
5535.67716064,0.00471536
5537.60596802,0.00473086
5539.53477539,0.00469455
5541.46358276,0.00463854
5543.39239014,0.00474491
5545.32119751,0.00470277
5547.25000488,0.00463572
5549.17881226,0.00460156
5551.10761963,0.00462791
5553.03642700,0.00465970
5554.96523437,0.00456680
5556.89404175,0.00459910
5558.82284912,0.00456593
5560.75165649,0.00450936
5562.68046387,0.00457180
5564.60927124,0.00460712
5566.53807861,0.00457728
5568.46688599,0.00453932
5570.39569336,0.00454000
5572.32450073,0.00449741
5574.25330811,0.00451154
5576.18211548,0.00449966
5578.11092285,0.00447309
5580.03973022,0.00446990
5581.96853760,0.00446042
5583.89734497,0.00443895
5585.82615234,0.00443977
5587.75495972,0.00452639
5589.68376709,0.00436272
5591.61257446,0.00436231
5593.54138184,0.00448947
5595.47018921,0.00439237
5597.39899658,0.00442949
5599.32780395,0.00435989
5601.25661133,0.00435686
5603.18541870,0.00438582
5605.11422607,0.00429126
5607.04303345,0.00432567
5608.97184082,0.00430574
5610.90064819,0.00425824
5612.82945557,0.00433058
5614.75826294,0.00439294
5616.68707031,0.00424204
5618.61587769,0.00425246
5620.54468506,0.00428455
5622.47349243,0.00418253
5624.40229980,0.00428430
5626.33110718,0.00421858
5628.25991455,0.00420190
5630.18872192,0.00425357
5632.11752930,0.00418817
5634.04633667,0.00417869
5635.97514404,0.00411729
5637.90395142,0.00420581
5639.83275879,0.00421074
5641.76156616,0.00409864
5643.69037353,0.00412021
5645.61918091,0.00411251
5647.54798828,0.00411418
5649.47679565,0.00407787
5651.40560303,0.00406538
5653.33441040,0.00410959
5655.26321777,0.00405641
5657.19202515,0.00402685
5659.12083252,0.00402554
5661.04963989,0.00399826
5662.97844727,0.00400162
5664.90725464,0.00400555
5666.83606201,0.00399086
5668.76486938,0.00394579
5670.69367676,0.00399265
5672.62248413,0.00402128
5674.55129150,0.00395972
5676.48009888,0.00397206
5678.40890625,0.00394238
5680.33771362,0.00397190
5682.26652100,0.00398071
5684.19532837,0.00395585
5686.12413574,0.00397989
5688.05294311,0.00385150
5689.98175049,0.00382022
5691.91055786,0.00391048
5693.83936523,0.00394155
5695.76817261,0.00386320
5697.69697998,0.00382283
5699.62578735,0.00381211
5701.55459473,0.00375306
5703.48340210,0.00384203
5705.41220947,0.00380604
5707.34101685,0.00381368
5709.26982422,0.00386345
5711.19863159,0.00378360
5713.12743896,0.00380748
5715.05624634,0.00373635
5716.98505371,0.00374104
5718.91386108,0.00379185
5720.84266846,0.00374631
5722.77147583,0.00368793
5724.70028320,0.00366916
5726.62909058,0.00374070
5728.55789795,0.00368343
5730.48670532,0.00366497
5732.41551270,0.00366122
5734.34432007,0.00362607
5736.27312744,0.00367167
5738.20193481,0.00363522
5740.13074219,0.00360306
5742.05954956,0.00357872
5743.98835693,0.00359235
5745.91716431,0.00364608
5747.84597168,0.00356659
5749.77477905,0.00356318
5751.70358643,0.00362956
5753.63239380,0.00354092
5755.56120117,0.00355269
5757.49000854,0.00353617
5759.41881592,0.00349757
5761.34762329,0.00359873
5763.27643066,0.00351181
5765.20523804,0.00350534
5767.13404541,0.00354243
5769.06285278,0.00351009
5770.99166016,0.00353883
5772.92046753,0.00352143
5774.84927490,0.00353838
5776.77808228,0.00347533
5778.70688965,0.00347818
5780.63569702,0.00342324
5782.56450439,0.00339239
5784.49331177,0.00350191
5786.42211914,0.00340351
5788.35092651,0.00340183
5790.27973389,0.00342375
5792.20854126,0.00340457
5794.13734863,0.00338093
5796.06615601,0.00334312
5797.99496338,0.00338588
5799.92377075,0.00334307
5801.85257812,0.00340560
5803.78138550,0.00336444
5805.71019287,0.00324977
5807.63900024,0.00333058
5809.56780762,0.00333949
5811.49661499,0.00328565
5813.42542236,0.00326417
5815.35422974,0.00325687
5817.28303711,0.00323639
5819.21184448,0.00326016
5821.14065186,0.00326514
5823.06945923,0.00325085
5824.99826660,0.00326493
5826.92707397,0.00323425
5828.85588135,0.00321815
5830.78468872,0.00322590
5832.71349609,0.00326009
5834.64230347,0.00317960
5836.57111084,0.00309299
5838.49991821,0.00316611
5840.42872559,0.00317460
5842.35753296,0.00316221
5844.28634033,0.00318229
5846.21514770,0.00313081
5848.14395508,0.00310300
5850.07276245,0.00312234
5852.00156982,0.00313441
5853.93037720,0.00313723
5855.85918457,0.00307923
5857.78799194,0.00311489
5859.71679932,0.00316083
5861.64560669,0.00309797
5863.57441406,0.00309196
5865.50322144,0.00302507
5867.43202881,0.00301069
5869.36083618,0.00307085
5871.28964355,0.00307818
5873.21845093,0.00304359
5875.14725830,0.00298585
5877.07606567,0.00298676
5879.00487305,0.00296060
5880.93368042,0.00298878
5882.86248779,0.00298621
5884.79129517,0.00297215
5886.72010254,0.00298861
5888.64890991,0.00295023
5890.57771728,0.00294030
5892.50652466,0.00289908
5894.43533203,0.00298013
5896.36413940,0.00292913
5898.29294678,0.00285816
5900.22175415,0.00296847
5902.15056152,0.00287340
5904.07936890,0.00289575
5906.00817627,0.00295974
5907.93698364,0.00291225
5909.86579102,0.00293108
5911.79459839,0.00287824
5913.72340576,0.00282998
5915.65221313,0.00284412
5917.58102051,0.00286753
5919.50982788,0.00286349
5921.43863525,0.00287529
5923.36744263,0.00287324
5925.29625000,0.00281558
5927.22505737,0.00276025
5929.15386475,0.00278587
5931.08267212,0.00280908
5933.01147949,0.00277695
5934.94028686,0.00280124
5936.86909424,0.00276919
5938.79790161,0.00278855
5940.72670898,0.00280619
5942.65551636,0.00275439
5944.58432373,0.00281165
5946.51313110,0.00277034
5948.44193848,0.00269000
5950.37074585,0.00272413
5952.29955322,0.00277543
5954.22836060,0.00277723
5956.15716797,0.00270959
5958.08597534,0.00269258
5960.01478271,0.00274106
5961.94359009,0.00268048
5963.87239746,0.00263586
5965.80120483,0.00269521
5967.73001221,0.00270853
5969.65881958,0.00278317
5971.58762695,0.00272613
5973.51643433,0.00256976
5975.44524170,0.00257920
5977.37404907,0.00262107
5979.30285645,0.00264319
5981.23166382,0.00257849
5983.16047119,0.00259712
5985.08927856,0.00264839
5987.01808594,0.00258207
5988.94689331,0.00257106
5990.87570068,0.00256381
5992.80450806,0.00254466
5994.73331543,0.00261001
5996.66212280,0.00262622
5998.59093018,0.00252170
6000.51973755,0.00255270
