399.26312622,0.00051191
401.19193359,0.00039650
403.12074097,0.00058562
405.04954834,0.00095972
406.97835571,0.00077337
408.90716309,0.00009179
410.83597046,0.00061454
412.76477783,0.00102087
414.69358521,0.00059664
416.62239258,0.00087713
418.55119995,0.00066729
420.48000732,0.00088031
422.40881470,0.00103401
424.33762207,0.00088434
426.26642944,0.00083080
428.19523682,0.00041654
430.12404419,0.00103451
432.05285156,0.00135989
433.98165894,0.00100094
435.91046631,0.00083712
437.83927368,0.00075486
439.76808105,0.00099739
441.69688843,0.00094605
443.62569580,0.00069526
445.55450317,0.00082891
447.48331055,0.00086065
449.41211792,0.00066592
451.34092529,0.00089754
453.26973267,0.00092075
455.19854004,0.00076052
457.12734741,0.00080790
459.05615479,0.00078496
460.98496216,0.00071844
462.91376953,0.00050739
464.84257690,0.00087634
466.77138428,0.00080676
468.70019165,0.00005491
470.62899902,0.00029764
472.55780640,0.00066518
474.48661377,0.00078501
476.41542114,0.00076839
478.34422852,0.00037541
480.27303589,0.00046165
482.20184326,0.00029841
484.13065063,0.00011450
486.05945801,0.00052567
487.98826538,0.00022881
489.91707275,0.00016378
491.84588013,0.00029080
493.77468750,0.00041791
495.70349487,0.00066386
497.63230225,0.00019533
499.56110962,0.00031849
501.48991699,0.00012920
503.41872437,-0.00018553
505.34753174,0.00039016
507.27633911,0.00041981
509.20514648,0.00046056
511.13395386,0.00029057
513.06276123,0.00026187
514.99156860,0.00044977
516.92037598,0.00025923
518.84918335,0.00065953
520.77799072,0.00038175
522.70679810,0.00004107
524.63560547,0.00030713
526.56441284,-0.00005772
528.49322021,0.00026222
530.42202759,0.00065352
532.35083496,-0.00001548
534.27964233,0.00008194
536.20844971,0.00050793
538.13725708,0.00030971
540.06606445,0.00015629
541.99487183,0.00014931
543.92367920,0.00022328
545.85248657,0.00018802
547.78129395,0.00042307
549.71010132,0.00026803
551.63890869,0.00016071
553.56771606,0.00050043
555.49652344,-0.00004789
557.42533081,-0.00024456
559.35413818,-0.00006022
561.28294556,-0.00009247
563.21175293,0.00030193
565.14056030,0.00060599
567.06936768,0.00017190
568.99817505,0.00001254
570.92698242,0.00030944
572.85578979,0.00018369
574.78459717,0.00038843
576.71340454,0.00037094
578.64221191,0.00007343
580.57101929,0.00023893
582.49982666,0.00010055
584.42863403,-0.00015022
586.35744141,-0.00002575
588.28624878,0.00031883
590.21505615,0.00031778
592.14386353,0.00013946
594.07267090,0.00038440
596.00147827,0.00018418
597.93028564,-0.00023576
599.85909302,-0.00016373
601.78790039,0.00000819
603.71670776,0.00013387
605.64551514,0.00006816
607.57432251,0.00002688
609.50312988,0.00002432
611.43193726,-0.00029095
613.36074463,0.00032335
615.28955200,0.00013009
617.21835938,-0.00030658
619.14716675,0.00013233
621.07597412,0.00004868
623.00478149,-0.00008406
624.93358887,0.00018191
626.86239624,0.00007606
628.79120361,-0.00020843
630.72001099,0.00007409
632.64881836,0.00044355
634.57762573,0.00060588
636.50643311,0.00063491
638.43524048,0.00071108
640.36404785,0.00070895
642.29285522,0.00097628
644.22166260,0.00106888
646.15046997,0.00046828
648.07927734,0.00069244
650.00808472,0.00115899
651.93689209,0.00130525
653.86569946,0.00119607
655.79450684,0.00105994
657.72331421,0.00149419
659.65212158,0.00154099
661.58092896,0.00156687
663.50973633,0.00163887
665.43854370,0.00152539
667.36735107,0.00141020
669.29615845,0.00140375
671.22496582,0.00167936
673.15377319,0.00170773
675.08258057,0.00175371
677.01138794,0.00175879
678.94019531,0.00198396
680.86900269,0.00199685
682.79781006,0.00141140
684.72661743,0.00158521
686.65542480,0.00184161
688.58423218,0.00183215
690.51303955,0.00205374
692.44184692,0.00214612
694.37065430,0.00247007
696.29946167,0.00266570
698.22826904,0.00260198
700.15707642,0.00285236
702.08588379,0.00301909
704.01469116,0.00294097
705.94349854,0.00247714
707.87230591,0.00198108
709.80111328,0.00159581
711.72992065,0.00083221
713.65872803,0.00078079
715.58753540,0.00056943
717.51634277,0.00009918
719.44515015,0.00066208
721.37395752,0.00042824
723.30276489,0.00005719
725.23157227,0.00030752
727.16037964,0.00013807
729.08918701,-0.00012826
731.01799438,-0.00017903
732.94680176,0.00014517
734.87560913,0.00013610
736.80441650,0.00013642
738.73322388,0.00004141
740.66203125,-0.00002653
742.59083862,0.00036187
744.51964600,0.00011802
746.44845337,0.00020613
748.37726074,0.00041560
750.30606812,0.00023708
752.23487549,0.00034676
754.16368286,0.00007623
756.09249023,0.00014348
758.02129761,0.00032032
759.95010498,0.00035260
761.87891235,0.00047197
763.80771973,-0.00006224
765.73652710,-0.00001067
767.66533447,0.00036646
769.59414185,0.00012526
771.52294922,0.00011831
773.45175659,0.00009594
775.38056396,0.00013966
777.30937134,0.00016781
779.23817871,0.00021966
781.16698608,0.00056419
783.09579346,0.00016910
785.02460083,0.00007049
786.95340820,0.00053378
788.88221558,0.00041238
790.81102295,0.00034602
792.73983032,0.00016286
794.66863770,0.00010309
796.59744507,0.00033893
798.52625244,0.00046228
800.45505981,0.00030890
802.38386719,0.00025740
804.31267456,0.00050036
806.24148193,0.00021947
808.17028931,0.00021875
810.09909668,0.00041435
812.02790405,0.00030440
813.95671143,0.00027191
815.88551880,0.00007222
817.81432617,0.00028223
819.74313354,0.00029689
821.67194092,0.00008960
823.60074829,0.00028106
825.52955566,0.00026538
827.45836304,0.00029460
829.38717041,0.00025847
831.31597778,0.00039127
833.24478516,0.00060889
835.17359253,0.00043523
837.10239990,0.00074723
839.03120728,0.00088668
840.96001465,0.00054430
842.88882202,0.00051001
844.81762939,0.00033774
846.74643677,0.00030025
848.67524414,0.00030087
850.60405151,0.00007563
852.53285889,0.00034081
854.46166626,0.00045024
856.39047363,0.00021898
858.31928101,0.00045309
860.24808838,0.00027256
862.17689575,-0.00006779
864.10570313,0.00036434
866.03451050,0.00033433
867.96331787,0.00011615
869.89212524,0.00021696
871.82093262,0.00032538
873.74973999,0.00042667
875.67854736,0.00022281
877.60735474,0.00022488
879.53616211,0.00021541
881.46496948,0.00032238
883.39377686,0.00047437
885.32258423,0.00011856
887.25139160,0.00020906
889.18019897,0.00040422
891.10900635,0.00026405
893.03781372,0.00040422
894.96662109,0.00046664
896.89542847,0.00027972
898.82423584,0.00045040
900.75304321,0.00043119
902.68185059,0.00011229
904.61065796,0.00045258
906.53946533,0.00033032
908.46827271,0.00007677
910.39708008,0.00052133
912.32588745,0.00049902
914.25469482,0.00056791
916.18350220,0.00047244
918.11230957,0.00026121
920.04111694,0.00062203
921.96992432,0.00060030
923.89873169,0.00061029
925.82753906,0.00081356
927.75634644,0.00079061
929.68515381,0.00074955
931.61396118,0.00078343
933.54276855,0.00090510
935.47157593,0.00084880
937.40038330,0.00081707
939.32919067,0.00100861
941.25799805,0.00116390
943.18680542,0.00108618
945.11561279,0.00101155
947.04442017,0.00091918
948.97322754,0.00079878
950.90203491,0.00108007
952.83084229,0.00112060
954.75964966,0.00095357
956.68845703,0.00112208
958.61726440,0.00098764
960.54607178,0.00085629
962.47487915,0.00108992
964.40368652,0.00111355
966.33249390,0.00108115
968.26130127,0.00099987
970.19010864,0.00094410
972.11891602,0.00123950
974.04772339,0.00124484
975.97653076,0.00124477
977.90533813,0.00147663
979.83414551,0.00143486
981.76295288,0.00167366
983.69176025,0.00200054
985.62056763,0.00201542
987.54937500,0.00213071
989.47818237,0.00255833
991.40698975,0.00294969
993.33579712,0.00317030
995.26460449,0.00346245
997.19341187,0.00352555
999.12221924,0.00376721
1001.05102661,0.00413359
1002.97983398,0.00437405
1004.90864136,0.00478784
1006.83744873,0.00504005
1008.76625610,0.00547338
1010.69506348,0.00577257
1012.62387085,0.00601936
1014.55267822,0.00642777
1016.48148560,0.00639081
1018.41029297,0.00677720
1020.33910034,0.00727406
1022.26790771,0.00734017
1024.19671509,0.00761431
1026.12552246,0.00804491
1028.05432983,0.00832325
1029.98313721,0.00847188
1031.91194458,0.00881337
1033.84075195,0.00896300
1035.76955933,0.00904309
1037.69836670,0.00916598
1039.62717407,0.00928071
1041.55598145,0.00942873
1043.48478882,0.00895965
1045.41359619,0.00896679
1047.34240356,0.00918362
1049.27121094,0.00866743
1051.20001831,0.00865186
1053.12882568,0.00862137
1055.05763306,0.00825412
1056.98644043,0.00810619
1058.91524780,0.00794827
1060.84405518,0.00767271
1062.77286255,0.00739147
1064.70166992,0.00735074
1066.63047729,0.00700740
1068.55928467,0.00667326
1070.48809204,0.00664260
1072.41689941,0.00606497
1074.34570679,0.00560966
1076.27451416,0.00556712
1078.20332153,0.00532245
1080.13212891,0.00514910
1082.06093628,0.00493568
1083.98974365,0.00468402
1085.91855103,0.00446562
1087.84735840,0.00406431
1089.77616577,0.00406047
1091.70497314,0.00407251
1093.63378052,0.00365480
1095.56258789,0.00352823
1097.49139526,0.00355055
1099.42020264,0.00353221
1101.34901001,0.00345539
1103.27781738,0.00322294
1105.20662476,0.00305311
1107.13543213,0.00321184
1109.06423950,0.00334230
1110.99304687,0.00303388
1112.92185425,0.00303674
1114.85066162,0.00316412
1116.77946899,0.00310436
1118.70827637,0.00307880
1120.63708374,0.00299553
1122.56589111,0.00308458
1124.49469849,0.00304332
1126.42350586,0.00312206
1128.35231323,0.00333763
1130.28112061,0.00339367
1132.20992798,0.00351262
1134.13873535,0.00353687
1136.06754272,0.00358673
1137.99635010,0.00366402
1139.92515747,0.00400831
1141.85396484,0.00424629
1143.78277222,0.00420043
1145.71157959,0.00463481
1147.64038696,0.00504996
1149.56919434,0.00525442
1151.49800171,0.00546013
1153.42680908,0.00573979
1155.35561646,0.00609926
1157.28442383,0.00623991
1159.21323120,0.00647986
1161.14203857,0.00673864
1163.07084595,0.00689091
1164.99965332,0.00719252
1166.92846069,0.00752010
1168.85726807,0.00781393
1170.78607544,0.00802785
1172.71488281,0.00820857
1174.64369019,0.00861398
1176.57249756,0.00907292
1178.50130493,0.00937338
1180.43011230,0.00956630
1182.35891968,0.00980806
1184.28772705,0.01051998
1186.21653442,0.01111033
1188.14534180,0.01133244
1190.07414917,0.01190799
1192.00295654,0.01249506
1193.93176392,0.01305406
1195.86057129,0.01361705
1197.78937866,0.01415281
1199.71818604,0.01488328
1201.64699341,0.01543261
1203.57580078,0.01595087
1205.50460815,0.01654167
1207.43341553,0.01717059
1209.36222290,0.01776806
1211.29103027,0.01822257
1213.21983765,0.01873426
1215.14864502,0.01917261
1217.07745239,0.01976361
1219.00625977,0.02018498
1220.93506714,0.02025699
1222.86387451,0.02053920
1224.79268188,0.02070204
1226.72148926,0.02083917
1228.65029663,0.02099892
1230.57910400,0.02099896
1232.50791138,0.02099924
1234.43671875,0.02094372
1236.36552612,0.02104311
1238.29433350,0.02100750
1240.22314087,0.02090471
1242.15194824,0.02098309
1244.08075562,0.02085645
1246.00956299,0.02069566
1247.93837036,0.02059056
1249.86717773,0.02050111
1251.79598511,0.02041072
1253.72479248,0.02025922
1255.65359985,0.01998962
1257.58240723,0.01974373
1259.51121460,0.01950219
1261.44002197,0.01906369
1263.36882935,0.01897020
1265.29763672,0.01877655
1267.22644409,0.01838259
1269.15525146,0.01826590
1271.08405884,0.01794315
1273.01286621,0.01767041
1274.94167358,0.01732441
1276.87048096,0.01684199
1278.79928833,0.01645881
1280.72809570,0.01624394
1282.65690308,0.01614682
1284.58571045,0.01567159
1286.51451782,0.01546393
1288.44332520,0.01541075
1290.37213257,0.01500978
1292.30093994,0.01487056
1294.22974731,0.01483307
1296.15855469,0.01460511
1298.08736206,0.01465172
1300.01616943,0.01472823
1301.94497681,0.01453663
1303.87378418,0.01486802
1305.80259155,0.01500352
1307.73139893,0.01499253
1309.66020630,0.01556352
1311.58901367,0.01567683
1313.51782104,0.01595012
1315.44662842,0.01644416
1317.37543579,0.01666690
1319.30424316,0.01722850
1321.23305054,0.01770804
1323.16185791,0.01811583
1325.09066528,0.01886224
1327.01947266,0.01948801
1328.94828003,0.01969776
1330.87708740,0.02013664
1332.80589478,0.02074481
1334.73470215,0.02108171
1336.66350952,0.02119774
1338.59231689,0.02114513
1340.52112427,0.02156113
1342.44993164,0.02217389
1344.37873901,0.02235482
1346.30754639,0.02234570
1348.23635376,0.02224817
1350.16516113,0.02221231
1352.09396851,0.02209476
1354.02277588,0.02175822
1355.95158325,0.02156694
1357.88039062,0.02152636
1359.80919800,0.02124603
1361.73800537,0.02031074
1363.66681274,0.02006348
1365.59562012,0.02088379
1367.52442749,0.02053555
1369.45323486,0.02045451
1371.38204224,0.02065806
1373.31084961,0.01956965
1375.23965698,0.01958658
1377.16846436,0.02003516
1379.09727173,0.02001261
1381.02607910,0.02007451
1382.95488647,0.02000684
1384.88369385,0.01989843
1386.81250122,0.01918371
1388.74130859,0.01938795
1390.67011597,0.02080483
1392.59892334,0.02040522
1394.52773071,0.01913845
1396.45653809,0.02010058
1398.38534546,0.01982759
1400.31415283,0.01976977
1402.24296021,0.02157313
1404.17176758,0.02023258
1406.10057495,0.02049464
1408.02938232,0.02120609
1409.95818970,0.02028551
1411.88699707,0.02082962
1413.81580444,0.02021521
1415.74461182,0.02043828
1417.67341919,0.01817998
1419.60222656,0.01663495
1421.53103394,0.01927298
1423.45984131,0.01851743
1425.38864868,0.01797923
1427.31745605,0.01820254
1429.24626343,0.01682145
1431.17507080,0.01625133
1433.10387817,0.01658959
1435.03268555,0.01506730
1436.96149292,0.01291727
1438.89030029,0.01464150
1440.81910767,0.01482109
1442.74791504,0.01405868
1444.67672241,0.01469215
1446.60552979,0.01346768
1448.53433716,0.01348360
1450.46314453,0.01404375
1452.39195190,0.01447671
1454.32075928,0.01469409
1456.24956665,0.01243693
1458.17837402,0.01275101
1460.10718140,0.01673679
1462.03598877,0.01804705
1463.96479614,0.01785808
1465.89360352,0.01871121
1467.82241089,0.02104098
1469.75121826,0.02256852
1471.68002563,0.02030158
1473.60883301,0.02128616
1475.53764038,0.02411583
1477.46644775,0.02589013
1479.39525513,0.02840931
1481.32406250,0.02873494
1483.25286987,0.03056225
1485.18167725,0.03143697
1487.11048462,0.03092828
1489.03929199,0.03076978
1490.96809937,0.03110500
1492.89690674,0.03616899
1494.82571411,0.03500457
1496.75452148,0.03169237
1498.68332886,0.03578874
1500.61213623,0.03696291
1502.54094360,0.03970313
1504.46975098,0.03692547
1506.39855835,0.02721955
1508.32736572,0.03354144
1510.25617310,0.03883434
1512.18498047,0.03778034
1514.11378784,0.04078531
1516.04259521,0.03676683
1517.97140259,0.03848141
1519.90020996,0.03674126
1521.82901733,0.03219477
1523.75782471,0.03948842
1525.68663208,0.03852990
1527.61543945,0.03849547
1529.54424683,0.04233692
1531.47305420,0.04071020
1533.40186157,0.03730024
1535.33066895,0.03972970
1537.25947632,0.04225058
1539.18828369,0.03005246
1541.11709106,0.03203123
1543.04589844,0.03808669
1544.97470581,0.03669031
1546.90351318,0.04338353
1548.83232056,0.04019928
1550.76112793,0.04163132
1552.68993530,0.04114600
1554.61874268,0.03762213
1556.54755005,0.04001450
1558.47635742,0.02825987
1560.40516479,0.03119239
1562.33397217,0.04347725
1564.26277954,0.04108380
1566.19158691,0.04239565
1568.12039429,0.04144437
1570.04920166,0.03718197
1571.97800903,0.04303043
1573.90681641,0.04293062
1575.83562378,0.03420947
1577.76443115,0.03906623
1579.69323853,0.04412194
1581.62204590,0.04195471
1583.55085327,0.04273857
1585.47966064,0.04222034
1587.40846802,0.04254786
1589.33727539,0.04232534
1591.26608276,0.04226729
1593.19489014,0.04219624
1595.12369751,0.04179437
1597.05250488,0.04230814
1598.98131226,0.04209036
1600.91011963,0.04231560
1602.83892700,0.04155225
1604.76773437,0.04224315
1606.69654175,0.04164999
1608.62534912,0.04148507
1610.55415649,0.04130917
1612.48296387,0.04186409
1614.41177124,0.04218852
1616.34057861,0.03451709
1618.26938599,0.03784648
1620.19819336,0.04358492
1622.12700073,0.03865813
1624.05580811,0.03897765
1625.98461548,0.04064360
1627.91342285,0.04055050
1629.84223022,0.04041212
1631.77103760,0.04303522
1633.69984497,0.03954873
1635.62865234,0.03277126
1637.55745972,0.03844971
1639.48626709,0.04189282
1641.41507446,0.04080043
1643.34388184,0.04207753
1645.27268921,0.03743863
1647.20149658,0.03338807
1649.13030396,0.04166023
1651.05911133,0.03860864
1652.98791870,0.02528731
1654.91672607,0.03472330
1656.84553345,0.04275763
1658.77434082,0.04098896
1660.70314819,0.04226653
1662.63195557,0.03823650
1664.56076294,0.04044490
1666.48957031,0.04334500
1668.41837769,0.03784400
1670.34718506,0.03696251
1672.27599243,0.04169687
1674.20479980,0.03858027
1676.13360718,0.03710846
1678.06241455,0.04245393
1679.99122192,0.04099308
1681.92002930,0.04042864
1683.84883667,0.03281127
1685.77764404,0.03309738
1687.70645142,0.04476748
1689.63525879,0.03864391
1691.56406616,0.04296474
1693.49287354,0.04307467
1695.42168091,0.03168564
1697.35048828,0.03924978
1699.27929565,0.03398205
1701.20810303,0.03127142
1703.13691040,0.04225671
1705.06571777,0.03856093
1706.99452515,0.03918364
1708.92333252,0.04237639
1710.85213989,0.04070387
1712.78094727,0.04134521
1714.70975464,0.03835318
1716.63856201,0.03420191
1718.56736938,0.03389379
1720.49617676,0.04035415
1722.42498413,0.04155947
1724.35379150,0.03884934
1726.28259888,0.04201300
1728.21140625,0.03867164
1730.14021362,0.03919384
1732.06902100,0.03782400
1733.99782837,0.02917300
1735.92663574,0.03656326
1737.85544312,0.03986821
1739.78425049,0.03558857
1741.71305786,0.03870503
1743.64186523,0.03900873
1745.57067261,0.03922999
1747.49947998,0.03942967
1749.42828735,0.03779724
1751.35709473,0.03627048
1753.28590210,0.04009467
1755.21470947,0.04186808
1757.14351685,0.03822929
1759.07232422,0.04205817
1761.00113159,0.03928037
1762.92993896,0.03817009
1764.85874634,0.04361098
1766.78755371,0.03911192
1768.71636108,0.03969203
1770.64516846,0.03919317
1772.57397583,0.03537615
1774.50278320,0.03958827
1776.43159058,0.04156323
1778.36039795,0.04098183
1780.28920532,0.04056065
1782.21801270,0.04092068
1784.14682007,0.04065111
1786.07562744,0.03986261
1788.00443481,0.04219234
1789.93324219,0.04088715
1791.86204956,0.03675456
1793.79085693,0.03862307
1795.71966431,0.04144946
1797.64847168,0.04084118
1799.57727905,0.04025620
1801.50608643,0.03951553
1803.43489380,0.04082053
1805.36370117,0.04172266
1807.29250854,0.04123763
1809.22131592,0.04116025
1811.15012329,0.04015194
1813.07893066,0.04143096
1815.00773804,0.04134986
1816.93654541,0.04110679
1818.86535278,0.04132529
1820.79416016,0.04112531
1822.72296753,0.04177228
1824.65177490,0.03912422
1826.58058228,0.04067767
1828.50938965,0.04047259
1830.43819702,0.03811286
1832.36700439,0.04141083
1834.29581177,0.04107304
1836.22461914,0.04105768
1838.15342651,0.04091465
1840.08223389,0.04127806
1842.01104126,0.04097679
1843.93984863,0.03655709
1845.86865601,0.03903370
1847.79746338,0.04083117
1849.72627075,0.04006681
1851.65507812,0.04125950
1853.58388550,0.04051439
1855.51269287,0.04091158
1857.44150024,0.04055699
1859.37030762,0.04036189
1861.29911499,0.04060556
1863.22792236,0.04019167
1865.15672974,0.04055208
1867.08553711,0.03904844
1869.01434448,0.03759027
1870.94315186,0.03912655
1872.87195923,0.04060965
1874.80076660,0.03989888
1876.72957397,0.03999509
1878.65838135,0.04007443
1880.58718872,0.03967378
1882.51599609,0.03996043
1884.44480347,0.03951702
1886.37361084,0.03991541
1888.30241821,0.03898916
1890.23122559,0.03829930
1892.16003296,0.03982617
1894.08884033,0.03911211
1896.01764771,0.03900898
1897.94645508,0.03949014
1899.87526245,0.03895325
1901.80406982,0.03925642
1903.73287720,0.03903070
1905.66168457,0.03909232
1907.59049194,0.03865798
1909.51929932,0.03831183
1911.44810669,0.03870910
1913.37691406,0.03867514
1915.30572144,0.03901714
1917.23452881,0.03735283
1919.16333618,0.03743631
1921.09214355,0.03888758
1923.02095093,0.03758281
1924.94975830,0.03834388
1926.87856567,0.03860133
1928.80737305,0.03828912
1930.73618042,0.03888632
1932.66498779,0.03815431
1934.59379517,0.03847488
1936.52260254,0.03819217
1938.45140991,0.03825666
1940.38021729,0.03827463
1942.30902466,0.03711679
1944.23783203,0.03768691
1946.16663940,0.03806709
1948.09544678,0.03804882
1950.02425415,0.03812501
1951.95306152,0.03806930
1953.88186890,0.03802894
1955.81067627,0.03790786
1957.73948364,0.03812341
1959.66829102,0.03788489
1961.59709839,0.03783312
1963.52590576,0.03790396
1965.45471313,0.03765252
1967.38352051,0.03737420
1969.31232788,0.03749715
1971.24113525,0.03784319
1973.16994263,0.03757019
1975.09875000,0.03743842
1977.02755737,0.03752888
1978.95636475,0.03758239
1980.88517212,0.03752691
1982.81397949,0.03758462
1984.74278687,0.03747535
1986.67159424,0.03706134
1988.60040161,0.03720767
1990.52920898,0.03686644
1992.45801636,0.03639425
1994.38682373,0.03680737
1996.31563110,0.03703860
1998.24443848,0.03675015
2000.17324585,0.03665064
2002.10205322,0.03672432
2004.03086060,0.03662953
2005.95966797,0.03653440
2007.88847534,0.03638556
2009.81728271,0.03632961
2011.74609009,0.03616105
2013.67489746,0.03614322
2015.60370483,0.03595883
2017.53251221,0.03556514
2019.46131958,0.03586107
2021.39012695,0.03572369
2023.31893433,0.03569541
2025.24774170,0.03590978
2027.17654907,0.03553086
2029.10535645,0.03546499
2031.03416382,0.03542393
2032.96297119,0.03530677
2034.89177856,0.03527297
2036.82058594,0.03532035
2038.74939331,0.03515458
2040.67820068,0.03480972
2042.60700806,0.03493791
2044.53581543,0.03501979
2046.46462280,0.03491901
2048.39343018,0.03483593
2050.32223755,0.03461669
2052.25104492,0.03444404
2054.17985229,0.03453539
2056.10865967,0.03448021
2058.03746704,0.03420715
2059.96627441,0.03415768
2061.89508179,0.03421863
2063.82388916,0.03403244
2065.75269653,0.03379223
2067.68150391,0.03403721
2069.61031128,0.03403429
2071.53911865,0.03383765
2073.46792603,0.03383768
2075.39673340,0.03366196
2077.32554077,0.03367310
2079.25434814,0.03354471
2081.18315552,0.03340368
2083.11196289,0.03338157
2085.04077026,0.03339429
2086.96957764,0.03333730
2088.89838501,0.03307575
2090.82719238,0.03318618
2092.75599976,0.03310989
2094.68480713,0.03296545
2096.61361450,0.03301843
2098.54242187,0.03298342
2100.47122925,0.03287238
2102.40003662,0.03259554
2104.32884399,0.03271084
2106.25765137,0.03279172
2108.18645874,0.03258958
2110.11526611,0.03253394
2112.04407349,0.03249518
2113.97288086,0.03230710
2115.90168823,0.03223245
2117.83049561,0.03236680
2119.75930298,0.03228293
2121.68811035,0.03236092
2123.61691772,0.03227112
2125.54572510,0.03201884
2127.47453247,0.03209164
2129.40333984,0.03197251
2131.33214722,0.03193941
2133.26095459,0.03197595
2135.18976196,0.03199184
2137.11856934,0.03199553
2139.04737671,0.03189952
2140.97618408,0.03191189
2142.90499146,0.03175901
2144.83379883,0.03160998
2146.76260620,0.03162341
2148.69141357,0.03163242
2150.62022095,0.03155252
2152.54902832,0.03149240
2154.47783569,0.03152382
2156.40664307,0.03142028
2158.33545044,0.03140520
2160.26425781,0.03145083
2162.19306519,0.03130991
2164.12187256,0.03118278
2166.05067993,0.03114299
2167.97948730,0.03120433
2169.90829468,0.03122175
2171.83710205,0.03099959
2173.76590942,0.03092102
2175.69471680,0.03100527
2177.62352417,0.03102182
2179.55233154,0.03103197
2181.48113892,0.03089389
2183.40994629,0.03093401
2185.33875366,0.03095877
2187.26756104,0.03066448
2189.19636841,0.03063816
2191.12517578,0.03078202
2193.05398315,0.03074231
2194.98279053,0.03063641
2196.91159790,0.03075037
2198.84040527,0.03063602
2200.76921265,0.03031605
2202.69802002,0.03052536
2204.62682739,0.03050463
2206.55563477,0.03034237
2208.48444214,0.03047881
2210.41324951,0.03031144
2212.34205688,0.03025195
2214.27086426,0.03027295
2216.19967163,0.03018169
2218.12847900,0.03022914
2220.05728638,0.03013236
2221.98609375,0.03006520
2223.91490112,0.03014739
2225.84370850,0.03012326
2227.77251587,0.02992514
2229.70132324,0.02977340
2231.63013062,0.02984606
2233.55893799,0.02985801
2235.48774536,0.02976085
2237.41655273,0.02966865
2239.34536011,0.02971727
2241.27416748,0.02968024
2243.20297485,0.02938864
2245.13178223,0.02944093
2247.06058960,0.02947074
2248.98939697,0.02927996
2250.91820435,0.02938776
2252.84701172,0.02937097
2254.77581909,0.02923752
2256.70462646,0.02919691
2258.63343384,0.02904167
2260.56224121,0.02892481
2262.49104858,0.02892622
2264.41985596,0.02894975
2266.34866333,0.02892505
2268.27747070,0.02894926
2270.20627808,0.02894692
2272.13508545,0.02881430
2274.06389282,0.02877788
2275.99270020,0.02871268
2277.92150757,0.02868809
2279.85031494,0.02870247
2281.77912231,0.02856198
2283.70792969,0.02861923
2285.63673706,0.02856100
2287.56554443,0.02842606
2289.49435181,0.02844028
2291.42315918,0.02827260
2293.35196655,0.02822614
2295.28077393,0.02810466
2297.20958130,0.02802493
2299.13838867,0.02804184
2301.06719604,0.02786037
2302.99600342,0.02778987
2304.92481079,0.02754788
2306.85361816,0.02730921
2308.78242554,0.02714154
2310.71123291,0.02691427
2312.64004028,0.02679038
2314.56884766,0.02650620
2316.49765503,0.02605997
2318.42646240,0.02567634
2320.35526978,0.02548946
2322.28407715,0.02504377
2324.21288452,0.02463333
2326.14169189,0.02439269
2328.07049927,0.02404128
2329.99930664,0.02390045
2331.92811401,0.02363400
2333.85692139,0.02365002
2335.78572876,0.02362574
2337.71453613,0.02337217
2339.64334351,0.02343984
2341.57215088,0.02349829
2343.50095825,0.02389558
2345.42976562,0.02432543
2347.35857300,0.02532799
2349.28738037,0.02612422
2351.21618774,0.02501076
2353.14499512,0.02386023
2355.07380249,0.02303498
2357.00260986,0.02216600
2358.93141724,0.02181249
2360.86022461,0.02151807
2362.78903198,0.02150813
2364.71783936,0.02171823
2366.64664673,0.02201209
2368.57545410,0.02254813
2370.50426147,0.02302899
2372.43306885,0.02360836
2374.36187622,0.02436930
2376.29068359,0.02500867
2378.21949097,0.02554568
2380.14829834,0.02594334
2382.07710571,0.02627762
2384.00591309,0.02656207
2385.93472046,0.02654915
2387.86352783,0.02648517
2389.79233521,0.02644226
2391.72114258,0.02638180
2393.64994995,0.02634043
2395.57875732,0.02632052
2397.50756470,0.02632286
2399.43637207,0.02619572
2401.36517944,0.02612898
2403.29398682,0.02608826
2405.22279419,0.02612338
2407.15160156,0.02609877
2409.08040894,0.02589247
2411.00921631,0.02597738
2412.93802368,0.02599366
2414.86683105,0.02594674
2416.79563843,0.02594103
2418.72444580,0.02574913
2420.65325317,0.02582432
2422.58206055,0.02586408
2424.51086792,0.02573713
2426.43967529,0.02570967
2428.36848267,0.02564337
2430.29729004,0.02564396
2432.22609741,0.02559196
2434.15490479,0.02556541
2436.08371216,0.02553959
2438.01251953,0.02545588
2439.94132690,0.02552006
2441.87013428,0.02543906
2443.79894165,0.02539299
2445.72774902,0.02544074
2447.65655640,0.02536248
2449.58536377,0.02533475
2451.51417114,0.02529979
2453.44297852,0.02524513
2455.37178589,0.02518880
2457.30059326,0.02523345
2459.22940063,0.02511465
2461.15820801,0.02493063
2463.08701538,0.02496938
2465.01582275,0.02492962
2466.94463013,0.02497477
2468.87343750,0.02488017
2470.80224487,0.02481900
2472.73105225,0.02483833
2474.65985962,0.02473326
2476.58866699,0.02486369
2478.51747437,0.02473043
2480.44628174,0.02464793
2482.37508911,0.02470088
2484.30389648,0.02457778
2486.23270386,0.02457302
2488.16151123,0.02447967
2490.09031860,0.02447924
2492.01912598,0.02448525
2493.94793335,0.02448610
2495.87674072,0.02446150
2497.80554810,0.02432642
2499.73435547,0.02427493
2501.66316284,0.02419405
2503.59197021,0.02426932
2505.52077759,0.02425334
2507.44958496,0.02401448
2509.37839233,0.02400745
2511.30719971,0.02419036
2513.23600708,0.02406881
2515.16481445,0.02397262
2517.09362183,0.02407713
2519.02242920,0.02388993
2520.95123657,0.02388023
2522.88004395,0.02384962
2524.80885132,0.02379085
2526.73765869,0.02388420
2528.66646606,0.02372483
2530.59527344,0.02371070
2532.52408081,0.02370232
2534.45288818,0.02368425
2536.38169556,0.02366499
2538.31050293,0.02357009
2540.23931030,0.02360663
2542.16811768,0.02355794
2544.09692505,0.02342551
2546.02573242,0.02336597
2547.95453979,0.02345907
2549.88334717,0.02337374
2551.81215454,0.02332638
2553.74096191,0.02339529
2555.66976929,0.02329550
2557.59857666,0.02322776
2559.52738403,0.02306708
2561.45619141,0.02311676
2563.38499878,0.02317679
2565.31380615,0.02305532
2567.24261353,0.02310969
2569.17142090,0.02309134
2571.10022827,0.02303063
2573.02903564,0.02300007
2574.95784302,0.02294167
2576.88665039,0.02292322
2578.81545776,0.02293247
2580.74426514,0.02275516
2582.67307251,0.02269294
2584.60187988,0.02291684
2586.53068726,0.02289774
2588.45949463,0.02276541
2590.38830200,0.02270469
2592.31710937,0.02261071
2594.24591675,0.02255090
2596.17472412,0.02263229
2598.10353149,0.02258362
2600.03233887,0.02245788
2601.96114624,0.02246908
2603.88995361,0.02242546
2605.81876099,0.02249648
2607.74756836,0.02241833
2609.67637573,0.02230662
2611.60518311,0.02231755
2613.53399048,0.02229142
2615.46279785,0.02234777
2617.39160522,0.02227334
2619.32041260,0.02221145
2621.24921997,0.02208126
2623.17802734,0.02206848
2625.10683472,0.02205616
2627.03564209,0.02203136
2628.96444946,0.02218200
2630.89325684,0.02195786
2632.82206421,0.02203726
2634.75087158,0.02204280
2636.67967895,0.02180093
2638.60848633,0.02194441
2640.53729370,0.02181548
2642.46610107,0.02168902
2644.39490845,0.02169576
2646.32371582,0.02175344
2648.25252319,0.02171747
2650.18133057,0.02163109
2652.11013794,0.02169362
2654.03894531,0.02159155
2655.96775269,0.02155935
2657.89656006,0.02142767
2659.82536743,0.02146766
2661.75417480,0.02155534
2663.68298218,0.02139046
2665.61178955,0.02143657
2667.54059692,0.02130593
2669.46940430,0.02124122
2671.39821167,0.02125900
2673.32701904,0.02119309
2675.25582642,0.02132338
2677.18463379,0.02127552
2679.11344116,0.02113660
2681.04224854,0.02108946
2682.97105591,0.02111800
2684.89986328,0.02109793
2686.82867065,0.02096336
2688.75747803,0.02090989
2690.68628540,0.02086724
2692.61509277,0.02086525
2694.54390015,0.02086659
2696.47270752,0.02080448
2698.40151489,0.02083004
2700.33032227,0.02078768
2702.25912964,0.02064260
2704.18793701,0.02069104
2706.11674438,0.02075301
2708.04555176,0.02066357
2709.97435913,0.02061103
2711.90316650,0.02058449
2713.83197388,0.02054181
2715.76078125,0.02051540
2717.68958862,0.02058901
2719.61839600,0.02054996
2721.54720337,0.02028873
2723.47601074,0.02021964
2725.40481812,0.02032159
2727.33362549,0.02029944
2729.26243286,0.02021271
2731.19124023,0.02023237
2733.12004761,0.02029369
2735.04885498,0.02017328
2736.97766235,0.02000684
2738.90646973,0.02002979
2740.83527710,0.02006112
2742.76408447,0.02001780
2744.69289185,0.01999876
2746.62169922,0.01989087
2748.55050659,0.01984051
2750.47931396,0.01993571
2752.40812134,0.01988475
2754.33692871,0.01975667
2756.26573608,0.01976776
2758.19454346,0.01982537
2760.12335083,0.01974703
2762.05215820,0.01963744
2763.98096558,0.01959161
2765.90977295,0.01953856
2767.83858032,0.01959246
2769.76738770,0.01951498
2771.69619507,0.01934158
2773.62500244,0.01941583
2775.55380981,0.01945470
2777.48261719,0.01939231
2779.41142456,0.01928704
2781.34023193,0.01926757
2783.26903931,0.01925543
2785.19784668,0.01913914
2787.12665405,0.01920931
2789.05546143,0.01908896
2790.98426880,0.01904883
2792.91307617,0.01915541
2794.84188354,0.01895956
2796.77069092,0.01897987
2798.69949829,0.01901129
2800.62830566,0.01893168
2802.55711304,0.01879413
2804.48592041,0.01870975
2806.41472778,0.01885581
2808.34353516,0.01874829
2810.27234253,0.01869585
2812.20114990,0.01874929
2814.12995728,0.01869788
2816.05876465,0.01859314
2817.98757202,0.01851849
2819.91637939,0.01854557
2821.84518677,0.01847152
2823.77399414,0.01858327
2825.70280151,0.01853265
2827.63160889,0.01839366
2829.56041626,0.01843166
2831.48922363,0.01823271
2833.41803101,0.01819221
2835.34683838,0.01817735
2837.27564575,0.01810768
2839.20445312,0.01819696
2841.13326050,0.01819295
2843.06206787,0.01799005
2844.99087524,0.01778796
2846.91968262,0.01778288
2848.84848999,0.01769150
2850.77729736,0.01758021
2852.70610474,0.01752213
2854.63491211,0.01757153
2856.56371948,0.01758881
2858.49252686,0.01741925
2860.42133423,0.01748800
2862.35014160,0.01750948
2864.27894897,0.01737554
2866.20775635,0.01735207
2868.13656372,0.01745795
2870.06537109,0.01743040
2871.99417847,0.01723660
2873.92298584,0.01734020
2875.85179321,0.01738616
2877.78060059,0.01730663
2879.70940796,0.01726538
2881.63821533,0.01722387
2883.56702270,0.01719406
2885.49583008,0.01700353
2887.42463745,0.01704452
2889.35344482,0.01709565
2891.28225220,0.01697842
2893.21105957,0.01700750
2895.13986694,0.01690904
2897.06867432,0.01688162
2898.99748169,0.01697685
2900.92628906,0.01684424
2902.85509644,0.01670588
2904.78390381,0.01670313
2906.71271118,0.01668004
2908.64151855,0.01658759
2910.57032593,0.01653422
2912.49913330,0.01652169
2914.42794067,0.01629631
2916.35674805,0.01620202
2918.28555542,0.01633620
2920.21436279,0.01620141
2922.14317017,0.01617685
2924.07197754,0.01622061
2926.00078491,0.01614517
2927.92959229,0.01617290
2929.85839966,0.01607786
2931.78720703,0.01609867
2933.71601440,0.01614665
2935.64482178,0.01610402
2937.57362915,0.01624846
2939.50243652,0.01622788
2941.43124390,0.01601774
2943.36005127,0.01591471
2945.28885864,0.01595204
2947.21766602,0.01599997
2949.14647339,0.01592602
2951.07528076,0.01596807
2953.00408813,0.01606232
2954.93289551,0.01587453
2956.86170288,0.01572571
2958.79051025,0.01576068
2960.71931763,0.01575249
2962.64812500,0.01574074
2964.57693237,0.01565406
2966.50573975,0.01555060
2968.43454712,0.01559740
2970.36335449,0.01569440
2972.29216187,0.01567333
2974.22096924,0.01565500
2976.14977661,0.01566936
2978.07858398,0.01565353
2980.00739136,0.01571557
2981.93619873,0.01559885
2983.86500610,0.01554451
2985.79381348,0.01565556
2987.72262085,0.01558817
2989.65142822,0.01553345
2991.58023560,0.01549190
2993.50904297,0.01556031
2995.43785034,0.01551881
2997.36665771,0.01536666
2999.29546509,0.01539511
3001.22427246,0.01534154
3003.15307983,0.01536631
3005.08188721,0.01536940
3007.01069458,0.01532975
3008.93950195,0.01529330
3010.86830933,0.01518804
3012.79711670,0.01528434
3014.72592407,0.01521510
3016.65473145,0.01504614
3018.58353882,0.01513826
3020.51234619,0.01515152
3022.44115356,0.01499835
3024.36996094,0.01497384
3026.29876831,0.01502623
3028.22757568,0.01501791
3030.15638306,0.01498529
3032.08519043,0.01482058
3034.01399780,0.01480543
3035.94280518,0.01484529
3037.87161255,0.01476069
3039.80041992,0.01488281
3041.72922729,0.01489826
3043.65803467,0.01473109
3045.58684204,0.01462028
3047.51564941,0.01457246
3049.44445679,0.01453087
3051.37326416,0.01450988
3053.30207153,0.01462005
3055.23087891,0.01450348
3057.15968628,0.01440623
3059.08849365,0.01453958
3061.01730103,0.01437187
3062.94610840,0.01434193
3064.87491577,0.01447347
3066.80372314,0.01434927
3068.73253052,0.01438369
3070.66133789,0.01434481
3072.59014526,0.01424536
3074.51895264,0.01435101
3076.44776001,0.01425593
3078.37656738,0.01409393
3080.30537476,0.01402121
3082.23418213,0.01402488
3084.16298950,0.01406589
3086.09179687,0.01399650
3088.02060425,0.01398409
3089.94941162,0.01406072
3091.87821899,0.01402401
3093.80702637,0.01390644
3095.73583374,0.01391944
3097.66464111,0.01387089
3099.59344849,0.01381499
3101.52225586,0.01379164
3103.45106323,0.01367497
3105.37987061,0.01372966
3107.30867798,0.01373855
3109.23748535,0.01372533
3111.16629272,0.01368672
3113.09510010,0.01361485
3115.02390747,0.01361974
3116.95271484,0.01343304
3118.88152222,0.01344551
3120.81032959,0.01346472
3122.73913696,0.01336280
3124.66794434,0.01338371
3126.59675171,0.01325408
3128.52555908,0.01322788
3130.45436645,0.01325031
3132.38317383,0.01322937
3134.31198120,0.01324477
3136.24078857,0.01316004
3138.16959595,0.01304311
3140.09840332,0.01301633
3142.02721069,0.01301653
3143.95601807,0.01298318
3145.88482544,0.01301586
3147.81363281,0.01289965
3149.74244019,0.01284334
3151.67124756,0.01284343
3153.60005493,0.01269973
3155.52886230,0.01275984
3157.45766968,0.01273826
3159.38647705,0.01258408
3161.31528442,0.01260554
3163.24409180,0.01273503
3165.17289917,0.01262192
3167.10170654,0.01240967
3169.03051392,0.01249708
3170.95932129,0.01245801
3172.88812866,0.01237332
3174.81693604,0.01236778
3176.74574341,0.01231695
3178.67455078,0.01233105
3180.60335815,0.01223793
3182.53216553,0.01222664
3184.46097290,0.01227496
3186.38978027,0.01218074
3188.31858765,0.01211188
3190.24739502,0.01212912
3192.17620239,0.01219220
3194.10500977,0.01215898
3196.03381714,0.01197217
3197.96262451,0.01190693
3199.89143188,0.01201002
3201.82023926,0.01197410
3203.74904663,0.01187870
3205.67785400,0.01180006
3207.60666138,0.01175300
3209.53546875,0.01184763
3211.46427612,0.01181387
3213.39308350,0.01172289
3215.32189087,0.01177863
3217.25069824,0.01171611
3219.17950562,0.01164720
3221.10831299,0.01167215
3223.03712036,0.01158858
3224.96592773,0.01157181
3226.89473511,0.01157005
3228.82354248,0.01156708
3230.75234985,0.01159257
3232.68115723,0.01146973
3234.60996460,0.01148423
3236.53877197,0.01149083
3238.46757935,0.01140058
3240.39638672,0.01151737
3242.32519409,0.01151408
3244.25400146,0.01133406
3246.18280884,0.01137336
3248.11161621,0.01142648
3250.04042358,0.01134762
3251.96923096,0.01140665
3253.89803833,0.01132050
3255.82684570,0.01126068
3257.75565308,0.01133332
3259.68446045,0.01119724
3261.61326782,0.01117940
3263.54207520,0.01121898
3265.47088257,0.01126424
3267.39968994,0.01122062
3269.32849731,0.01111889
3271.25730469,0.01117447
3273.18611206,0.01118578
3275.11491943,0.01116959
3277.04372681,0.01102516
3278.97253418,0.01111070
3280.90134155,0.01120670
3282.83014893,0.01103718
3284.75895630,0.01103499
3286.68776367,0.01096314
3288.61657104,0.01103154
3290.54537842,0.01110155
3292.47418579,0.01098619
3294.40299316,0.01096632
3296.33180054,0.01099494
3298.26060791,0.01097648
3300.18941528,0.01085425
3302.11822266,0.01098238
3304.04703003,0.01101436
3305.97583740,0.01079833
3307.90464478,0.01076693
3309.83345215,0.01087389
3311.76225952,0.01091240
3313.69106689,0.01080337
3315.61987427,0.01085728
3317.54868164,0.01081263
3319.47748901,0.01072012
3321.40629639,0.01080855
3323.33510376,0.01079046
3325.26391113,0.01074053
3327.19271851,0.01075034
3329.12152588,0.01085920
3331.05033325,0.01072114
3332.97914062,0.01058864
3334.90794800,0.01063456
3336.83675537,0.01054340
3338.76556274,0.01063673
3340.69437012,0.01068295
3342.62317749,0.01062788
3344.55198486,0.01054980
3346.48079224,0.01052411
3348.40959961,0.01060039
3350.33840698,0.01041473
3352.26721436,0.01041573
3354.19602173,0.01046446
3356.12482910,0.01038181
3358.05363647,0.01048932
3359.98244385,0.01040885
3361.91125122,0.01033587
3363.84005859,0.01034580
3365.76886597,0.01031240
3367.69767334,0.01035701
3369.62648071,0.01034054
3371.55528809,0.01038702
3373.48409546,0.01034307
3375.41290283,0.01026849
3377.34171020,0.01024426
3379.27051758,0.01009395
3381.19932495,0.01016293
3383.12813232,0.01020823
3385.05693970,0.01012726
3386.98574707,0.01021665
3388.91455444,0.01020560
3390.84336182,0.01007644
3392.77216919,0.01002014
3394.70097656,0.01002651
3396.62978394,0.01004155
3398.55859131,0.01003938
3400.48739868,0.00994788
3402.41620605,0.00992703
3404.34501343,0.00992799
3406.27382080,0.00986618
3408.20262817,0.00994077
3410.13143555,0.00992782
3412.06024292,0.00989778
3413.98905029,0.00988101
3415.91785767,0.00988247
3417.84666504,0.00986783
3419.77547241,0.00973756
3421.70427979,0.00985394
3423.63308716,0.00986096
3425.56189453,0.00976655
3427.49070190,0.00975366
3429.41950928,0.00966632
3431.34831665,0.00961688
3433.27712402,0.00958088
3435.20593140,0.00963169
3437.13473877,0.00952044
3439.06354614,0.00960798
3440.99235352,0.00970480
3442.92116089,0.00952300
3444.84996826,0.00957157
3446.77877563,0.00938305
3448.70758301,0.00945602
3450.63639038,0.00962856
3452.56519775,0.00940368
3454.49400513,0.00952937
3456.42281250,0.00950571
3458.35161987,0.00941026
3460.28042725,0.00943748
3462.20923462,0.00930524
3464.13804199,0.00938452
3466.06684937,0.00937912
3467.99565674,0.00924123
3469.92446411,0.00926804
3471.85327148,0.00930432
3473.78207886,0.00929675
3475.71088623,0.00929135
3477.63969360,0.00936054
3479.56850098,0.00935614
3481.49730835,0.00919207
3483.42611572,0.00922620
3485.35492310,0.00933074
3487.28373047,0.00922543
3489.21253784,0.00924814
3491.14134521,0.00929993
3493.07015259,0.00922446
3494.99895996,0.00928022
3496.92776733,0.00922498
3498.85657471,0.00918571
3500.78538208,0.00921638
3502.71418945,0.00897154
3504.64299683,0.00909552
3506.57180420,0.00932878
3508.50061157,0.00913418
3510.42941895,0.00908685
3512.35822632,0.00911264
3514.28703369,0.00915527
3516.21584106,0.00911358
3518.14464844,0.00904445
3520.07345581,0.00917253
3522.00226318,0.00907940
3523.93107056,0.00889352
3525.85987793,0.00891957
3527.78868530,0.00903130
3529.71749268,0.00901023
3531.64630005,0.00907398
3533.57510742,0.00916479
3535.50391479,0.00899205
3537.43272217,0.00903297
3539.36152954,0.00911069
3541.29033691,0.00901146
3543.21914429,0.00904527
3545.14795166,0.00881374
3547.07675903,0.00859412
3549.00556641,0.00901193
3550.93437378,0.00901327
3552.86318115,0.00870108
3554.79198853,0.00900009
3556.72079590,0.00900774
3558.64960327,0.00891433
3560.57841064,0.00901459
3562.50721802,0.00897998
3564.43602539,0.00886656
3566.36483276,0.00833090
3568.29364014,0.00822244
3570.22244751,0.00883033
3572.15125488,0.00904761
3574.08006226,0.00892126
3576.00886963,0.00896043
3577.93767700,0.00893819
3579.86648437,0.00895550
3581.79529175,0.00891536
3583.72409912,0.00884390
3585.65290649,0.00869115
3587.58171387,0.00794119
3589.51052124,0.00827069
3591.43932861,0.00901409
3593.36813599,0.00855039
3595.29694336,0.00854043
3597.22575073,0.00877526
3599.15455811,0.00874160
3601.08336548,0.00874180
3603.01217285,0.00878829
3604.94098022,0.00895527
3606.86978760,0.00863730
3608.79859497,0.00807490
3610.72740234,0.00831578
3612.65620972,0.00843233
3614.58501709,0.00823032
3616.51382446,0.00886238
3618.44263184,0.00818591
3620.37143921,0.00792342
3622.30024658,0.00887826
3624.22905395,0.00874957
3626.15786133,0.00899654
3628.08666870,0.00753369
3630.01547607,0.00700308
3631.94428345,0.00873845
3633.87309082,0.00857785
3635.80189819,0.00868344
3637.73070557,0.00886629
3639.65951294,0.00873073
3641.58832031,0.00865049
3643.51712769,0.00866782
3645.44593506,0.00870636
3647.37474243,0.00777665
3649.30354980,0.00729058
3651.23235718,0.00736489
3653.16116455,0.00872811
3655.08997192,0.00859272
3657.01877930,0.00774430
3658.94758667,0.00888833
3660.87639404,0.00861616
3662.80520142,0.00872098
3664.73400879,0.00864152
3666.66281616,0.00859986
3668.59162354,0.00828405
3670.52043091,0.00679953
3672.44923828,0.00841729
3674.37804565,0.00794005
3676.30685303,0.00655669
3678.23566040,0.00819880
3680.16446777,0.00837202
3682.09327515,0.00844929
3684.02208252,0.00865848
3685.95088989,0.00841897
3687.87969727,0.00760526
3689.80850464,0.00711436
3691.73731201,0.00802330
3693.66611938,0.00828624
3695.59492676,0.00851597
3697.52373413,0.00841213
3699.45254150,0.00832900
3701.38134888,0.00803977
3703.31015625,0.00784154
3705.23896362,0.00861423
3707.16777100,0.00805356
3709.09657837,0.00790605
3711.02538574,0.00750413
3712.95419312,0.00708816
3714.88300049,0.00816541
3716.81180786,0.00817905
3718.74061523,0.00829835
3720.66942261,0.00792132
3722.59822998,0.00779939
3724.52703735,0.00801410
3726.45584473,0.00742654
3728.38465210,0.00814594
3730.31345947,0.00791913
3732.24226685,0.00734441
3734.17107422,0.00720757
3736.09988159,0.00688044
3738.02868896,0.00722100
3739.95749634,0.00772926
3741.88630371,0.00813909
3743.81511108,0.00628964
3745.74391846,0.00602082
3747.67272583,0.00774583
3749.60153320,0.00664773
3751.53034058,0.00625547
3753.45914795,0.00707818
3755.38795532,0.00757712
3757.31676270,0.00774311
3759.24557007,0.00719436
3761.17437744,0.00762716
3763.10318481,0.00797133
3765.03199219,0.00751831
3766.96079956,0.00764932
3768.88960693,0.00750417
3770.81841431,0.00722790
3772.74722168,0.00777094
3774.67602905,0.00789207
3776.60483643,0.00777435
3778.53364380,0.00751698
3780.46245117,0.00729748
3782.39125854,0.00771774
3784.32006592,0.00763601
3786.24887329,0.00753626
3788.17768066,0.00764662
3790.10648804,0.00760285
3792.03529541,0.00759771
3793.96410278,0.00768315
3795.89291016,0.00715452
3797.82171753,0.00720131
3799.75052490,0.00750582
3801.67933228,0.00609779
3803.60813965,0.00711158
3805.53694702,0.00749106
3807.46575439,0.00627917
3809.39456177,0.00752132
3811.32336914,0.00735799
3813.25217651,0.00757547
3815.18098389,0.00685039
3817.10979126,0.00619931
3819.03859863,0.00762690
3820.96740601,0.00619476
3822.89621338,0.00653599
3824.82502075,0.00757524
3826.75382812,0.00683502
3828.68263550,0.00729194
3830.61144287,0.00713724
3832.54025024,0.00683770
3834.46905762,0.00693181
3836.39786499,0.00663720
3838.32667236,0.00596467
3840.25547974,0.00644208
3842.18428711,0.00692800
3844.11309448,0.00667437
3846.04190186,0.00725633
3847.97070923,0.00714959
3849.89951660,0.00710635
3851.82832397,0.00635346
3853.75713135,0.00481909
3855.68593872,0.00573516
3857.61474609,0.00708879
3859.54355347,0.00687040
3861.47236084,0.00683876
3863.40116821,0.00656758
3865.32997559,0.00619633
3867.25878296,0.00696157
3869.18759033,0.00620693
3871.11639770,0.00587115
3873.04520508,0.00691131
3874.97401245,0.00639537
3876.90281982,0.00695024
3878.83162720,0.00693643
3880.76043457,0.00611845
3882.68924194,0.00697976
3884.61804932,0.00641166
3886.54685669,0.00598854
3888.47566406,0.00689408
3890.40447144,0.00651479
3892.33327881,0.00624955
3894.26208618,0.00667769
3896.19089355,0.00675544
3898.11970093,0.00653993
3900.04850830,0.00607496
3901.97731567,0.00604091
3903.90612305,0.00599477
3905.83493042,0.00610461
3907.76373779,0.00670392
3909.69254517,0.00664860
3911.62135254,0.00665242
3913.55015991,0.00673176
3915.47896728,0.00652423
3917.40777466,0.00628620
3919.33658203,0.00627577
3921.26538940,0.00657120
3923.19419678,0.00640295
3925.12300415,0.00631869
3927.05181152,0.00637893
3928.98061890,0.00655562
3930.90942627,0.00641988
3932.83823364,0.00609047
3934.76704102,0.00644746
3936.69584839,0.00642513
3938.62465576,0.00645505
3940.55346313,0.00647177
3942.48227051,0.00620820
3944.41107788,0.00630472
3946.33988525,0.00630384
3948.26869263,0.00626223
3950.19750000,0.00620955
3952.12630737,0.00628042
3954.05511475,0.00628297
3955.98392212,0.00622261
3957.91272949,0.00620959
3959.84153687,0.00624130
3961.77034424,0.00631830
3963.69915161,0.00622433
3965.62795898,0.00622814
3967.55676636,0.00614223
3969.48557373,0.00620643
3971.41438110,0.00617984
3973.34318848,0.00617184
3975.27199585,0.00630165
3977.20080322,0.00607489
3979.12961060,0.00613382
3981.05841797,0.00611114
3982.98722534,0.00612645
3984.91603271,0.00618111
3986.84484009,0.00604987
3988.77364746,0.00606543
3990.70245483,0.00599622
3992.63126221,0.00612240
3994.56006958,0.00605125
3996.48887695,0.00599614
3998.41768433,0.00604477
4000.34649170,0.00594107
4002.27529907,0.00596212
4004.20410645,0.00590326
4006.13291382,0.00596602
4008.06172119,0.00593568
4009.99052856,0.00590712
4011.91933594,0.00590119
4013.84814331,0.00584383
4015.77695068,0.00595363
4017.70575806,0.00591432
4019.63456543,0.00587355
4021.56337280,0.00588766
4023.49218018,0.00587867
4025.42098755,0.00583942
4027.34979492,0.00581422
4029.27860229,0.00579711
4031.20740967,0.00580472
4033.13621704,0.00578615
4035.06502441,0.00573010
4036.99383179,0.00577205
4038.92263916,0.00565087
4040.85144653,0.00571408
4042.78025391,0.00578334
4044.70906128,0.00563806
4046.63786865,0.00568098
4048.56667603,0.00570665
4050.49548340,0.00566575
4052.42429077,0.00561972
4054.35309814,0.00570241
4056.28190552,0.00565957
4058.21071289,0.00559390
4060.13952026,0.00563491
4062.06832764,0.00555610
4063.99713501,0.00561987
4065.92594238,0.00559831
4067.85474976,0.00557432
4069.78355713,0.00558305
4071.71236450,0.00552475
4073.64117187,0.00554015
4075.56997925,0.00549409
4077.49878662,0.00543788
4079.42759399,0.00540932
4081.35640137,0.00544028
4083.28520874,0.00541526
4085.21401611,0.00543553
4087.14282349,0.00544737
4089.07163086,0.00536241
4091.00043823,0.00534101
4092.92924561,0.00529794
4094.85805298,0.00535426
4096.78686035,0.00538197
4098.71566772,0.00533601
4100.64447510,0.00530994
4102.57328247,0.00529021
4104.50208984,0.00529249
4106.43089722,0.00527473
4108.35970459,0.00529576
4110.28851196,0.00532624
4112.21731934,0.00530240
4114.14612671,0.00518355
4116.07493408,0.00522335
4118.00374145,0.00527285
4119.93254883,0.00522543
4121.86135620,0.00526448
4123.79016357,0.00515416
4125.71897095,0.00509196
4127.64777832,0.00512636
4129.57658569,0.00513399
4131.50539307,0.00511026
4133.43420044,0.00510996
4135.36300781,0.00515799
4137.29181519,0.00506648
4139.22062256,0.00505267
4141.14942993,0.00506491
4143.07823730,0.00502591
4145.00704468,0.00505558
4146.93585205,0.00500816
4148.86465942,0.00499938
4150.79346680,0.00503294
4152.72227417,0.00491215
4154.65108154,0.00491838
4156.57988892,0.00504564
4158.50869629,0.00499924
4160.43750366,0.00496178
4162.36631103,0.00491431
4164.29511841,0.00488402
4166.22392578,0.00485613
4168.15273315,0.00486565
4170.08154053,0.00492974
4172.01034790,0.00487236
4173.93915527,0.00491630
4175.86796265,0.00488828
4177.79677002,0.00484865
4179.72557739,0.00483637
4181.65438477,0.00480074
4183.58319214,0.00484348
4185.51199951,0.00478692
4187.44080688,0.00482657
4189.36961426,0.00481299
4191.29842163,0.00480572
4193.22722900,0.00476041
4195.15603638,0.00473421
4197.08484375,0.00478910
4199.01365112,0.00462196
4200.94245850,0.00470080
4202.87126587,0.00473483
4204.80007324,0.00471706
4206.72888062,0.00477663
4208.65768799,0.00468742
4210.58649536,0.00464767
4212.51530273,0.00457145
4214.44411011,0.00464606
4216.37291748,0.00462314
4218.30172485,0.00457664
4220.23053223,0.00458993
4222.15933960,0.00457292
4224.08814697,0.00458806
4226.01695435,0.00452822
4227.94576172,0.00464010
4229.87456909,0.00452963
4231.80337646,0.00454704
4233.73218384,0.00462122
4235.66099121,0.00439404
4237.58979858,0.00449849
4239.51860596,0.00452213
4241.44741333,0.00447460
4243.37622070,0.00448007
4245.30502808,0.00447459
4247.23383545,0.00450587
4249.16264282,0.00436484
4251.09145020,0.00440757
4253.02025757,0.00450676
4254.94906494,0.00439049
4256.87787231,0.00433616
4258.80667969,0.00433892
4260.73548706,0.00435672
4262.66429443,0.00443003
4264.59310181,0.00430306
4266.52190918,0.00431232
4268.45071655,0.00439839
4270.37952393,0.00424941
4272.30833130,0.00434997
4274.23713867,0.00432445
4276.16594604,0.00419911
4278.09475342,0.00430694
4280.02356079,0.00428544
4281.95236816,0.00415001
4283.88117554,0.00412534
4285.80998291,0.00421778
4287.73879028,0.00425672
4289.66759766,0.00422875
4291.59640503,0.00410969
4293.52521240,0.00420072
4295.45401978,0.00424899
4297.38282715,0.00417200
4299.31163452,0.00424423
4301.24044189,0.00412542
4303.16924927,0.00410489
4305.09805664,0.00408939
4307.02686401,0.00415730
4308.95567139,0.00417366
4310.88447876,0.00402952
4312.81328613,0.00410060
4314.74209351,0.00402990
4316.67090088,0.00409777
4318.59970825,0.00405066
4320.52851562,0.00400891
4322.45732300,0.00406580
4324.38613037,0.00399751
4326.31493774,0.00413034
4328.24374512,0.00394062
4330.17255249,0.00401190
4332.10135986,0.00414725
4334.03016724,0.00399242
4335.95897461,0.00401118
4337.88778198,0.00387717
4339.81658936,0.00398343
4341.74539673,0.00400637
4343.67420410,0.00390874
4345.60301147,0.00397415
4347.53181885,0.00393136
4349.46062622,0.00390604
4351.38943359,0.00381162
4353.31824097,0.00383698
4355.24704834,0.00387641
4357.17585571,0.00383965
4359.10466309,0.00389387
4361.03347046,0.00384422
4362.96227783,0.00378341
4364.89108520,0.00387239
4366.81989258,0.00387863
4368.74869995,0.00378895
4370.67750732,0.00379877
4372.60631470,0.00376580
4374.53512207,0.00374474
4376.46392944,0.00379855
4378.39273682,0.00380702
4380.32154419,0.00372148
4382.25035156,0.00371403
4384.17915894,0.00374372
4386.10796631,0.00365899
4388.03677368,0.00368320
4389.96558105,0.00364495
4391.89438843,0.00365487
4393.82319580,0.00372926
4395.75200317,0.00366839
4397.68081055,0.00372236
4399.60961792,0.00372856
4401.53842529,0.00362030
4403.46723267,0.00360713
4405.39604004,0.00367346
4407.32484741,0.00362393
4409.25365478,0.00360598
4411.18246216,0.00365764
4413.11126953,0.00361734
4415.04007690,0.00361287
4416.96888428,0.00365075
4418.89769165,0.00364402
4420.82649902,0.00350750
4422.75530640,0.00360308
4424.68411377,0.00365390
4426.61292114,0.00348261
4428.54172852,0.00351400
4430.47053589,0.00345642
4432.39934326,0.00353840
4434.32815063,0.00355633
4436.25695801,0.00343222
4438.18576538,0.00354287
4440.11457275,0.00342108
4442.04338013,0.00334901
4443.97218750,0.00349719
4445.90099487,0.00346232
4447.82980225,0.00345231
4449.75860962,0.00344654
4451.68741699,0.00332502
4453.61622437,0.00339656
4455.54503174,0.00338952
4457.47383911,0.00337473
4459.40264648,0.00343360
4461.33145386,0.00329107
4463.26026123,0.00345044
4465.18906860,0.00343836
4467.11787598,0.00327187
4469.04668335,0.00335866
4470.97549072,0.00332411
4472.90429810,0.00334470
4474.83310547,0.00323647
4476.76191284,0.00327349
4478.69072021,0.00337714
4480.61952759,0.00327244
4482.54833496,0.00329953
4484.47714233,0.00326112
4486.40594971,0.00322455
4488.33475708,0.00321900
4490.26356445,0.00323704
4492.19237183,0.00326445
4494.12117920,0.00327083
4496.04998657,0.00326259
4497.97879395,0.00321873
4499.90760132,0.00323036
4501.83640869,0.00322304
4503.76521606,0.00322806
4505.69402344,0.00319447
4507.62283081,0.00323459
4509.55163818,0.00320103
4511.48044556,0.00310001
4513.40925293,0.00313536
4515.33806030,0.00311477
4517.26686768,0.00314597
4519.19567505,0.00312778
4521.12448242,0.00310883
4523.05328979,0.00308991
4524.98209717,0.00305734
4526.91090454,0.00309181
4528.83971191,0.00306386
4530.76851929,0.00307478
4532.69732666,0.00309220
4534.62613403,0.00310404
4536.55494141,0.00302837
4538.48374878,0.00307033
4540.41255615,0.00308814
4542.34136353,0.00302546
4544.27017090,0.00305651
4546.19897827,0.00293329
4548.12778564,0.00305191
4550.05659302,0.00307759
4551.98540039,0.00300800
4553.91420776,0.00303369
4555.84301514,0.00294084
4557.77182251,0.00304358
4559.70062988,0.00299608
4561.62943726,0.00299880
4563.55824463,0.00297904
4565.48705200,0.00291087
4567.41585937,0.00298740
4569.34466675,0.00288299
4571.27347412,0.00290508
4573.20228149,0.00287919
4575.13108887,0.00286967
4577.05989624,0.00290746
4578.98870361,0.00290689
4580.91751099,0.00294456
4582.84631836,0.00284312
4584.77512573,0.00290273
4586.70393311,0.00290607
4588.63274048,0.00282263
4590.56154785,0.00283848
4592.49035522,0.00283704
4594.41916260,0.00283506
4596.34796997,0.00278784
4598.27677734,0.00276950
4600.20558472,0.00278488
4602.13439209,0.00282519
4604.06319946,0.00278137
4605.99200684,0.00277788
4607.92081421,0.00281722
4609.84962158,0.00275580
4611.77842895,0.00278596
4613.70723633,0.00279036
4615.63604370,0.00270736
4617.56485107,0.00273708
4619.49365845,0.00278853
4621.42246582,0.00269115
4623.35127319,0.00267423
4625.28008057,0.00267727
4627.20888794,0.00264072
4629.13769531,0.00266115
4631.06650269,0.00259000
4632.99531006,0.00262716
4634.92411743,0.00266201
4636.85292480,0.00263932
4638.78173218,0.00263339
4640.71053955,0.00257021
4642.63934692,0.00257164
4644.56815430,0.00263710
4646.49696167,0.00273762
4648.42576904,0.00269534
4650.35457642,0.00263866
4652.28338379,0.00262561
4654.21219116,0.00256228
4656.14099853,0.00254322
4658.06980591,0.00260292
4659.99861328,0.00264586
4661.92742065,0.00253676
4663.85622803,0.00257734
4665.78503540,0.00256016
4667.71384277,0.00247483
4669.64265015,0.00255453
4671.57145752,0.00254327
4673.50026489,0.00256168
4675.42907227,0.00254905
4677.35787964,0.00249773
4679.28668701,0.00246269
4681.21549438,0.00252190
4683.14430176,0.00254564
4685.07310913,0.00249339
4687.00191650,0.00254942
4688.93072388,0.00243986
4690.85953125,0.00244652
4692.78833862,0.00245260
4694.71714600,0.00239522
4696.64595337,0.00249620
4698.57476074,0.00245757
4700.50356812,0.00246507
4702.43237549,0.00245358
4704.36118286,0.00243640
4706.28999023,0.00246024
4708.21879761,0.00237242
4710.14760498,0.00232577
4712.07641235,0.00240535
4714.00521973,0.00240272
4715.93402710,0.00234389
4717.86283447,0.00250963
4719.79164185,0.00242968
4721.72044922,0.00227576
4723.64925659,0.00232341
4725.57806396,0.00231619
4727.50687134,0.00237346
4729.43567871,0.00230345
4731.36448608,0.00229400
4733.29329346,0.00237544
4735.22210083,0.00239109
4737.15090820,0.00239491
4739.07971558,0.00234806
4741.00852295,0.00229498
4742.93733032,0.00229342
4744.86613770,0.00238526
4746.79494507,0.00225163
4748.72375244,0.00223462
4750.65255981,0.00233819
4752.58136719,0.00221670
4754.51017456,0.00223583
4756.43898193,0.00229147
4758.36778931,0.00234673
4760.29659668,0.00229254
4762.22540405,0.00220567
4764.15421143,0.00222382
4766.08301880,0.00220142
4768.01182617,0.00224557
4769.94063354,0.00229165
4771.86944092,0.00229575
4773.79824829,0.00220500
4775.72705566,0.00221463
4777.65586304,0.00220291
4779.58467041,0.00215598
4781.51347778,0.00220646
4783.44228516,0.00210935
4785.37109253,0.00214556
4787.29989990,0.00213565
4789.22870728,0.00212040
4791.15751465,0.00218182
4793.08632202,0.00214602
4795.01512939,0.00221117
4796.94393677,0.00217221
4798.87274414,0.00212514
4800.80155151,0.00208859
4802.73035889,0.00213401
4804.65916626,0.00215400
4806.58797363,0.00215077
4808.51678101,0.00225388
4810.44558838,0.00210369
4812.37439575,0.00212475
4814.30320312,0.00206127
4816.23201050,0.00198826
4818.16081787,0.00214444
4820.08962524,0.00198100
4822.01843262,0.00204011
4823.94723999,0.00211894
4825.87604736,0.00201559
4827.80485474,0.00204482
4829.73366211,0.00210149
4831.66246948,0.00211511
4833.59127686,0.00199788
4835.52008423,0.00200674
4837.44889160,0.00203402
4839.37769897,0.00207514
4841.30650635,0.00199084
4843.23531372,0.00190048
4845.16412109,0.00204160
4847.09292847,0.00195347
4849.02173584,0.00200641
4850.95054321,0.00205907
4852.87935059,0.00190676
4854.80815796,0.00197871
4856.73696533,0.00201548
4858.66577270,0.00195295
4860.59458008,0.00195742
4862.52338745,0.00201040
4864.45219482,0.00194911
4866.38100220,0.00191800
4868.30980957,0.00195377
4870.23861694,0.00193122
4872.16742432,0.00195929
4874.09623169,0.00197022
4876.02503906,0.00194769
4877.95384644,0.00188199
4879.88265381,0.00191006
4881.81146118,0.00191902
4883.74026855,0.00191751
4885.66907593,0.00198193
4887.59788330,0.00188421
4889.52669067,0.00183287
4891.45549805,0.00181683
4893.38430542,0.00187565
4895.31311279,0.00185509
4897.24192017,0.00176845
4899.17072754,0.00186932
4901.09953491,0.00181646
4903.02834228,0.00187700
4904.95714966,0.00197112
4906.88595703,0.00185609
4908.81476440,0.00179675
4910.74357178,0.00179957
4912.67237915,0.00179580
4914.60118652,0.00172976
4916.52999390,0.00184330
4918.45880127,0.00190022
4920.38760864,0.00183958
4922.31641602,0.00183960
4924.24522339,0.00172657
4926.17403076,0.00180900
4928.10283813,0.00187336
4930.03164551,0.00170968
4931.96045288,0.00172288
4933.88926025,0.00179160
4935.81806763,0.00175993
4937.74687500,0.00176882
4939.67568237,0.00172931
4941.60448975,0.00173385
4943.53329712,0.00180572
4945.46210449,0.00169937
4947.39091187,0.00168099
4949.31971924,0.00175334
4951.24852661,0.00171356
4953.17733398,0.00167844
4955.10614136,0.00172686
4957.03494873,0.00177852
4958.96375610,0.00170474
4960.89256348,0.00165707
4962.82137085,0.00162997
4964.75017822,0.00172470
4966.67898560,0.00176666
4968.60779297,0.00165074
4970.53660034,0.00168776
4972.46540771,0.00162089
4974.39421509,0.00163378
4976.32302246,0.00169874
4978.25182983,0.00163994
4980.18063721,0.00168038
4982.10944458,0.00164453
4984.03825195,0.00164739
4985.96705933,0.00167778
4987.89586670,0.00169376
4989.82467407,0.00169663
4991.75348145,0.00163524
4993.68228882,0.00165705
4995.61109619,0.00166025
4997.53990356,0.00164724
4999.46871094,0.00162993
5001.39751831,0.00159523
5003.32632568,0.00159381
5005.25513306,0.00160655
5007.18394043,0.00159415
5009.11274780,0.00159935
5011.04155518,0.00160126
5012.97036255,0.00155051
5014.89916992,0.00157872
5016.82797729,0.00160444
5018.75678467,0.00160635
5020.68559204,0.00154706
5022.61439941,0.00153591
5024.54320679,0.00156193
5026.47201416,0.00145793
5028.40082153,0.00153905
5030.32962891,0.00154121
5032.25843628,0.00150120
5034.18724365,0.00158519
5036.11605103,0.00150718
5038.04485840,0.00151128
5039.97366577,0.00150300
5041.90247314,0.00154373
5043.83128052,0.00159509
5045.76008789,0.00146825
5047.68889526,0.00147199
5049.61770264,0.00146998
5051.54651001,0.00152520
5053.47531738,0.00158534
5055.40412476,0.00141170
5057.33293213,0.00144174
5059.26173950,0.00150656
5061.19054687,0.00141151
5063.11935425,0.00149757
5065.04816162,0.00141774
5066.97696899,0.00134000
5068.90577637,0.00149266
5070.83458374,0.00144674
5072.76339111,0.00145614
5074.69219849,0.00146015
5076.62100586,0.00138562
5078.54981323,0.00143220
5080.47862061,0.00141236
5082.40742798,0.00141125
5084.33623535,0.00146604
5086.26504272,0.00152381
5088.19385010,0.00144149
5090.12265747,0.00135299
5092.05146484,0.00144179
5093.98027222,0.00145268
5095.90907959,0.00142139
5097.83788696,0.00139103
5099.76669434,0.00137428
5101.69550171,0.00135120
5103.62430908,0.00126547
5105.55311645,0.00131227
5107.48192383,0.00144366
5109.41073120,0.00137619
5111.33953857,0.00130236
5113.26834595,0.00139279
5115.19715332,0.00137302
5117.12596069,0.00137394
5119.05476807,0.00136817
5120.98357544,0.00132507
5122.91238281,0.00133206
5124.84119019,0.00132182
5126.76999756,0.00145663
5128.69880493,0.00138956
5130.62761230,0.00129384
5132.55641968,0.00133708
5134.48522705,0.00125723
5136.41403442,0.00132062
5138.34284180,0.00128501
5140.27164917,0.00127869
5142.20045654,0.00138977
5144.12926392,0.00133392
5146.05807129,0.00134682
5147.98687866,0.00137825
5149.91568603,0.00136044
5151.84449341,0.00129553
5153.77330078,0.00127792
5155.70210815,0.00132209
5157.63091553,0.00126181
5159.55972290,0.00122862
5161.48853027,0.00124416
5163.41733765,0.00124991
5165.34614502,0.00128018
5167.27495239,0.00129549
5169.20375977,0.00131113
5171.13256714,0.00133318
5173.06137451,0.00124145
5174.99018188,0.00119139
5176.91898926,0.00120050
5178.84779663,0.00119335
5180.77660400,0.00127997
5182.70541138,0.00120993
5184.63421875,0.00118114
5186.56302612,0.00127381
5188.49183350,0.00120340
5190.42064087,0.00119044
5192.34944824,0.00124976
5194.27825562,0.00124636
5196.20706299,0.00114566
5198.13587036,0.00117445
5200.06467773,0.00124930
5201.99348511,0.00113406
5203.92229248,0.00113906
5205.85109985,0.00117784
5207.77990723,0.00116393
5209.70871460,0.00117209
5211.63752197,0.00114511
5213.56632935,0.00114339
5215.49513672,0.00113873
5217.42394409,0.00112803
5219.35275146,0.00111699
5221.28155884,0.00114929
5223.21036621,0.00120668
5225.13917358,0.00121200
5227.06798096,0.00115479
5228.99678833,0.00115877
5230.92559570,0.00120241
5232.85440308,0.00111654
5234.78321045,0.00108562
5236.71201782,0.00111561
5238.64082520,0.00112676
5240.56963257,0.00113293
5242.49843994,0.00107506
5244.42724731,0.00106329
5246.35605469,0.00109178
5248.28486206,0.00110884
5250.21366943,0.00107770
5252.14247681,0.00104397
5254.07128418,0.00107947
5256.00009155,0.00108871
5257.92889893,0.00108990
5259.85770630,0.00115594
5261.78651367,0.00118168
5263.71532104,0.00107183
5265.64412842,0.00101580
5267.57293579,0.00105407
5269.50174316,0.00105197
5271.43055054,0.00107749
5273.35935791,0.00107432
5275.28816528,0.00098870
5277.21697266,0.00104641
5279.14578003,0.00114349
5281.07458740,0.00105711
5283.00339478,0.00104159
5284.93220215,0.00104775
5286.86100952,0.00102898
5288.78981689,0.00111166
5290.71862427,0.00106338
5292.64743164,0.00099684
5294.57623901,0.00107204
5296.50504639,0.00112184
5298.43385376,0.00102750
5300.36266113,0.00099538
5302.29146851,0.00104572
5304.22027588,0.00098735
5306.14908325,0.00103094
5308.07789062,0.00102190
5310.00669800,0.00098649
5311.93550537,0.00106079
5313.86431274,0.00100440
5315.79312012,0.00098598
5317.72192749,0.00100742
5319.65073486,0.00103963
5321.57954224,0.00103360
5323.50834961,0.00096985
5325.43715698,0.00099982
5327.36596436,0.00094677
5329.29477173,0.00098245
5331.22357910,0.00107882
5333.15238647,0.00096296
5335.08119385,0.00091446
5337.01000122,0.00094342
5338.93880859,0.00092740
5340.86761597,0.00095350
5342.79642334,0.00093729
5344.72523071,0.00088335
5346.65403809,0.00090343
5348.58284546,0.00095971
5350.51165283,0.00094012
5352.44046020,0.00091362
5354.36926758,0.00097194
5356.29807495,0.00096915
5358.22688232,0.00093631
5360.15568970,0.00094226
5362.08449707,0.00097848
5364.01330444,0.00097594
5365.94211182,0.00084727
5367.87091919,0.00085167
5369.79972656,0.00092443
5371.72853394,0.00091845
5373.65734131,0.00091066
5375.58614868,0.00088852
5377.51495605,0.00088996
5379.44376343,0.00089037
5381.37257080,0.00090257
5383.30137817,0.00086537
5385.23018555,0.00091791
5387.15899292,0.00092375
5389.08780029,0.00086654
5391.01660767,0.00097334
5392.94541504,0.00086897
5394.87422241,0.00087812
5396.80302978,0.00095173
5398.73183716,0.00084221
5400.66064453,0.00087558
5402.58945190,0.00085551
5404.51825928,0.00089786
5406.44706665,0.00087189
5408.37587402,0.00083602
5410.30468140,0.00090481
5412.23348877,0.00085819
5414.16229614,0.00089076
5416.09110352,0.00084766
5418.01991089,0.00085173
5419.94871826,0.00088453
5421.87752563,0.00081316
5423.80633301,0.00082674
5425.73514038,0.00086405
5427.66394775,0.00085177
5429.59275513,0.00075313
5431.52156250,0.00088629
5433.45036987,0.00092023
5435.37917725,0.00073930
5437.30798462,0.00088334
5439.23679199,0.00087269
5441.16559936,0.00075746
5443.09440674,0.00086838
5445.02321411,0.00082588
5446.95202148,0.00079238
5448.88082886,0.00087095
5450.80963623,0.00086206
5452.73844360,0.00087335
5454.66725098,0.00080807
5456.59605835,0.00074345
5458.52486572,0.00083991
5460.45367310,0.00084930
5462.38248047,0.00081403
5464.31128784,0.00080456
5466.24009521,0.00081264
5468.16890259,0.00082425
5470.09770996,0.00080484
5472.02651733,0.00080438
5473.95532471,0.00077709
5475.88413208,0.00073660
5477.81293945,0.00069426
5479.74174683,0.00079384
5481.67055420,0.00075398
5483.59936157,0.00062729
5485.52816895,0.00079575
5487.45697632,0.00076283
5489.38578369,0.00073427
5491.31459106,0.00080836
5493.24339844,0.00073355
5495.17220581,0.00079382
5497.10101318,0.00075004
5499.02982056,0.00071761
5500.95862793,0.00078188
5502.88743530,0.00072875
5504.81624268,0.00074454
5506.74505005,0.00075642
5508.67385742,0.00075025
5510.60266479,0.00079671
5512.53147217,0.00080037
5514.46027954,0.00075846
5516.38908691,0.00070869
5518.31789429,0.00074614
5520.24670166,0.00076575
5522.17550903,0.00069688
5524.10431641,0.00075880
5526.03312378,0.00077064
5527.96193115,0.00072412
5529.89073853,0.00077088
5531.81954590,0.00073518
5533.74835327,0.00077467
5535.67716064,0.00077019
5537.60596802,0.00072391
5539.53477539,0.00078084
5541.46358276,0.00069359
5543.39239014,0.00068722
5545.32119751,0.00075102
5547.25000488,0.00071010
5549.17881226,0.00067487
5551.10761963,0.00063840
5553.03642700,0.00065123
5554.96523437,0.00063505
5556.89404175,0.00066612
5558.82284912,0.00079014
5560.75165649,0.00073987
5562.68046387,0.00066877
5564.60927124,0.00071688
5566.53807861,0.00067656
5568.46688599,0.00068498
5570.39569336,0.00067714
5572.32450073,0.00056903
5574.25330811,0.00068184
5576.18211548,0.00075575
5578.11092285,0.00067056
5580.03973022,0.00068634
5581.96853760,0.00067748
5583.89734497,0.00068058
5585.82615234,0.00065092
5587.75495972,0.00055763
5589.68376709,0.00067083
5591.61257446,0.00073751
5593.54138184,0.00066854
5595.47018921,0.00071037
5597.39899658,0.00068408
5599.32780395,0.00067675
5601.25661133,0.00067588
5603.18541870,0.00059341
5605.11422607,0.00058792
5607.04303345,0.00058760
5608.97184082,0.00063592
5610.90064819,0.00065918
5612.82945557,0.00070439
5614.75826294,0.00070220
5616.68707031,0.00060506
5618.61587769,0.00063960
5620.54468506,0.00059252
5622.47349243,0.00062845
5624.40229980,0.00065499
5626.33110718,0.00057328
5628.25991455,0.00067845
5630.18872192,0.00071534
5632.11752930,0.00065977
5634.04633667,0.00054985
5635.97514404,0.00055280
5637.90395142,0.00061460
5639.83275879,0.00060807
5641.76156616,0.00069643
5643.69037353,0.00064026
5645.61918091,0.00063311
5647.54798828,0.00065133
5649.47679565,0.00059749
5651.40560303,0.00063007
5653.33441040,0.00053581
5655.26321777,0.00057745
5657.19202515,0.00067694
5659.12083252,0.00057562
5661.04963989,0.00059431
5662.97844727,0.00064286
5664.90725464,0.00059079
5666.83606201,0.00059613
5668.76486938,0.00061612
5670.69367676,0.00062729
5672.62248413,0.00056058
5674.55129150,0.00051047
5676.48009888,0.00060475
5678.40890625,0.00056583
5680.33771362,0.00056041
5682.26652100,0.00060496
5684.19532837,0.00054526
5686.12413574,0.00061090
5688.05294311,0.00058781
5689.98175049,0.00054508
5691.91055786,0.00057456
5693.83936523,0.00049026
5695.76817261,0.00050065
5697.69697998,0.00055292
5699.62578735,0.00045761
5701.55459473,0.00045384
5703.48340210,0.00058788
5705.41220947,0.00054284
5707.34101685,0.00053201
5709.26982422,0.00058718
5711.19863159,0.00051052
5713.12743896,0.00055434
5715.05624634,0.00056068
5716.98505371,0.00053622
5718.91386108,0.00056391
5720.84266846,0.00050746
5722.77147583,0.00056210
5724.70028320,0.00053770
5726.62909058,0.00044877
5728.55789795,0.00054487
5730.48670532,0.00051080
5732.41551270,0.00048259
5734.34432007,0.00057144
5736.27312744,0.00049165
5738.20193481,0.00053691
5740.13074219,0.00061972
5742.05954956,0.00052937
5743.98835693,0.00051771
5745.91716431,0.00051370
5747.84597168,0.00054718
5749.77477905,0.00053477
5751.70358643,0.00045823
5753.63239380,0.00049438
5755.56120117,0.00050157
5757.49000854,0.00049721
5759.41881592,0.00047880
5761.34762329,0.00049109
5763.27643066,0.00052422
5765.20523804,0.00049527
5767.13404541,0.00053997
5769.06285278,0.00051407
5770.99166016,0.00046773
5772.92046753,0.00054219
5774.84927490,0.00053301
5776.77808228,0.00046579
5778.70688965,0.00046103
5780.63569702,0.00050422
5782.56450439,0.00053000
5784.49331177,0.00051296
5786.42211914,0.00050157
5788.35092651,0.00049230
5790.27973389,0.00050434
5792.20854126,0.00050364
5794.13734863,0.00044783
5796.06615601,0.00042553
5797.99496338,0.00042133
5799.92377075,0.00040331
5801.85257812,0.00044996
5803.78138550,0.00051080
5805.71019287,0.00047132
5807.63900024,0.00045101
5809.56780762,0.00048496
5811.49661499,0.00044399
5813.42542236,0.00047202
5815.35422974,0.00051686
5817.28303711,0.00043945
5819.21184448,0.00042258
5821.14065186,0.00046165
5823.06945923,0.00047979
5824.99826660,0.00049695
5826.92707397,0.00046920
5828.85588135,0.00040502
5830.78468872,0.00041123
5832.71349609,0.00044834
5834.64230347,0.00044278
5836.57111084,0.00044104
5838.49991821,0.00042039
5840.42872559,0.00042159
5842.35753296,0.00045114
5844.28634033,0.00044912
5846.21514770,0.00042964
5848.14395508,0.00050046
5850.07276245,0.00051662
5852.00156982,0.00036931
5853.93037720,0.00043723
5855.85918457,0.00048946
5857.78799194,0.00039088
5859.71679932,0.00047488
5861.64560669,0.00049585
5863.57441406,0.00044384
5865.50322144,0.00043922
5867.43202881,0.00040787
5869.36083618,0.00038826
5871.28964355,0.00041669
5873.21845093,0.00044643
5875.14725830,0.00042668
5877.07606567,0.00042396
5879.00487305,0.00039052
5880.93368042,0.00043611
5882.86248779,0.00049781
5884.79129517,0.00040837
5886.72010254,0.00037029
5888.64890991,0.00038770
5890.57771728,0.00042863
5892.50652466,0.00042059
5894.43533203,0.00039282
5896.36413940,0.00039994
5898.29294678,0.00034037
5900.22175415,0.00041467
5902.15056152,0.00044289
5904.07936890,0.00038924
5906.00817627,0.00044768
5907.93698364,0.00038658
5909.86579102,0.00041074
5911.79459839,0.00045475
5913.72340576,0.00040527
5915.65221313,0.00042245
5917.58102051,0.00035103
5919.50982788,0.00043077
5921.43863525,0.00045363
5923.36744263,0.00033527
5925.29625000,0.00039152
5927.22505737,0.00034094
5929.15386475,0.00035328
5931.08267212,0.00039229
5933.01147949,0.00036855
5934.94028686,0.00045707
5936.86909424,0.00041332
5938.79790161,0.00036379
5940.72670898,0.00039518
5942.65551636,0.00039510
5944.58432373,0.00035403
5946.51313110,0.00039352
5948.44193848,0.00041268
5950.37074585,0.00028273
5952.29955322,0.00034033
5954.22836060,0.00039427
5956.15716797,0.00035131
5958.08597534,0.00037973
5960.01478271,0.00037575
5961.94359009,0.00036854
5963.87239746,0.00038610
5965.80120483,0.00041396
5967.73001221,0.00033912
5969.65881958,0.00031208
5971.58762695,0.00033832
5973.51643433,0.00039896
5975.44524170,0.00044115
5977.37404907,0.00027500
5979.30285645,0.00031830
5981.23166382,0.00037455
5983.16047119,0.00034244
5985.08927856,0.00043448
5987.01808594,0.00037354
5988.94689331,0.00036882
5990.87570068,0.00036349
5992.80450806,0.00031780
5994.73331543,0.00035279
5996.66212280,0.00036104
5998.59093018,0.00038224
6000.51973755,0.00031131
