399.26312622,0.00035066
401.19193359,0.00021054
403.12074097,0.00001337
405.04954834,0.00036427
406.97835571,0.00101224
408.90716309,0.00064400
410.83597046,0.00038921
412.76477783,0.00023625
414.69358521,0.00028275
416.62239258,0.00025266
418.55119995,0.00008951
420.48000732,0.00063335
422.40881470,0.00009539
424.33762207,0.00002858
426.26642944,0.00040849
428.19523682,0.00039549
430.12404419,0.00052287
432.05285156,-0.00006296
433.98165894,0.00040632
435.91046631,0.00073203
437.83927368,0.00013150
439.76808105,0.00032222
441.69688843,0.00047621
443.62569580,0.00026143
445.55450317,0.00033079
447.48331055,0.00044133
449.41211792,0.00029759
451.34092529,0.00048882
453.26973267,0.00058699
455.19854004,0.00023348
457.12734741,0.00029928
459.05615479,0.00032457
460.98496216,0.00022274
462.91376953,0.00037245
464.84257690,0.00005983
466.77138428,-0.00006371
468.70019165,0.00045980
470.62899902,0.00058897
472.55780640,0.00036616
474.48661377,0.00009947
476.41542114,0.00033180
478.34422852,0.00011739
480.27303589,-0.00040272
482.20184326,0.00054689
484.13065063,0.00023018
486.05945801,-0.00032194
487.98826538,0.00030611
489.91707275,0.00001044
491.84588013,0.00015066
493.77468750,0.00023890
495.70349487,0.00009321
497.63230225,0.00008644
499.56110962,0.00025519
501.48991699,0.00025020
503.41872437,0.00015229
505.34753174,0.00040585
507.27633911,0.00026620
509.20514648,0.00013236
511.13395386,-0.00015444
513.06276123,0.00027004
514.99156860,0.00006472
516.92037598,-0.00003590
518.84918335,0.00030634
520.77799072,0.00002939
522.70679810,-0.00008970
524.63560547,0.00008878
526.56441284,0.00031368
528.49322021,0.00003274
530.42202759,0.00002086
532.35083496,-0.00000619
534.27964233,0.00004179
536.20844971,0.00009844
538.13725708,-0.00006866
540.06606445,0.00032414
541.99487183,0.00035153
543.92367920,0.00073772
545.85248657,0.00033384
547.78129395,-0.00018344
549.71010132,0.00031465
551.63890869,0.00004075
553.56771606,0.00019546
555.49652344,0.00004132
557.42533081,0.00008532
559.35413818,0.00040154
561.28294556,-0.00001024
563.21175293,0.00024219
565.14056030,0.00013238
567.06936768,-0.00002705
568.99817505,-0.00002044
570.92698242,-0.00016178
572.85578979,0.00003029
574.78459717,0.00006153
576.71340454,-0.00011773
578.64221191,-0.00013946
580.57101929,0.00015455
582.49982666,0.00001436
584.42863403,0.00020453
586.35744141,0.00032188
588.28624878,-0.00005024
590.21505615,0.00029011
592.14386353,0.00031568
594.07267090,-0.00023457
596.00147827,0.00025000
597.93028564,0.00019131
599.85909302,-0.00023958
601.78790039,0.00022143
603.71670776,0.00002091
605.64551514,0.00004354
607.57432251,0.00014580
609.50312988,-0.00020021
611.43193726,0.00017293
613.36074463,0.00010510
615.28955200,-0.00013058
617.21835938,0.00000013
619.14716675,0.00007132
621.07597412,0.00025180
623.00478149,0.00012608
624.93358887,0.00013216
626.86239624,0.00006247
628.79120361,-0.00003760
630.72001099,0.00018520
632.64881836,0.00029709
634.57762573,-0.00000323
636.50643311,-0.00002401
638.43524048,0.00035333
640.36404785,0.00008959
642.29285522,0.00010254
644.22166260,0.00038765
646.15046997,0.00023777
648.07927734,0.00023033
650.00808472,0.00035905
651.93689209,0.00048346
653.86569946,0.00048303
655.79450684,0.00044954
657.72331421,0.00043250
659.65212158,0.00045318
661.58092896,0.00063891
663.50973633,0.00071065
665.43854370,0.00050102
667.36735107,0.00057582
669.29615845,0.00082622
671.22496582,0.00070904
673.15377319,0.00059098
675.08258057,0.00069412
677.01138794,0.00087263
678.94019531,0.00073089
680.86900269,0.00063381
682.79781006,0.00076671
684.72661743,0.00067152
686.65542480,0.00079858
688.58423218,0.00106613
690.51303955,0.00089580
692.44184692,0.00056168
694.37065430,0.00088773
696.29946167,0.00130571
698.22826904,0.00126061
700.15707642,0.00128467
702.08588379,0.00124022
704.01469116,0.00103050
705.94349854,0.00070645
707.87230591,0.00091105
709.80111328,0.00104781
711.72992065,0.00040496
713.65872803,0.00021824
715.58753540,0.00013023
717.51634277,0.00008657
719.44515015,0.00037017
721.37395752,0.00022473
723.30276489,0.00018026
725.23157227,0.00020608
727.16037964,0.00006911
729.08918701,0.00018223
731.01799438,0.00013831
732.94680176,0.00008539
734.87560913,0.00009662
736.80441650,0.00013080
738.73322388,0.00031472
740.66203125,0.00033025
742.59083862,0.00018904
744.51964600,0.00039478
746.44845337,0.00016306
748.37726074,-0.00006775
750.30606812,0.00017220
752.23487549,0.00026422
754.16368286,0.00029717
756.09249023,0.00027662
758.02129761,0.00028765
759.95010498,0.00018292
761.87891235,0.00016594
763.80771973,0.00007047
765.73652710,0.00014708
767.66533447,0.00018505
769.59414185,-0.00023991
771.52294922,0.00010347
773.45175659,0.00026356
775.38056396,0.00022483
777.30937134,0.00043339
779.23817871,0.00012675
781.16698608,0.00010948
783.09579346,0.00010925
785.02460083,0.00014356
786.95340820,0.00018791
788.88221558,0.00005275
790.81102295,0.00007445
792.73983032,0.00020378
794.66863770,0.00047564
796.59744507,0.00032660
798.52625244,0.00009018
800.45505981,0.00018395
802.38386719,0.00036964
804.31267456,0.00047890
806.24148193,0.00038216
808.17028931,0.00028388
810.09909668,0.00013963
812.02790405,0.00027939
813.95671143,0.00046615
815.88551880,0.00017236
817.81432617,0.00013037
819.74313354,0.00041550
821.67194092,0.00031115
823.60074829,0.00015381
825.52955566,0.00032288
827.45836304,0.00050314
829.38717041,0.00038243
831.31597778,0.00023315
833.24478516,0.00060824
835.17359253,0.00069760
837.10239990,0.00045957
839.03120728,0.00043130
840.96001465,0.00025265
842.88882202,0.00054221
844.81762939,0.00066161
846.74643677,0.00028431
848.67524414,0.00046646
850.60405151,0.00047987
852.53285889,0.00014838
854.46166626,0.00030281
856.39047363,0.00061922
858.31928101,0.00055511
860.24808838,0.00034376
862.17689575,0.00027842
864.10570313,0.00029038
866.03451050,0.00033003
867.96331787,0.00044662
869.89212524,0.00046756
871.82093262,0.00023993
873.74973999,0.00009427
875.67854736,0.00028997
877.60735474,0.00050174
879.53616211,0.00027456
881.46496948,0.00019551
883.39377686,0.00026147
885.32258423,0.00009375
887.25139160,0.00025161
889.18019897,0.00027599
891.10900635,0.00024870
893.03781372,0.00025449
894.96662109,0.00010283
896.89542847,0.00034763
898.82423584,0.00030197
900.75304321,0.00019795
902.68185059,0.00055578
904.61065796,0.00044176
906.53946533,0.00030225
908.46827271,0.00046436
910.39708008,0.00048738
912.32588745,0.00058686
914.25469482,0.00032085
916.18350220,0.00007806
918.11230957,0.00042560
920.04111694,0.00044290
921.96992432,0.00027443
923.89873169,0.00051985
925.82753906,0.00066234
927.75634644,0.00047142
929.68515381,0.00057892
931.61396118,0.00071106
933.54276855,0.00053922
935.47157593,0.00064956
937.40038330,0.00065743
939.32919067,0.00067768
941.25799805,0.00082798
943.18680542,0.00059577
945.11561279,0.00062607
947.04442017,0.00083968
948.97322754,0.00067124
950.90203491,0.00056347
952.83084229,0.00059450
954.75964966,0.00048963
956.68845703,0.00068648
958.61726440,0.00066361
960.54607178,0.00039234
962.47487915,0.00081171
964.40368652,0.00074206
966.33249390,0.00058162
968.26130127,0.00077518
970.19010864,0.00050878
972.11891602,0.00081072
974.04772339,0.00078814
975.97653076,0.00048851
977.90533813,0.00089176
979.83414551,0.00075809
981.76295288,0.00070589
983.69176025,0.00111094
985.62056763,0.00115680
987.54937500,0.00113480
989.47818237,0.00133175
991.40698975,0.00137569
993.33579712,0.00122987
995.26460449,0.00151913
997.19341187,0.00182200
999.12221924,0.00184634
1001.05102661,0.00198617
1002.97983398,0.00219566
1004.90864136,0.00239419
1006.83744873,0.00242769
1008.76625610,0.00244175
1010.69506348,0.00261816
1012.62387085,0.00281069
1014.55267822,0.00277332
1016.48148560,0.00282605
1018.41029297,0.00317775
1020.33910034,0.00332579
1022.26790771,0.00339286
1024.19671509,0.00346868
1026.12552246,0.00353503
1028.05432983,0.00368361
1029.98313721,0.00378504
1031.91194458,0.00393462
1033.84075195,0.00400440
1035.76955933,0.00411867
1037.69836670,0.00428639
1039.62717407,0.00405788
1041.55598145,0.00396835
1043.48478882,0.00410848
1045.41359619,0.00384121
1047.34240356,0.00389730
1049.27121094,0.00409092
1051.20001831,0.00386100
1053.12882568,0.00376801
1055.05763306,0.00369586
1056.98644043,0.00379915
1058.91524780,0.00363892
1060.84405518,0.00343406
1062.77286255,0.00361932
1064.70166992,0.00325468
1066.63047729,0.00311888
1068.55928467,0.00321434
1070.48809204,0.00301668
1072.41689941,0.00283209
1074.34570679,0.00280237
1076.27451416,0.00276908
1078.20332153,0.00222595
1080.13212891,0.00237462
1082.06093628,0.00245091
1083.98974365,0.00195824
1085.91855103,0.00208847
1087.84735840,0.00199818
1089.77616577,0.00204970
1091.70497314,0.00194507
1093.63378052,0.00173885
1095.56258789,0.00183432
1097.49139526,0.00159101
1099.42020264,0.00175980
1101.34901001,0.00161058
1103.27781738,0.00156324
1105.20662476,0.00186740
1107.13543213,0.00147850
1109.06423950,0.00154415
1110.99304687,0.00169525
1112.92185425,0.00161791
1114.85066162,0.00159090
1116.77946899,0.00144403
1118.70827637,0.00159470
1120.63708374,0.00151242
1122.56589111,0.00152979
1124.49469849,0.00179373
1126.42350586,0.00173968
1128.35231323,0.00171697
1130.28112061,0.00170661
1132.20992798,0.00175104
1134.13873535,0.00183728
1136.06754272,0.00182600
1137.99635010,0.00178930
1139.92515747,0.00183042
1141.85396484,0.00210540
1143.78277222,0.00211117
1145.71157959,0.00222938
1147.64038696,0.00253463
1149.56919434,0.00240684
1151.49800171,0.00274107
1153.42680908,0.00288517
1155.35561646,0.00275749
1157.28442383,0.00312970
1159.21323120,0.00318982
1161.14203857,0.00340350
1163.07084595,0.00345383
1164.99965332,0.00340525
1166.92846069,0.00354064
1168.85726807,0.00335975
1170.78607544,0.00373510
1172.71488281,0.00401106
1174.64369019,0.00404233
1176.57249756,0.00426149
1178.50130493,0.00423948
1180.43011230,0.00439359
1182.35891968,0.00469954
1184.28772705,0.00487235
1186.21653442,0.00489004
1188.14534180,0.00514444
1190.07414917,0.00543821
1192.00295654,0.00571684
1193.93176392,0.00598682
1195.86057129,0.00602488
1197.78937866,0.00644006
1199.71818604,0.00674229
1201.64699341,0.00694022
1203.57580078,0.00723259
1205.50460815,0.00745851
1207.43341553,0.00785988
1209.36222290,0.00813663
1211.29103027,0.00847011
1213.21983765,0.00858783
1215.14864502,0.00876310
1217.07745239,0.00889700
1219.00625977,0.00882802
1220.93506714,0.00925539
1222.86387451,0.00927422
1224.79268188,0.00930240
1226.72148926,0.00945588
1228.65029663,0.00920581
1230.57910400,0.00937433
1232.50791138,0.00952369
1234.43671875,0.00954336
1236.36552612,0.00952086
1238.29433350,0.00948829
1240.22314087,0.00957810
1242.15194824,0.00936156
1244.08075562,0.00932865
1246.00956299,0.00943090
1247.93837036,0.00927350
1249.86717773,0.00926934
1251.79598511,0.00926398
1253.72479248,0.00920311
1255.65359985,0.00923852
1257.58240723,0.00894835
1259.51121460,0.00867778
1261.44002197,0.00881295
1263.36882935,0.00875611
1265.29763672,0.00844055
1267.22644409,0.00816626
1269.15525146,0.00805506
1271.08405884,0.00818521
1273.01286621,0.00815826
1274.94167358,0.00786166
1276.87048096,0.00789226
1278.79928833,0.00780241
1280.72809570,0.00738063
1282.65690308,0.00740407
1284.58571045,0.00737457
1286.51451782,0.00723578
1288.44332520,0.00703107
1290.37213257,0.00677353
1292.30093994,0.00696841
1294.22974731,0.00686700
1296.15855469,0.00672391
1298.08736206,0.00666517
1300.01616943,0.00655185
1301.94497681,0.00685015
1303.87378418,0.00688651
1305.80259155,0.00697333
1307.73139893,0.00712742
1309.66020630,0.00710830
1311.58901367,0.00733928
1313.51782104,0.00727155
1315.44662842,0.00738872
1317.37543579,0.00788643
1319.30424316,0.00786546
1321.23305054,0.00796117
1323.16185791,0.00846113
1325.09066528,0.00863963
1327.01947266,0.00890481
1328.94828003,0.00917319
1330.87708740,0.00910140
1332.80589478,0.00932053
1334.73470215,0.00961714
1336.66350952,0.00962084
1338.59231689,0.00948877
1340.52112427,0.00973843
1342.44993164,0.01016224
1344.37873901,0.01019940
1346.30754639,0.01025339
1348.23635376,0.01007050
1350.16516113,0.00996721
1352.09396851,0.00993063
1354.02277588,0.00972906
1355.95158325,0.00979360
1357.88039062,0.00968290
1359.80919800,0.00971220
1361.73800537,0.00915996
1363.66681274,0.00897848
1365.59562012,0.00977024
1367.52442749,0.00922295
1369.45323486,0.00921461
1371.38204224,0.00944377
1373.31084961,0.00872642
1375.23965698,0.00889673
1377.16846436,0.00898909
1379.09727173,0.00906269
1381.02607910,0.00909663
1382.95488647,0.00903404
1384.88369385,0.00919127
1386.81250122,0.00864356
1388.74130859,0.00866976
1390.67011597,0.00943557
1392.59892334,0.00931391
1394.52773071,0.00882182
1396.45653809,0.00915959
1398.38534546,0.00902539
1400.31415283,0.00901460
1402.24296021,0.00986833
1404.17176758,0.00931747
1406.10057495,0.00915927
1408.02938232,0.00966539
1409.95818970,0.00942163
1411.88699707,0.00924737
1413.81580444,0.00918279
1415.74461182,0.00936819
1417.67341919,0.00827890
1419.60222656,0.00785180
1421.53103394,0.00886877
1423.45984131,0.00852723
1425.38864868,0.00829164
1427.31745605,0.00827525
1429.24626343,0.00775423
1431.17507080,0.00743962
1433.10387817,0.00755412
1435.03268555,0.00684831
1436.96149292,0.00588847
1438.89030029,0.00681000
1440.81910767,0.00690490
1442.74791504,0.00641714
1444.67672241,0.00673290
1446.60552979,0.00629462
1448.53433716,0.00632863
1450.46314453,0.00663375
1452.39195190,0.00675888
1454.32075928,0.00677487
1456.24956665,0.00582891
1458.17837402,0.00606332
1460.10718140,0.00788054
1462.03598877,0.00839424
1463.96479614,0.00817868
1465.89360352,0.00865784
1467.82241089,0.00961711
1469.75121826,0.01002051
1471.68002563,0.00933812
1473.60883301,0.00994778
1475.53764038,0.01108683
1477.46644775,0.01198942
1479.39525513,0.01312200
1481.32406250,0.01299221
1483.25286987,0.01360707
1485.18167725,0.01433887
1487.11048462,0.01404618
1489.03929199,0.01391724
1490.96809937,0.01423266
1492.89690674,0.01623486
1494.82571411,0.01592330
1496.75452148,0.01442392
1498.68332886,0.01617191
1500.61213623,0.01682365
1502.54094360,0.01782660
1504.46975098,0.01676526
1506.39855835,0.01248519
1508.32736572,0.01509986
1510.25617310,0.01757518
1512.18498047,0.01724221
1514.11378784,0.01843377
1516.04259521,0.01658784
1517.97140259,0.01738258
1519.90020996,0.01661921
1521.82901733,0.01489401
1523.75782471,0.01794454
1525.68663208,0.01739978
1527.61543945,0.01770968
1529.54424683,0.01916189
1531.47305420,0.01827910
1533.40186157,0.01706923
1535.33066895,0.01806573
1537.25947632,0.01901121
1539.18828369,0.01398884
1541.11709106,0.01479693
1543.04589844,0.01726455
1544.97470581,0.01673797
1546.90351318,0.01943458
1548.83232056,0.01818592
1550.76112793,0.01890197
1552.68993530,0.01857406
1554.61874268,0.01721424
1556.54755005,0.01828546
1558.47635742,0.01299894
1560.40516479,0.01418934
1562.33397217,0.01989320
1564.26277954,0.01876695
1566.19158691,0.01908600
1568.12039429,0.01892375
1570.04920166,0.01693218
1571.97800903,0.01949892
1573.90681641,0.01950574
1575.83562378,0.01563301
1577.76443115,0.01785327
1579.69323853,0.01978098
1581.62204590,0.01898229
1583.55085327,0.01967384
1585.47966064,0.01923151
1587.40846802,0.01930316
1589.33727539,0.01921979
1591.26608276,0.01920789
1593.19489014,0.01925722
1595.12369751,0.01894054
1597.05250488,0.01920364
1598.98131226,0.01912798
1600.91011963,0.01915255
1602.83892700,0.01902682
1604.76773437,0.01916632
1606.69654175,0.01876652
1608.62534912,0.01899722
1610.55415649,0.01890627
1612.48296387,0.01895548
1614.41177124,0.01912677
1616.34057861,0.01586854
1618.26938599,0.01722988
1620.19819336,0.01964267
1622.12700073,0.01761818
1624.05580811,0.01792576
1625.98461548,0.01851003
1627.91342285,0.01830740
1629.84223022,0.01847597
1631.77103760,0.01954985
1633.69984497,0.01788937
1635.62865234,0.01504406
1637.55745972,0.01747858
1639.48626709,0.01908823
1641.41507446,0.01861702
1643.34388184,0.01903737
1645.27268921,0.01700571
1647.20149658,0.01529315
1649.13030396,0.01901089
1651.05911133,0.01764575
1652.98791870,0.01182435
1654.91672607,0.01598348
1656.84553345,0.01946960
1658.77434082,0.01856449
1660.70314819,0.01904701
1662.63195557,0.01751927
1664.56076294,0.01851367
1666.48957031,0.01960178
1668.41837769,0.01725835
1670.34718506,0.01710518
1672.27599243,0.01922285
1674.20479980,0.01763096
1676.13360718,0.01694762
1678.06241455,0.01938374
1679.99122192,0.01868732
1681.92002930,0.01842538
1683.84883667,0.01513711
1685.77764404,0.01523803
1687.70645142,0.02031494
1689.63525879,0.01769198
1691.56406616,0.01961721
1693.49287354,0.01963659
1695.42168091,0.01479961
1697.35048828,0.01818624
1699.27929565,0.01571586
1701.20810303,0.01452728
1703.13691040,0.01933720
1705.06571777,0.01768827
1706.99452515,0.01791937
1708.92333252,0.01916352
1710.85213989,0.01856945
1712.78094727,0.01894668
1714.70975464,0.01752638
1716.63856201,0.01580376
1718.56736938,0.01572534
1720.49617676,0.01850034
1722.42498413,0.01905229
1724.35379150,0.01784549
1726.28259888,0.01916483
1728.21140625,0.01775964
1730.14021362,0.01790969
1732.06902100,0.01719211
1733.99782837,0.01358167
1735.92663574,0.01690099
1737.85544312,0.01828156
1739.78425049,0.01634020
1741.71305786,0.01773520
1743.64186523,0.01799273
1745.57067261,0.01806404
1747.49947998,0.01818106
1749.42828735,0.01740040
1751.35709473,0.01661426
1753.28590210,0.01839386
1755.21470947,0.01916922
1757.14351685,0.01760741
1759.07232422,0.01924003
1761.00113159,0.01799031
1762.92993896,0.01769583
1764.85874634,0.01996276
1766.78755371,0.01791814
1768.71636108,0.01823048
1770.64516846,0.01800219
1772.57397583,0.01635065
1774.50278320,0.01816784
1776.43159058,0.01918051
1778.36039795,0.01892231
1780.28920532,0.01870847
1782.21801270,0.01870758
1784.14682007,0.01838405
1786.07562744,0.01831254
1788.00443481,0.01927431
1789.93324219,0.01880799
1791.86204956,0.01718558
1793.79085693,0.01772776
1795.71966431,0.01903781
1797.64847168,0.01874314
1799.57727905,0.01839552
1801.50608643,0.01815687
1803.43489380,0.01876827
1805.36370117,0.01909975
1807.29250854,0.01887421
1809.22131592,0.01903834
1811.15012329,0.01841513
1813.07893066,0.01891751
1815.00773804,0.01902315
1816.93654541,0.01878465
1818.86535278,0.01887026
1820.79416016,0.01883965
1822.72296753,0.01916996
1824.65177490,0.01788433
1826.58058228,0.01852565
1828.50938965,0.01862666
1830.43819702,0.01761941
1832.36700439,0.01906133
1834.29581177,0.01887989
1836.22461914,0.01882691
1838.15342651,0.01875051
1840.08223389,0.01881059
1842.01104126,0.01872778
1843.93984863,0.01687351
1845.86865601,0.01793971
1847.79746338,0.01883290
1849.72627075,0.01843403
1851.65507812,0.01895149
1853.58388550,0.01872507
1855.51269287,0.01881844
1857.44150024,0.01864511
1859.37030762,0.01839249
1861.29911499,0.01867841
1863.22792236,0.01856906
1865.15672974,0.01842540
1867.08553711,0.01803664
1869.01434448,0.01742733
1870.94315186,0.01795196
1872.87195923,0.01858559
1874.80076660,0.01827680
1876.72957397,0.01835441
1878.65838135,0.01816897
1880.58718872,0.01813935
1882.51599609,0.01835894
1884.44480347,0.01810302
1886.37361084,0.01840518
1888.30241821,0.01792382
1890.23122559,0.01754329
1892.16003296,0.01818358
1894.08884033,0.01792882
1896.01764771,0.01792258
1897.94645508,0.01812303
1899.87526245,0.01787870
1901.80406982,0.01801095
1903.73287720,0.01799140
1905.66168457,0.01799271
1907.59049194,0.01787774
1909.51929932,0.01769545
1911.44810669,0.01758871
1913.37691406,0.01767431
1915.30572144,0.01805289
1917.23452881,0.01721562
1919.16333618,0.01716766
1921.09214355,0.01771365
1923.02095093,0.01719099
1924.94975830,0.01771747
1926.87856567,0.01775753
1928.80737305,0.01764885
1930.73618042,0.01778296
1932.66498779,0.01736597
1934.59379517,0.01774504
1936.52260254,0.01757290
1938.45140991,0.01762196
1940.38021729,0.01763332
1942.30902466,0.01690730
1944.23783203,0.01724952
1946.16663940,0.01759623
1948.09544678,0.01748621
1950.02425415,0.01751604
1951.95306152,0.01749213
1953.88186890,0.01736809
1955.81067627,0.01742860
1957.73948364,0.01752449
1959.66829102,0.01740409
1961.59709839,0.01724504
1963.52590576,0.01735660
1965.45471313,0.01745123
1967.38352051,0.01705307
1969.31232788,0.01726927
1971.24113525,0.01736816
1973.16994263,0.01721217
1975.09875000,0.01745496
1977.02755737,0.01722587
1978.95636475,0.01733246
1980.88517212,0.01725633
1982.81397949,0.01706479
1984.74278687,0.01726154
1986.67159424,0.01718821
1988.60040161,0.01715907
1990.52920898,0.01688402
1992.45801636,0.01676165
1994.38682373,0.01704100
1996.31563110,0.01719504
1998.24443848,0.01689180
2000.17324585,0.01670992
2002.10205322,0.01692126
2004.03086060,0.01689310
2005.95966797,0.01687005
2007.88847534,0.01676307
2009.81728271,0.01678431
2011.74609009,0.01673925
2013.67489746,0.01664135
2015.60370483,0.01659042
2017.53251221,0.01623857
2019.46131958,0.01642315
2021.39012695,0.01662369
2023.31893433,0.01651907
2025.24774170,0.01636656
2027.17654907,0.01624384
2029.10535645,0.01640902
2031.03416382,0.01634015
2032.96297119,0.01627848
2034.89177856,0.01622035
2036.82058594,0.01614174
2038.74939331,0.01614024
2040.67820068,0.01612570
2042.60700806,0.01618332
2044.53581543,0.01602966
2046.46462280,0.01603008
2048.39343018,0.01610353
2050.32223755,0.01605595
2052.25104492,0.01596772
2054.17985229,0.01577665
2056.10865967,0.01597602
2058.03746704,0.01600983
2059.96627441,0.01573359
2061.89508179,0.01581744
2063.82388916,0.01573607
2065.75269653,0.01570963
2067.68150391,0.01580537
2069.61031128,0.01570096
2071.53911865,0.01582251
2073.46792603,0.01572867
2075.39673340,0.01556087
2077.32554077,0.01555820
2079.25434814,0.01555834
2081.18315552,0.01553624
2083.11196289,0.01543962
2085.04077026,0.01558011
2086.96957764,0.01536238
2088.89838501,0.01531174
2090.82719238,0.01552988
2092.75599976,0.01537612
2094.68480713,0.01543045
2096.61361450,0.01528607
2098.54242187,0.01520634
2100.47122925,0.01523166
2102.40003662,0.01523787
2104.32884399,0.01531866
2106.25765137,0.01518176
2108.18645874,0.01525099
2110.11526611,0.01509535
2112.04407349,0.01508581
2113.97288086,0.01518857
2115.90168823,0.01497239
2117.83049561,0.01503861
2119.75930298,0.01501216
2121.68811035,0.01495043
2123.61691772,0.01493952
2125.54572510,0.01488631
2127.47453247,0.01483325
2129.40333984,0.01478523
2131.33214722,0.01492121
2133.26095459,0.01485595
2135.18976196,0.01469879
2137.11856934,0.01487842
2139.04737671,0.01489872
2140.97618408,0.01468316
2142.90499146,0.01478038
2144.83379883,0.01469282
2146.76260620,0.01466486
2148.69141357,0.01482218
2150.62022095,0.01462620
2152.54902832,0.01467069
2154.47783569,0.01459590
2156.40664307,0.01453196
2158.33545044,0.01467578
2160.26425781,0.01447895
2162.19306519,0.01447981
2164.12187256,0.01458429
2166.05067993,0.01452745
2167.97948730,0.01451684
2169.90829468,0.01455575
2171.83710205,0.01450962
2173.76590942,0.01443188
2175.69471680,0.01443179
2177.62352417,0.01443051
2179.55233154,0.01440990
2181.48113892,0.01439124
2183.40994629,0.01447458
2185.33875366,0.01445739
2187.26756104,0.01433096
2189.19636841,0.01419160
2191.12517578,0.01416749
2193.05398315,0.01424634
2194.98279053,0.01426058
2196.91159790,0.01428831
2198.84040527,0.01418295
2200.76921265,0.01419504
2202.69802002,0.01424190
2204.62682739,0.01425106
2206.55563477,0.01424674
2208.48444214,0.01413666
2210.41324951,0.01419357
2212.34205688,0.01418818
2214.27086426,0.01423494
2216.19967163,0.01407607
2218.12847900,0.01384761
2220.05728638,0.01396486
2221.98609375,0.01402977
2223.91490112,0.01407828
2225.84370850,0.01395934
2227.77251587,0.01384610
2229.70132324,0.01384287
2231.63013062,0.01390138
2233.55893799,0.01385086
2235.48774536,0.01379602
2237.41655273,0.01386856
2239.34536011,0.01367517
2241.27416748,0.01380818
2243.20297485,0.01380390
2245.13178223,0.01372229
2247.06058960,0.01383625
2248.98939697,0.01358174
2250.91820435,0.01363267
2252.84701172,0.01360855
2254.77581909,0.01354765
2256.70462646,0.01359518
2258.63343384,0.01354221
2260.56224121,0.01354165
2262.49104858,0.01345487
2264.41985596,0.01366877
2266.34866333,0.01359754
2268.27747070,0.01344055
2270.20627808,0.01353219
2272.13508545,0.01343597
2274.06389282,0.01345621
2275.99270020,0.01349594
2277.92150757,0.01352725
2279.85031494,0.01339427
2281.77912231,0.01336910
2283.70792969,0.01342658
2285.63673706,0.01330014
2287.56554443,0.01338733
2289.49435181,0.01332616
2291.42315918,0.01323781
2293.35196655,0.01321246
2295.28077393,0.01314085
2297.20958130,0.01316972
2299.13838867,0.01298167
2301.06719604,0.01293841
2302.99600342,0.01299156
2304.92481079,0.01291303
2306.85361816,0.01290513
2308.78242554,0.01268923
2310.71123291,0.01263944
2312.64004028,0.01255772
2314.56884766,0.01227752
2316.49765503,0.01230624
2318.42646240,0.01202709
2320.35526978,0.01190389
2322.28407715,0.01195426
2324.21288452,0.01154497
2326.14169189,0.01144790
2328.07049927,0.01136524
2329.99930664,0.01122917
2331.92811401,0.01124338
2333.85692139,0.01109085
2335.78572876,0.01098727
2337.71453613,0.01098258
2339.64334351,0.01101281
2341.57215088,0.01108103
2343.50095825,0.01123068
2345.42976562,0.01133690
2347.35857300,0.01182149
2349.28738037,0.01218564
2351.21618774,0.01173085
2353.14499512,0.01129513
2355.07380249,0.01083934
2357.00260986,0.01048522
2358.93141724,0.01034259
2360.86022461,0.01016514
2362.78903198,0.01011962
2364.71783936,0.01022071
2366.64664673,0.01047517
2368.57545410,0.01059186
2370.50426147,0.01094622
2372.43306885,0.01118982
2374.36187622,0.01130509
2376.29068359,0.01182542
2378.21949097,0.01195573
2380.14829834,0.01214230
2382.07710571,0.01240898
2384.00591309,0.01233876
2385.93472046,0.01238860
2387.86352783,0.01237427
2389.79233521,0.01234712
2391.72114258,0.01238572
2393.64994995,0.01236791
2395.57875732,0.01225507
2397.50756470,0.01228305
2399.43637207,0.01237472
2401.36517944,0.01227564
2403.29398682,0.01233155
2405.22279419,0.01232964
2407.15160156,0.01220469
2409.08040894,0.01220158
2411.00921631,0.01217074
2412.93802368,0.01220196
2414.86683105,0.01223063
2416.79563843,0.01218831
2418.72444580,0.01222185
2420.65325317,0.01222893
2422.58206055,0.01213875
2424.51086792,0.01207133
2426.43967529,0.01209976
2428.36848267,0.01211245
2430.29729004,0.01205409
2432.22609741,0.01199504
2434.15490479,0.01198112
2436.08371216,0.01206383
2438.01251953,0.01202318
2439.94132690,0.01189024
2441.87013428,0.01187556
2443.79894165,0.01187002
2445.72774902,0.01190396
2447.65655640,0.01192492
2449.58536377,0.01193631
2451.51417114,0.01186190
2453.44297852,0.01177829
2455.37178589,0.01184773
2457.30059326,0.01182240
2459.22940063,0.01181935
2461.15820801,0.01179871
2463.08701538,0.01174604
2465.01582275,0.01175020
2466.94463013,0.01177233
2468.87343750,0.01179306
2470.80224487,0.01165266
2472.73105225,0.01168034
2474.65985962,0.01168546
2476.58866699,0.01158915
2478.51747437,0.01163698
2480.44628174,0.01160964
2482.37508911,0.01162984
2484.30389648,0.01151019
2486.23270386,0.01145668
2488.16151123,0.01156112
2490.09031860,0.01146062
2492.01912598,0.01148703
2493.94793335,0.01157734
2495.87674072,0.01149371
2497.80554810,0.01141100
2499.73435547,0.01144179
2501.66316284,0.01137750
2503.59197021,0.01132690
2505.52077759,0.01137266
2507.44958496,0.01127183
2509.37839233,0.01132952
2511.30719971,0.01138653
2513.23600708,0.01131190
2515.16481445,0.01130658
2517.09362183,0.01121757
2519.02242920,0.01120187
2520.95123657,0.01121122
2522.88004395,0.01119598
2524.80885132,0.01116592
2526.73765869,0.01112784
2528.66646606,0.01118387
2530.59527344,0.01109219
2532.52408081,0.01112879
2534.45288818,0.01123279
2536.38169556,0.01106598
2538.31050293,0.01106969
2540.23931030,0.01108895
2542.16811768,0.01104609
2544.09692505,0.01113034
2546.02573242,0.01110524
2547.95453979,0.01106516
2549.88334717,0.01104691
2551.81215454,0.01110911
2553.74096191,0.01112121
2555.66976929,0.01094623
2557.59857666,0.01090708
2559.52738403,0.01094717
2561.45619141,0.01098689
2563.38499878,0.01093317
2565.31380615,0.01083392
2567.24261353,0.01089809
2569.17142090,0.01081740
2571.10022827,0.01073921
2573.02903564,0.01082300
2574.95784302,0.01076112
2576.88665039,0.01074287
2578.81545776,0.01074009
2580.74426514,0.01071791
2582.67307251,0.01078254
2584.60187988,0.01064278
2586.53068726,0.01064922
2588.45949463,0.01074057
2590.38830200,0.01063940
2592.31710937,0.01074355
2594.24591675,0.01069582
2596.17472412,0.01059114
2598.10353149,0.01059956
2600.03233887,0.01056677
2601.96114624,0.01067069
2603.88995361,0.01055230
2605.81876099,0.01055288
2607.74756836,0.01063581
2609.67637573,0.01046278
2611.60518311,0.01052513
2613.53399048,0.01046839
2615.46279785,0.01033635
2617.39160522,0.01039830
2619.32041260,0.01036874
2621.24921997,0.01041672
2623.17802734,0.01041175
2625.10683472,0.01033795
2627.03564209,0.01036676
2628.96444946,0.01030302
2630.89325684,0.01029181
2632.82206421,0.01031792
2634.75087158,0.01028849
2636.67967895,0.01033715
2638.60848633,0.01032751
2640.53729370,0.01028426
2642.46610107,0.01025057
2644.39490845,0.01028116
2646.32371582,0.01025900
2648.25252319,0.01015786
2650.18133057,0.01023053
2652.11013794,0.01009232
2654.03894531,0.00995084
2655.96775269,0.01012417
2657.89656006,0.01017385
2659.82536743,0.01007214
2661.75417480,0.01001873
2663.68298218,0.01008406
2665.61178955,0.01008867
2667.54059692,0.01006546
2669.46940430,0.00999630
2671.39821167,0.00996468
2673.32701904,0.01006030
2675.25582642,0.00993961
2677.18463379,0.00988260
2679.11344116,0.00995916
2681.04224854,0.00991465
2682.97105591,0.00983052
2684.89986328,0.00985854
2686.82867065,0.00982285
2688.75747803,0.00973192
2690.68628540,0.00988210
2692.61509277,0.00982158
2694.54390015,0.00977985
2696.47270752,0.00983662
2698.40151489,0.00976261
2700.33032227,0.00976542
2702.25912964,0.00971057
2704.18793701,0.00985119
2706.11674438,0.00977607
2708.04555176,0.00974666
2709.97435913,0.00982318
2711.90316650,0.00952067
2713.83197388,0.00967711
2715.76078125,0.00975286
2717.68958862,0.00966520
2719.61839600,0.00966614
2721.54720337,0.00948977
2723.47601074,0.00966421
2725.40481812,0.00967142
2727.33362549,0.00952808
2729.26243286,0.00955149
2731.19124023,0.00958206
2733.12004761,0.00961922
2735.04885498,0.00948209
2736.97766235,0.00945685
2738.90646973,0.00953552
2740.83527710,0.00953667
2742.76408447,0.00946284
2744.69289185,0.00933056
2746.62169922,0.00930098
2748.55050659,0.00944560
2750.47931396,0.00949899
2752.40812134,0.00942342
2754.33692871,0.00949167
2756.26573608,0.00941750
2758.19454346,0.00934690
2760.12335083,0.00926751
2762.05215820,0.00914388
2763.98096558,0.00928756
2765.90977295,0.00923681
2767.83858032,0.00924826
2769.76738770,0.00929742
2771.69619507,0.00916437
2773.62500244,0.00920590
2775.55380981,0.00914336
2777.48261719,0.00905852
2779.41142456,0.00902919
2781.34023193,0.00909219
2783.26903931,0.00906972
2785.19784668,0.00896349
2787.12665405,0.00912492
2789.05546143,0.00904904
2790.98426880,0.00898874
2792.91307617,0.00901374
2794.84188354,0.00893309
2796.77069092,0.00901340
2798.69949829,0.00886675
2800.62830566,0.00886671
2802.55711304,0.00899066
2804.48592041,0.00882556
2806.41472778,0.00877172
2808.34353516,0.00885777
2810.27234253,0.00893565
2812.20114990,0.00883891
2814.12995728,0.00871773
2816.05876465,0.00869621
2817.98757202,0.00872067
2819.91637939,0.00880127
2821.84518677,0.00875439
2823.77399414,0.00872488
2825.70280151,0.00874898
2827.63160889,0.00867355
2829.56041626,0.00860579
2831.48922363,0.00862019
2833.41803101,0.00851100
2835.34683838,0.00845828
2837.27564575,0.00858970
2839.20445312,0.00852573
2841.13326050,0.00854789
2843.06206787,0.00853222
2844.99087524,0.00837807
2846.91968262,0.00838342
2848.84848999,0.00829797
2850.77729736,0.00835256
2852.70610474,0.00834143
2854.63491211,0.00824491
2856.56371948,0.00843531
2858.49252686,0.00838906
2860.42133423,0.00825839
2862.35014160,0.00836858
2864.27894897,0.00832384
2866.20775635,0.00818118
2868.13656372,0.00818511
2870.06537109,0.00817116
2871.99417847,0.00818635
2873.92298584,0.00820937
2875.85179321,0.00817850
2877.78060059,0.00821315
2879.70940796,0.00812348
2881.63821533,0.00806310
2883.56702270,0.00808883
2885.49583008,0.00805957
2887.42463745,0.00801870
2889.35344482,0.00801377
2891.28225220,0.00806998
2893.21105957,0.00802783
2895.13986694,0.00802241
2897.06867432,0.00789098
2898.99748169,0.00786299
2900.92628906,0.00796601
2902.85509644,0.00775754
2904.78390381,0.00794559
2906.71271118,0.00802668
2908.64151855,0.00769010
2910.57032593,0.00772968
2912.49913330,0.00778834
2914.42794067,0.00772415
2916.35674805,0.00763025
2918.28555542,0.00763868
2920.21436279,0.00761897
2922.14317017,0.00754654
2924.07197754,0.00761335
2926.00078491,0.00750083
2927.92959229,0.00756418
2929.85839966,0.00755522
2931.78720703,0.00737127
2933.71601440,0.00758168
2935.64482178,0.00755449
2937.57362915,0.00749608
2939.50243652,0.00762819
2941.43124390,0.00747908
2943.36005127,0.00751552
2945.28885864,0.00752509
2947.21766602,0.00739465
2949.14647339,0.00748058
2951.07528076,0.00748245
2953.00408813,0.00752954
2954.93289551,0.00754519
2956.86170288,0.00746655
2958.79051025,0.00748848
2960.71931763,0.00739663
2962.64812500,0.00738974
2964.57693237,0.00740176
2966.50573975,0.00727915
2968.43454712,0.00728614
2970.36335449,0.00733802
2972.29216187,0.00732379
2974.22096924,0.00731258
2976.14977661,0.00732887
2978.07858398,0.00730666
2980.00739136,0.00732128
2981.93619873,0.00736610
2983.86500610,0.00730472
2985.79381348,0.00728505
2987.72262085,0.00738687
2989.65142822,0.00731747
2991.58023560,0.00720628
2993.50904297,0.00736122
2995.43785034,0.00729902
2997.36665771,0.00719661
2999.29546509,0.00731140
3001.22427246,0.00721792
3003.15307983,0.00714669
3005.08188721,0.00713309
3007.01069458,0.00717878
3008.93950195,0.00719167
3010.86830933,0.00706964
3012.79711670,0.00708647
3014.72592407,0.00704734
3016.65473145,0.00707845
3018.58353882,0.00714833
3020.51234619,0.00705873
3022.44115356,0.00699883
3024.36996094,0.00697452
3026.29876831,0.00703641
3028.22757568,0.00707426
3030.15638306,0.00703625
3032.08519043,0.00700751
3034.01399780,0.00698800
3035.94280518,0.00693712
3037.87161255,0.00691753
3039.80041992,0.00696613
3041.72922729,0.00693049
3043.65803467,0.00687937
3045.58684204,0.00685495
3047.51564941,0.00688852
3049.44445679,0.00686542
3051.37326416,0.00682314
3053.30207153,0.00682391
3055.23087891,0.00671880
3057.15968628,0.00686104
3059.08849365,0.00687669
3061.01730103,0.00666523
3062.94610840,0.00677261
3064.87491577,0.00674739
3066.80372314,0.00664161
3068.73253052,0.00672997
3070.66133789,0.00678862
3072.59014526,0.00671920
3074.51895264,0.00660578
3076.44776001,0.00664152
3078.37656738,0.00664471
3080.30537476,0.00665074
3082.23418213,0.00671313
3084.16298950,0.00660558
3086.09179687,0.00656373
3088.02060425,0.00665277
3089.94941162,0.00655463
3091.87821899,0.00642734
3093.80702637,0.00647522
3095.73583374,0.00646542
3097.66464111,0.00647786
3099.59344849,0.00654985
3101.52225586,0.00651250
3103.45106323,0.00644207
3105.37987061,0.00637588
3107.30867798,0.00644735
3109.23748535,0.00643719
3111.16629272,0.00630864
3113.09510010,0.00634434
3115.02390747,0.00631969
3116.95271484,0.00637220
3118.88152222,0.00635142
3120.81032959,0.00619459
3122.73913696,0.00630242
3124.66794434,0.00625382
3126.59675171,0.00619594
3128.52555908,0.00632090
3130.45436645,0.00625831
3132.38317383,0.00623876
3134.31198120,0.00622239
3136.24078857,0.00616489
3138.16959595,0.00619420
3140.09840332,0.00606098
3142.02721069,0.00599575
3143.95601807,0.00617258
3145.88482544,0.00611389
3147.81363281,0.00605243
3149.74244019,0.00611644
3151.67124756,0.00596522
3153.60005493,0.00593642
3155.52886230,0.00590483
3157.45766968,0.00588337
3159.38647705,0.00595899
3161.31528442,0.00583021
3163.24409180,0.00583524
3165.17289917,0.00583357
3167.10170654,0.00581153
3169.03051392,0.00588891
3170.95932129,0.00581451
3172.88812866,0.00580512
3174.81693604,0.00581382
3176.74574341,0.00577323
3178.67455078,0.00579713
3180.60335815,0.00582003
3182.53216553,0.00566987
3184.46097290,0.00556474
3186.38978027,0.00570538
3188.31858765,0.00571102
3190.24739502,0.00565071
3192.17620239,0.00566438
3194.10500977,0.00566480
3196.03381714,0.00562636
3197.96262451,0.00563387
3199.89143188,0.00568255
3201.82023926,0.00557477
3203.74904663,0.00553296
3205.67785400,0.00553279
3207.60666138,0.00549471
3209.53546875,0.00545974
3211.46427612,0.00539321
3213.39308350,0.00549605
3215.32189087,0.00551786
3217.25069824,0.00541547
3219.17950562,0.00543670
3221.10831299,0.00544374
3223.03712036,0.00550107
3224.96592773,0.00553378
3226.89473511,0.00538360
3228.82354248,0.00533026
3230.75234985,0.00531737
3232.68115723,0.00529531
3234.60996460,0.00536012
3236.53877197,0.00532133
3238.46757935,0.00534231
3240.39638672,0.00532377
3242.32519409,0.00528665
3244.25400146,0.00535791
3246.18280884,0.00527649
3248.11161621,0.00530938
3250.04042358,0.00532550
3251.96923096,0.00523723
3253.89803833,0.00526908
3255.82684570,0.00528669
3257.75565308,0.00531965
3259.68446045,0.00529956
3261.61326782,0.00529016
3263.54207520,0.00528386
3265.47088257,0.00526023
3267.39968994,0.00531373
3269.32849731,0.00529268
3271.25730469,0.00522508
3273.18611206,0.00527706
3275.11491943,0.00533495
3277.04372681,0.00518505
3278.97253418,0.00515367
3280.90134155,0.00530682
3282.83014893,0.00524446
3284.75895630,0.00512466
3286.68776367,0.00522941
3288.61657104,0.00527055
3290.54537842,0.00518184
3292.47418579,0.00528506
3294.40299316,0.00523395
3296.33180054,0.00515252
3298.26060791,0.00523289
3300.18941528,0.00511604
3302.11822266,0.00514952
3304.04703003,0.00522492
3305.97583740,0.00512263
3307.90464478,0.00505549
3309.83345215,0.00502716
3311.76225952,0.00512229
3313.69106689,0.00521199
3315.61987427,0.00514526
3317.54868164,0.00509166
3319.47748901,0.00514496
3321.40629639,0.00514011
3323.33510376,0.00516946
3325.26391113,0.00518895
3327.19271851,0.00506925
3329.12152588,0.00503742
3331.05033325,0.00508087
3332.97914062,0.00513805
3334.90794800,0.00507537
3336.83675537,0.00501007
3338.76556274,0.00511598
3340.69437012,0.00511494
3342.62317749,0.00502457
3344.55198486,0.00500575
3346.48079224,0.00505719
3348.40959961,0.00504043
3350.33840698,0.00496260
3352.26721436,0.00495685
3354.19602173,0.00497441
3356.12482910,0.00502739
3358.05363647,0.00502437
3359.98244385,0.00494948
3361.91125122,0.00497802
3363.84005859,0.00500362
3365.76886597,0.00493676
3367.69767334,0.00495151
3369.62648071,0.00500557
3371.55528809,0.00498327
3373.48409546,0.00501581
3375.41290283,0.00501911
3377.34171020,0.00486973
3379.27051758,0.00490077
3381.19932495,0.00493906
3383.12813232,0.00482113
3385.05693970,0.00489645
3386.98574707,0.00483802
3388.91455444,0.00485312
3390.84336182,0.00493764
3392.77216919,0.00481492
3394.70097656,0.00491037
3396.62978394,0.00478284
3398.55859131,0.00475463
3400.48739868,0.00485497
3402.41620605,0.00462782
3404.34501343,0.00473507
3406.27382080,0.00482877
3408.20262817,0.00476438
3410.13143555,0.00477823
3412.06024292,0.00480190
3413.98905029,0.00486401
3415.91785767,0.00478225
3417.84666504,0.00468964
3419.77547241,0.00468734
3421.70427979,0.00475210
3423.63308716,0.00475221
3425.56189453,0.00470176
3427.49070190,0.00463771
3429.41950928,0.00467587
3431.34831665,0.00472018
3433.27712402,0.00460073
3435.20593140,0.00460977
3437.13473877,0.00458386
3439.06354614,0.00466880
3440.99235352,0.00467682
3442.92116089,0.00457421
3444.84996826,0.00468071
3446.77877563,0.00455827
3448.70758301,0.00451944
3450.63639038,0.00453565
3452.56519775,0.00455328
3454.49400513,0.00458028
3456.42281250,0.00442716
3458.35161987,0.00447057
3460.28042725,0.00447268
3462.20923462,0.00450405
3464.13804199,0.00458492
3466.06684937,0.00454011
3467.99565674,0.00454159
3469.92446411,0.00458258
3471.85327148,0.00454545
3473.78207886,0.00441665
3475.71088623,0.00446648
3477.63969360,0.00451394
3479.56850098,0.00450419
3481.49730835,0.00442555
3483.42611572,0.00442839
3485.35492310,0.00457742
3487.28373047,0.00448393
3489.21253784,0.00449096
3491.14134521,0.00452295
3493.07015259,0.00444403
3494.99895996,0.00440893
3496.92776733,0.00440717
3498.85657471,0.00446505
3500.78538208,0.00447684
3502.71418945,0.00444786
3504.64299683,0.00436278
3506.57180420,0.00448138
3508.50061157,0.00443953
3510.42941895,0.00436058
3512.35822632,0.00450041
3514.28703369,0.00435113
3516.21584106,0.00443580
3518.14464844,0.00446457
3520.07345581,0.00439843
3522.00226318,0.00448696
3523.93107056,0.00430191
3525.85987793,0.00441265
3527.78868530,0.00448421
3529.71749268,0.00430869
3531.64630005,0.00438540
3533.57510742,0.00447077
3535.50391479,0.00443433
3537.43272217,0.00444671
3539.36152954,0.00448138
3541.29033691,0.00436060
3543.21914429,0.00442985
3545.14795166,0.00436203
3547.07675903,0.00420292
3549.00556641,0.00444102
3550.93437378,0.00437615
3552.86318115,0.00436714
3554.79198853,0.00444132
3556.72079590,0.00430611
3558.64960327,0.00443159
3560.57841064,0.00440379
3562.50721802,0.00439927
3564.43602539,0.00430788
3566.36483276,0.00401173
3568.29364014,0.00408887
3570.22244751,0.00425210
3572.15125488,0.00436855
3574.08006226,0.00437257
3576.00886963,0.00434413
3577.93767700,0.00436600
3579.86648437,0.00439862
3581.79529175,0.00445483
3583.72409912,0.00436348
3585.65290649,0.00424717
3587.58171387,0.00398966
3589.51052124,0.00410765
3591.43932861,0.00447102
3593.36813599,0.00428032
3595.29694336,0.00419028
3597.22575073,0.00423880
3599.15455811,0.00421385
3601.08336548,0.00433057
3603.01217285,0.00432318
3604.94098022,0.00432086
3606.86978760,0.00428197
3608.79859497,0.00397469
3610.72740234,0.00408308
3612.65620972,0.00422536
3614.58501709,0.00413690
3616.51382446,0.00435874
3618.44263184,0.00394918
3620.37143921,0.00401652
3622.30024658,0.00442182
3624.22905395,0.00418420
3626.15786133,0.00443499
3628.08666870,0.00373896
3630.01547607,0.00350834
3631.94428345,0.00429881
3633.87309082,0.00415128
3635.80189819,0.00429457
3637.73070557,0.00431357
3639.65951294,0.00428448
3641.58832031,0.00437208
3643.51712769,0.00430277
3645.44593506,0.00427898
3647.37474243,0.00389827
3649.30354980,0.00365719
3651.23235718,0.00365034
3653.16116455,0.00435062
3655.08997192,0.00428342
3657.01877930,0.00376418
3658.94758667,0.00436013
3660.87639404,0.00435906
3662.80520142,0.00433223
3664.73400879,0.00433174
3666.66281616,0.00435564
3668.59162354,0.00413534
3670.52043091,0.00353911
3672.44923828,0.00422399
3674.37804565,0.00389065
3676.30685303,0.00332481
3678.23566040,0.00408559
3680.16446777,0.00416822
3682.09327515,0.00424501
3684.02208252,0.00429857
3685.95088989,0.00411028
3687.87969727,0.00380881
3689.80850464,0.00361771
3691.73731201,0.00397790
3693.66611938,0.00412656
3695.59492676,0.00423427
3697.52373413,0.00421239
3699.45254150,0.00420929
3701.38134888,0.00402921
3703.31015625,0.00388281
3705.23896362,0.00427791
3707.16777100,0.00401154
3709.09657837,0.00393633
3711.02538574,0.00375456
3712.95419312,0.00348539
3714.88300049,0.00413125
3716.81180786,0.00411573
3718.74061523,0.00407559
3720.66942261,0.00400324
3722.59822998,0.00388465
3724.52703735,0.00401874
3726.45584473,0.00376165
3728.38465210,0.00410189
3730.31345947,0.00399310
3732.24226685,0.00364186
3734.17107422,0.00357761
3736.09988159,0.00337231
3738.02868896,0.00367861
3739.95749634,0.00397789
3741.88630371,0.00400356
3743.81511108,0.00317405
3745.74391846,0.00314098
3747.67272583,0.00385398
3749.60153320,0.00327305
3751.53034058,0.00320728
3753.45914795,0.00358638
3755.38795532,0.00385700
3757.31676270,0.00396512
3759.24557007,0.00364632
3761.17437744,0.00387395
3763.10318481,0.00400524
3765.03199219,0.00377513
3766.96079956,0.00374964
3768.88960693,0.00377445
3770.81841431,0.00374693
3772.74722168,0.00387475
3774.67602905,0.00392593
3776.60483643,0.00384243
3778.53364380,0.00381497
3780.46245117,0.00373271
3782.39125854,0.00376734
3784.32006592,0.00375798
3786.24887329,0.00379137
3788.17768066,0.00389520
3790.10648804,0.00388976
3792.03529541,0.00390378
3793.96410278,0.00388970
3795.89291016,0.00359537
3797.82171753,0.00370683
3799.75052490,0.00379995
3801.67933228,0.00305001
3803.60813965,0.00357233
3805.53694702,0.00377137
3807.46575439,0.00324094
3809.39456177,0.00384271
3811.32336914,0.00368237
3813.25217651,0.00380627
3815.18098389,0.00350281
3817.10979126,0.00319779
3819.03859863,0.00385778
3820.96740601,0.00315454
3822.89621338,0.00333906
3824.82502075,0.00376682
3826.75382812,0.00347740
3828.68263550,0.00372482
3830.61144287,0.00354081
3832.54025024,0.00343365
3834.46905762,0.00345129
3836.39786499,0.00332395
3838.32667236,0.00308085
3840.25547974,0.00328319
3842.18428711,0.00354646
3844.11309448,0.00343014
3846.04190186,0.00359389
3847.97070923,0.00360391
3849.89951660,0.00365358
3851.82832397,0.00314901
3853.75713135,0.00251818
3855.68593872,0.00306657
3857.61474609,0.00364132
3859.54355347,0.00352475
3861.47236084,0.00348991
3863.40116821,0.00342091
3865.32997559,0.00319458
3867.25878296,0.00348952
3869.18759033,0.00316657
3871.11639770,0.00303101
3873.04520508,0.00354664
3874.97401245,0.00319806
3876.90281982,0.00347023
3878.83162720,0.00355365
3880.76043457,0.00311126
3882.68924194,0.00355164
3884.61804932,0.00331747
3886.54685669,0.00299292
3888.47566406,0.00345886
3890.40447144,0.00335853
3892.33327881,0.00319395
3894.26208618,0.00347289
3896.19089355,0.00350645
3898.11970093,0.00337438
3900.04850830,0.00313013
3901.97731567,0.00308495
3903.90612305,0.00306704
3905.83493042,0.00307749
3907.76373779,0.00345071
3909.69254517,0.00337708
3911.62135254,0.00338018
3913.55015991,0.00347129
3915.47896728,0.00331995
3917.40777466,0.00329446
3919.33658203,0.00316834
3921.26538940,0.00336479
3923.19419678,0.00336160
3925.12300415,0.00323168
3927.05181152,0.00335256
3928.98061890,0.00321540
3930.90942627,0.00320076
3932.83823364,0.00321805
3934.76704102,0.00324381
3936.69584839,0.00331614
3938.62465576,0.00329778
3940.55346313,0.00333301
3942.48227051,0.00321959
3944.41107788,0.00316536
3946.33988525,0.00325582
3948.26869263,0.00314907
3950.19750000,0.00315990
3952.12630737,0.00320622
3954.05511475,0.00311547
3955.98392212,0.00323289
3957.91272949,0.00322346
3959.84153687,0.00321831
3961.77034424,0.00325880
3963.69915161,0.00325042
3965.62795898,0.00328181
3967.55676636,0.00312252
3969.48557373,0.00322133
3971.41438110,0.00328074
3973.34318848,0.00319515
3975.27199585,0.00315995
3977.20080322,0.00316071
3979.12961060,0.00328422
3981.05841797,0.00312566
3982.98722534,0.00305907
3984.91603271,0.00303889
3986.84484009,0.00315014
3988.77364746,0.00323157
3990.70245483,0.00305488
3992.63126221,0.00318452
3994.56006958,0.00313071
3996.48887695,0.00309974
3998.41768433,0.00308630
4000.34649170,0.00300901
4002.27529907,0.00314369
4004.20410645,0.00312916
4006.13291382,0.00312322
4008.06172119,0.00306694
4009.99052856,0.00305121
4011.91933594,0.00299636
4013.84814331,0.00297238
4015.77695068,0.00304117
4017.70575806,0.00299968
4019.63456543,0.00304173
4021.56337280,0.00299396
4023.49218018,0.00300558
4025.42098755,0.00302835
4027.34979492,0.00307432
4029.27860229,0.00309926
4031.20740967,0.00301852
4033.13621704,0.00301774
4035.06502441,0.00289862
4036.99383179,0.00296335
4038.92263916,0.00298716
4040.85144653,0.00291970
4042.78025391,0.00294985
4044.70906128,0.00287382
4046.63786865,0.00289547
4048.56667603,0.00284651
4050.49548340,0.00284180
4052.42429077,0.00289599
4054.35309814,0.00289807
4056.28190552,0.00293507
4058.21071289,0.00285196
4060.13952026,0.00285562
4062.06832764,0.00293804
4063.99713501,0.00287507
4065.92594238,0.00283999
4067.85474976,0.00281801
4069.78355713,0.00277478
4071.71236450,0.00289690
4073.64117187,0.00286391
4075.56997925,0.00280366
4077.49878662,0.00285427
4079.42759399,0.00277770
4081.35640137,0.00282528
4083.28520874,0.00286911
4085.21401611,0.00290362
4087.14282349,0.00284810
4089.07163086,0.00279598
4091.00043823,0.00283594
4092.92924561,0.00275726
4094.85805298,0.00280794
4096.78686035,0.00276277
4098.71566772,0.00280430
4100.64447510,0.00281085
4102.57328247,0.00266937
4104.50208984,0.00278172
4106.43089722,0.00274408
4108.35970459,0.00275675
4110.28851196,0.00277106
4112.21731934,0.00269990
4114.14612671,0.00282045
4116.07493408,0.00280018
4118.00374145,0.00273453
4119.93254883,0.00276107
4121.86135620,0.00273092
4123.79016357,0.00271286
4125.71897095,0.00270579
4127.64777832,0.00260577
4129.57658569,0.00267785
4131.50539307,0.00272719
4133.43420044,0.00260103
4135.36300781,0.00266984
4137.29181519,0.00268511
4139.22062256,0.00264926
4141.14942993,0.00264874
4143.07823730,0.00264000
4145.00704468,0.00269778
4146.93585205,0.00267304
4148.86465942,0.00258543
4150.79346680,0.00261116
4152.72227417,0.00271113
4154.65108154,0.00262818
4156.57988892,0.00256056
4158.50869629,0.00257790
4160.43750366,0.00257848
4162.36631103,0.00256155
4164.29511841,0.00251498
4166.22392578,0.00256464
4168.15273315,0.00250906
4170.08154053,0.00250535
4172.01034790,0.00255503
4173.93915527,0.00251372
4175.86796265,0.00254078
4177.79677002,0.00255539
4179.72557739,0.00256281
4181.65438477,0.00252251
4183.58319214,0.00255835
4185.51199951,0.00252296
4187.44080688,0.00245500
4189.36961426,0.00251217
4191.29842163,0.00240757
4193.22722900,0.00240537
4195.15603638,0.00245983
4197.08484375,0.00243630
4199.01365112,0.00246295
4200.94245850,0.00245235
4202.87126587,0.00246330
4204.80007324,0.00245642
4206.72888062,0.00243274
4208.65768799,0.00246552
4210.58649536,0.00248874
4212.51530273,0.00246324
4214.44411011,0.00247765
4216.37291748,0.00242180
4218.30172485,0.00241465
4220.23053223,0.00252319
4222.15933960,0.00244694
4224.08814697,0.00237873
4226.01695435,0.00238127
4227.94576172,0.00242062
4229.87456909,0.00243593
4231.80337646,0.00239532
4233.73218384,0.00237426
4235.66099121,0.00228712
4237.58979858,0.00236889
4239.51860596,0.00235412
4241.44741333,0.00229174
4243.37622070,0.00241760
4245.30502808,0.00233532
4247.23383545,0.00231319
4249.16264282,0.00240807
4251.09145020,0.00243131
4253.02025757,0.00236266
4254.94906494,0.00228899
4256.87787231,0.00236989
4258.80667969,0.00232252
4260.73548706,0.00229520
4262.66429443,0.00231545
4264.59310181,0.00230116
4266.52190918,0.00239234
4268.45071655,0.00230125
4270.37952393,0.00224752
4272.30833130,0.00233452
4274.23713867,0.00232340
4276.16594604,0.00231228
4278.09475342,0.00223896
4280.02356079,0.00221812
4281.95236816,0.00226309
4283.88117554,0.00224040
4285.80998291,0.00222065
4287.73879028,0.00224850
4289.66759766,0.00229404
4291.59640503,0.00224303
4293.52521240,0.00229954
4295.45401978,0.00234099
4297.38282715,0.00216615
4299.31163452,0.00218223
4301.24044189,0.00228120
4303.16924927,0.00221079
4305.09805664,0.00212407
4307.02686401,0.00213608
4308.95567139,0.00213888
4310.88447876,0.00211994
4312.81328613,0.00222769
4314.74209351,0.00220522
4316.67090088,0.00212986
4318.59970825,0.00217635
4320.52851562,0.00213701
4322.45732300,0.00210795
4324.38613037,0.00215408
4326.31493774,0.00221204
4328.24374512,0.00212467
4330.17255249,0.00204758
4332.10135986,0.00216506
4334.03016724,0.00213047
4335.95897461,0.00210121
4337.88778198,0.00217251
4339.81658936,0.00214695
4341.74539673,0.00215548
4343.67420410,0.00209673
4345.60301147,0.00204020
4347.53181885,0.00210992
4349.46062622,0.00215786
4351.38943359,0.00212806
4353.31824097,0.00205426
4355.24704834,0.00205925
4357.17585571,0.00207044
4359.10466309,0.00206045
4361.03347046,0.00208580
4362.96227783,0.00207308
4364.89108520,0.00208529
4366.81989258,0.00207724
4368.74869995,0.00204081
4370.67750732,0.00206442
4372.60631470,0.00202443
4374.53512207,0.00200039
4376.46392944,0.00204416
4378.39273682,0.00200681
4380.32154419,0.00206802
4382.25035156,0.00209956
4384.17915894,0.00202027
4386.10796631,0.00206094
4388.03677368,0.00200504
4389.96558105,0.00202458
4391.89438843,0.00203927
4393.82319580,0.00196186
4395.75200317,0.00211905
4397.68081055,0.00202610
4399.60961792,0.00186287
4401.53842529,0.00194658
4403.46723267,0.00197980
4405.39604004,0.00198818
4407.32484741,0.00193782
4409.25365478,0.00195197
4411.18246216,0.00192035
4413.11126953,0.00186499
4415.04007690,0.00191956
4416.96888428,0.00189990
4418.89769165,0.00192460
4420.82649902,0.00191268
4422.75530640,0.00187833
4424.68411377,0.00191801
4426.61292114,0.00184282
4428.54172852,0.00178058
4430.47053589,0.00185150
4432.39934326,0.00190163
4434.32815063,0.00185443
4436.25695801,0.00183081
4438.18576538,0.00187914
4440.11457275,0.00183148
4442.04338013,0.00186470
4443.97218750,0.00200479
4445.90099487,0.00190228
4447.82980225,0.00186717
4449.75860962,0.00188786
4451.68741699,0.00182411
4453.61622437,0.00187086
4455.54503174,0.00181824
4457.47383911,0.00181622
4459.40264648,0.00179284
4461.33145386,0.00180391
4463.26026123,0.00190687
4465.18906860,0.00179241
4467.11787598,0.00178917
4469.04668335,0.00180553
4470.97549072,0.00179175
4472.90429810,0.00186093
4474.83310547,0.00186062
4476.76191284,0.00183689
4478.69072021,0.00181711
4480.61952759,0.00183235
4482.54833496,0.00177640
4484.47714233,0.00175778
4486.40594971,0.00176911
4488.33475708,0.00183199
4490.26356445,0.00185404
4492.19237183,0.00174202
4494.12117920,0.00179757
4496.04998657,0.00177976
4497.97879395,0.00175445
4499.90760132,0.00176598
4501.83640869,0.00174714
4503.76521606,0.00181984
4505.69402344,0.00178231
4507.62283081,0.00173833
4509.55163818,0.00172827
4511.48044556,0.00181293
4513.40925293,0.00180478
4515.33806030,0.00169804
4517.26686768,0.00177644
4519.19567505,0.00174493
4521.12448242,0.00167281
4523.05328979,0.00174658
4524.98209717,0.00175882
4526.91090454,0.00165378
4528.83971191,0.00164758
4530.76851929,0.00165042
4532.69732666,0.00168933
4534.62613403,0.00176842
4536.55494141,0.00163394
4538.48374878,0.00162523
4540.41255615,0.00164868
4542.34136353,0.00166621
4544.27017090,0.00174955
4546.19897827,0.00166742
4548.12778564,0.00169666
4550.05659302,0.00173740
4551.98540039,0.00166780
4553.91420776,0.00165249
4555.84301514,0.00168081
4557.77182251,0.00163737
4559.70062988,0.00158994
4561.62943726,0.00164830
4563.55824463,0.00164163
4565.48705200,0.00160534
4567.41585937,0.00163271
4569.34466675,0.00165568
4571.27347412,0.00156962
4573.20228149,0.00157780
4575.13108887,0.00162654
4577.05989624,0.00156161
4578.98870361,0.00160032
4580.91751099,0.00156859
4582.84631836,0.00151777
4584.77512573,0.00151953
4586.70393311,0.00156305
4588.63274048,0.00168095
4590.56154785,0.00164522
4592.49035522,0.00154568
4594.41916260,0.00151822
4596.34796997,0.00155074
4598.27677734,0.00158821
4600.20558472,0.00158034
4602.13439209,0.00147853
4604.06319946,0.00153615
4605.99200684,0.00164302
4607.92081421,0.00150890
4609.84962158,0.00155610
4611.77842895,0.00157892
4613.70723633,0.00149116
4615.63604370,0.00153133
4617.56485107,0.00148533
4619.49365845,0.00146355
4621.42246582,0.00147946
4623.35127319,0.00147298
4625.28008057,0.00154787
4627.20888794,0.00156683
4629.13769531,0.00147674
4631.06650269,0.00153251
4632.99531006,0.00154730
4634.92411743,0.00150939
4636.85292480,0.00153287
4638.78173218,0.00144728
4640.71053955,0.00146826
4642.63934692,0.00145169
4644.56815430,0.00144666
4646.49696167,0.00143728
4648.42576904,0.00142752
4650.35457642,0.00155568
4652.28338379,0.00138134
4654.21219116,0.00136520
4656.14099853,0.00151579
4658.06980591,0.00143497
4659.99861328,0.00143317
4661.92742065,0.00144687
4663.85622803,0.00144114
4665.78503540,0.00144879
4667.71384277,0.00144711
4669.64265015,0.00145817
4671.57145752,0.00150921
4673.50026489,0.00141706
4675.42907227,0.00136339
4677.35787964,0.00144226
4679.28668701,0.00140453
4681.21549438,0.00143173
4683.14430176,0.00141526
4685.07310913,0.00145673
4687.00191650,0.00143846
4688.93072388,0.00137073
4690.85953125,0.00144428
4692.78833862,0.00133052
4694.71714600,0.00136124
4696.64595337,0.00141505
4698.57476074,0.00136475
4700.50356812,0.00140639
4702.43237549,0.00137386
4704.36118286,0.00135320
4706.28999023,0.00136502
4708.21879761,0.00141683
4710.14760498,0.00140957
4712.07641235,0.00137437
4714.00521973,0.00136671
4715.93402710,0.00145317
4717.86283447,0.00145056
4719.79164185,0.00125843
4721.72044922,0.00131303
4723.64925659,0.00133274
4725.57806396,0.00131313
4727.50687134,0.00142272
4729.43567871,0.00135352
4731.36448608,0.00127360
4733.29329346,0.00131954
4735.22210083,0.00134485
4737.15090820,0.00132750
4739.07971558,0.00135351
4741.00852295,0.00129161
4742.93733032,0.00122879
4744.86613770,0.00127413
4746.79494507,0.00128391
4748.72375244,0.00127880
4750.65255981,0.00129899
4752.58136719,0.00128495
4754.51017456,0.00120370
4756.43898193,0.00123623
4758.36778931,0.00128542
4760.29659668,0.00127935
4762.22540405,0.00128006
4764.15421143,0.00127540
4766.08301880,0.00128291
4768.01182617,0.00124356
4769.94063354,0.00126182
4771.86944092,0.00120911
4773.79824829,0.00121811
4775.72705566,0.00131081
4777.65586304,0.00127312
4779.58467041,0.00123499
4781.51347778,0.00119961
4783.44228516,0.00122205
4785.37109253,0.00118072
4787.29989990,0.00122081
4789.22870728,0.00128127
4791.15751465,0.00127290
4793.08632202,0.00128479
4795.01512939,0.00113839
4796.94393677,0.00119881
4798.87274414,0.00122304
4800.80155151,0.00119882
4802.73035889,0.00125060
4804.65916626,0.00114406
4806.58797363,0.00122987
4808.51678101,0.00122743
4810.44558838,0.00121531
4812.37439575,0.00130463
4814.30320312,0.00120713
4816.23201050,0.00120276
4818.16081787,0.00124341
4820.08962524,0.00115813
4822.01843262,0.00115406
4823.94723999,0.00122719
4825.87604736,0.00118953
4827.80485474,0.00121260
4829.73366211,0.00122512
4831.66246948,0.00124830
4833.59127686,0.00122964
4835.52008423,0.00107826
4837.44889160,0.00113107
4839.37769897,0.00113072
4841.30650635,0.00112068
4843.23531372,0.00111315
4845.16412109,0.00107561
4847.09292847,0.00114960
4849.02173584,0.00112875
4850.95054321,0.00120455
4852.87935059,0.00115660
4854.80815796,0.00109250
4856.73696533,0.00116851
4858.66577270,0.00111519
4860.59458008,0.00115112
4862.52338745,0.00116268
4864.45219482,0.00113362
4866.38100220,0.00116783
4868.30980957,0.00113808
4870.23861694,0.00108155
4872.16742432,0.00114305
4874.09623169,0.00112896
4876.02503906,0.00105663
4877.95384644,0.00112338
4879.88265381,0.00109742
4881.81146118,0.00114014
4883.74026855,0.00110228
4885.66907593,0.00104053
4887.59788330,0.00114245
4889.52669067,0.00106685
4891.45549805,0.00104451
4893.38430542,0.00106066
4895.31311279,0.00110131
4897.24192017,0.00106360
4899.17072754,0.00099673
4901.09953491,0.00114834
4903.02834228,0.00109534
4904.95714966,0.00105050
4906.88595703,0.00109295
4908.81476440,0.00109441
4910.74357178,0.00109177
4912.67237915,0.00100360
4914.60118652,0.00105907
4916.52999390,0.00104213
4918.45880127,0.00103110
4920.38760864,0.00108047
4922.31641602,0.00103802
4924.24522339,0.00106582
4926.17403076,0.00102874
4928.10283813,0.00108323
4930.03164551,0.00109338
4931.96045288,0.00101632
4933.88926025,0.00109556
4935.81806763,0.00105016
4937.74687500,0.00100850
4939.67568237,0.00100608
4941.60448975,0.00096872
4943.53329712,0.00095951
4945.46210449,0.00097635
4947.39091187,0.00106107
4949.31971924,0.00095931
4951.24852661,0.00091354
4953.17733398,0.00100945
4955.10614136,0.00098961
4957.03494873,0.00100312
4958.96375610,0.00098693
4960.89256348,0.00097209
4962.82137085,0.00098191
4964.75017822,0.00100152
4966.67898560,0.00104984
4968.60779297,0.00102084
4970.53660034,0.00095737
4972.46540771,0.00094514
4974.39421509,0.00100720
4976.32302246,0.00100841
4978.25182983,0.00098203
4980.18063721,0.00097224
4982.10944458,0.00102616
4984.03825195,0.00105258
4985.96705933,0.00089478
4987.89586670,0.00093000
4989.82467407,0.00102218
4991.75348145,0.00092840
4993.68228882,0.00092594
4995.61109619,0.00097059
4997.53990356,0.00092710
4999.46871094,0.00093811
5001.39751831,0.00097809
5003.32632568,0.00090281
5005.25513306,0.00093223
5007.18394043,0.00095401
5009.11274780,0.00090338
5011.04155518,0.00092053
5012.97036255,0.00087765
5014.89916992,0.00087850
5016.82797729,0.00093170
5018.75678467,0.00094449
5020.68559204,0.00084946
5022.61439941,0.00088048
5024.54320679,0.00098372
5026.47201416,0.00087636
5028.40082153,0.00087228
5030.32962891,0.00088825
5032.25843628,0.00088237
5034.18724365,0.00092940
5036.11605103,0.00090659
5038.04485840,0.00088204
5039.97366577,0.00089729
5041.90247314,0.00091295
5043.83128052,0.00089076
5045.76008789,0.00096087
5047.68889526,0.00091964
5049.61770264,0.00088649
5051.54651001,0.00092776
5053.47531738,0.00084541
5055.40412476,0.00094534
5057.33293213,0.00094684
5059.26173950,0.00087014
5061.19054687,0.00091845
5063.11935425,0.00093200
5065.04816162,0.00094131
5066.97696899,0.00082947
5068.90577637,0.00083798
5070.83458374,0.00089728
5072.76339111,0.00081330
5074.69219849,0.00082949
5076.62100586,0.00090366
5078.54981323,0.00087611
5080.47862061,0.00080722
5082.40742798,0.00080627
5084.33623535,0.00078962
5086.26504272,0.00081364
5088.19385010,0.00084788
5090.12265747,0.00080248
5092.05146484,0.00075806
5093.98027222,0.00079884
5095.90907959,0.00092971
5097.83788696,0.00088027
5099.76669434,0.00080942
5101.69550171,0.00087551
5103.62430908,0.00083198
5105.55311645,0.00079315
5107.48192383,0.00080618
5109.41073120,0.00081447
5111.33953857,0.00083031
5113.26834595,0.00078634
5115.19715332,0.00081017
5117.12596069,0.00086401
5119.05476807,0.00081318
5120.98357544,0.00079875
5122.91238281,0.00079093
5124.84119019,0.00080117
5126.76999756,0.00080809
5128.69880493,0.00075951
5130.62761230,0.00081701
5132.55641968,0.00083794
5134.48522705,0.00079043
5136.41403442,0.00074332
5138.34284180,0.00072691
5140.27164917,0.00079446
5142.20045654,0.00081430
5144.12926392,0.00080233
5146.05807129,0.00073883
5147.98687866,0.00069793
5149.91568603,0.00076142
5151.84449341,0.00081795
5153.77330078,0.00078584
5155.70210815,0.00071663
5157.63091553,0.00080012
5159.55972290,0.00088282
5161.48853027,0.00080412
5163.41733765,0.00075816
5165.34614502,0.00076658
5167.27495239,0.00072740
5169.20375977,0.00078597
5171.13256714,0.00081238
5173.06137451,0.00071896
5174.99018188,0.00074278
5176.91898926,0.00077304
5178.84779663,0.00080746
5180.77660400,0.00074877
5182.70541138,0.00070697
5184.63421875,0.00077266
5186.56302612,0.00073140
5188.49183350,0.00079297
5190.42064087,0.00076360
5192.34944824,0.00075433
5194.27825562,0.00076314
5196.20706299,0.00069161
5198.13587036,0.00080758
5200.06467773,0.00073206
5201.99348511,0.00072839
5203.92229248,0.00073524
5205.85109985,0.00060819
5207.77990723,0.00068544
5209.70871460,0.00069712
5211.63752197,0.00073360
5213.56632935,0.00068889
5215.49513672,0.00066362
5217.42394409,0.00074332
5219.35275146,0.00071147
5221.28155884,0.00074128
5223.21036621,0.00069553
5225.13917358,0.00069542
5227.06798096,0.00070865
5228.99678833,0.00064696
5230.92559570,0.00066024
5232.85440308,0.00063436
5234.78321045,0.00068345
5236.71201782,0.00072530
5238.64082520,0.00069896
5240.56963257,0.00072360
5242.49843994,0.00071050
5244.42724731,0.00065620
5246.35605469,0.00067060
5248.28486206,0.00071532
5250.21366943,0.00065195
5252.14247681,0.00063402
5254.07128418,0.00070002
5256.00009155,0.00070362
5257.92889893,0.00068354
5259.85770630,0.00064299
5261.78651367,0.00062592
5263.71532104,0.00066548
5265.64412842,0.00068223
5267.57293579,0.00066106
5269.50174316,0.00066984
5271.43055054,0.00070374
5273.35935791,0.00069801
5275.28816528,0.00070228
5277.21697266,0.00069056
5279.14578003,0.00067357
5281.07458740,0.00072190
5283.00339478,0.00071563
5284.93220215,0.00067442
5286.86100952,0.00061195
5288.78981689,0.00060884
5290.71862427,0.00070364
5292.64743164,0.00061709
5294.57623901,0.00057598
5296.50504639,0.00069740
5298.43385376,0.00069150
5300.36266113,0.00065618
5302.29146851,0.00063867
5304.22027588,0.00061530
5306.14908325,0.00063541
5308.07789062,0.00066356
5310.00669800,0.00065482
5311.93550537,0.00065807
5313.86431274,0.00066857
5315.79312012,0.00063890
5317.72192749,0.00065884
5319.65073486,0.00064642
5321.57954224,0.00056545
5323.50834961,0.00059022
5325.43715698,0.00066866
5327.36596436,0.00064331
5329.29477173,0.00065086
5331.22357910,0.00068303
5333.15238647,0.00060791
5335.08119385,0.00058905
5337.01000122,0.00060725
5338.93880859,0.00064435
5340.86761597,0.00062048
5342.79642334,0.00056102
5344.72523071,0.00059781
5346.65403809,0.00056676
5348.58284546,0.00063527
5350.51165283,0.00060802
5352.44046020,0.00049468
5354.36926758,0.00060106
5356.29807495,0.00056559
5358.22688232,0.00058726
5360.15568970,0.00065651
5362.08449707,0.00061547
5364.01330444,0.00068586
5365.94211182,0.00061574
5367.87091919,0.00058916
5369.79972656,0.00066810
5371.72853394,0.00059965
5373.65734131,0.00057679
5375.58614868,0.00057155
5377.51495605,0.00059222
5379.44376343,0.00062743
5381.37257080,0.00053883
5383.30137817,0.00052276
5385.23018555,0.00058481
5387.15899292,0.00056767
5389.08780029,0.00055925
5391.01660767,0.00059584
5392.94541504,0.00055783
5394.87422241,0.00057180
5396.80302978,0.00061998
5398.73183716,0.00052246
5400.66064453,0.00058109
5402.58945190,0.00062362
5404.51825928,0.00055396
5406.44706665,0.00063726
5408.37587402,0.00059011
5410.30468140,0.00058176
5412.23348877,0.00058688
5414.16229614,0.00051988
5416.09110352,0.00059765
5418.01991089,0.00052707
5419.94871826,0.00053537
5421.87752563,0.00064446
5423.80633301,0.00055752
5425.73514038,0.00055412
5427.66394775,0.00058401
5429.59275513,0.00054183
5431.52156250,0.00056363
5433.45036987,0.00056929
5435.37917725,0.00055772
5437.30798462,0.00055305
5439.23679199,0.00053943
5441.16559936,0.00060896
5443.09440674,0.00054585
5445.02321411,0.00047077
5446.95202148,0.00059418
5448.88082886,0.00060200
5450.80963623,0.00053776
5452.73844360,0.00050309
5454.66725098,0.00051156
5456.59605835,0.00051755
5458.52486572,0.00054842
5460.45367310,0.00053565
5462.38248047,0.00044889
5464.31128784,0.00056852
5466.24009521,0.00053546
5468.16890259,0.00049068
5470.09770996,0.00056632
5472.02651733,0.00051908
5473.95532471,0.00053387
5475.88413208,0.00046078
5477.81293945,0.00051554
5479.74174683,0.00054557
5481.67055420,0.00047665
5483.59936157,0.00053342
5485.52816895,0.00049506
5487.45697632,0.00056019
5489.38578369,0.00056833
5491.31459106,0.00047446
5493.24339844,0.00048116
5495.17220581,0.00052820
5497.10101318,0.00052050
5499.02982056,0.00049900
5500.95862793,0.00055151
5502.88743530,0.00050042
5504.81624268,0.00052256
5506.74505005,0.00050359
5508.67385742,0.00048562
5510.60266479,0.00055012
5512.53147217,0.00049001
5514.46027954,0.00053977
5516.38908691,0.00048673
5518.31789429,0.00044531
5520.24670166,0.00048544
5522.17550903,0.00047482
5524.10431641,0.00050688
5526.03312378,0.00040561
5527.96193115,0.00041845
5529.89073853,0.00047326
5531.81954590,0.00048556
5533.74835327,0.00047628
5535.67716064,0.00041229
5537.60596802,0.00052311
5539.53477539,0.00049906
5541.46358276,0.00042114
5543.39239014,0.00051952
5545.32119751,0.00049999
5547.25000488,0.00047376
5549.17881226,0.00053271
5551.10761963,0.00052011
5553.03642700,0.00050613
5554.96523437,0.00045195
5556.89404175,0.00046501
5558.82284912,0.00050977
5560.75165649,0.00041797
5562.68046387,0.00050400
5564.60927124,0.00050288
5566.53807861,0.00041731
5568.46688599,0.00044017
5570.39569336,0.00041855
5572.32450073,0.00049533
5574.25330811,0.00044244
5576.18211548,0.00047402
5578.11092285,0.00046937
5580.03973022,0.00040295
5581.96853760,0.00050654
5583.89734497,0.00037173
5585.82615234,0.00043296
5587.75495972,0.00050374
5589.68376709,0.00043657
5591.61257446,0.00047283
5593.54138184,0.00037333
5595.47018921,0.00044180
5597.39899658,0.00048033
5599.32780395,0.00045756
5601.25661133,0.00045161
5603.18541870,0.00041837
5605.11422607,0.00047298
5607.04303345,0.00039816
5608.97184082,0.00043814
5610.90064819,0.00049526
5612.82945557,0.00037922
5614.75826294,0.00040602
5616.68707031,0.00048926
5618.61587769,0.00044028
5620.54468506,0.00041910
5622.47349243,0.00043457
5624.40229980,0.00039114
5626.33110718,0.00042747
5628.25991455,0.00040073
5630.18872192,0.00037526
5632.11752930,0.00042412
5634.04633667,0.00037179
5635.97514404,0.00039200
5637.90395142,0.00044303
5639.83275879,0.00043013
5641.76156616,0.00041854
5643.69037353,0.00041667
5645.61918091,0.00041410
5647.54798828,0.00041909
5649.47679565,0.00042646
5651.40560303,0.00042690
5653.33441040,0.00044578
5655.26321777,0.00042290
5657.19202515,0.00040327
5659.12083252,0.00039447
5661.04963989,0.00037563
5662.97844727,0.00034829
5664.90725464,0.00038465
5666.83606201,0.00045900
5668.76486938,0.00042274
5670.69367676,0.00042905
5672.62248413,0.00043556
5674.55129150,0.00043535
5676.48009888,0.00043017
5678.40890625,0.00038182
5680.33771362,0.00038469
5682.26652100,0.00035488
5684.19532837,0.00042503
5686.12413574,0.00041435
5688.05294311,0.00032710
5689.98175049,0.00040271
5691.91055786,0.00040001
5693.83936523,0.00037214
5695.76817261,0.00036469
5697.69697998,0.00035572
5699.62578735,0.00037974
5701.55459473,0.00036978
5703.48340210,0.00033159
5705.41220947,0.00034053
5707.34101685,0.00039146
5709.26982422,0.00038559
5711.19863159,0.00038306
5713.12743896,0.00035335
5715.05624634,0.00036731
5716.98505371,0.00041737
5718.91386108,0.00037217
5720.84266846,0.00036200
5722.77147583,0.00038814
5724.70028320,0.00038446
5726.62909058,0.00035164
5728.55789795,0.00036592
5730.48670532,0.00037778
5732.41551270,0.00040307
5734.34432007,0.00044347
5736.27312744,0.00037390
5738.20193481,0.00038200
5740.13074219,0.00039657
5742.05954956,0.00038983
5743.98835693,0.00043278
5745.91716431,0.00038517
5747.84597168,0.00035901
5749.77477905,0.00036757
5751.70358643,0.00033275
5753.63239380,0.00034173
5755.56120117,0.00036783
5757.49000854,0.00030957
5759.41881592,0.00033699
5761.34762329,0.00037116
5763.27643066,0.00032892
5765.20523804,0.00034683
5767.13404541,0.00030289
5769.06285278,0.00033888
5770.99166016,0.00034588
5772.92046753,0.00030802
5774.84927490,0.00036222
5776.77808228,0.00033990
5778.70688965,0.00037895
5780.63569702,0.00032540
5782.56450439,0.00031483
5784.49331177,0.00041005
5786.42211914,0.00032958
5788.35092651,0.00034374
5790.27973389,0.00037620
5792.20854126,0.00034652
5794.13734863,0.00037442
5796.06615601,0.00040833
5797.99496338,0.00040387
5799.92377075,0.00038159
5801.85257812,0.00035381
5803.78138550,0.00031874
5805.71019287,0.00039991
5807.63900024,0.00036727
5809.56780762,0.00028003
5811.49661499,0.00033884
5813.42542236,0.00032899
5815.35422974,0.00031275
5817.28303711,0.00032828
5819.21184448,0.00034741
5821.14065186,0.00033830
5823.06945923,0.00032304
5824.99826660,0.00035155
5826.92707397,0.00032842
5828.85588135,0.00028569
5830.78468872,0.00030462
5832.71349609,0.00038197
5834.64230347,0.00037391
5836.57111084,0.00035192
5838.49991821,0.00035099
5840.42872559,0.00035445
5842.35753296,0.00039591
5844.28634033,0.00030883
5846.21514770,0.00034582
5848.14395508,0.00040584
5850.07276245,0.00030276
5852.00156982,0.00036349
5853.93037720,0.00039278
5855.85918457,0.00035054
5857.78799194,0.00035584
5859.71679932,0.00032683
5861.64560669,0.00032133
5863.57441406,0.00027978
5865.50322144,0.00026849
5867.43202881,0.00031480
5869.36083618,0.00030011
5871.28964355,0.00030291
5873.21845093,0.00034736
5875.14725830,0.00033356
5877.07606567,0.00030204
5879.00487305,0.00030278
5880.93368042,0.00027376
5882.86248779,0.00025636
5884.79129517,0.00029597
5886.72010254,0.00033326
5888.64890991,0.00031178
5890.57771728,0.00027428
5892.50652466,0.00032732
5894.43533203,0.00036119
5896.36413940,0.00030760
5898.29294678,0.00028602
5900.22175415,0.00027295
5902.15056152,0.00027779
5904.07936890,0.00032341
5906.00817627,0.00034096
5907.93698364,0.00031642
5909.86579102,0.00026836
5911.79459839,0.00029560
5913.72340576,0.00036750
5915.65221313,0.00032443
5917.58102051,0.00021694
5919.50982788,0.00022008
5921.43863525,0.00028543
5923.36744263,0.00024013
5925.29625000,0.00020454
5927.22505737,0.00026046
5929.15386475,0.00028904
5931.08267212,0.00027954
5933.01147949,0.00030001
5934.94028686,0.00030190
5936.86909424,0.00024741
5938.79790161,0.00029800
5940.72670898,0.00031386
5942.65551636,0.00026116
5944.58432373,0.00030828
5946.51313110,0.00030302
5948.44193848,0.00027157
5950.37074585,0.00026949
5952.29955322,0.00032424
5954.22836060,0.00029135
5956.15716797,0.00020474
5958.08597534,0.00030005
5960.01478271,0.00027400
5961.94359009,0.00027336
5963.87239746,0.00033283
5965.80120483,0.00026755
5967.73001221,0.00028833
5969.65881958,0.00030105
5971.58762695,0.00031546
5973.51643433,0.00023597
5975.44524170,0.00024166
5977.37404907,0.00032210
5979.30285645,0.00021972
5981.23166382,0.00032525
5983.16047119,0.00031850
5985.08927856,0.00022286
5987.01808594,0.00029305
5988.94689331,0.00022608
5990.87570068,0.00026053
5992.80450806,0.00024278
5994.73331543,0.00023495
5996.66212280,0.00034058
5998.59093018,0.00028439
6000.51973755,0.00028402
