399.26312622,0.00136266
401.19193359,0.00203425
403.12074097,0.00177612
405.04954834,0.00182037
406.97835571,0.00262637
408.90716309,0.00284297
410.83597046,0.00261125
412.76477783,0.00253904
414.69358521,0.00256551
416.62239258,0.00297315
418.55119995,0.00258324
420.48000732,0.00259464
422.40881470,0.00314565
424.33762207,0.00240602
426.26642944,0.00279165
428.19523682,0.00315867
430.12404419,0.00302852
432.05285156,0.00308641
433.98165894,0.00262501
435.91046631,0.00304219
437.83927368,0.00288221
439.76808105,0.00278895
441.69688843,0.00291617
443.62569580,0.00234465
445.55450317,0.00262324
447.48331055,0.00262093
449.41211792,0.00232322
451.34092529,0.00243844
453.26973267,0.00243336
455.19854004,0.00221479
457.12734741,0.00213284
459.05615479,0.00197711
460.98496216,0.00139775
462.91376953,0.00162795
464.84257690,0.00178243
466.77138428,0.00095583
468.70019165,0.00092908
470.62899902,0.00129408
472.55780640,0.00116051
474.48661377,0.00134615
476.41542114,0.00110858
478.34422852,0.00078976
480.27303589,0.00101639
482.20184326,0.00056331
484.13065063,0.00047300
486.05945801,0.00066358
487.98826538,0.00054391
489.91707275,0.00048605
491.84588013,0.00022938
493.77468750,0.00067731
495.70349487,0.00081923
497.63230225,0.00070155
499.56110962,0.00058183
501.48991699,0.00016609
503.41872437,0.00070378
505.34753174,0.00064539
507.27633911,0.00049358
509.20514648,0.00066684
511.13395386,0.00013840
513.06276123,-0.00005970
514.99156860,0.00002470
516.92037598,0.00048379
518.84918335,0.00040981
520.77799072,-0.00003636
522.70679810,-0.00007698
524.63560547,0.00016006
526.56441284,0.00032685
528.49322021,0.00006593
530.42202759,0.00065033
532.35083496,0.00051575
534.27964233,-0.00003110
536.20844971,0.00038353
538.13725708,0.00036057
540.06606445,0.00052102
541.99487183,0.00044876
543.92367920,0.00025663
545.85248657,0.00037169
547.78129395,0.00031173
549.71010132,0.00033603
551.63890869,0.00016428
553.56771606,0.00009111
555.49652344,0.00001665
557.42533081,0.00019715
559.35413818,0.00025353
561.28294556,0.00027367
563.21175293,0.00058035
565.14056030,0.00033358
567.06936768,0.00025030
568.99817505,0.00022657
570.92698242,0.00034045
572.85578979,0.00050198
574.78459717,0.00036894
576.71340454,0.00061931
578.64221191,0.00041650
580.57101929,0.00024311
582.49982666,0.00035916
584.42863403,-0.00013461
586.35744141,0.00019118
588.28624878,0.00065283
590.21505615,-0.00010942
592.14386353,-0.00030992
594.07267090,0.00020817
596.00147827,0.00036595
597.93028564,0.00002357
599.85909302,0.00001649
601.78790039,0.00011633
603.71670776,-0.00018630
605.64551514,0.00009572
607.57432251,0.00001900
609.50312988,-0.00009920
611.43193726,0.00009134
613.36074463,-0.00005968
615.28955200,0.00018835
617.21835938,0.00023543
619.14716675,0.00013872
621.07597412,0.00015559
623.00478149,0.00028788
624.93358887,0.00049794
626.86239624,0.00023575
628.79120361,0.00011151
630.72001099,0.00066321
632.64881836,0.00144305
634.57762573,0.00160833
636.50643311,0.00169741
638.43524048,0.00195081
640.36404785,0.00227911
642.29285522,0.00284083
644.22166260,0.00282215
646.15046997,0.00299693
648.07927734,0.00313626
650.00808472,0.00306601
651.93689209,0.00349360
653.86569946,0.00352184
655.79450684,0.00357652
657.72331421,0.00381874
659.65212158,0.00401767
661.58092896,0.00385229
663.50973633,0.00411468
665.43854370,0.00477664
667.36735107,0.00428995
669.29615845,0.00457291
671.22496582,0.00507966
673.15377319,0.00519212
675.08258057,0.00542776
677.01138794,0.00517875
678.94019531,0.00571145
680.86900269,0.00576675
682.79781006,0.00561360
684.72661743,0.00555886
686.65542480,0.00521506
688.58423218,0.00553791
690.51303955,0.00552182
692.44184692,0.00599132
694.37065430,0.00652439
696.29946167,0.00718341
698.22826904,0.00838665
700.15707642,0.00874412
702.08588379,0.00866535
704.01469116,0.00803861
705.94349854,0.00736554
707.87230591,0.00632022
709.80111328,0.00498816
711.72992065,0.00380413
713.65872803,0.00222598
715.58753540,0.00128668
717.51634277,0.00076919
719.44515015,0.00063381
721.37395752,0.00047241
723.30276489,0.00016857
725.23157227,0.00037247
727.16037964,0.00031824
729.08918701,0.00021178
731.01799438,0.00036120
732.94680176,0.00046054
734.87560913,-0.00008055
736.80441650,-0.00017133
738.73322388,0.00033529
740.66203125,0.00007976
742.59083862,0.00008680
744.51964600,0.00038673
746.44845337,0.00033791
748.37726074,0.00018177
750.30606812,0.00020183
752.23487549,0.00037724
754.16368286,0.00042043
756.09249023,0.00024206
758.02129761,0.00010655
759.95010498,0.00043045
761.87891235,0.00053872
763.80771973,0.00025605
765.73652710,0.00033021
767.66533447,0.00052886
769.59414185,0.00058524
771.52294922,0.00069752
773.45175659,0.00044882
775.38056396,0.00055922
777.30937134,0.00063665
779.23817871,0.00018601
781.16698608,0.00067024
783.09579346,0.00078316
785.02460083,0.00074950
786.95340820,0.00100810
788.88221558,0.00049524
790.81102295,0.00053948
792.73983032,0.00082820
794.66863770,0.00077072
796.59744507,0.00084916
798.52625244,0.00142652
800.45505981,0.00153684
802.38386719,0.00106866
804.31267456,0.00095460
806.24148193,0.00070374
808.17028931,0.00092488
810.09909668,0.00076514
812.02790405,0.00038733
813.95671143,0.00049608
815.88551880,0.00048409
817.81432617,0.00061157
819.74313354,0.00041986
821.67194092,0.00052102
823.60074829,0.00060954
825.52955566,0.00066910
827.45836304,0.00091872
829.38717041,0.00113538
831.31597778,0.00149230
833.24478516,0.00151501
835.17359253,0.00188749
837.10239990,0.00187514
839.03120728,0.00172845
840.96001465,0.00190857
842.88882202,0.00174447
844.81762939,0.00146376
846.74643677,0.00119128
848.67524414,0.00147435
850.60405151,0.00141406
852.53285889,0.00120397
854.46166626,0.00095373
856.39047363,0.00083129
858.31928101,0.00111650
860.24808838,0.00066918
862.17689575,0.00070805
864.10570313,0.00085830
866.03451050,0.00072017
867.96331787,0.00070048
869.89212524,0.00057837
871.82093262,0.00068378
873.74973999,0.00044006
875.67854736,0.00048233
877.60735474,0.00067914
879.53616211,0.00052733
881.46496948,0.00033181
883.39377686,0.00048565
885.32258423,0.00047601
887.25139160,-0.00000377
889.18019897,0.00045195
891.10900635,0.00072710
893.03781372,0.00061920
894.96662109,0.00066317
896.89542847,0.00044060
898.82423584,0.00060239
900.75304321,0.00060696
902.68185059,0.00060801
904.61065796,0.00067864
906.53946533,0.00069280
908.46827271,0.00094244
910.39708008,0.00073418
912.32588745,0.00079276
914.25469482,0.00121535
916.18350220,0.00116380
918.11230957,0.00115334
920.04111694,0.00129668
921.96992432,0.00151191
923.89873169,0.00173720
925.82753906,0.00183526
927.75634644,0.00202744
929.68515381,0.00209680
931.61396118,0.00239280
933.54276855,0.00267762
935.47157593,0.00262824
937.40038330,0.00280796
939.32919067,0.00272256
941.25799805,0.00284760
943.18680542,0.00296511
945.11561279,0.00277188
947.04442017,0.00303482
948.97322754,0.00291108
950.90203491,0.00277881
952.83084229,0.00284131
954.75964966,0.00271932
956.68845703,0.00288924
958.61726440,0.00286255
960.54607178,0.00264957
962.47487915,0.00268770
964.40368652,0.00297429
966.33249390,0.00331480
968.26130127,0.00326093
970.19010864,0.00309577
972.11891602,0.00352533
974.04772339,0.00382958
975.97653076,0.00372008
977.90533813,0.00409385
979.83414551,0.00461009
981.76295288,0.00485601
983.69176025,0.00538539
985.62056763,0.00608873
987.54937500,0.00655247
989.47818237,0.00721772
991.40698975,0.00802455
993.33579712,0.00885539
995.26460449,0.00956143
997.19341187,0.01026742
999.12221924,0.01128958
1001.05102661,0.01211849
1002.97983398,0.01308482
1004.90864136,0.01372336
1006.83744873,0.01458038
1008.76625610,0.01584118
1010.69506348,0.01642263
1012.62387085,0.01741445
1014.55267822,0.01834563
1016.48148560,0.01916645
1018.41029297,0.02007619
1020.33910034,0.02102128
1022.26790771,0.02213705
1024.19671509,0.02270737
1026.12552246,0.02370986
1028.05432983,0.02451709
1029.98313721,0.02513146
1031.91194458,0.02607338
1033.84075195,0.02662799
1035.76955933,0.02695774
1037.69836670,0.02703417
1039.62717407,0.02722890
1041.55598145,0.02723403
1043.48478882,0.02717343
1045.41359619,0.02676364
1047.34240356,0.02629377
1049.27121094,0.02616142
1051.20001831,0.02554255
1053.12882568,0.02516973
1055.05763306,0.02475829
1056.98644043,0.02428458
1058.91524780,0.02362548
1060.84405518,0.02298272
1062.77286255,0.02250192
1064.70166992,0.02152213
1066.63047729,0.02094502
1068.55928467,0.01997554
1070.48809204,0.01896113
1072.41689941,0.01819870
1074.34570679,0.01727826
1076.27451416,0.01647395
1078.20332153,0.01534601
1080.13212891,0.01492022
1082.06093628,0.01435667
1083.98974365,0.01366834
1085.91855103,0.01328331
1087.84735840,0.01227011
1089.77616577,0.01169313
1091.70497314,0.01140074
1093.63378052,0.01098527
1095.56258789,0.01051384
1097.49139526,0.01007963
1099.42020264,0.00997339
1101.34901001,0.00982450
1103.27781738,0.00971812
1105.20662476,0.00964526
1107.13543213,0.00937161
1109.06423950,0.00915139
1110.99304687,0.00898777
1112.92185425,0.00871556
1114.85066162,0.00870690
1116.77946899,0.00869263
1118.70827637,0.00857818
1120.63708374,0.00868004
1122.56589111,0.00876465
1124.49469849,0.00877284
1126.42350586,0.00898128
1128.35231323,0.00925904
1130.28112061,0.00920571
1132.20992798,0.00949723
1134.13873535,0.00992339
1136.06754272,0.01037876
1137.99635010,0.01098821
1139.92515747,0.01130900
1141.85396484,0.01205755
1143.78277222,0.01279946
1145.71157959,0.01364135
1147.64038696,0.01462876
1149.56919434,0.01532569
1151.49800171,0.01628748
1153.42680908,0.01711548
1155.35561646,0.01774825
1157.28442383,0.01842001
1159.21323120,0.01924206
1161.14203857,0.01975187
1163.07084595,0.02031743
1164.99965332,0.02131760
1166.92846069,0.02212196
1168.85726807,0.02315263
1170.78607544,0.02399861
1172.71488281,0.02473587
1174.64369019,0.02581239
1176.57249756,0.02678180
1178.50130493,0.02762380
1180.43011230,0.02861666
1182.35891968,0.02975351
1184.28772705,0.03102659
1186.21653442,0.03243309
1188.14534180,0.03377634
1190.07414917,0.03567433
1192.00295654,0.03725858
1193.93176392,0.03869828
1195.86057129,0.04081831
1197.78937866,0.04261461
1199.71818604,0.04454463
1201.64699341,0.04632797
1203.57580078,0.04810515
1205.50460815,0.05021691
1207.43341553,0.05215587
1209.36222290,0.05397620
1211.29103027,0.05560114
1213.21983765,0.05708598
1215.14864502,0.05844720
1217.07745239,0.05995829
1219.00625977,0.06078725
1220.93506714,0.06173944
1222.86387451,0.06281745
1224.79268188,0.06311475
1226.72148926,0.06381471
1228.65029663,0.06401571
1230.57910400,0.06430916
1232.50791138,0.06452927
1234.43671875,0.06432160
1236.36552612,0.06456996
1238.29433350,0.06432296
1240.22314087,0.06433171
1242.15194824,0.06404503
1244.08075562,0.06356484
1246.00956299,0.06339037
1247.93837036,0.06293228
1249.86717773,0.06277178
1251.79598511,0.06214259
1253.72479248,0.06138562
1255.65359985,0.06066944
1257.58240723,0.05967463
1259.51121460,0.05888181
1261.44002197,0.05801452
1263.36882935,0.05728788
1265.29763672,0.05662526
1267.22644409,0.05565968
1269.15525146,0.05469429
1271.08405884,0.05395638
1273.01286621,0.05321677
1274.94167358,0.05246945
1276.87048096,0.05144978
1278.79928833,0.05013834
1280.72809570,0.04912834
1282.65690308,0.04838102
1284.58571045,0.04752772
1286.51451782,0.04643934
1288.44332520,0.04573861
1290.37213257,0.04526084
1292.30093994,0.04460908
1294.22974731,0.04435803
1296.15855469,0.04411072
1298.08736206,0.04378155
1300.01616943,0.04402865
1301.94497681,0.04427392
1303.87378418,0.04441845
1305.80259155,0.04495090
1307.73139893,0.04548735
1309.66020630,0.04638696
1311.58901367,0.04714255
1313.51782104,0.04772799
1315.44662842,0.04913042
1317.37543579,0.05013099
1319.30424316,0.05120188
1321.23305054,0.05297698
1323.16185791,0.05455725
1325.09066528,0.05627159
1327.01947266,0.05780464
1328.94828003,0.05905673
1330.87708740,0.06068642
1332.80589478,0.06211270
1334.73470215,0.06310269
1336.66350952,0.06399605
1338.59231689,0.06349496
1340.52112427,0.06403628
1342.44993164,0.06684828
1344.37873901,0.06740589
1346.30754639,0.06716569
1348.23635376,0.06723061
1350.16516113,0.06666403
1352.09396851,0.06662674
1354.02277588,0.06579874
1355.95158325,0.06524621
1357.88039062,0.06493081
1359.80919800,0.06380397
1361.73800537,0.06085180
1363.66681274,0.05969596
1365.59562012,0.06285196
1367.52442749,0.06161113
1369.45323486,0.06062583
1371.38204224,0.06187165
1373.31084961,0.05886617
1375.23965698,0.05900904
1377.16846436,0.06065758
1379.09727173,0.06051286
1381.02607910,0.06035171
1382.95488647,0.06032422
1384.88369385,0.06036002
1386.81250122,0.05742285
1388.74130859,0.05805562
1390.67011597,0.06313390
1392.59892334,0.06145383
1394.52773071,0.05707453
1396.45653809,0.06034058
1398.38534546,0.06024653
1400.31415283,0.05966429
1402.24296021,0.06502280
1404.17176758,0.06126618
1406.10057495,0.06159057
1408.02938232,0.06429228
1409.95818970,0.06143201
1411.88699707,0.06293291
1413.81580444,0.06093151
1415.74461182,0.06198140
1417.67341919,0.05587192
1419.60222656,0.04931446
1421.53103394,0.05736240
1423.45984131,0.05577859
1425.38864868,0.05386232
1427.31745605,0.05496471
1429.24626343,0.05045516
1431.17507080,0.04889147
1433.10387817,0.04998967
1435.03268555,0.04565696
1436.96149292,0.03811536
1438.89030029,0.04355984
1440.81910767,0.04526999
1442.74791504,0.04145112
1444.67672241,0.04366435
1446.60552979,0.04003043
1448.53433716,0.04029607
1450.46314453,0.04194383
1452.39195190,0.04257185
1454.32075928,0.04440508
1456.24956665,0.03636786
1458.17837402,0.03729737
1460.10718140,0.05045865
1462.03598877,0.05409013
1463.96479614,0.05363680
1465.89360352,0.05563193
1467.82241089,0.06355536
1469.75121826,0.06905638
1471.68002563,0.06090509
1473.60883301,0.06365109
1475.53764038,0.07324590
1477.46644775,0.07892862
1479.39525513,0.08726816
1481.32406250,0.08867332
1483.25286987,0.09407012
1485.18167725,0.09721400
1487.11048462,0.09564973
1489.03929199,0.09513173
1490.96809937,0.09533684
1492.89690674,0.11180706
1494.82571411,0.10981001
1496.75452148,0.09766155
1498.68332886,0.11090101
1500.61213623,0.11506869
1502.54094360,0.12333745
1504.46975098,0.11725251
1506.39855835,0.08363485
1508.32736572,0.10184677
1510.25617310,0.12201127
1512.18498047,0.11761029
1514.11378784,0.12839979
1516.04259521,0.11533529
1517.97140259,0.11961902
1519.90020996,0.11685500
1521.82901733,0.09934865
1523.75782471,0.12266137
1525.68663208,0.12111714
1527.61543945,0.12004282
1529.54424683,0.13422140
1531.47305420,0.12888986
1533.40186157,0.11767602
1535.33066895,0.12425245
1537.25947632,0.13465470
1539.18828369,0.09524426
1541.11709106,0.09774415
1543.04589844,0.11972752
1544.97470581,0.11394897
1546.90351318,0.13647199
1548.83232056,0.12740663
1550.76112793,0.13069059
1552.68993530,0.13125473
1554.61874268,0.11760236
1556.54755005,0.12714465
1558.47635742,0.08852984
1560.40516479,0.09363464
1562.33397217,0.13744071
1564.26277954,0.13011634
1566.19158691,0.13344535
1568.12039429,0.13271657
1570.04920166,0.11633594
1571.97800903,0.13479954
1573.90681641,0.13789484
1575.83562378,0.10757582
1577.76443115,0.12169956
1579.69323853,0.13957772
1581.62204590,0.13289851
1583.55085327,0.13629453
1585.47966064,0.13432097
1587.40846802,0.13542241
1589.33727539,0.13438743
1591.26608276,0.13404828
1593.19489014,0.13449326
1595.12369751,0.13278344
1597.05250488,0.13487980
1598.98131226,0.13379301
1600.91011963,0.13455309
1602.83892700,0.13228574
1604.76773437,0.13452467
1606.69654175,0.13262448
1608.62534912,0.13223869
1610.55415649,0.13214324
1612.48296387,0.13285649
1614.41177124,0.13553604
1616.34057861,0.10971619
1618.26938599,0.11824189
1620.19819336,0.13975179
1622.12700073,0.12351486
1624.05580811,0.12340933
1625.98461548,0.12984385
1627.91342285,0.12953311
1629.84223022,0.12854573
1631.77103760,0.13768704
1633.69984497,0.12752944
1635.62865234,0.10331272
1637.55745972,0.12059478
1639.48626709,0.13450488
1641.41507446,0.13104245
1643.34388184,0.13474000
1645.27268921,0.12138009
1647.20149658,0.10476867
1649.13030396,0.13154675
1651.05911133,0.12673157
1652.98791870,0.07863255
1654.91672607,0.10707627
1656.84553345,0.13789633
1658.77434082,0.13145238
1660.70314819,0.13549134
1662.63195557,0.12268414
1664.56076294,0.12895687
1666.48957031,0.13990630
1668.41837769,0.12160081
1670.34718506,0.11694430
1672.27599243,0.13385770
1674.20479980,0.12379101
1676.13360718,0.11727689
1678.06241455,0.13659337
1679.99122192,0.13165791
1681.92002930,0.12992373
1683.84883667,0.10529876
1685.77764404,0.10211089
1687.70645142,0.14348197
1689.63525879,0.12438631
1691.56406616,0.13592228
1693.49287354,0.14087731
1695.42168091,0.10035031
1697.35048828,0.12455259
1699.27929565,0.11031552
1701.20810303,0.09666671
1703.13691040,0.13514803
1705.06571777,0.12436308
1706.99452515,0.12426077
1708.92333252,0.13638258
1710.85213989,0.13061936
1712.78094727,0.13313235
1714.70975464,0.12331174
1716.63856201,0.10988232
1718.56736938,0.10759176
1720.49617676,0.12842636
1722.42498413,0.13476342
1724.35379150,0.12402427
1726.28259888,0.13574050
1728.21140625,0.12552685
1730.14021362,0.12541597
1732.06902100,0.12338984
1733.99782837,0.09197585
1735.92663574,0.11484540
1737.85544312,0.12934363
1739.78425049,0.11382322
1741.71305786,0.12407975
1743.64186523,0.12603553
1745.57067261,0.12635893
1747.49947998,0.12758388
1749.42828735,0.12159191
1751.35709473,0.11589760
1753.28590210,0.12878962
1755.21470947,0.13594168
1757.14351685,0.12288228
1759.07232422,0.13561074
1761.00113159,0.12779319
1762.92993896,0.12188324
1764.85874634,0.14133820
1766.78755371,0.12689045
1768.71636108,0.12726362
1770.64516846,0.12721947
1772.57397583,0.11309767
1774.50278320,0.12667060
1776.43159058,0.13476187
1778.36039795,0.13259390
1780.28920532,0.13093042
1782.21801270,0.13215496
1784.14682007,0.13203898
1786.07562744,0.12902677
1788.00443481,0.13606930
1789.93324219,0.13301054
1791.86204956,0.11932807
1793.79085693,0.12426841
1795.71966431,0.13431412
1797.64847168,0.13263242
1799.57727905,0.13049290
1801.50608643,0.12788287
1803.43489380,0.13226071
1805.36370117,0.13559450
1807.29250854,0.13323212
1809.22131592,0.13396344
1811.15012329,0.13013694
1813.07893066,0.13420984
1815.00773804,0.13531676
1816.93654541,0.13331041
1818.86535278,0.13458139
1820.79416016,0.13397217
1822.72296753,0.13628212
1824.65177490,0.12670068
1826.58058228,0.13093847
1828.50938965,0.13215549
1830.43819702,0.12299669
1832.36700439,0.13433987
1834.29581177,0.13386120
1836.22461914,0.13342474
1838.15342651,0.13315740
1840.08223389,0.13359874
1842.01104126,0.13446006
1843.93984863,0.11819857
1845.86865601,0.12581679
1847.79746338,0.13397649
1849.72627075,0.13060044
1851.65507812,0.13499689
1853.58388550,0.13210759
1855.51269287,0.13337727
1857.44150024,0.13288784
1859.37030762,0.13170671
1861.29911499,0.13284671
1863.22792236,0.13114175
1865.15672974,0.13264728
1867.08553711,0.12821931
1869.01434448,0.12229991
1870.94315186,0.12723818
1872.87195923,0.13267538
1874.80076660,0.13057566
1876.72957397,0.13133603
1878.65838135,0.13107133
1880.58718872,0.13012539
1882.51599609,0.13143338
1884.44480347,0.12913333
1886.37361084,0.13107643
1888.30241821,0.12811777
1890.23122559,0.12526916
1892.16003296,0.13044462
1894.08884033,0.12848222
1896.01764771,0.12787247
1897.94645508,0.12951995
1899.87526245,0.12871464
1901.80406982,0.12902814
1903.73287720,0.12818968
1905.66168457,0.12883371
1907.59049194,0.12741305
1909.51929932,0.12654331
1911.44810669,0.12734565
1913.37691406,0.12746105
1915.30572144,0.12893249
1917.23452881,0.12295201
1919.16333618,0.12273929
1921.09214355,0.12797871
1923.02095093,0.12373472
1924.94975830,0.12624122
1926.87856567,0.12794869
1928.80737305,0.12611577
1930.73618042,0.12770021
1932.66498779,0.12581852
1934.59379517,0.12703639
1936.52260254,0.12615013
1938.45140991,0.12650679
1940.38021729,0.12671188
1942.30902466,0.12211159
1944.23783203,0.12446404
1946.16663940,0.12603697
1948.09544678,0.12563685
1950.02425415,0.12610158
1951.95306152,0.12565884
1953.88186890,0.12591383
1955.81067627,0.12528394
1957.73948364,0.12587774
1959.66829102,0.12557694
1961.59709839,0.12510547
1963.52590576,0.12572072
1965.45471313,0.12493285
1967.38352051,0.12359501
1969.31232788,0.12458366
1971.24113525,0.12545341
1973.16994263,0.12445067
1975.09875000,0.12511653
1977.02755737,0.12474171
1978.95636475,0.12456991
1980.88517212,0.12443604
1982.81397949,0.12407397
1984.74278687,0.12472025
1986.67159424,0.12340808
1988.60040161,0.12372579
1990.52920898,0.12275550
1992.45801636,0.12112609
1994.38682373,0.12296720
1996.31563110,0.12331893
1998.24443848,0.12269222
2000.17324585,0.12265254
2002.10205322,0.12249615
2004.03086060,0.12234277
2005.95966797,0.12221222
2007.88847534,0.12189701
2009.81728271,0.12159629
2011.74609009,0.12142131
2013.67489746,0.12129939
2015.60370483,0.12058521
2017.53251221,0.11963748
2019.46131958,0.12024567
2021.39012695,0.12035023
2023.31893433,0.12005877
2025.24774170,0.11991985
2027.17654907,0.11949076
2029.10535645,0.11945730
2031.03416382,0.11913168
2032.96297119,0.11907823
2034.89177856,0.11862929
2036.82058594,0.11848735
2038.74939331,0.11836620
2040.67820068,0.11757368
2042.60700806,0.11761174
2044.53581543,0.11766447
2046.46462280,0.11742599
2048.39343018,0.11706998
2050.32223755,0.11694798
2052.25104492,0.11683704
2054.17985229,0.11659615
2056.10865967,0.11642797
2058.03746704,0.11619939
2059.96627441,0.11589694
2061.89508179,0.11565386
2063.82388916,0.11528526
2065.75269653,0.11458609
2067.68150391,0.11517574
2069.61031128,0.11519998
2071.53911865,0.11462801
2073.46792603,0.11463952
2075.39673340,0.11415943
2077.32554077,0.11439377
2079.25434814,0.11400448
2081.18315552,0.11364559
2083.11196289,0.11365148
2085.04077026,0.11327644
2086.96957764,0.11315824
2088.89838501,0.11268528
2090.82719238,0.11269758
2092.75599976,0.11260559
2094.68480713,0.11242962
2096.61361450,0.11217539
2098.54242187,0.11212923
2100.47122925,0.11211868
2102.40003662,0.11157426
2104.32884399,0.11162678
2106.25765137,0.11139037
2108.18645874,0.11129366
2110.11526611,0.11107290
2112.04407349,0.11086056
2113.97288086,0.11076514
2115.90168823,0.11040424
2117.83049561,0.11055809
2119.75930298,0.11010364
2121.68811035,0.11006339
2123.61691772,0.10999262
2125.54572510,0.10967822
2127.47453247,0.10978912
2129.40333984,0.10949159
2131.33214722,0.10950929
2133.26095459,0.10935062
2135.18976196,0.10913526
2137.11856934,0.10901146
2139.04737671,0.10893734
2140.97618408,0.10876828
2142.90499146,0.10855152
2144.83379883,0.10858931
2146.76260620,0.10835472
2148.69141357,0.10824950
2150.62022095,0.10804267
2152.54902832,0.10802570
2154.47783569,0.10792167
2156.40664307,0.10774571
2158.33545044,0.10775790
2160.26425781,0.10747413
2162.19306519,0.10739879
2164.12187256,0.10729259
2166.05067993,0.10722427
2167.97948730,0.10694716
2169.90829468,0.10695077
2171.83710205,0.10693837
2173.76590942,0.10656700
2175.69471680,0.10663435
2177.62352417,0.10640100
2179.55233154,0.10628587
2181.48113892,0.10615689
2183.40994629,0.10613193
2185.33875366,0.10605778
2187.26756104,0.10575391
2189.19636841,0.10583707
2191.12517578,0.10566802
2193.05398315,0.10563978
2194.98279053,0.10544787
2196.91159790,0.10525801
2198.84040527,0.10522366
2200.76921265,0.10511367
2202.69802002,0.10499502
2204.62682739,0.10470583
2206.55563477,0.10484651
2208.48444214,0.10469548
2210.41324951,0.10443437
2212.34205688,0.10438773
2214.27086426,0.10436752
2216.19967163,0.10420822
2218.12847900,0.10393956
2220.05728638,0.10400201
2221.98609375,0.10376030
2223.91490112,0.10363394
2225.84370850,0.10347921
2227.77251587,0.10334621
2229.70132324,0.10319987
2231.63013062,0.10284595
2233.55893799,0.10286324
2235.48774536,0.10263965
2237.41655273,0.10247525
2239.34536011,0.10229691
2241.27416748,0.10213916
2243.20297485,0.10213488
2245.13178223,0.10205621
2247.06058960,0.10192844
2248.98939697,0.10163091
2250.91820435,0.10157301
2252.84701172,0.10136767
2254.77581909,0.10122042
2256.70462646,0.10103596
2258.63343384,0.10095198
2260.56224121,0.10096777
2262.49104858,0.10059283
2264.41985596,0.10057910
2266.34866333,0.10042590
2268.27747070,0.10026596
2270.20627808,0.10026231
2272.13508545,0.10008732
2274.06389282,0.09999848
2275.99270020,0.09989864
2277.92150757,0.09980504
2279.85031494,0.09974488
2281.77912231,0.09970200
2283.70792969,0.09945141
2285.63673706,0.09944215
2287.56554443,0.09921810
2289.49435181,0.09879646
2291.42315918,0.09863006
2293.35196655,0.09831440
2295.28077393,0.09816498
2297.20958130,0.09775532
2299.13838867,0.09738441
2301.06719604,0.09706067
2302.99600342,0.09656130
2304.92481079,0.09617796
2306.85361816,0.09557640
2308.78242554,0.09471610
2310.71123291,0.09378220
2312.64004028,0.09300192
2314.56884766,0.09197005
2316.49765503,0.09101568
2318.42646240,0.08976516
2320.35526978,0.08834343
2322.28407715,0.08719246
2324.21288452,0.08592103
2326.14169189,0.08510409
2328.07049927,0.08391558
2329.99930664,0.08287781
2331.92811401,0.08231999
2333.85692139,0.08192940
2335.78572876,0.08164814
2337.71453613,0.08123970
2339.64334351,0.08135347
2341.57215088,0.08164941
2343.50095825,0.08300131
2345.42976562,0.08457158
2347.35857300,0.08801673
2349.28738037,0.09144018
2351.21618774,0.08809705
2353.14499512,0.08324481
2355.07380249,0.08027238
2357.00260986,0.07754878
2358.93141724,0.07611126
2360.86022461,0.07511935
2362.78903198,0.07491692
2364.71783936,0.07545269
2366.64664673,0.07651359
2368.57545410,0.07804419
2370.50426147,0.08006737
2372.43306885,0.08258121
2374.36187622,0.08500034
2376.29068359,0.08728337
2378.21949097,0.08932976
2380.14829834,0.09110662
2382.07710571,0.09209995
2384.00591309,0.09276455
2385.93472046,0.09317826
2387.86352783,0.09324135
2389.79233521,0.09326170
2391.72114258,0.09302884
2393.64994995,0.09293668
2395.57875732,0.09284741
2397.50756470,0.09283426
2399.43637207,0.09262317
2401.36517944,0.09238526
2403.29398682,0.09247949
2405.22279419,0.09236470
2407.15160156,0.09221132
2409.08040894,0.09211464
2411.00921631,0.09200085
2412.93802368,0.09179633
2414.86683105,0.09181159
2416.79563843,0.09169325
2418.72444580,0.09146821
2420.65325317,0.09142713
2422.58206055,0.09116943
2424.51086792,0.09113914
2426.43967529,0.09103456
2428.36848267,0.09093338
2430.29729004,0.09089421
2432.22609741,0.09072767
2434.15490479,0.09066869
2436.08371216,0.09050978
2438.01251953,0.09041175
2439.94132690,0.09023377
2441.87013428,0.09015758
2443.79894165,0.09009618
2445.72774902,0.08986842
2447.65655640,0.08973485
2449.58536377,0.08972367
2451.51417114,0.08967072
2453.44297852,0.08950885
2455.37178589,0.08947928
2457.30059326,0.08919968
2459.22940063,0.08906817
2461.15820801,0.08901833
2463.08701538,0.08883071
2465.01582275,0.08892699
2466.94463013,0.08873279
2468.87343750,0.08857042
2470.80224487,0.08857102
2472.73105225,0.08838465
2474.65985962,0.08824612
2476.58866699,0.08825283
2478.51747437,0.08809195
2480.44628174,0.08785453
2482.37508911,0.08781204
2484.30389648,0.08774918
2486.23270386,0.08773039
2488.16151123,0.08741914
2490.09031860,0.08728389
2492.01912598,0.08731388
2493.94793335,0.08711648
2495.87674072,0.08715231
2497.80554810,0.08694975
2499.73435547,0.08679140
2501.66316284,0.08678764
2503.59197021,0.08666736
2505.52077759,0.08655037
2507.44958496,0.08647097
2509.37839233,0.08638950
2511.30719971,0.08624082
2513.23600708,0.08619612
2515.16481445,0.08591895
2517.09362183,0.08585203
2519.02242920,0.08582418
2520.95123657,0.08559569
2522.88004395,0.08561600
2524.80885132,0.08552188
2526.73765869,0.08549692
2528.66646606,0.08534367
2530.59527344,0.08512555
2532.52408081,0.08507815
2534.45288818,0.08502405
2536.38169556,0.08487634
2538.31050293,0.08465876
2540.23931030,0.08466884
2542.16811768,0.08453663
2544.09692505,0.08437961
2546.02573242,0.08435314
2547.95453979,0.08428065
2549.88334717,0.08413340
2551.81215454,0.08402276
2553.74096191,0.08404484
2555.66976929,0.08389413
2557.59857666,0.08381748
2559.52738403,0.08374876
2561.45619141,0.08356188
2563.38499878,0.08344075
2565.31380615,0.08333966
2567.24261353,0.08321165
2569.17142090,0.08316344
2571.10022827,0.08312429
2573.02903564,0.08294673
2574.95784302,0.08284483
2576.88665039,0.08260883
2578.81545776,0.08250366
2580.74426514,0.08244877
2582.67307251,0.08231050
2584.60187988,0.08228914
2586.53068726,0.08210578
2588.45949463,0.08210655
2590.38830200,0.08204143
2592.31710937,0.08189875
2594.24591675,0.08175616
2596.17472412,0.08164234
2598.10353149,0.08158463
2600.03233887,0.08137964
2601.96114624,0.08139715
2603.88995361,0.08126518
2605.81876099,0.08118086
2607.74756836,0.08102524
2609.67637573,0.08089197
2611.60518311,0.08090124
2613.53399048,0.08061620
2615.46279785,0.08064787
2617.39160522,0.08058158
2619.32041260,0.08046842
2621.24921997,0.08031522
2623.17802734,0.08022481
2625.10683472,0.08023421
2627.03564209,0.07995355
2628.96444946,0.07992677
2630.89325684,0.07972256
2632.82206421,0.07967462
2634.75087158,0.07962738
2636.67967895,0.07948995
2638.60848633,0.07941496
2640.53729370,0.07922515
2642.46610107,0.07929385
2644.39490845,0.07896233
2646.32371582,0.07898517
2648.25252319,0.07890679
2650.18133057,0.07869612
2652.11013794,0.07881221
2654.03894531,0.07843050
2655.96775269,0.07853366
2657.89656006,0.07843854
2659.82536743,0.07826173
2661.75417480,0.07827778
2663.68298218,0.07805753
2665.61178955,0.07800865
2667.54059692,0.07779943
2669.46940430,0.07784241
2671.39821167,0.07761148
2673.32701904,0.07746468
2675.25582642,0.07750426
2677.18463379,0.07726616
2679.11344116,0.07728313
2681.04224854,0.07705340
2682.97105591,0.07699659
2684.89986328,0.07695810
2686.82867065,0.07673126
2688.75747803,0.07669075
2690.68628540,0.07656421
2692.61509277,0.07648887
2694.54390015,0.07643957
2696.47270752,0.07636022
2698.40151489,0.07617798
2700.33032227,0.07606816
2702.25912964,0.07596812
2704.18793701,0.07578699
2706.11674438,0.07575443
2708.04555176,0.07574885
2709.97435913,0.07562362
2711.90316650,0.07553625
2713.83197388,0.07549762
2715.76078125,0.07520449
2717.68958862,0.07506543
2719.61839600,0.07505856
2721.54720337,0.07495670
2723.47601074,0.07483277
2725.40481812,0.07466595
2727.33362549,0.07465618
2729.26243286,0.07452810
2731.19124023,0.07442987
2733.12004761,0.07434216
2735.04885498,0.07416806
2736.97766235,0.07408190
2738.90646973,0.07392804
2740.83527710,0.07380967
2742.76408447,0.07374614
2744.69289185,0.07372350
2746.62169922,0.07356136
2748.55050659,0.07337524
2750.47931396,0.07327424
2752.40812134,0.07324229
2754.33692871,0.07318011
2756.26573608,0.07295305
2758.19454346,0.07293835
2760.12335083,0.07284769
2762.05215820,0.07266884
2763.98096558,0.07261130
2765.90977295,0.07255286
2767.83858032,0.07239934
2769.76738770,0.07219103
2771.69619507,0.07215247
2773.62500244,0.07196337
2775.55380981,0.07186408
2777.48261719,0.07180403
2779.41142456,0.07161140
2781.34023193,0.07152838
2783.26903931,0.07144264
2785.19784668,0.07141742
2787.12665405,0.07122508
2789.05546143,0.07113865
2790.98426880,0.07109320
2792.91307617,0.07087520
2794.84188354,0.07077388
2796.77069092,0.07056329
2798.69949829,0.07048352
2800.62830566,0.07043219
2802.55711304,0.07015211
2804.48592041,0.07006522
2806.41472778,0.07011032
2808.34353516,0.06996316
2810.27234253,0.06978504
2812.20114990,0.06967457
2814.12995728,0.06952833
2816.05876465,0.06937973
2817.98757202,0.06921820
2819.91637939,0.06912367
2821.84518677,0.06908758
2823.77399414,0.06892501
2825.70280151,0.06866102
2827.63160889,0.06866334
2829.56041626,0.06857730
2831.48922363,0.06829442
2833.41803101,0.06823851
2835.34683838,0.06807224
2837.27564575,0.06800750
2839.20445312,0.06779753
2841.13326050,0.06753278
2843.06206787,0.06746958
2844.99087524,0.06705946
2846.91968262,0.06665836
2848.84848999,0.06622892
2850.77729736,0.06619316
2852.70610474,0.06629533
2854.63491211,0.06601903
2856.56371948,0.06602474
2858.49252686,0.06593804
2860.42133423,0.06583430
2862.35014160,0.06579231
2864.27894897,0.06567325
2866.20775635,0.06562085
2868.13656372,0.06557399
2870.06537109,0.06543692
2871.99417847,0.06522845
2873.92298584,0.06520084
2875.85179321,0.06508164
2877.78060059,0.06505352
2879.70940796,0.06492741
2881.63821533,0.06471419
2883.56702270,0.06474996
2885.49583008,0.06466050
2887.42463745,0.06452424
2889.35344482,0.06423560
2891.28225220,0.06422497
2893.21105957,0.06418748
2895.13986694,0.06389216
2897.06867432,0.06387267
2898.99748169,0.06362922
2900.92628906,0.06351726
2902.85509644,0.06345648
2904.78390381,0.06321792
2906.71271118,0.06307930
2908.64151855,0.06278998
2910.57032593,0.06254674
2912.49913330,0.06227908
2914.42794067,0.06182774
2916.35674805,0.06156994
2918.28555542,0.06155878
2920.21436279,0.06133775
2922.14317017,0.06127784
2924.07197754,0.06135155
2926.00078491,0.06108796
2927.92959229,0.06114761
2929.85839966,0.06122731
2931.78720703,0.06101015
2933.71601440,0.06103326
2935.64482178,0.06109873
2937.57362915,0.06104277
2939.50243652,0.06093876
2941.43124390,0.06086526
2943.36005127,0.06095907
2945.28885864,0.06097663
2947.21766602,0.06089215
2949.14647339,0.06080456
2951.07528076,0.06062532
2953.00408813,0.06052783
2954.93289551,0.06030015
2956.86170288,0.06008838
2958.79051025,0.05999141
2960.71931763,0.05982992
2962.64812500,0.05975816
2964.57693237,0.05953255
2966.50573975,0.05948095
2968.43454712,0.05953411
2970.36335449,0.05959354
2972.29216187,0.05969101
2974.22096924,0.05959320
2976.14977661,0.05971026
2978.07858398,0.05965901
2980.00739136,0.05957115
2981.93619873,0.05956469
2983.86500610,0.05955253
2985.79381348,0.05966191
2987.72262085,0.05949262
2989.65142822,0.05945283
2991.58023560,0.05935010
2993.50904297,0.05929240
2995.43785034,0.05939042
2997.36665771,0.05913718
2999.29546509,0.05899266
3001.22427246,0.05899232
3003.15307983,0.05885805
3005.08188721,0.05869105
3007.01069458,0.05870037
3008.93950195,0.05852728
3010.86830933,0.05828090
3012.79711670,0.05821769
3014.72592407,0.05810866
3016.65473145,0.05813238
3018.58353882,0.05800316
3020.51234619,0.05790446
3022.44115356,0.05776916
3024.36996094,0.05754843
3026.29876831,0.05758505
3028.22757568,0.05738117
3030.15638306,0.05716669
3032.08519043,0.05712416
3034.01399780,0.05696856
3035.94280518,0.05684234
3037.87161255,0.05688676
3039.80041992,0.05683302
3041.72922729,0.05670374
3043.65803467,0.05662916
3045.58684204,0.05641940
3047.51564941,0.05637205
3049.44445679,0.05630726
3051.37326416,0.05617282
3053.30207153,0.05605321
3055.23087891,0.05581664
3057.15968628,0.05573137
3059.08849365,0.05568724
3061.01730103,0.05564471
3062.94610840,0.05552806
3064.87491577,0.05533697
3066.80372314,0.05522748
3068.73253052,0.05523168
3070.66133789,0.05517945
3072.59014526,0.05494729
3074.51895264,0.05487110
3076.44776001,0.05480078
3078.37656738,0.05459861
3080.30537476,0.05450612
3082.23418213,0.05450324
3084.16298950,0.05441551
3086.09179687,0.05440522
3088.02060425,0.05434189
3089.94941162,0.05404714
3091.87821899,0.05402575
3093.80702637,0.05401327
3095.73583374,0.05382021
3097.66464111,0.05369366
3099.59344849,0.05354400
3101.52225586,0.05336342
3103.45106323,0.05330414
3105.37987061,0.05332125
3107.30867798,0.05308785
3109.23748535,0.05296569
3111.16629272,0.05294542
3113.09510010,0.05273127
3115.02390747,0.05252206
3116.95271484,0.05241542
3118.88152222,0.05233017
3120.81032959,0.05215724
3122.73913696,0.05211540
3124.66794434,0.05205607
3126.59675171,0.05197191
3128.52555908,0.05189718
3130.45436645,0.05180893
3132.38317383,0.05164469
3134.31198120,0.05137762
3136.24078857,0.05143096
3138.16959595,0.05128606
3140.09840332,0.05100714
3142.02721069,0.05095705
3143.95601807,0.05084071
3145.88482544,0.05071896
3147.81363281,0.05058261
3149.74244019,0.05041049
3151.67124756,0.05019362
3153.60005493,0.05016746
3155.52886230,0.05014613
3157.45766968,0.05001403
3159.38647705,0.04971085
3161.31528442,0.04953632
3163.24409180,0.04966846
3165.17289917,0.04944387
3167.10170654,0.04932563
3169.03051392,0.04922625
3170.95932129,0.04908228
3172.88812866,0.04894231
3174.81693604,0.04873922
3176.74574341,0.04874485
3178.67455078,0.04852718
3180.60335815,0.04848119
3182.53216553,0.04830299
3184.46097290,0.04816726
3186.38978027,0.04821571
3188.31858765,0.04803710
3190.24739502,0.04798645
3192.17620239,0.04772769
3194.10500977,0.04768136
3196.03381714,0.04754719
3197.96262451,0.04743918
3199.89143188,0.04746886
3201.82023926,0.04722578
3203.74904663,0.04717692
3205.67785400,0.04692272
3207.60666138,0.04689339
3209.53546875,0.04683368
3211.46427612,0.04666320
3213.39308350,0.04662246
3215.32189087,0.04646061
3217.25069824,0.04653130
3219.17950562,0.04635629
3221.10831299,0.04631574
3223.03712036,0.04633152
3224.96592773,0.04619899
3226.89473511,0.04611240
3228.82354248,0.04598188
3230.75234985,0.04594881
3232.68115723,0.04578138
3234.60996460,0.04578687
3236.53877197,0.04573148
3238.46757935,0.04564476
3240.39638672,0.04559939
3242.32519409,0.04551933
3244.25400146,0.04546369
3246.18280884,0.04533366
3248.11161621,0.04540013
3250.04042358,0.04532955
3251.96923096,0.04529866
3253.89803833,0.04511520
3255.82684570,0.04502576
3257.75565308,0.04514923
3259.68446045,0.04500901
3261.61326782,0.04500708
3263.54207520,0.04483911
3265.47088257,0.04485491
3267.39968994,0.04486405
3269.32849731,0.04470672
3271.25730469,0.04467718
3273.18611206,0.04455078
3275.11491943,0.04448018
3277.04372681,0.04442934
3278.97253418,0.04460074
3280.90134155,0.04448465
3282.83014893,0.04434901
3284.75895630,0.04431041
3286.68776367,0.04426931
3288.61657104,0.04436919
3290.54537842,0.04403833
3292.47418579,0.04404350
3294.40299316,0.04407611
3296.33180054,0.04393025
3298.26060791,0.04396075
3300.18941528,0.04396642
3302.11822266,0.04393076
3304.04703003,0.04376245
3305.97583740,0.04374078
3307.90464478,0.04349583
3309.83345215,0.04346698
3311.76225952,0.04357754
3313.69106689,0.04349949
3315.61987427,0.04349621
3317.54868164,0.04346417
3319.47748901,0.04347074
3321.40629639,0.04323168
3323.33510376,0.04327015
3325.26391113,0.04319130
3327.19271851,0.04301587
3329.12152588,0.04312048
3331.05033325,0.04298404
3332.97914062,0.04292072
3334.90794800,0.04285163
3336.83675537,0.04283231
3338.76556274,0.04274933
3340.69437012,0.04276822
3342.62317749,0.04268064
3344.55198486,0.04251132
3346.48079224,0.04253855
3348.40959961,0.04238644
3350.33840698,0.04242981
3352.26721436,0.04228918
3354.19602173,0.04224071
3356.12482910,0.04218441
3358.05363647,0.04203856
3359.98244385,0.04205168
3361.91125122,0.04187027
3363.84005859,0.04191645
3365.76886597,0.04173705
3367.69767334,0.04163177
3369.62648071,0.04159175
3371.55528809,0.04158690
3373.48409546,0.04162003
3375.41290283,0.04142144
3377.34171020,0.04147450
3379.27051758,0.04127418
3381.19932495,0.04121303
3383.12813232,0.04116251
3385.05693970,0.04110458
3386.98574707,0.04105567
3388.91455444,0.04093586
3390.84336182,0.04088726
3392.77216919,0.04049825
3394.70097656,0.04068207
3396.62978394,0.04059228
3398.55859131,0.04031243
3400.48739868,0.04036334
3402.41620605,0.04030178
3404.34501343,0.04036865
3406.27382080,0.04018642
3408.20262817,0.04016557
3410.13143555,0.04007752
3412.06024292,0.04017802
3413.98905029,0.04000282
3415.91785767,0.03988918
3417.84666504,0.04011096
3419.77547241,0.03958690
3421.70427979,0.03957644
3423.63308716,0.03966121
3425.56189453,0.03962377
3427.49070190,0.03949814
3429.41950928,0.03941811
3431.34831665,0.03937976
3433.27712402,0.03906217
3435.20593140,0.03921772
3437.13473877,0.03894392
3439.06354614,0.03908965
3440.99235352,0.03895225
3442.92116089,0.03868593
3444.84996826,0.03899983
3446.77877563,0.03827780
3448.70758301,0.03843738
3450.63639038,0.03891277
3452.56519775,0.03874118
3454.49400513,0.03875266
3456.42281250,0.03862689
3458.35161987,0.03848907
3460.28042725,0.03842383
3462.20923462,0.03838862
3464.13804199,0.03825116
3466.06684937,0.03831950
3467.99565674,0.03815962
3469.92446411,0.03823986
3471.85327148,0.03830887
3473.78207886,0.03805017
3475.71088623,0.03804453
3477.63969360,0.03801911
3479.56850098,0.03800841
3481.49730835,0.03748779
3483.42611572,0.03769446
3485.35492310,0.03805147
3487.28373047,0.03773110
3489.21253784,0.03774028
3491.14134521,0.03779127
3493.07015259,0.03794537
3494.99895996,0.03769265
3496.92776733,0.03763524
3498.85657471,0.03770803
3500.78538208,0.03769109
3502.71418945,0.03708809
3504.64299683,0.03694790
3506.57180420,0.03800749
3508.50061157,0.03730673
3510.42941895,0.03711912
3512.35822632,0.03764629
3514.28703369,0.03757253
3516.21584106,0.03777575
3518.14464844,0.03736450
3520.07345581,0.03756396
3522.00226318,0.03724418
3523.93107056,0.03660215
3525.85987793,0.03686926
3527.78868530,0.03690897
3529.71749268,0.03692386
3531.64630005,0.03725709
3533.57510742,0.03761224
3535.50391479,0.03724072
3537.43272217,0.03708180
3539.36152954,0.03742140
3541.29033691,0.03737679
3543.21914429,0.03706403
3545.14795166,0.03622335
3547.07675903,0.03568108
3549.00556641,0.03690279
3550.93437378,0.03721583
3552.86318115,0.03632417
3554.79198853,0.03709506
3556.72079590,0.03722137
3558.64960327,0.03705852
3560.57841064,0.03682025
3562.50721802,0.03648637
3564.43602539,0.03685706
3566.36483276,0.03436735
3568.29364014,0.03328961
3570.22244751,0.03617657
3572.15125488,0.03724361
3574.08006226,0.03674437
3576.00886963,0.03698465
3577.93767700,0.03678427
3579.86648437,0.03664241
3581.79529175,0.03673854
3583.72409912,0.03679220
3585.65290649,0.03608405
3587.58171387,0.03308336
3589.51052124,0.03393705
3591.43932861,0.03704222
3593.36813599,0.03604287
3595.29694336,0.03534221
3597.22575073,0.03602688
3599.15455811,0.03642128
3601.08336548,0.03606703
3603.01217285,0.03631518
3604.94098022,0.03689755
3606.86978760,0.03570392
3608.79859497,0.03348593
3610.72740234,0.03412920
3612.65620972,0.03515575
3614.58501709,0.03398381
3616.51382446,0.03654459
3618.44263184,0.03382894
3620.37143921,0.03239259
3622.30024658,0.03690809
3624.22905395,0.03577075
3626.15786133,0.03742422
3628.08666870,0.03179277
3630.01547607,0.02858041
3631.94428345,0.03640581
3633.87309082,0.03543198
3635.80189819,0.03585738
3637.73070557,0.03678035
3639.65951294,0.03618918
3641.58832031,0.03661209
3643.51712769,0.03606277
3645.44593506,0.03638814
3647.37474243,0.03254146
3649.30354980,0.02987676
3651.23235718,0.03021904
3653.16116455,0.03590770
3655.08997192,0.03578750
3657.01877930,0.03182498
3658.94758667,0.03670915
3660.87639404,0.03595606
3662.80520142,0.03634505
3664.73400879,0.03638405
3666.66281616,0.03588559
3668.59162354,0.03499787
3670.52043091,0.02831248
3672.44923828,0.03432645
3674.37804565,0.03296216
3676.30685303,0.02693654
3678.23566040,0.03411554
3680.16446777,0.03498555
3682.09327515,0.03493442
3684.02208252,0.03609498
3685.95088989,0.03551123
3687.87969727,0.03189801
3689.80850464,0.02911194
3691.73731201,0.03339396
3693.66611938,0.03439469
3695.59492676,0.03515922
3697.52373413,0.03520861
3699.45254150,0.03492193
3701.38134888,0.03406103
3703.31015625,0.03262728
3705.23896362,0.03605545
3707.16777100,0.03428507
3709.09657837,0.03336063
3711.02538574,0.03142437
3712.95419312,0.02925055
3714.88300049,0.03452493
3716.81180786,0.03409987
3718.74061523,0.03433098
3720.66942261,0.03364084
3722.59822998,0.03236104
3724.52703735,0.03366384
3726.45584473,0.03110736
3728.38465210,0.03370811
3730.31345947,0.03349087
3732.24226685,0.03066276
3734.17107422,0.02990745
3736.09988159,0.02835619
3738.02868896,0.03003220
3739.95749634,0.03268351
3741.88630371,0.03434157
3743.81511108,0.02667638
3745.74391846,0.02493310
3747.67272583,0.03247986
3749.60153320,0.02797209
3751.53034058,0.02553793
3753.45914795,0.02954466
3755.38795532,0.03192276
3757.31676270,0.03313456
3759.24557007,0.03068725
3761.17437744,0.03178265
3763.10318481,0.03387217
3765.03199219,0.03153092
3766.96079956,0.03219970
3768.88960693,0.03196258
3770.81841431,0.03039004
3772.74722168,0.03300923
3774.67602905,0.03299781
3776.60483643,0.03300307
3778.53364380,0.03221431
3780.46245117,0.03073419
3782.39125854,0.03293296
3784.32006592,0.03220289
3786.24887329,0.03189386
3788.17768066,0.03264419
3790.10648804,0.03246377
3792.03529541,0.03224531
3793.96410278,0.03276254
3795.89291016,0.03084446
3797.82171753,0.03030909
3799.75052490,0.03214162
3801.67933228,0.02537346
3803.60813965,0.02952426
3805.53694702,0.03243932
3807.46575439,0.02627655
3809.39456177,0.03199398
3811.32336914,0.03147629
3813.25217651,0.03242815
3815.18098389,0.02936823
3817.10979126,0.02553859
3819.03859863,0.03247450
3820.96740601,0.02613726
3822.89621338,0.02733462
3824.82502075,0.03221038
3826.75382812,0.02904032
3828.68263550,0.03126339
3830.61144287,0.03013146
3832.54025024,0.02915336
3834.46905762,0.02973049
3836.39786499,0.02830477
3838.32667236,0.02543751
3840.25547974,0.02750492
3842.18428711,0.02984367
3844.11309448,0.02845087
3846.04190186,0.03088345
3847.97070923,0.03036474
3849.89951660,0.03042300
3851.82832397,0.02735544
3853.75713135,0.02032575
3855.68593872,0.02413272
3857.61474609,0.03044895
3859.54355347,0.02971191
3861.47236084,0.02922837
3863.40116821,0.02865191
3865.32997559,0.02649391
3867.25878296,0.02974400
3869.18759033,0.02731710
3871.11639770,0.02508841
3873.04520508,0.02990063
3874.97401245,0.02733466
3876.90281982,0.02965597
3878.83162720,0.03021901
3880.76043457,0.02566377
3882.68924194,0.02977721
3884.61804932,0.02781156
3886.54685669,0.02547268
3888.47566406,0.02987499
3890.40447144,0.02832039
3892.33327881,0.02646925
3894.26208618,0.02901241
3896.19089355,0.02961260
3898.11970093,0.02809142
3900.04850830,0.02656429
3901.97731567,0.02619188
3903.90612305,0.02595574
3905.83493042,0.02644217
3907.76373779,0.02897652
3909.69254517,0.02897170
3911.62135254,0.02869946
3913.55015991,0.02924938
3915.47896728,0.02825456
3917.40777466,0.02752796
3919.33658203,0.02719693
3921.26538940,0.02831772
3923.19419678,0.02821659
3925.12300415,0.02749291
3927.05181152,0.02802971
3928.98061890,0.02832967
3930.90942627,0.02786271
3932.83823364,0.02679592
3934.76704102,0.02794020
3936.69584839,0.02828941
3938.62465576,0.02794693
3940.55346313,0.02830475
3942.48227051,0.02715218
3944.41107788,0.02736352
3946.33988525,0.02789140
3948.26869263,0.02724230
3950.19750000,0.02718722
3952.12630737,0.02768696
3954.05511475,0.02772372
3955.98392212,0.02751144
3957.91272949,0.02758720
3959.84153687,0.02755122
3961.77034424,0.02736545
3963.69915161,0.02728429
3965.62795898,0.02754949
3967.55676636,0.02733596
3969.48557373,0.02715893
3971.41438110,0.02714192
3973.34318848,0.02712537
3975.27199585,0.02707289
3977.20080322,0.02688522
3979.12961060,0.02718312
3981.05841797,0.02693711
3982.98722534,0.02697275
3984.91603271,0.02692602
3986.84484009,0.02680459
3988.77364746,0.02693846
3990.70245483,0.02653176
3992.63126221,0.02678263
3994.56006958,0.02657983
3996.48887695,0.02651170
3998.41768433,0.02665667
4000.34649170,0.02646529
4002.27529907,0.02654937
4004.20410645,0.02635570
4006.13291382,0.02639087
4008.06172119,0.02616235
4009.99052856,0.02623647
4011.91933594,0.02629000
4013.84814331,0.02611655
4015.77695068,0.02616468
4017.70575806,0.02592386
4019.63456543,0.02591501
4021.56337280,0.02590462
4023.49218018,0.02602356
4025.42098755,0.02578097
4027.34979492,0.02575523
4029.27860229,0.02585265
4031.20740967,0.02557535
4033.13621704,0.02565359
4035.06502441,0.02551480
4036.99383179,0.02562203
4038.92263916,0.02547456
4040.85144653,0.02543522
4042.78025391,0.02552668
4044.70906128,0.02525266
4046.63786865,0.02534590
4048.56667603,0.02523148
4050.49548340,0.02525765
4052.42429077,0.02520681
4054.35309814,0.02515410
4056.28190552,0.02512349
4058.21071289,0.02500445
4060.13952026,0.02508112
4062.06832764,0.02493834
4063.99713501,0.02490568
4065.92594238,0.02476902
4067.85474976,0.02473677
4069.78355713,0.02469110
4071.71236450,0.02462207
4073.64117187,0.02462375
4075.56997925,0.02448922
4077.49878662,0.02452333
4079.42759399,0.02441062
4081.35640137,0.02436293
4083.28520874,0.02430465
4085.21401611,0.02431316
4087.14282349,0.02420670
4089.07163086,0.02415704
4091.00043823,0.02429166
4092.92924561,0.02411522
4094.85805298,0.02415349
4096.78686035,0.02406117
4098.71566772,0.02401530
4100.64447510,0.02394473
4102.57328247,0.02383756
4104.50208984,0.02385144
4106.43089722,0.02373033
4108.35970459,0.02383748
4110.28851196,0.02369668
4112.21731934,0.02368483
4114.14612671,0.02362758
4116.07493408,0.02348919
4118.00374145,0.02357356
4119.93254883,0.02347753
4121.86135620,0.02345338
4123.79016357,0.02336906
4125.71897095,0.02334011
4127.64777832,0.02324788
4129.57658569,0.02327263
4131.50539307,0.02323238
4133.43420044,0.02313095
4135.36300781,0.02313583
4137.29181519,0.02295915
4139.22062256,0.02300237
4141.14942993,0.02290822
4143.07823730,0.02300761
4145.00704468,0.02291410
4146.93585205,0.02269678
4148.86465942,0.02284205
4150.79346680,0.02266496
4152.72227417,0.02268725
4154.65108154,0.02268107
4156.57988892,0.02265125
4158.50869629,0.02259493
4160.43750366,0.02256373
4162.36631103,0.02259569
4164.29511841,0.02237891
4166.22392578,0.02238141
4168.15273315,0.02229194
4170.08154053,0.02231642
4172.01034790,0.02227733
4173.93915527,0.02214171
4175.86796265,0.02220409
4177.79677002,0.02220094
4179.72557739,0.02211213
4181.65438477,0.02193650
4183.58319214,0.02200768
4185.51199951,0.02193682
4187.44080688,0.02187110
4189.36961426,0.02181921
4191.29842163,0.02174699
4193.22722900,0.02177513
4195.15603638,0.02168896
4197.08484375,0.02176159
4199.01365112,0.02155883
4200.94245850,0.02149209
4202.87126587,0.02156185
4204.80007324,0.02152101
4206.72888062,0.02144160
4208.65768799,0.02130990
4210.58649536,0.02141297
4212.51530273,0.02124321
4214.44411011,0.02123228
4216.37291748,0.02125672
4218.30172485,0.02115947
4220.23053223,0.02113246
4222.15933960,0.02107393
4224.08814697,0.02114331
4226.01695435,0.02095565
4227.94576172,0.02091758
4229.87456909,0.02094426
4231.80337646,0.02092194
4233.73218384,0.02089156
4235.66099121,0.02083413
4237.58979858,0.02080289
4239.51860596,0.02071524
4241.44741333,0.02079088
4243.37622070,0.02057937
4245.30502808,0.02055763
4247.23383545,0.02062014
4249.16264282,0.02056359
4251.09145020,0.02056024
4253.02025757,0.02038743
4254.94906494,0.02042079
4256.87787231,0.02030792
4258.80667969,0.02031791
4260.73548706,0.02023647
4262.66429443,0.02010743
4264.59310181,0.02017034
4266.52190918,0.02002752
4268.45071655,0.02011513
4270.37952393,0.02010122
4272.30833130,0.02003933
4274.23713867,0.01995724
4276.16594604,0.01993126
4278.09475342,0.01996284
4280.02356079,0.01987060
4281.95236816,0.01983115
4283.88117554,0.01961489
4285.80998291,0.01964873
4287.73879028,0.01965379
4289.66759766,0.01959383
4291.59640503,0.01964930
4293.52521240,0.01953948
4295.45401978,0.01946386
4297.38282715,0.01948861
4299.31163452,0.01949877
4301.24044189,0.01935388
4303.16924927,0.01939953
4305.09805664,0.01936027
4307.02686401,0.01933641
4308.95567139,0.01923208
4310.88447876,0.01900902
4312.81328613,0.01916537
4314.74209351,0.01915546
4316.67090088,0.01918086
4318.59970825,0.01906442
4320.52851562,0.01899272
4322.45732300,0.01900271
4324.38613037,0.01884096
4326.31493774,0.01892420
4328.24374512,0.01885341
4330.17255249,0.01889127
4332.10135986,0.01877261
4334.03016724,0.01867632
4335.95897461,0.01875779
4337.88778198,0.01861360
4339.81658936,0.01862642
4341.74539673,0.01861494
4343.67420410,0.01860563
4345.60301147,0.01847880
4347.53181885,0.01843268
4349.46062622,0.01844455
4351.38943359,0.01843663
4353.31824097,0.01839766
4355.24704834,0.01822569
4357.17585571,0.01827574
4359.10466309,0.01822742
4361.03347046,0.01828754
4362.96227783,0.01817313
4364.89108520,0.01806362
4366.81989258,0.01814256
4368.74869995,0.01801800
4370.67750732,0.01807660
4372.60631470,0.01790788
4374.53512207,0.01790707
4376.46392944,0.01796569
4378.39273682,0.01782440
4380.32154419,0.01783575
4382.25035156,0.01780572
4384.17915894,0.01775993
4386.10796631,0.01766368
4388.03677368,0.01773745
4389.96558105,0.01760458
4391.89438843,0.01759479
4393.82319580,0.01765563
4395.75200317,0.01741434
4397.68081055,0.01747157
4399.60961792,0.01748990
4401.53842529,0.01745256
4403.46723267,0.01738973
4405.39604004,0.01728261
4407.32484741,0.01721698
4409.25365478,0.01729449
4411.18246216,0.01727090
4413.11126953,0.01717957
4415.04007690,0.01731775
4416.96888428,0.01709992
4418.89769165,0.01709635
4420.82649902,0.01711328
4422.75530640,0.01697619
4424.68411377,0.01703355
4426.61292114,0.01689428
4428.54172852,0.01690976
4430.47053589,0.01686509
4432.39934326,0.01680529
4434.32815063,0.01675067
4436.25695801,0.01675904
4438.18576538,0.01681688
4440.11457275,0.01667853
4442.04338013,0.01666686
4443.97218750,0.01662398
4445.90099487,0.01658195
4447.82980225,0.01649979
4449.75860962,0.01654381
4451.68741699,0.01648387
4453.61622437,0.01635518
4455.54503174,0.01642620
4457.47383911,0.01633241
4459.40264648,0.01637192
4461.33145386,0.01628773
4463.26026123,0.01626411
4465.18906860,0.01627437
4467.11787598,0.01616361
4469.04668335,0.01615981
4470.97549072,0.01605829
4472.90429810,0.01611466
4474.83310547,0.01602174
4476.76191284,0.01599055
4478.69072021,0.01601091
4480.61952759,0.01601500
4482.54833496,0.01607548
4484.47714233,0.01581188
4486.40594971,0.01579753
4488.33475708,0.01589464
4490.26356445,0.01586146
4492.19237183,0.01573656
4494.12117920,0.01569448
4496.04998657,0.01575031
4497.97879395,0.01562648
4499.90760132,0.01562295
4501.83640869,0.01557221
4503.76521606,0.01553899
4505.69402344,0.01557524
4507.62283081,0.01553000
4509.55163818,0.01543062
4511.48044556,0.01536719
4513.40925293,0.01533381
4515.33806030,0.01531057
4517.26686768,0.01537248
4519.19567505,0.01524314
4521.12448242,0.01522214
4523.05328979,0.01522131
4524.98209717,0.01516971
4526.91090454,0.01517580
4528.83971191,0.01505001
4530.76851929,0.01506619
4532.69732666,0.01502673
4534.62613403,0.01494827
4536.55494141,0.01488648
4538.48374878,0.01487509
4540.41255615,0.01489511
4542.34136353,0.01485639
4544.27017090,0.01486162
4546.19897827,0.01483419
4548.12778564,0.01483260
4550.05659302,0.01470679
4551.98540039,0.01470635
4553.91420776,0.01467016
4555.84301514,0.01462377
4557.77182251,0.01469626
4559.70062988,0.01457403
4561.62943726,0.01456057
4563.55824463,0.01446806
4565.48705200,0.01451673
4567.41585937,0.01453686
4569.34466675,0.01441260
4571.27347412,0.01439399
4573.20228149,0.01431995
4575.13108887,0.01436256
4577.05989624,0.01417993
4578.98870361,0.01422209
4580.91751099,0.01430187
4582.84631836,0.01416728
4584.77512573,0.01417821
4586.70393311,0.01405393
4588.63274048,0.01410319
4590.56154785,0.01405422
4592.49035522,0.01398942
4594.41916260,0.01395561
4596.34796997,0.01386578
4598.27677734,0.01387731
4600.20558472,0.01381916
4602.13439209,0.01389821
4604.06319946,0.01382744
4605.99200684,0.01382231
4607.92081421,0.01381227
4609.84962158,0.01367101
4611.77842895,0.01370586
4613.70723633,0.01362718
4615.63604370,0.01362143
4617.56485107,0.01371826
4619.49365845,0.01367859
4621.42246582,0.01351161
4623.35127319,0.01356071
4625.28008057,0.01356450
4627.20888794,0.01346860
4629.13769531,0.01358032
4631.06650269,0.01342493
4632.99531006,0.01335952
4634.92411743,0.01339797
4636.85292480,0.01333068
4638.78173218,0.01336305
4640.71053955,0.01326120
4642.63934692,0.01315914
4644.56815430,0.01323950
4646.49696167,0.01332176
4648.42576904,0.01323284
4650.35457642,0.01319322
4652.28338379,0.01314101
4654.21219116,0.01308602
4656.14099853,0.01308195
4658.06980591,0.01302655
4659.99861328,0.01305590
4661.92742065,0.01298305
4663.85622803,0.01295246
4665.78503540,0.01291214
4667.71384277,0.01280779
4669.64265015,0.01281799
4671.57145752,0.01283247
4673.50026489,0.01282602
4675.42907227,0.01273121
4677.35787964,0.01276641
4679.28668701,0.01275631
4681.21549438,0.01265386
4683.14430176,0.01266962
4685.07310913,0.01264797
4687.00191650,0.01260093
4688.93072388,0.01254139
4690.85953125,0.01257654
4692.78833862,0.01250806
4694.71714600,0.01246329
4696.64595337,0.01249951
4698.57476074,0.01237259
4700.50356812,0.01240831
4702.43237549,0.01236603
4704.36118286,0.01232737
4706.28999023,0.01241791
4708.21879761,0.01230498
4710.14760498,0.01227637
4712.07641235,0.01219616
4714.00521973,0.01216139
4715.93402710,0.01227424
4717.86283447,0.01217441
4719.79164185,0.01217778
4721.72044922,0.01217077
4723.64925659,0.01207200
4725.57806396,0.01206596
4727.50687134,0.01206132
4729.43567871,0.01208705
4731.36448608,0.01193264
4733.29329346,0.01190593
4735.22210083,0.01197552
4737.15090820,0.01190878
4739.07971558,0.01193938
4741.00852295,0.01185328
4742.93733032,0.01179365
4744.86613770,0.01180625
4746.79494507,0.01184057
4748.72375244,0.01179181
4750.65255981,0.01169396
4752.58136719,0.01178838
4754.51017456,0.01172426
4756.43898193,0.01167162
4758.36778931,0.01166080
4760.29659668,0.01162616
4762.22540405,0.01162072
4764.15421143,0.01151858
4766.08301880,0.01156477
4768.01182617,0.01157987
4769.94063354,0.01149656
4771.86944092,0.01139944
4773.79824829,0.01139117
4775.72705566,0.01147342
4777.65586304,0.01140557
4779.58467041,0.01134967
4781.51347778,0.01136441
4783.44228516,0.01134664
4785.37109253,0.01130146
4787.29989990,0.01128365
4789.22870728,0.01119984
4791.15751465,0.01118140
4793.08632202,0.01122463
4795.01512939,0.01115277
4796.94393677,0.01110566
4798.87274414,0.01103969
4800.80155151,0.01108379
4802.73035889,0.01107237
4804.65916626,0.01097568
4806.58797363,0.01101587
4808.51678101,0.01097793
4810.44558838,0.01094669
4812.37439575,0.01095237
4814.30320312,0.01091526
4816.23201050,0.01090420
4818.16081787,0.01091213
4820.08962524,0.01082970
4822.01843262,0.01079928
4823.94723999,0.01079479
4825.87604736,0.01073895
4827.80485474,0.01074519
4829.73366211,0.01065247
4831.66246948,0.01067995
4833.59127686,0.01070685
4835.52008423,0.01071282
4837.44889160,0.01072690
4839.37769897,0.01054032
4841.30650635,0.01054371
4843.23531372,0.01056163
4845.16412109,0.01053693
4847.09292847,0.01052759
4849.02173584,0.01048986
4850.95054321,0.01046463
4852.87935059,0.01042457
4854.80815796,0.01048281
4856.73696533,0.01039628
4858.66577270,0.01035396
4860.59458008,0.01033550
4862.52338745,0.01030773
4864.45219482,0.01032453
4866.38100220,0.01026909
4868.30980957,0.01031556
4870.23861694,0.01020255
4872.16742432,0.01019924
4874.09623169,0.01024963
4876.02503906,0.01016641
4877.95384644,0.01022883
4879.88265381,0.01015106
4881.81146118,0.01010781
4883.74026855,0.01014007
4885.66907593,0.01006722
4887.59788330,0.01005807
4889.52669067,0.01002317
4891.45549805,0.00996121
4893.38430542,0.00999669
4895.31311279,0.00994105
4897.24192017,0.00991849
4899.17072754,0.00992968
4901.09953491,0.00980348
4903.02834228,0.00984076
4904.95714966,0.00979747
4906.88595703,0.00978520
4908.81476440,0.00982741
4910.74357178,0.00973089
4912.67237915,0.00979699
4914.60118652,0.00974759
4916.52999390,0.00972936
4918.45880127,0.00972815
4920.38760864,0.00962184
4922.31641602,0.00958850
4924.24522339,0.00956523
4926.17403076,0.00962824
4928.10283813,0.00958626
4930.03164551,0.00951551
4931.96045288,0.00949830
4933.88926025,0.00948325
4935.81806763,0.00945521
4937.74687500,0.00945511
4939.67568237,0.00949046
4941.60448975,0.00944245
4943.53329712,0.00939136
4945.46210449,0.00931347
4947.39091187,0.00935506
4949.31971924,0.00934062
4951.24852661,0.00932836
4953.17733398,0.00930141
4955.10614136,0.00915296
4957.03494873,0.00926337
4958.96375610,0.00919195
4960.89256348,0.00914788
4962.82137085,0.00924468
4964.75017822,0.00915264
4966.67898560,0.00918094
4968.60779297,0.00918180
4970.53660034,0.00911893
4972.46540771,0.00906100
4974.39421509,0.00903789
4976.32302246,0.00899405
4978.25182983,0.00899891
4980.18063721,0.00901270
4982.10944458,0.00891239
4984.03825195,0.00894321
4985.96705933,0.00893363
4987.89586670,0.00885645
4989.82467407,0.00884176
4991.75348145,0.00886572
4993.68228882,0.00882705
4995.61109619,0.00880622
4997.53990356,0.00883205
4999.46871094,0.00873904
5001.39751831,0.00873370
5003.32632568,0.00876070
5005.25513306,0.00872087
5007.18394043,0.00863955
5009.11274780,0.00865578
5011.04155518,0.00863798
5012.97036255,0.00857419
5014.89916992,0.00866728
5016.82797729,0.00858207
5018.75678467,0.00853127
5020.68559204,0.00851731
5022.61439941,0.00850134
5024.54320679,0.00854307
5026.47201416,0.00846672
5028.40082153,0.00845009
5030.32962891,0.00842324
5032.25843628,0.00842560
5034.18724365,0.00836042
5036.11605103,0.00838973
5038.04485840,0.00846332
5039.97366577,0.00835878
5041.90247314,0.00834212
5043.83128052,0.00831047
5045.76008789,0.00828267
5047.68889526,0.00819093
5049.61770264,0.00822834
5051.54651001,0.00830234
5053.47531738,0.00820566
5055.40412476,0.00816985
5057.33293213,0.00810628
5059.26173950,0.00811774
5061.19054687,0.00812233
5063.11935425,0.00819468
5065.04816162,0.00814139
5066.97696899,0.00803464
5068.90577637,0.00813772
5070.83458374,0.00808843
5072.76339111,0.00804293
5074.69219849,0.00793171
5076.62100586,0.00795537
5078.54981323,0.00804498
5080.47862061,0.00794548
5082.40742798,0.00789158
5084.33623535,0.00786463
5086.26504272,0.00800843
5088.19385010,0.00792867
5090.12265747,0.00779810
5092.05146484,0.00790975
5093.98027222,0.00786863
5095.90907959,0.00777634
5097.83788696,0.00780070
5099.76669434,0.00786001
5101.69550171,0.00777137
5103.62430908,0.00776047
5105.55311645,0.00776451
5107.48192383,0.00768127
5109.41073120,0.00768946
5111.33953857,0.00767080
5113.26834595,0.00761147
5115.19715332,0.00761718
5117.12596069,0.00769894
5119.05476807,0.00761151
5120.98357544,0.00756009
5122.91238281,0.00762217
5124.84119019,0.00762105
5126.76999756,0.00753098
5128.69880493,0.00745495
5130.62761230,0.00759147
5132.55641968,0.00746477
5134.48522705,0.00736511
5136.41403442,0.00746385
5138.34284180,0.00740211
5140.27164917,0.00740554
5142.20045654,0.00732149
5144.12926392,0.00731634
5146.05807129,0.00735734
5147.98687866,0.00730439
5149.91568603,0.00734200
5151.84449341,0.00732229
5153.77330078,0.00729224
5155.70210815,0.00726017
5157.63091553,0.00719582
5159.55972290,0.00720985
5161.48853027,0.00727862
5163.41733765,0.00721404
5165.34614502,0.00709534
5167.27495239,0.00713910
5169.20375977,0.00720171
5171.13256714,0.00714162
5173.06137451,0.00714718
5174.99018188,0.00718201
5176.91898926,0.00706523
5178.84779663,0.00702832
5180.77660400,0.00702179
5182.70541138,0.00701881
5184.63421875,0.00701709
5186.56302612,0.00696411
5188.49183350,0.00696336
5190.42064087,0.00689050
5192.34944824,0.00697055
5194.27825562,0.00698937
5196.20706299,0.00686837
5198.13587036,0.00693524
5200.06467773,0.00688678
5201.99348511,0.00687356
5203.92229248,0.00693302
5205.85109985,0.00675900
5207.77990723,0.00665765
5209.70871460,0.00680147
5211.63752197,0.00683930
5213.56632935,0.00680456
5215.49513672,0.00683805
5217.42394409,0.00676585
5219.35275146,0.00669962
5221.28155884,0.00677498
5223.21036621,0.00679217
5225.13917358,0.00660212
5227.06798096,0.00660634
5228.99678833,0.00667813
5230.92559570,0.00657234
5232.85440308,0.00658461
5234.78321045,0.00659584
5236.71201782,0.00661407
5238.64082520,0.00657155
5240.56963257,0.00664250
5242.49843994,0.00662109
5244.42724731,0.00638484
5246.35605469,0.00651296
5248.28486206,0.00640649
5250.21366943,0.00632058
5252.14247681,0.00653890
5254.07128418,0.00636605
5256.00009155,0.00630875
5257.92889893,0.00648668
5259.85770630,0.00644252
5261.78651367,0.00627911
5263.71532104,0.00622540
5265.64412842,0.00627813
5267.57293579,0.00639298
5269.50174316,0.00639199
5271.43055054,0.00632844
5273.35935791,0.00638164
5275.28816528,0.00632072
5277.21697266,0.00631928
5279.14578003,0.00631986
5281.07458740,0.00625601
5283.00339478,0.00623394
5284.93220215,0.00616583
5286.86100952,0.00626462
5288.78981689,0.00623464
5290.71862427,0.00612987
5292.64743164,0.00621299
5294.57623901,0.00621365
5296.50504639,0.00617564
5298.43385376,0.00613714
5300.36266113,0.00611782
5302.29146851,0.00610257
5304.22027588,0.00613607
5306.14908325,0.00609646
5308.07789062,0.00595987
5310.00669800,0.00608603
5311.93550537,0.00608094
5313.86431274,0.00601547
5315.79312012,0.00613867
5317.72192749,0.00600411
5319.65073486,0.00597320
5321.57954224,0.00599198
5323.50834961,0.00594682
5325.43715698,0.00603249
5327.36596436,0.00585255
5329.29477173,0.00585925
5331.22357910,0.00599147
5333.15238647,0.00583548
5335.08119385,0.00589412
5337.01000122,0.00583427
5338.93880859,0.00558022
5340.86761597,0.00577250
5342.79642334,0.00586276
5344.72523071,0.00562019
5346.65403809,0.00566905
5348.58284546,0.00572513
5350.51165283,0.00577712
5352.44046020,0.00572697
5354.36926758,0.00555940
5356.29807495,0.00574612
5358.22688232,0.00569615
5360.15568970,0.00568595
5362.08449707,0.00575124
5364.01330444,0.00561383
5365.94211182,0.00568247
5367.87091919,0.00560579
5369.79972656,0.00564693
5371.72853394,0.00566274
5373.65734131,0.00562662
5375.58614868,0.00558074
5377.51495605,0.00539275
5379.44376343,0.00560017
5381.37257080,0.00558207
5383.30137817,0.00549920
5385.23018555,0.00551633
5387.15899292,0.00540617
5389.08780029,0.00555244
5391.01660767,0.00555195
5392.94541504,0.00544420
5394.87422241,0.00534475
5396.80302978,0.00539046
5398.73183716,0.00549698
5400.66064453,0.00544017
5402.58945190,0.00538380
5404.51825928,0.00532989
5406.44706665,0.00539637
5408.37587402,0.00528776
5410.30468140,0.00525132
5412.23348877,0.00525385
5414.16229614,0.00505938
5416.09110352,0.00523282
5418.01991089,0.00537760
5419.94871826,0.00528766
5421.87752563,0.00524870
5423.80633301,0.00522255
5425.73514038,0.00525035
5427.66394775,0.00523776
5429.59275513,0.00512169
5431.52156250,0.00515928
5433.45036987,0.00521976
5435.37917725,0.00504416
5437.30798462,0.00515601
5439.23679199,0.00521270
5441.16559936,0.00499529
5443.09440674,0.00508886
5445.02321411,0.00504479
5446.95202148,0.00497724
5448.88082886,0.00510471
5450.80963623,0.00505350
5452.73844360,0.00512304
5454.66725098,0.00513985
5456.59605835,0.00501643
5458.52486572,0.00506805
5460.45367310,0.00497591
5462.38248047,0.00495170
5464.31128784,0.00503672
5466.24009521,0.00498825
5468.16890259,0.00500916
5470.09770996,0.00491583
5472.02651733,0.00500411
5473.95532471,0.00499796
5475.88413208,0.00474557
5477.81293945,0.00492958
5479.74174683,0.00492338
5481.67055420,0.00484537
5483.59936157,0.00498117
5485.52816895,0.00490030
5487.45697632,0.00487445
5489.38578369,0.00485614
5491.31459106,0.00484214
5493.24339844,0.00478994
5495.17220581,0.00477333
5497.10101318,0.00484806
5499.02982056,0.00477476
5500.95862793,0.00478759
5502.88743530,0.00475332
5504.81624268,0.00470510
5506.74505005,0.00473875
5508.67385742,0.00467174
5510.60266479,0.00474128
5512.53147217,0.00482399
5514.46027954,0.00477444
5516.38908691,0.00467449
5518.31789429,0.00466001
5520.24670166,0.00474636
5522.17550903,0.00465236
5524.10431641,0.00462330
5526.03312378,0.00469816
5527.96193115,0.00463204
5529.89073853,0.00464071
5531.81954590,0.00463317
5533.74835327,0.00458159
5535.67716064,0.00461845
5537.60596802,0.00455850
5539.53477539,0.00453261
5541.46358276,0.00460594
5543.39239014,0.00457877
5545.32119751,0.00455865
5547.25000488,0.00456322
5549.17881226,0.00451328
5551.10761963,0.00447914
5553.03642700,0.00452432
5554.96523437,0.00454688
5556.89404175,0.00450032
5558.82284912,0.00453856
5560.75165649,0.00452619
5562.68046387,0.00451557
5564.60927124,0.00452574
5566.53807861,0.00443840
5568.46688599,0.00445304
5570.39569336,0.00439353
5572.32450073,0.00437809
5574.25330811,0.00439862
5576.18211548,0.00433097
5578.11092285,0.00440253
5580.03973022,0.00434628
5581.96853760,0.00435548
5583.89734497,0.00440128
5585.82615234,0.00431938
5587.75495972,0.00434596
5589.68376709,0.00434698
5591.61257446,0.00433800
5593.54138184,0.00430132
5595.47018921,0.00436664
5597.39899658,0.00438062
5599.32780395,0.00430220
5601.25661133,0.00431619
5603.18541870,0.00425321
5605.11422607,0.00423890
5607.04303345,0.00418358
5608.97184082,0.00425194
5610.90064819,0.00425897
5612.82945557,0.00412587
5614.75826294,0.00423188
5616.68707031,0.00414825
5618.61587769,0.00412841
5620.54468506,0.00422114
5622.47349243,0.00415558
5624.40229980,0.00417950
5626.33110718,0.00417478
5628.25991455,0.00411394
5630.18872192,0.00405841
5632.11752930,0.00409003
5634.04633667,0.00411668
5635.97514404,0.00409122
5637.90395142,0.00404754
5639.83275879,0.00402092
5641.76156616,0.00408758
5643.69037353,0.00406221
5645.61918091,0.00400083
5647.54798828,0.00399338
5649.47679565,0.00400825
5651.40560303,0.00399219
5653.33441040,0.00400613
5655.26321777,0.00400973
5657.19202515,0.00390142
5659.12083252,0.00390668
5661.04963989,0.00395767
5662.97844727,0.00396394
5664.90725464,0.00394617
5666.83606201,0.00391313
5668.76486938,0.00390940
5670.69367676,0.00395454
5672.62248413,0.00394866
5674.55129150,0.00385129
5676.48009888,0.00388117
5678.40890625,0.00389031
5680.33771362,0.00391123
5682.26652100,0.00392637
5684.19532837,0.00389141
5686.12413574,0.00391133
5688.05294311,0.00376057
5689.98175049,0.00375606
5691.91055786,0.00384801
5693.83936523,0.00381186
5695.76817261,0.00384427
5697.69697998,0.00381539
5699.62578735,0.00378070
5701.55459473,0.00380106
5703.48340210,0.00376915
5705.41220947,0.00371482
5707.34101685,0.00371682
5709.26982422,0.00367672
5711.19863159,0.00368284
5713.12743896,0.00374397
5715.05624634,0.00370648
5716.98505371,0.00369766
5718.91386108,0.00365192
5720.84266846,0.00364490
5722.77147583,0.00367301
5724.70028320,0.00365391
5726.62909058,0.00363187
5728.55789795,0.00362853
5730.48670532,0.00369009
5732.41551270,0.00358374
5734.34432007,0.00353614
5736.27312744,0.00361104
5738.20193481,0.00356941
5740.13074219,0.00361483
5742.05954956,0.00364100
5743.98835693,0.00357375
5745.91716431,0.00355562
5747.84597168,0.00354248
5749.77477905,0.00351473
5751.70358643,0.00350445
5753.63239380,0.00351539
5755.56120117,0.00353954
5757.49000854,0.00347119
5759.41881592,0.00342797
5761.34762329,0.00347315
5763.27643066,0.00345945
5765.20523804,0.00349180
5767.13404541,0.00347037
5769.06285278,0.00343173
5770.99166016,0.00340845
5772.92046753,0.00335874
5774.84927490,0.00338272
5776.77808228,0.00333070
5778.70688965,0.00331436
5780.63569702,0.00335817
5782.56450439,0.00334839
5784.49331177,0.00330774
5786.42211914,0.00337897
5788.35092651,0.00340291
5790.27973389,0.00329558
5792.20854126,0.00336611
5794.13734863,0.00331233
5796.06615601,0.00328359
5797.99496338,0.00328510
5799.92377075,0.00319181
5801.85257812,0.00325710
5803.78138550,0.00320693
5805.71019287,0.00324166
5807.63900024,0.00324984
5809.56780762,0.00327003
5811.49661499,0.00331559
5813.42542236,0.00315842
5815.35422974,0.00326442
5817.28303711,0.00323189
5819.21184448,0.00313128
5821.14065186,0.00321631
5823.06945923,0.00312861
5824.99826660,0.00316557
5826.92707397,0.00322357
5828.85588135,0.00314942
5830.78468872,0.00316254
5832.71349609,0.00320540
5834.64230347,0.00317660
5836.57111084,0.00314344
5838.49991821,0.00308171
5840.42872559,0.00306482
5842.35753296,0.00313053
5844.28634033,0.00309577
5846.21514770,0.00307483
5848.14395508,0.00308442
5850.07276245,0.00309927
5852.00156982,0.00308654
5853.93037720,0.00303052
5855.85918457,0.00305483
5857.78799194,0.00306028
5859.71679932,0.00305268
5861.64560669,0.00303411
5863.57441406,0.00303350
5865.50322144,0.00303903
5867.43202881,0.00300229
5869.36083618,0.00301033
5871.28964355,0.00295747
5873.21845093,0.00291594
5875.14725830,0.00295278
5877.07606567,0.00296182
5879.00487305,0.00295743
5880.93368042,0.00290098
5882.86248779,0.00288844
5884.79129517,0.00295625
5886.72010254,0.00294239
5888.64890991,0.00291533
5890.57771728,0.00288455
5892.50652466,0.00286525
5894.43533203,0.00293978
5896.36413940,0.00292199
5898.29294678,0.00286380
5900.22175415,0.00287045
5902.15056152,0.00286625
5904.07936890,0.00285571
5906.00817627,0.00284570
5907.93698364,0.00284131
5909.86579102,0.00283030
5911.79459839,0.00285225
5913.72340576,0.00283043
5915.65221313,0.00279468
5917.58102051,0.00282843
5919.50982788,0.00281226
5921.43863525,0.00278205
5923.36744263,0.00276897
5925.29625000,0.00272863
5927.22505737,0.00272764
5929.15386475,0.00275509
5931.08267212,0.00272362
5933.01147949,0.00274443
5934.94028686,0.00276307
5936.86909424,0.00274411
5938.79790161,0.00275503
5940.72670898,0.00269897
5942.65551636,0.00274281
5944.58432373,0.00276172
5946.51313110,0.00270361
5948.44193848,0.00267057
5950.37074585,0.00261622
5952.29955322,0.00269187
5954.22836060,0.00268170
5956.15716797,0.00259886
5958.08597534,0.00258807
5960.01478271,0.00261942
5961.94359009,0.00266952
5963.87239746,0.00264430
5965.80120483,0.00258693
5967.73001221,0.00253802
5969.65881958,0.00260676
5971.58762695,0.00258841
5973.51643433,0.00258659
5975.44524170,0.00263896
5977.37404907,0.00254319
5979.30285645,0.00260017
5981.23166382,0.00259743
5983.16047119,0.00254637
5985.08927856,0.00255257
5987.01808594,0.00255814
5988.94689331,0.00264856
5990.87570068,0.00255305
5992.80450806,0.00248284
5994.73331543,0.00254651
5996.66212280,0.00257875
5998.59093018,0.00255653
6000.51973755,0.00249530
