399.26312622,0.00258535
401.19193359,0.00354505
403.12074097,0.00376275
405.04954834,0.00339797
406.97835571,0.00362842
408.90716309,0.00387921
410.83597046,0.00425512
412.76477783,0.00445854
414.69358521,0.00475648
416.62239258,0.00451136
418.55119995,0.00359958
420.48000732,0.00424391
422.40881470,0.00471090
424.33762207,0.00482542
426.26642944,0.00520479
428.19523682,0.00505502
430.12404419,0.00512493
432.05285156,0.00474986
433.98165894,0.00469203
435.91046631,0.00485045
437.83927368,0.00447539
439.76808105,0.00434743
441.69688843,0.00410742
443.62569580,0.00382850
445.55450317,0.00403664
447.48331055,0.00426918
449.41211792,0.00389210
451.34092529,0.00357322
453.26973267,0.00358530
455.19854004,0.00355407
457.12734741,0.00299548
459.05615479,0.00277164
460.98496216,0.00336539
462.91376953,0.00316277
464.84257690,0.00292574
466.77138428,0.00241026
468.70019165,0.00166386
470.62899902,0.00212090
472.55780640,0.00221704
474.48661377,0.00174867
476.41542114,0.00158476
478.34422852,0.00149218
480.27303589,0.00140946
482.20184326,0.00124038
484.13065063,0.00082184
486.05945801,0.00072501
487.98826538,0.00108541
489.91707275,0.00101337
491.84588013,0.00050947
493.77468750,0.00059114
495.70349487,0.00122104
497.63230225,0.00123969
499.56110962,0.00074167
501.48991699,0.00028305
503.41872437,0.00068081
505.34753174,0.00087061
507.27633911,0.00080057
509.20514648,0.00101417
511.13395386,0.00024687
513.06276123,0.00054504
514.99156860,0.00071873
516.92037598,0.00038398
518.84918335,0.00060526
520.77799072,-0.00005534
522.70679810,0.00033573
524.63560547,0.00034627
526.56441284,0.00021787
528.49322021,0.00069741
530.42202759,0.00023588
532.35083496,0.00064714
534.27964233,0.00071193
536.20844971,0.00046666
538.13725708,0.00076678
540.06606445,0.00056649
541.99487183,0.00049855
543.92367920,0.00013788
545.85248657,0.00001777
547.78129395,0.00043827
549.71010132,0.00020760
551.63890869,0.00030854
553.56771606,0.00060275
555.49652344,0.00047733
557.42533081,0.00063288
559.35413818,0.00046863
561.28294556,0.00021641
563.21175293,0.00021959
565.14056030,0.00014528
567.06936768,-0.00002524
568.99817505,-0.00003777
570.92698242,0.00031841
572.85578979,-0.00010834
574.78459717,-0.00012192
576.71340454,0.00048955
578.64221191,0.00018193
580.57101929,0.00030911
582.49982666,0.00058617
584.42863403,0.00030962
586.35744141,0.00010036
588.28624878,-0.00015495
590.21505615,0.00023845
592.14386353,0.00009800
594.07267090,0.00000984
596.00147827,0.00029714
597.93028564,-0.00000498
599.85909302,0.00030821
601.78790039,0.00013606
603.71670776,-0.00003677
605.64551514,0.00015242
607.57432251,0.00017464
609.50312988,-0.00015197
611.43193726,0.00008221
613.36074463,0.00021914
615.28955200,0.00007863
617.21835938,0.00049212
619.14716675,0.00026334
621.07597412,0.00013592
623.00478149,0.00011800
624.93358887,-0.00023902
626.86239624,0.00020646
628.79120361,0.00013054
630.72001099,0.00068682
632.64881836,0.00252167
634.57762573,0.00300960
636.50643311,0.00313703
638.43524048,0.00352375
640.36404785,0.00387125
642.29285522,0.00424040
644.22166260,0.00447913
646.15046997,0.00515862
648.07927734,0.00526909
650.00808472,0.00553497
651.93689209,0.00605177
653.86569946,0.00603718
655.79450684,0.00629158
657.72331421,0.00642362
659.65212158,0.00688675
661.58092896,0.00687087
663.50973633,0.00710537
665.43854370,0.00768614
667.36735107,0.00650538
669.29615845,0.00709449
671.22496582,0.00856510
673.15377319,0.00834608
675.08258057,0.00910159
677.01138794,0.00944319
678.94019531,0.00902756
680.86900269,0.00938700
682.79781006,0.00946048
684.72661743,0.00946152
686.65542480,0.00940788
688.58423218,0.00900015
690.51303955,0.00956401
692.44184692,0.01035902
694.37065430,0.01038117
696.29946167,0.01175377
698.22826904,0.01388799
700.15707642,0.01442839
702.08588379,0.01430107
704.01469116,0.01357972
705.94349854,0.01188053
707.87230591,0.01052556
709.80111328,0.00843137
711.72992065,0.00549463
713.65872803,0.00362414
715.58753540,0.00208526
717.51634277,0.00115656
719.44515015,0.00096729
721.37395752,0.00058805
723.30276489,0.00059558
725.23157227,0.00050816
727.16037964,0.00023599
729.08918701,0.00024875
731.01799438,0.00035004
732.94680176,0.00030195
734.87560913,0.00012148
736.80441650,0.00005847
738.73322388,0.00000167
740.66203125,0.00017175
742.59083862,0.00008696
744.51964600,0.00029320
746.44845337,0.00053694
748.37726074,0.00012741
750.30606812,0.00030888
752.23487549,0.00026926
754.16368286,0.00032937
756.09249023,0.00085030
758.02129761,0.00059170
759.95010498,0.00054765
761.87891235,0.00090305
763.80771973,0.00065589
765.73652710,0.00055447
767.66533447,0.00067838
769.59414185,0.00064109
771.52294922,0.00081746
773.45175659,0.00078291
775.38056396,0.00087666
777.30937134,0.00091278
779.23817871,0.00073148
781.16698608,0.00100200
783.09579346,0.00096418
785.02460083,0.00093824
786.95340820,0.00099646
788.88221558,0.00082462
790.81102295,0.00085557
792.73983032,0.00088298
794.66863770,0.00112380
796.59744507,0.00154147
798.52625244,0.00202495
800.45505981,0.00222257
802.38386719,0.00181999
804.31267456,0.00149098
806.24148193,0.00137332
808.17028931,0.00096177
810.09909668,0.00067367
812.02790405,0.00105815
813.95671143,0.00100854
815.88551880,0.00068264
817.81432617,0.00102621
819.74313354,0.00116378
821.67194092,0.00089088
823.60074829,0.00087720
825.52955566,0.00107187
827.45836304,0.00127881
829.38717041,0.00168328
831.31597778,0.00199405
833.24478516,0.00244664
835.17359253,0.00306707
837.10239990,0.00311417
839.03120728,0.00315958
840.96001465,0.00312106
842.88882202,0.00285327
844.81762939,0.00258556
846.74643677,0.00217661
848.67524414,0.00229953
850.60405151,0.00224740
852.53285889,0.00171466
854.46166626,0.00171172
856.39047363,0.00174081
858.31928101,0.00155341
860.24808838,0.00123829
862.17689575,0.00084159
864.10570313,0.00090552
866.03451050,0.00099876
867.96331787,0.00097335
869.89212524,0.00100478
871.82093262,0.00102859
873.74973999,0.00102937
875.67854736,0.00067405
877.60735474,0.00071072
879.53616211,0.00079342
881.46496948,0.00050194
883.39377686,0.00069337
885.32258423,0.00085889
887.25139160,0.00081963
889.18019897,0.00063594
891.10900635,0.00063105
893.03781372,0.00072098
894.96662109,0.00048562
896.89542847,0.00076446
898.82423584,0.00115417
900.75304321,0.00110885
902.68185059,0.00074601
904.61065796,0.00057110
906.53946533,0.00081633
908.46827271,0.00078818
910.39708008,0.00087648
912.32588745,0.00118190
914.25469482,0.00127124
916.18350220,0.00155106
918.11230957,0.00212644
920.04111694,0.00222114
921.96992432,0.00225805
923.89873169,0.00263446
925.82753906,0.00265110
927.75634644,0.00285577
929.68515381,0.00324755
931.61396118,0.00345990
933.54276855,0.00369775
935.47157593,0.00403601
937.40038330,0.00414583
939.32919067,0.00401935
941.25799805,0.00446358
943.18680542,0.00468442
945.11561279,0.00458289
947.04442017,0.00466405
948.97322754,0.00445787
950.90203491,0.00438045
952.83084229,0.00447986
954.75964966,0.00430742
956.68845703,0.00408809
958.61726440,0.00429341
960.54607178,0.00445142
962.47487915,0.00443543
964.40368652,0.00443939
966.33249390,0.00454859
968.26130127,0.00486406
970.19010864,0.00496980
972.11891602,0.00531945
974.04772339,0.00565239
975.97653076,0.00599348
977.90533813,0.00655618
979.83414551,0.00708606
981.76295288,0.00800940
983.69176025,0.00862751
985.62056763,0.00944710
987.54937500,0.01071541
989.47818237,0.01178990
991.40698975,0.01311730
993.33579712,0.01438060
995.26460449,0.01548405
997.19341187,0.01667027
999.12221924,0.01819364
1001.05102661,0.01964464
1002.97983398,0.02085746
1004.90864136,0.02246766
1006.83744873,0.02378917
1008.76625610,0.02496196
1010.69506348,0.02666163
1012.62387085,0.02815755
1014.55267822,0.02958650
1016.48148560,0.03107760
1018.41029297,0.03244175
1020.33910034,0.03414375
1022.26790771,0.03558109
1024.19671509,0.03696466
1026.12552246,0.03835914
1028.05432983,0.03943634
1029.98313721,0.04070911
1031.91194458,0.04165328
1033.84075195,0.04258614
1035.76955933,0.04315040
1037.69836670,0.04341159
1039.62717407,0.04384806
1041.55598145,0.04380982
1043.48478882,0.04362753
1045.41359619,0.04290915
1047.34240356,0.04234426
1049.27121094,0.04171750
1051.20001831,0.04081211
1053.12882568,0.04033726
1055.05763306,0.03935351
1056.98644043,0.03857729
1058.91524780,0.03777113
1060.84405518,0.03659283
1062.77286255,0.03544490
1064.70166992,0.03431782
1066.63047729,0.03319655
1068.55928467,0.03169839
1070.48809204,0.03031227
1072.41689941,0.02874266
1074.34570679,0.02738706
1076.27451416,0.02618269
1078.20332153,0.02499442
1080.13212891,0.02399980
1082.06093628,0.02265502
1083.98974365,0.02163115
1085.91855103,0.02053805
1087.84735840,0.01955098
1089.77616577,0.01879634
1091.70497314,0.01797376
1093.63378052,0.01711567
1095.56258789,0.01639690
1097.49139526,0.01613724
1099.42020264,0.01559843
1101.34901001,0.01546614
1103.27781738,0.01503066
1105.20662476,0.01436209
1107.13543213,0.01410805
1109.06423950,0.01349945
1110.99304687,0.01371499
1112.92185425,0.01375139
1114.85066162,0.01330142
1116.77946899,0.01340850
1118.70827637,0.01355610
1120.63708374,0.01359084
1122.56589111,0.01359949
1124.49469849,0.01372743
1126.42350586,0.01397805
1128.35231323,0.01437353
1130.28112061,0.01459875
1132.20992798,0.01505597
1134.13873535,0.01551339
1136.06754272,0.01610650
1137.99635010,0.01718939
1139.92515747,0.01800846
1141.85396484,0.01915574
1143.78277222,0.02050714
1145.71157959,0.02190682
1147.64038696,0.02304681
1149.56919434,0.02392731
1151.49800171,0.02527949
1153.42680908,0.02683641
1155.35561646,0.02815948
1157.28442383,0.02899476
1159.21323120,0.03006384
1161.14203857,0.03113141
1163.07084595,0.03242727
1164.99965332,0.03370816
1166.92846069,0.03469910
1168.85726807,0.03624538
1170.78607544,0.03752928
1172.71488281,0.03899425
1174.64369019,0.04035847
1176.57249756,0.04182941
1178.50130493,0.04368018
1180.43011230,0.04517167
1182.35891968,0.04717813
1184.28772705,0.04929247
1186.21653442,0.05146432
1188.14534180,0.05356130
1190.07414917,0.05610938
1192.00295654,0.05900285
1193.93176392,0.06142941
1195.86057129,0.06437929
1197.78937866,0.06729683
1199.71818604,0.07032830
1201.64699341,0.07341857
1203.57580078,0.07616988
1205.50460815,0.07915643
1207.43341553,0.08228465
1209.36222290,0.08496121
1211.29103027,0.08729127
1213.21983765,0.09005748
1215.14864502,0.09210432
1217.07745239,0.09386046
1219.00625977,0.09583016
1220.93506714,0.09735367
1222.86387451,0.09856763
1224.79268188,0.09916186
1226.72148926,0.10008118
1228.65029663,0.10072439
1230.57910400,0.10091712
1232.50791138,0.10145136
1234.43671875,0.10152349
1236.36552612,0.10129458
1238.29433350,0.10104603
1240.22314087,0.10091230
1242.15194824,0.10051991
1244.08075562,0.09980829
1246.00956299,0.09928660
1247.93837036,0.09877487
1249.86717773,0.09812291
1251.79598511,0.09731107
1253.72479248,0.09638919
1255.65359985,0.09529312
1257.58240723,0.09395537
1259.51121460,0.09219529
1261.44002197,0.09076427
1263.36882935,0.08996410
1265.29763672,0.08866645
1267.22644409,0.08741054
1269.15525146,0.08643103
1271.08405884,0.08487253
1273.01286621,0.08351794
1274.94167358,0.08223640
1276.87048096,0.08042556
1278.79928833,0.07895964
1280.72809570,0.07742450
1282.65690308,0.07570505
1284.58571045,0.07440990
1286.51451782,0.07295053
1288.44332520,0.07150159
1290.37213257,0.07062909
1292.30093994,0.07002136
1294.22974731,0.06942201
1296.15855469,0.06890216
1298.08736206,0.06869675
1300.01616943,0.06903769
1301.94497681,0.06928866
1303.87378418,0.06989922
1305.80259155,0.07084358
1307.73139893,0.07133950
1309.66020630,0.07270916
1311.58901367,0.07385536
1313.51782104,0.07493703
1315.44662842,0.07718683
1317.37543579,0.07870933
1319.30424316,0.08041257
1321.23305054,0.08326250
1323.16185791,0.08605912
1325.09066528,0.08837104
1327.01947266,0.09093818
1328.94828003,0.09332000
1330.87708740,0.09540448
1332.80589478,0.09801161
1334.73470215,0.09983386
1336.66350952,0.10064303
1338.59231689,0.09968616
1340.52112427,0.10082866
1342.44993164,0.10508892
1344.37873901,0.10567962
1346.30754639,0.10559827
1348.23635376,0.10544883
1350.16516113,0.10448250
1352.09396851,0.10474089
1354.02277588,0.10302632
1355.95158325,0.10215126
1357.88039062,0.10186079
1359.80919800,0.10006612
1361.73800537,0.09555968
1363.66681274,0.09405895
1365.59562012,0.09907465
1367.52442749,0.09670044
1369.45323486,0.09554940
1371.38204224,0.09733673
1373.31084961,0.09179801
1375.23965698,0.09241529
1377.16846436,0.09494010
1379.09727173,0.09447828
1381.02607910,0.09463155
1382.95488647,0.09468128
1384.88369385,0.09446606
1386.81250122,0.08988614
1388.74130859,0.09130093
1390.67011597,0.09901014
1392.59892334,0.09646270
1394.52773071,0.08994818
1396.45653809,0.09445321
1398.38534546,0.09433424
1400.31415283,0.09379578
1402.24296021,0.10162338
1404.17176758,0.09569705
1406.10057495,0.09639084
1408.02938232,0.10040541
1409.95818970,0.09659249
1411.88699707,0.09878790
1413.81580444,0.09520028
1415.74461182,0.09698164
1417.67341919,0.08695564
1419.60222656,0.07751175
1421.53103394,0.09019177
1423.45984131,0.08689402
1425.38864868,0.08434241
1427.31745605,0.08593693
1429.24626343,0.07883153
1431.17507080,0.07655354
1433.10387817,0.07792470
1435.03268555,0.07087497
1436.96149292,0.05960853
1438.89030029,0.06809093
1440.81910767,0.07009020
1442.74791504,0.06486304
1444.67672241,0.06797215
1446.60552979,0.06213047
1448.53433716,0.06326404
1450.46314453,0.06519773
1452.39195190,0.06639691
1454.32075928,0.06886867
1456.24956665,0.05630163
1458.17837402,0.05909227
1460.10718140,0.07926360
1462.03598877,0.08438748
1463.96479614,0.08332851
1465.89360352,0.08713295
1467.82241089,0.10006440
1469.75121826,0.10711028
1471.68002563,0.09491105
1473.60883301,0.09994350
1475.53764038,0.11432287
1477.46644775,0.12352273
1479.39525513,0.13578075
1481.32406250,0.13762739
1483.25286987,0.14662705
1485.18167725,0.15123607
1487.11048462,0.14850007
1489.03929199,0.14762980
1490.96809937,0.14871785
1492.89690674,0.17395195
1494.82571411,0.16938460
1496.75452148,0.15193471
1498.68332886,0.17279434
1500.61213623,0.17820406
1502.54094360,0.19152778
1504.46975098,0.18011296
1506.39855835,0.12962788
1508.32736572,0.16015515
1510.25617310,0.18865922
1512.18498047,0.18257147
1514.11378784,0.19821095
1516.04259521,0.17793685
1517.97140259,0.18604696
1519.90020996,0.17927840
1521.82901733,0.15469737
1523.75782471,0.19069193
1525.68663208,0.18661815
1527.61543945,0.18615028
1529.54424683,0.20699880
1531.47305420,0.19846840
1533.40186157,0.18119359
1535.33066895,0.19288561
1537.25947632,0.20638274
1539.18828369,0.14573681
1541.11709106,0.15339954
1543.04589844,0.18471012
1544.97470581,0.17707765
1546.90351318,0.21083075
1548.83232056,0.19576865
1550.76112793,0.20213968
1552.68993530,0.20078090
1554.61874268,0.18218002
1556.54755005,0.19490321
1558.47635742,0.13534941
1560.40516479,0.14782825
1562.33397217,0.21185586
1564.26277954,0.19957007
1566.19158691,0.20594463
1568.12039429,0.20330939
1570.04920166,0.17956799
1571.97800903,0.20844945
1573.90681641,0.21032900
1575.83562378,0.16564780
1577.76443115,0.18875620
1579.69323853,0.21340880
1581.62204590,0.20397803
1583.55085327,0.20941311
1585.47966064,0.20592497
1587.40846802,0.20765644
1589.33727539,0.20576656
1591.26608276,0.20575717
1593.19489014,0.20586394
1595.12369751,0.20334771
1597.05250488,0.20644715
1598.98131226,0.20499453
1600.91011963,0.20600155
1602.83892700,0.20210600
1604.76773437,0.20584410
1606.69654175,0.20261613
1608.62534912,0.20236194
1610.55415649,0.20201483
1612.48296387,0.20332803
1614.41177124,0.20593360
1616.34057861,0.16684443
1618.26938599,0.18242826
1620.19819336,0.21263978
1622.12700073,0.18753046
1624.05580811,0.18914135
1625.98461548,0.19841385
1627.91342285,0.19734442
1629.84223022,0.19621056
1631.77103760,0.20987654
1633.69984497,0.19247173
1635.62865234,0.15791428
1637.55745972,0.18540004
1639.48626709,0.20417693
1641.41507446,0.19922103
1643.34388184,0.20464763
1645.27268921,0.18348432
1647.20149658,0.16066852
1649.13030396,0.20149094
1651.05911133,0.18967155
1652.98791870,0.11958043
1654.91672607,0.16596824
1656.84553345,0.20916250
1658.77434082,0.19976550
1660.70314819,0.20564151
1662.63195557,0.18589059
1664.56076294,0.19685173
1666.48957031,0.21159369
1668.41837769,0.18342564
1670.34718506,0.17848733
1672.27599243,0.20323329
1674.20479980,0.18672815
1676.13360718,0.17909047
1678.06241455,0.20717975
1679.99122192,0.19905576
1681.92002930,0.19647092
1683.84883667,0.15845482
1685.77764404,0.15780389
1687.70645142,0.21767621
1689.63525879,0.18759334
1691.56406616,0.20762810
1693.49287354,0.21061513
1695.42168091,0.15244280
1697.35048828,0.18986067
1699.27929565,0.16533867
1701.20810303,0.14912648
1703.13691040,0.20509663
1705.06571777,0.18695197
1706.99452515,0.18895368
1708.92333252,0.20579898
1710.85213989,0.19722460
1712.78094727,0.20073345
1714.70975464,0.18565187
1716.63856201,0.16609809
1718.56736938,0.16346692
1720.49617676,0.19484782
1722.42498413,0.20245752
1724.35379150,0.18759777
1726.28259888,0.20424676
1728.21140625,0.18785647
1730.14021362,0.18979275
1732.06902100,0.18422078
1733.99782837,0.13907489
1735.92663574,0.17525481
1737.85544312,0.19346422
1739.78425049,0.17150664
1741.71305786,0.18742999
1743.64186523,0.18981399
1745.57067261,0.19022819
1747.49947998,0.19144449
1749.42828735,0.18284403
1751.35709473,0.17478278
1753.28590210,0.19480267
1755.21470947,0.20374361
1757.14351685,0.18503365
1759.07232422,0.20452356
1761.00113159,0.19117518
1762.92993896,0.18472552
1764.85874634,0.21213898
1766.78755371,0.18988812
1768.71636108,0.19223827
1770.64516846,0.19038752
1772.57397583,0.17070690
1774.50278320,0.19147578
1776.43159058,0.20216557
1778.36039795,0.19908324
1780.28920532,0.19637859
1782.21801270,0.19830664
1784.14682007,0.19787189
1786.07562744,0.19387981
1788.00443481,0.20441845
1789.93324219,0.19860040
1791.86204956,0.17906180
1793.79085693,0.18737191
1795.71966431,0.20143041
1797.64847168,0.19851327
1799.57727905,0.19533154
1801.50608643,0.19172460
1803.43489380,0.19833621
1805.36370117,0.20284279
1807.29250854,0.19970170
1809.22131592,0.20054841
1811.15012329,0.19511840
1813.07893066,0.20131776
1815.00773804,0.20218584
1816.93654541,0.19979921
1818.86535278,0.20151868
1820.79416016,0.20050149
1822.72296753,0.20336208
1824.65177490,0.18949109
1826.58058228,0.19684669
1828.50938965,0.19694909
1830.43819702,0.18418017
1832.36700439,0.20147173
1834.29581177,0.19990775
1836.22461914,0.19958510
1838.15342651,0.19886437
1840.08223389,0.20018452
1842.01104126,0.20015243
1843.93984863,0.17663217
1845.86865601,0.18931881
1847.79746338,0.19974414
1849.72627075,0.19516565
1851.65507812,0.20135123
1853.58388550,0.19694421
1855.51269287,0.19914848
1857.44150024,0.19770804
1859.37030762,0.19644421
1861.29911499,0.19788744
1863.22792236,0.19564490
1865.15672974,0.19783214
1867.08553711,0.19048485
1869.01434448,0.18248934
1870.94315186,0.19010478
1872.87195923,0.19740254
1874.80076660,0.19410859
1876.72957397,0.19513728
1878.65838135,0.19449589
1880.58718872,0.19354501
1882.51599609,0.19527861
1884.44480347,0.19171160
1886.37361084,0.19459838
1888.30241821,0.18986411
1890.23122559,0.18606415
1892.16003296,0.19337851
1894.08884033,0.19037862
1896.01764771,0.18970901
1897.94645508,0.19180340
1899.87526245,0.19081160
1901.80406982,0.19120897
1903.73287720,0.18993209
1905.66168457,0.19077694
1907.59049194,0.18866703
1909.51929932,0.18745659
1911.44810669,0.18849231
1913.37691406,0.18889326
1915.30572144,0.19043586
1917.23452881,0.18166599
1919.16333618,0.18209165
1921.09214355,0.18910858
1923.02095093,0.18291420
1924.94975830,0.18676713
1926.87856567,0.18870416
1928.80737305,0.18619668
1930.73618042,0.18851480
1932.66498779,0.18582673
1934.59379517,0.18765862
1936.52260254,0.18628079
1938.45140991,0.18678676
1940.38021729,0.18661587
1942.30902466,0.18038616
1944.23783203,0.18410300
1946.16663940,0.18597695
1948.09544678,0.18546496
1950.02425415,0.18608037
1951.95306152,0.18533435
1953.88186890,0.18543139
1955.81067627,0.18462557
1957.73948364,0.18541107
1959.66829102,0.18480390
1961.59709839,0.18447952
1963.52590576,0.18500361
1965.45471313,0.18372124
1967.38352051,0.18195435
1969.31232788,0.18336374
1971.24113525,0.18457106
1973.16994263,0.18316345
1975.09875000,0.18405193
1977.02755737,0.18303820
1978.95636475,0.18318585
1980.88517212,0.18313402
1982.81397949,0.18208927
1984.74278687,0.18287727
1986.67159424,0.18103373
1988.60040161,0.18151954
1990.52920898,0.17986378
1992.45801636,0.17773080
1994.38682373,0.18041097
1996.31563110,0.18063954
1998.24443848,0.17984240
2000.17324585,0.17971072
2002.10205322,0.17936212
2004.03086060,0.17897937
2005.95966797,0.17852743
2007.88847534,0.17800307
2009.81728271,0.17777485
2011.74609009,0.17728007
2013.67489746,0.17709160
2015.60370483,0.17617063
2017.53251221,0.17442545
2019.46131958,0.17565748
2021.39012695,0.17550451
2023.31893433,0.17468172
2025.24774170,0.17489819
2027.17654907,0.17415726
2029.10535645,0.17402464
2031.03416382,0.17326701
2032.96297119,0.17315796
2034.89177856,0.17266092
2036.82058594,0.17221811
2038.74939331,0.17213026
2040.67820068,0.17093694
2042.60700806,0.17076769
2044.53581543,0.17069712
2046.46462280,0.17044154
2048.39343018,0.17001010
2050.32223755,0.16976905
2052.25104492,0.16947135
2054.17985229,0.16897961
2056.10865967,0.16869003
2058.03746704,0.16796610
2059.96627441,0.16778964
2061.89508179,0.16765755
2063.82388916,0.16677959
2065.75269653,0.16590422
2067.68150391,0.16642740
2069.61031128,0.16634107
2071.53911865,0.16562425
2073.46792603,0.16562238
2075.39673340,0.16493091
2077.32554077,0.16477798
2079.25434814,0.16444746
2081.18315552,0.16416723
2083.11196289,0.16386053
2085.04077026,0.16333061
2086.96957764,0.16330634
2088.89838501,0.16263174
2090.82719238,0.16242334
2092.75599976,0.16216850
2094.68480713,0.16182938
2096.61361450,0.16163208
2098.54242187,0.16131571
2100.47122925,0.16107231
2102.40003662,0.16074680
2104.32884399,0.16058885
2106.25765137,0.15999602
2108.18645874,0.15979454
2110.11526611,0.15956096
2112.04407349,0.15931958
2113.97288086,0.15904166
2115.90168823,0.15854241
2117.83049561,0.15851732
2119.75930298,0.15824312
2121.68811035,0.15810937
2123.61691772,0.15776822
2125.54572510,0.15751681
2127.47453247,0.15721703
2129.40333984,0.15698662
2131.33214722,0.15693411
2133.26095459,0.15641992
2135.18976196,0.15628423
2137.11856934,0.15597802
2139.04737671,0.15585877
2140.97618408,0.15569341
2142.90499146,0.15548015
2144.83379883,0.15520166
2146.76260620,0.15490973
2148.69141357,0.15489477
2150.62022095,0.15436208
2152.54902832,0.15438816
2154.47783569,0.15405436
2156.40664307,0.15389402
2158.33545044,0.15380286
2160.26425781,0.15334302
2162.19306519,0.15346661
2164.12187256,0.15295634
2166.05067993,0.15291125
2167.97948730,0.15274647
2169.90829468,0.15249571
2171.83710205,0.15233395
2173.76590942,0.15195554
2175.69471680,0.15200156
2177.62352417,0.15165892
2179.55233154,0.15156114
2181.48113892,0.15120077
2183.40994629,0.15115243
2185.33875366,0.15103123
2187.26756104,0.15056688
2189.19636841,0.15052876
2191.12517578,0.15016073
2193.05398315,0.15018274
2194.98279053,0.14996138
2196.91159790,0.14970395
2198.84040527,0.14938405
2200.76921265,0.14913604
2202.69802002,0.14907068
2204.62682739,0.14865062
2206.55563477,0.14865839
2208.48444214,0.14850849
2210.41324951,0.14841679
2212.34205688,0.14810356
2214.27086426,0.14796457
2216.19967163,0.14783189
2218.12847900,0.14731991
2220.05728638,0.14720912
2221.98609375,0.14690396
2223.91490112,0.14682978
2225.84370850,0.14656377
2227.77251587,0.14636654
2229.70132324,0.14613728
2231.63013062,0.14582980
2233.55893799,0.14571181
2235.48774536,0.14536187
2237.41655273,0.14534566
2239.34536011,0.14490552
2241.27416748,0.14474753
2243.20297485,0.14450346
2245.13178223,0.14409840
2247.06058960,0.14401089
2248.98939697,0.14359957
2250.91820435,0.14353299
2252.84701172,0.14319831
2254.77581909,0.14297348
2256.70462646,0.14270726
2258.63343384,0.14251909
2260.56224121,0.14240222
2262.49104858,0.14207684
2264.41985596,0.14208487
2266.34866333,0.14166504
2268.27747070,0.14148748
2270.20627808,0.14122558
2272.13508545,0.14101575
2274.06389282,0.14089486
2275.99270020,0.14066234
2277.92150757,0.14067627
2279.85031494,0.14028840
2281.77912231,0.14025705
2283.70792969,0.14006120
2285.63673706,0.13975441
2287.56554443,0.13948873
2289.49435181,0.13901699
2291.42315918,0.13867602
2293.35196655,0.13834432
2295.28077393,0.13797851
2297.20958130,0.13734676
2299.13838867,0.13702208
2301.06719604,0.13631788
2302.99600342,0.13564022
2304.92481079,0.13493600
2306.85361816,0.13381276
2308.78242554,0.13292506
2310.71123291,0.13162968
2312.64004028,0.13041618
2314.56884766,0.12906614
2316.49765503,0.12750256
2318.42646240,0.12564331
2320.35526978,0.12395567
2322.28407715,0.12205316
2324.21288452,0.12004530
2326.14169189,0.11908239
2328.07049927,0.11741393
2329.99930664,0.11582604
2331.92811401,0.11470349
2333.85692139,0.11436569
2335.78572876,0.11397973
2337.71453613,0.11335224
2339.64334351,0.11361615
2341.57215088,0.11374782
2343.50095825,0.11581276
2345.42976562,0.11803752
2347.35857300,0.12303606
2349.28738037,0.12760058
2351.21618774,0.12263953
2353.14499512,0.11615275
2355.07380249,0.11149812
2357.00260986,0.10771331
2358.93141724,0.10581576
2360.86022461,0.10435295
2362.78903198,0.10432462
2364.71783936,0.10493395
2366.64664673,0.10646502
2368.57545410,0.10862100
2370.50426147,0.11149765
2372.43306885,0.11487905
2374.36187622,0.11816853
2376.29068359,0.12165549
2378.21949097,0.12438223
2380.14829834,0.12668306
2382.07710571,0.12815833
2384.00591309,0.12905453
2385.93472046,0.12949041
2387.86352783,0.12958536
2389.79233521,0.12953418
2391.72114258,0.12937601
2393.64994995,0.12936445
2395.57875732,0.12888193
2397.50756470,0.12884688
2399.43637207,0.12864211
2401.36517944,0.12838058
2403.29398682,0.12836194
2405.22279419,0.12803748
2407.15160156,0.12791207
2409.08040894,0.12764636
2411.00921631,0.12764846
2412.93802368,0.12737390
2414.86683105,0.12713388
2416.79563843,0.12708473
2418.72444580,0.12667120
2420.65325317,0.12654245
2422.58206055,0.12648542
2424.51086792,0.12627757
2426.43967529,0.12596288
2428.36848267,0.12590548
2430.29729004,0.12571575
2432.22609741,0.12554497
2434.15490479,0.12541778
2436.08371216,0.12520871
2438.01251953,0.12502597
2439.94132690,0.12471537
2441.87013428,0.12477864
2443.79894165,0.12432074
2445.72774902,0.12405263
2447.65655640,0.12410973
2449.58536377,0.12385748
2451.51417114,0.12373419
2453.44297852,0.12342635
2455.37178589,0.12338762
2457.30059326,0.12315869
2459.22940063,0.12299556
2461.15820801,0.12281397
2463.08701538,0.12263936
2465.01582275,0.12257548
2466.94463013,0.12216905
2468.87343750,0.12211061
2470.80224487,0.12181237
2472.73105225,0.12171657
2474.65985962,0.12155785
2476.58866699,0.12134594
2478.51747437,0.12134179
2480.44628174,0.12095210
2482.37508911,0.12091449
2484.30389648,0.12057568
2486.23270386,0.12045054
2488.16151123,0.12046514
2490.09031860,0.12014741
2492.01912598,0.12002473
2493.94793335,0.11983517
2495.87674072,0.11967160
2497.80554810,0.11933023
2499.73435547,0.11927426
2501.66316284,0.11916540
2503.59197021,0.11895540
2505.52077759,0.11883342
2507.44958496,0.11861525
2509.37839233,0.11851966
2511.30719971,0.11828072
2513.23600708,0.11816736
2515.16481445,0.11785123
2517.09362183,0.11770226
2519.02242920,0.11764660
2520.95123657,0.11735743
2522.88004395,0.11736013
2524.80885132,0.11722757
2526.73765869,0.11700025
2528.66646606,0.11685833
2530.59527344,0.11668023
2532.52408081,0.11635388
2534.45288818,0.11628208
2536.38169556,0.11614896
2538.31050293,0.11597868
2540.23931030,0.11590932
2542.16811768,0.11558734
2544.09692505,0.11556347
2546.02573242,0.11525872
2547.95453979,0.11514631
2549.88334717,0.11506309
2551.81215454,0.11474469
2553.74096191,0.11469486
2555.66976929,0.11430003
2557.59857666,0.11431098
2559.52738403,0.11418244
2561.45619141,0.11388676
2563.38499878,0.11380584
2565.31380615,0.11352096
2567.24261353,0.11339635
2569.17142090,0.11324653
2571.10022827,0.11308935
2573.02903564,0.11274755
2574.95784302,0.11266591
2576.88665039,0.11258927
2578.81545776,0.11232429
2580.74426514,0.11227215
2582.67307251,0.11203262
2584.60187988,0.11189173
2586.53068726,0.11177108
2588.45949463,0.11159760
2590.38830200,0.11142948
2592.31710937,0.11132240
2594.24591675,0.11107454
2596.17472412,0.11088853
2598.10353149,0.11082214
2600.03233887,0.11055124
2601.96114624,0.11052925
2603.88995361,0.11028440
2605.81876099,0.11010253
2607.74756836,0.11002968
2609.67637573,0.10983866
2611.60518311,0.10965435
2613.53399048,0.10939232
2615.46279785,0.10945185
2617.39160522,0.10920663
2619.32041260,0.10893171
2621.24921997,0.10880582
2623.17802734,0.10867123
2625.10683472,0.10845296
2627.03564209,0.10818344
2628.96444946,0.10821530
2630.89325684,0.10794947
2632.82206421,0.10779887
2634.75087158,0.10755263
2636.67967895,0.10732586
2638.60848633,0.10735923
2640.53729370,0.10719576
2642.46610107,0.10703106
2644.39490845,0.10668425
2646.32371582,0.10663526
2648.25252319,0.10654007
2650.18133057,0.10628210
2652.11013794,0.10609107
2654.03894531,0.10593566
2655.96775269,0.10581398
2657.89656006,0.10556123
2659.82536743,0.10553654
2661.75417480,0.10529636
2663.68298218,0.10516484
2665.61178955,0.10502741
2667.54059692,0.10486576
2669.46940430,0.10475013
2671.39821167,0.10441321
2673.32701904,0.10439080
2675.25582642,0.10408036
2677.18463379,0.10393614
2679.11344116,0.10383114
2681.04224854,0.10361353
2682.97105591,0.10353424
2684.89986328,0.10334706
2686.82867065,0.10335622
2688.75747803,0.10295120
2690.68628540,0.10283728
2692.61509277,0.10273419
2694.54390015,0.10242954
2696.47270752,0.10237113
2698.40151489,0.10211997
2700.33032227,0.10209784
2702.25912964,0.10185318
2704.18793701,0.10167188
2706.11674438,0.10148914
2708.04555176,0.10129112
2709.97435913,0.10131420
2711.90316650,0.10104835
2713.83197388,0.10085028
2715.76078125,0.10063169
2717.68958862,0.10059425
2719.61839600,0.10047155
2721.54720337,0.10015196
2723.47601074,0.10002270
2725.40481812,0.09988984
2727.33362549,0.09966294
2729.26243286,0.09944715
2731.19124023,0.09936716
2733.12004761,0.09916683
2735.04885498,0.09904755
2736.97766235,0.09883814
2738.90646973,0.09872161
2740.83527710,0.09869492
2742.76408447,0.09842274
2744.69289185,0.09813045
2746.62169922,0.09791191
2748.55050659,0.09800652
2750.47931396,0.09773183
2752.40812134,0.09755038
2754.33692871,0.09742105
2756.26573608,0.09709224
2758.19454346,0.09705673
2760.12335083,0.09674110
2762.05215820,0.09671147
2763.98096558,0.09650747
2765.90977295,0.09624638
2767.83858032,0.09616311
2769.76738770,0.09595422
2771.69619507,0.09591587
2773.62500244,0.09548235
2775.55380981,0.09542657
2777.48261719,0.09532653
2779.41142456,0.09512234
2781.34023193,0.09507161
2783.26903931,0.09470002
2785.19784668,0.09466939
2787.12665405,0.09439366
2789.05546143,0.09414902
2790.98426880,0.09409030
2792.91307617,0.09389058
2794.84188354,0.09367973
2796.77069092,0.09347633
2798.69949829,0.09343809
2800.62830566,0.09305747
2802.55711304,0.09287411
2804.48592041,0.09287709
2806.41472778,0.09261690
2808.34353516,0.09241273
2810.27234253,0.09219027
2812.20114990,0.09201522
2814.12995728,0.09184696
2816.05876465,0.09162889
2817.98757202,0.09144840
2819.91637939,0.09128934
2821.84518677,0.09103931
2823.77399414,0.09093437
2825.70280151,0.09082531
2827.63160889,0.09051244
2829.56041626,0.09032120
2831.48922363,0.09016147
2833.41803101,0.08994205
2835.34683838,0.08976100
2837.27564575,0.08957680
2839.20445312,0.08920138
2841.13326050,0.08890396
2843.06206787,0.08858024
2844.99087524,0.08820160
2846.91968262,0.08775719
2848.84848999,0.08705654
2850.77729736,0.08692617
2852.70610474,0.08694786
2854.63491211,0.08677438
2856.56371948,0.08666819
2858.49252686,0.08654688
2860.42133423,0.08646668
2862.35014160,0.08621050
2864.27894897,0.08615056
2866.20775635,0.08600204
2868.13656372,0.08580877
2870.06537109,0.08571438
2871.99417847,0.08548220
2873.92298584,0.08543777
2875.85179321,0.08534883
2877.78060059,0.08517038
2879.70940796,0.08492281
2881.63821533,0.08485586
2883.56702270,0.08481295
2885.49583008,0.08465254
2887.42463745,0.08450017
2889.35344482,0.08426382
2891.28225220,0.08416589
2893.21105957,0.08382635
2895.13986694,0.08365488
2897.06867432,0.08354227
2898.99748169,0.08314002
2900.92628906,0.08294001
2902.85509644,0.08275561
2904.78390381,0.08262584
2906.71271118,0.08231115
2908.64151855,0.08195511
2910.57032593,0.08162399
2912.49913330,0.08116817
2914.42794067,0.08081570
2916.35674805,0.08038327
2918.28555542,0.08009392
2920.21436279,0.08006499
2922.14317017,0.08000607
2924.07197754,0.07971212
2926.00078491,0.07958585
2927.92959229,0.07965808
2929.85839966,0.07957821
2931.78720703,0.07952155
2933.71601440,0.07941084
2935.64482178,0.07933314
2937.57362915,0.07940207
2939.50243652,0.07946621
2941.43124390,0.07935672
2943.36005127,0.07926445
2945.28885864,0.07918473
2947.21766602,0.07905863
2949.14647339,0.07896599
2951.07528076,0.07870365
2953.00408813,0.07852885
2954.93289551,0.07832260
2956.86170288,0.07808457
2958.79051025,0.07781613
2960.71931763,0.07756200
2962.64812500,0.07752412
2964.57693237,0.07732944
2966.50573975,0.07716832
2968.43454712,0.07712092
2970.36335449,0.07734868
2972.29216187,0.07745782
2974.22096924,0.07734235
2976.14977661,0.07740865
2978.07858398,0.07723661
2980.00739136,0.07728792
2981.93619873,0.07728787
2983.86500610,0.07718526
2985.79381348,0.07724790
2987.72262085,0.07702070
2989.65142822,0.07697010
2991.58023560,0.07683641
2993.50904297,0.07657185
2995.43785034,0.07655530
2997.36665771,0.07640158
2999.29546509,0.07625051
3001.22427246,0.07626702
3003.15307983,0.07595306
3005.08188721,0.07568864
3007.01069458,0.07581160
3008.93950195,0.07559332
3010.86830933,0.07526963
3012.79711670,0.07509889
3014.72592407,0.07499215
3016.65473145,0.07494588
3018.58353882,0.07476641
3020.51234619,0.07458647
3022.44115356,0.07445669
3024.36996094,0.07428325
3026.29876831,0.07415050
3028.22757568,0.07412189
3030.15638306,0.07371514
3032.08519043,0.07342385
3034.01399780,0.07340497
3035.94280518,0.07322084
3037.87161255,0.07329118
3039.80041992,0.07302284
3041.72922729,0.07265501
3043.65803467,0.07261862
3045.58684204,0.07256524
3047.51564941,0.07242346
3049.44445679,0.07215655
3051.37326416,0.07205555
3053.30207153,0.07189054
3055.23087891,0.07174326
3057.15968628,0.07143871
3059.08849365,0.07129642
3061.01730103,0.07144822
3062.94610840,0.07110900
3064.87491577,0.07092635
3066.80372314,0.07079630
3068.73253052,0.07064174
3070.66133789,0.07063929
3072.59014526,0.07043707
3074.51895264,0.07035516
3076.44776001,0.07014284
3078.37656738,0.06982602
3080.30537476,0.06975058
3082.23418213,0.06967854
3084.16298950,0.06949374
3086.09179687,0.06941470
3088.02060425,0.06934794
3089.94941162,0.06916489
3091.87821899,0.06902689
3093.80702637,0.06886992
3095.73583374,0.06862664
3097.66464111,0.06844792
3099.59344849,0.06829879
3101.52225586,0.06803562
3103.45106323,0.06805849
3105.37987061,0.06797504
3107.30867798,0.06765346
3109.23748535,0.06749809
3111.16629272,0.06731282
3113.09510010,0.06731601
3115.02390747,0.06696328
3116.95271484,0.06662446
3118.88152222,0.06663059
3120.81032959,0.06632954
3122.73913696,0.06616841
3124.66794434,0.06615777
3126.59675171,0.06607294
3128.52555908,0.06582268
3130.45436645,0.06572561
3132.38317383,0.06548157
3134.31198120,0.06520720
3136.24078857,0.06528354
3138.16959595,0.06487938
3140.09840332,0.06466484
3142.02721069,0.06456593
3143.95601807,0.06434319
3145.88482544,0.06436172
3147.81363281,0.06411846
3149.74244019,0.06384054
3151.67124756,0.06369327
3153.60005493,0.06356713
3155.52886230,0.06331609
3157.45766968,0.06320490
3159.38647705,0.06306028
3161.31528442,0.06282027
3163.24409180,0.06266433
3165.17289917,0.06237375
3167.10170654,0.06219049
3169.03051392,0.06195685
3170.95932129,0.06188422
3172.88812866,0.06172189
3174.81693604,0.06161281
3176.74574341,0.06154178
3178.67455078,0.06111576
3180.60335815,0.06106815
3182.53216553,0.06093337
3184.46097290,0.06078059
3186.38978027,0.06060365
3188.31858765,0.06050389
3190.24739502,0.06047021
3192.17620239,0.06009856
3194.10500977,0.06011650
3196.03381714,0.05978987
3197.96262451,0.05953001
3199.89143188,0.05959998
3201.82023926,0.05944006
3203.74904663,0.05935224
3205.67785400,0.05913621
3207.60666138,0.05903749
3209.53546875,0.05876593
3211.46427612,0.05863144
3213.39308350,0.05848732
3215.32189087,0.05824859
3217.25069824,0.05830484
3219.17950562,0.05812154
3221.10831299,0.05801974
3223.03712036,0.05789567
3224.96592773,0.05777946
3226.89473511,0.05767305
3228.82354248,0.05761331
3230.75234985,0.05754975
3232.68115723,0.05733049
3234.60996460,0.05731511
3236.53877197,0.05713661
3238.46757935,0.05702287
3240.39638672,0.05686393
3242.32519409,0.05684867
3244.25400146,0.05677480
3246.18280884,0.05651439
3248.11161621,0.05672491
3250.04042358,0.05652500
3251.96923096,0.05641638
3253.89803833,0.05635517
3255.82684570,0.05607869
3257.75565308,0.05615567
3259.68446045,0.05602379
3261.61326782,0.05592981
3263.54207520,0.05585007
3265.47088257,0.05582877
3267.39968994,0.05583810
3269.32849731,0.05564898
3271.25730469,0.05550367
3273.18611206,0.05536310
3275.11491943,0.05530614
3277.04372681,0.05535730
3278.97253418,0.05534737
3280.90134155,0.05516210
3282.83014893,0.05510122
3284.75895630,0.05510598
3286.68776367,0.05512945
3288.61657104,0.05494771
3290.54537842,0.05462498
3292.47418579,0.05459800
3294.40299316,0.05456414
3296.33180054,0.05460475
3298.26060791,0.05441231
3300.18941528,0.05434899
3302.11822266,0.05442888
3304.04703003,0.05413647
3305.97583740,0.05399746
3307.90464478,0.05385429
3309.83345215,0.05388162
3311.76225952,0.05388662
3313.69106689,0.05379824
3315.61987427,0.05380871
3317.54868164,0.05369810
3319.47748901,0.05358680
3321.40629639,0.05353361
3323.33510376,0.05360409
3325.26391113,0.05331666
3327.19271851,0.05315973
3329.12152588,0.05320793
3331.05033325,0.05306131
3332.97914062,0.05304001
3334.90794800,0.05285499
3336.83675537,0.05269479
3338.76556274,0.05262255
3340.69437012,0.05256249
3342.62317749,0.05245646
3344.55198486,0.05242520
3346.48079224,0.05243044
3348.40959961,0.05227695
3350.33840698,0.05209193
3352.26721436,0.05192260
3354.19602173,0.05186839
3356.12482910,0.05167090
3358.05363647,0.05173883
3359.98244385,0.05160192
3361.91125122,0.05137559
3363.84005859,0.05145054
3365.76886597,0.05119265
3367.69767334,0.05117366
3369.62648071,0.05098934
3371.55528809,0.05101723
3373.48409546,0.05101125
3375.41290283,0.05073923
3377.34171020,0.05082310
3379.27051758,0.05055374
3381.19932495,0.05056529
3383.12813232,0.05044378
3385.05693970,0.05020145
3386.98574707,0.05019106
3388.91455444,0.05015016
3390.84336182,0.04994180
3392.77216919,0.04952578
3394.70097656,0.04971950
3396.62978394,0.04952259
3398.55859131,0.04935307
3400.48739868,0.04939064
3402.41620605,0.04917692
3404.34501343,0.04925153
3406.27382080,0.04919302
3408.20262817,0.04917511
3410.13143555,0.04896921
3412.06024292,0.04897718
3413.98905029,0.04880039
3415.91785767,0.04864205
3417.84666504,0.04872015
3419.77547241,0.04824267
3421.70427979,0.04821385
3423.63308716,0.04826446
3425.56189453,0.04823869
3427.49070190,0.04804593
3429.41950928,0.04787473
3431.34831665,0.04784425
3433.27712402,0.04771210
3435.20593140,0.04766485
3437.13473877,0.04731408
3439.06354614,0.04760246
3440.99235352,0.04736642
3442.92116089,0.04704586
3444.84996826,0.04724040
3446.77877563,0.04655601
3448.70758301,0.04668592
3450.63639038,0.04707754
3452.56519775,0.04693437
3454.49400513,0.04693150
3456.42281250,0.04687623
3458.35161987,0.04670434
3460.28042725,0.04652471
3462.20923462,0.04640300
3464.13804199,0.04640289
3466.06684937,0.04646426
3467.99565674,0.04615878
3469.92446411,0.04628213
3471.85327148,0.04629571
3473.78207886,0.04602308
3475.71088623,0.04598652
3477.63969360,0.04597609
3479.56850098,0.04591888
3481.49730835,0.04534467
3483.42611572,0.04560971
3485.35492310,0.04592267
3487.28373047,0.04554236
3489.21253784,0.04553787
3491.14134521,0.04570834
3493.07015259,0.04571562
3494.99895996,0.04541714
3496.92776733,0.04538909
3498.85657471,0.04537784
3500.78538208,0.04538454
3502.71418945,0.04456308
3504.64299683,0.04458968
3506.57180420,0.04567908
3508.50061157,0.04494781
3510.42941895,0.04486295
3512.35822632,0.04521318
3514.28703369,0.04532816
3516.21584106,0.04533949
3518.14464844,0.04493362
3520.07345581,0.04525454
3522.00226318,0.04465938
3523.93107056,0.04416579
3525.85987793,0.04430092
3527.78868530,0.04427487
3529.71749268,0.04439395
3531.64630005,0.04471780
3533.57510742,0.04516271
3535.50391479,0.04461502
3537.43272217,0.04438461
3539.36152954,0.04494389
3541.29033691,0.04488578
3543.21914429,0.04439458
3545.14795166,0.04352308
3547.07675903,0.04286359
3549.00556641,0.04420711
3550.93437378,0.04449976
3552.86318115,0.04339938
3554.79198853,0.04436430
3556.72079590,0.04451475
3558.64960327,0.04432300
3560.57841064,0.04393891
3562.50721802,0.04370395
3564.43602539,0.04403511
3566.36483276,0.04094317
3568.29364014,0.04006425
3570.22244751,0.04334349
3572.15125488,0.04446603
3574.08006226,0.04393644
3576.00886963,0.04406999
3577.93767700,0.04388282
3579.86648437,0.04374646
3581.79529175,0.04390316
3583.72409912,0.04395326
3585.65290649,0.04293546
3587.58171387,0.03941680
3589.51052124,0.04058259
3591.43932861,0.04415055
3593.36813599,0.04284214
3595.29694336,0.04211704
3597.22575073,0.04295617
3599.15455811,0.04323574
3601.08336548,0.04270210
3603.01217285,0.04324794
3604.94098022,0.04403082
3606.86978760,0.04230559
3608.79859497,0.03987950
3610.72740234,0.04088633
3612.65620972,0.04181018
3614.58501709,0.04049750
3616.51382446,0.04332311
3618.44263184,0.04005347
3620.37143921,0.03877687
3622.30024658,0.04373214
3624.22905395,0.04244783
3626.15786133,0.04437519
3628.08666870,0.03753062
3630.01547607,0.03419147
3631.94428345,0.04306687
3633.87309082,0.04194699
3635.80189819,0.04263413
3637.73070557,0.04345336
3639.65951294,0.04287347
3641.58832031,0.04327061
3643.51712769,0.04266269
3645.44593506,0.04308252
3647.37474243,0.03856616
3649.30354980,0.03533436
3651.23235718,0.03584220
3653.16116455,0.04263716
3655.08997192,0.04202650
3657.01877930,0.03765377
3658.94758667,0.04336824
3660.87639404,0.04240634
3662.80520142,0.04307019
3664.73400879,0.04276006
3666.66281616,0.04239994
3668.59162354,0.04115837
3670.52043091,0.03344704
3672.44923828,0.04070996
3674.37804565,0.03854997
3676.30685303,0.03198749
3678.23566040,0.04041767
3680.16446777,0.04113141
3682.09327515,0.04131076
3684.02208252,0.04255373
3685.95088989,0.04174804
3687.87969727,0.03742811
3689.80850464,0.03433943
3691.73731201,0.03924935
3693.66611938,0.04035354
3695.59492676,0.04149356
3697.52373413,0.04138757
3699.45254150,0.04089689
3701.38134888,0.03992107
3703.31015625,0.03839920
3705.23896362,0.04222936
3707.16777100,0.04010445
3709.09657837,0.03915786
3711.02538574,0.03682671
3712.95419312,0.03453537
3714.88300049,0.04046078
3716.81180786,0.03974477
3718.74061523,0.04013355
3720.66942261,0.03930801
3722.59822998,0.03797174
3724.52703735,0.03930721
3726.45584473,0.03643463
3728.38465210,0.03956911
3730.31345947,0.03900671
3732.24226685,0.03585535
3734.17107422,0.03498912
3736.09988159,0.03319080
3738.02868896,0.03520458
3739.95749634,0.03815573
3741.88630371,0.03998890
3743.81511108,0.03089849
3745.74391846,0.02906513
3747.67272583,0.03790738
3749.60153320,0.03250623
3751.53034058,0.02999693
3753.45914795,0.03463735
3755.38795532,0.03714291
3757.31676270,0.03858633
3759.24557007,0.03577065
3761.17437744,0.03706610
3763.10318481,0.03939368
3765.03199219,0.03671576
3766.96079956,0.03748220
3768.88960693,0.03700665
3770.81841431,0.03518707
3772.74722168,0.03825717
3774.67602905,0.03837304
3776.60483643,0.03823197
3778.53364380,0.03722263
3780.46245117,0.03576572
3782.39125854,0.03812224
3784.32006592,0.03720168
3786.24887329,0.03701700
3788.17768066,0.03781722
3790.10648804,0.03750625
3792.03529541,0.03731367
3793.96410278,0.03784946
3795.89291016,0.03561382
3797.82171753,0.03523526
3799.75052490,0.03704258
3801.67933228,0.02935523
3803.60813965,0.03435782
3805.53694702,0.03722698
3807.46575439,0.03037832
3809.39456177,0.03689246
3811.32336914,0.03608644
3813.25217651,0.03742015
3815.18098389,0.03373706
3817.10979126,0.02951639
3819.03859863,0.03737041
3820.96740601,0.03003836
3822.89621338,0.03185576
3824.82502075,0.03719968
3826.75382812,0.03343988
3828.68263550,0.03623283
3830.61144287,0.03477305
3832.54025024,0.03348331
3834.46905762,0.03419494
3836.39786499,0.03249719
3838.32667236,0.02928008
3840.25547974,0.03176249
3842.18428711,0.03428463
3844.11309448,0.03260418
3846.04190186,0.03527506
3847.97070923,0.03472152
3849.89951660,0.03492729
3851.82832397,0.03125473
3853.75713135,0.02329756
3855.68593872,0.02784131
3857.61474609,0.03484290
3859.54355347,0.03399891
3861.47236084,0.03359836
3863.40116821,0.03279273
3865.32997559,0.03044347
3867.25878296,0.03409104
3869.18759033,0.03107680
3871.11639770,0.02863748
3873.04520508,0.03410574
3874.97401245,0.03126291
3876.90281982,0.03391021
3878.83162720,0.03451651
3880.76043457,0.02939707
3882.68924194,0.03391460
3884.61804932,0.03170681
3886.54685669,0.02907257
3888.47566406,0.03398247
3890.40447144,0.03219325
3892.33327881,0.03012425
3894.26208618,0.03300131
3896.19089355,0.03364808
3898.11970093,0.03199544
3900.04850830,0.03024949
3901.97731567,0.02990396
3903.90612305,0.02961462
3905.83493042,0.03006748
3907.76373779,0.03292990
3909.69254517,0.03287288
3911.62135254,0.03261182
3913.55015991,0.03317972
3915.47896728,0.03198130
3917.40777466,0.03114310
3919.33658203,0.03083796
3921.26538940,0.03209626
3923.19419678,0.03194470
3925.12300415,0.03127830
3927.05181152,0.03181475
3928.98061890,0.03201064
3930.90942627,0.03140679
3932.83823364,0.03027501
3934.76704102,0.03155963
3936.69584839,0.03188363
3938.62465576,0.03159571
3940.55346313,0.03188726
3942.48227051,0.03063152
3944.41107788,0.03090002
3946.33988525,0.03135790
3948.26869263,0.03061756
3950.19750000,0.03062246
3952.12630737,0.03116527
3954.05511475,0.03112828
3955.98392212,0.03101623
3957.91272949,0.03096014
3959.84153687,0.03087512
3961.77034424,0.03074624
3963.69915161,0.03063648
3965.62795898,0.03098055
3967.55676636,0.03056230
3969.48557373,0.03055127
3971.41438110,0.03049026
3973.34318848,0.03027421
3975.27199585,0.03047809
3977.20080322,0.03021862
3979.12961060,0.03045331
3981.05841797,0.03015001
3982.98722534,0.03019385
3984.91603271,0.03020763
3986.84484009,0.03003107
3988.77364746,0.03008207
3990.70245483,0.02960772
3992.63126221,0.02992195
3994.56006958,0.02968940
3996.48887695,0.02968543
3998.41768433,0.02974233
4000.34649170,0.02954188
4002.27529907,0.02968079
4004.20410645,0.02935556
4006.13291382,0.02949820
4008.06172119,0.02923827
4009.99052856,0.02921022
4011.91933594,0.02921514
4013.84814331,0.02903494
4015.77695068,0.02908952
4017.70575806,0.02896731
4019.63456543,0.02902309
4021.56337280,0.02873493
4023.49218018,0.02883276
4025.42098755,0.02862826
4027.34979492,0.02866733
4029.27860229,0.02876965
4031.20740967,0.02839842
4033.13621704,0.02857962
4035.06502441,0.02831529
4036.99383179,0.02836138
4038.92263916,0.02832674
4040.85144653,0.02821582
4042.78025391,0.02818715
4044.70906128,0.02799015
4046.63786865,0.02811007
4048.56667603,0.02796009
4050.49548340,0.02802033
4052.42429077,0.02795883
4054.35309814,0.02791066
4056.28190552,0.02775182
4058.21071289,0.02762789
4060.13952026,0.02761935
4062.06832764,0.02748309
4063.99713501,0.02760810
4065.92594238,0.02738337
4067.85474976,0.02746574
4069.78355713,0.02739716
4071.71236450,0.02725585
4073.64117187,0.02715182
4075.56997925,0.02702987
4077.49878662,0.02716251
4079.42759399,0.02681255
4081.35640137,0.02688983
4083.28520874,0.02682946
4085.21401611,0.02681851
4087.14282349,0.02679784
4089.07163086,0.02652031
4091.00043823,0.02660505
4092.92924561,0.02648223
4094.85805298,0.02652759
4096.78686035,0.02634955
4098.71566772,0.02638557
4100.64447510,0.02627495
4102.57328247,0.02613356
4104.50208984,0.02623395
4106.43089722,0.02592768
4108.35970459,0.02604977
4110.28851196,0.02594709
4112.21731934,0.02594047
4114.14612671,0.02585115
4116.07493408,0.02572133
4118.00374145,0.02576246
4119.93254883,0.02559558
4121.86135620,0.02568644
4123.79016357,0.02547199
4125.71897095,0.02552342
4127.64777832,0.02538155
4129.57658569,0.02534943
4131.50539307,0.02542826
4133.43420044,0.02513683
4135.36300781,0.02527718
4137.29181519,0.02518727
4139.22062256,0.02520063
4141.14942993,0.02502566
4143.07823730,0.02496430
4145.00704468,0.02492253
4146.93585205,0.02476140
4148.86465942,0.02492448
4150.79346680,0.02469164
4152.72227417,0.02476755
4154.65108154,0.02460748
4156.57988892,0.02453529
4158.50869629,0.02457589
4160.43750366,0.02430755
4162.36631103,0.02443052
4164.29511841,0.02432966
4166.22392578,0.02422715
4168.15273315,0.02412295
4170.08154053,0.02414407
4172.01034790,0.02409882
4173.93915527,0.02400956
4175.86796265,0.02399039
4177.79677002,0.02386337
4179.72557739,0.02392669
4181.65438477,0.02371746
4183.58319214,0.02371721
4185.51199951,0.02368723
4187.44080688,0.02359291
4189.36961426,0.02357942
4191.29842163,0.02350065
4193.22722900,0.02357313
4195.15603638,0.02340326
4197.08484375,0.02338476
4199.01365112,0.02330290
4200.94245850,0.02329411
4202.87126587,0.02324464
4204.80007324,0.02308949
4206.72888062,0.02309426
4208.65768799,0.02295547
4210.58649536,0.02296471
4212.51530273,0.02287738
4214.44411011,0.02290801
4216.37291748,0.02284481
4218.30172485,0.02278884
4220.23053223,0.02273126
4222.15933960,0.02258130
4224.08814697,0.02261790
4226.01695435,0.02241656
4227.94576172,0.02254173
4229.87456909,0.02242169
4231.80337646,0.02230838
4233.73218384,0.02228622
4235.66099121,0.02211651
4237.58979858,0.02233804
4239.51860596,0.02218407
4241.44741333,0.02222016
4243.37622070,0.02211888
4245.30502808,0.02198772
4247.23383545,0.02201540
4249.16264282,0.02180972
4251.09145020,0.02191575
4253.02025757,0.02181287
4254.94906494,0.02180076
4256.87787231,0.02170204
4258.80667969,0.02162798
4260.73548706,0.02167968
4262.66429443,0.02155969
4264.59310181,0.02158168
4266.52190918,0.02143761
4268.45071655,0.02137874
4270.37952393,0.02129441
4272.30833130,0.02131218
4274.23713867,0.02126713
4276.16594604,0.02114131
4278.09475342,0.02118586
4280.02356079,0.02106856
4281.95236816,0.02108469
4283.88117554,0.02101698
4285.80998291,0.02099134
4287.73879028,0.02092770
4289.66759766,0.02078456
4291.59640503,0.02077334
4293.52521240,0.02072083
4295.45401978,0.02075167
4297.38282715,0.02071402
4299.31163452,0.02064157
4301.24044189,0.02051524
4303.16924927,0.02049943
4305.09805664,0.02044142
4307.02686401,0.02031664
4308.95567139,0.02032445
4310.88447876,0.02030453
4312.81328613,0.02027116
4314.74209351,0.02016270
4316.67090088,0.02016938
4318.59970825,0.02005303
4320.52851562,0.01997997
4322.45732300,0.01995822
4324.38613037,0.02000855
4326.31493774,0.02009388
4328.24374512,0.01978557
4330.17255249,0.01976593
4332.10135986,0.01969237
4334.03016724,0.01965478
4335.95897461,0.01978473
4337.88778198,0.01960621
4339.81658936,0.01952554
4341.74539673,0.01950355
4343.67420410,0.01947820
4345.60301147,0.01934186
4347.53181885,0.01932946
4349.46062622,0.01930834
4351.38943359,0.01927529
4353.31824097,0.01924225
4355.24704834,0.01915632
4357.17585571,0.01920182
4359.10466309,0.01900975
4361.03347046,0.01904479
4362.96227783,0.01899095
4364.89108520,0.01894573
4366.81989258,0.01895090
4368.74869995,0.01877864
4370.67750732,0.01893497
4372.60631470,0.01870647
4374.53512207,0.01862220
4376.46392944,0.01869055
4378.39273682,0.01854256
4380.32154419,0.01858245
4382.25035156,0.01857734
4384.17915894,0.01847580
4386.10796631,0.01834302
4388.03677368,0.01845787
4389.96558105,0.01833697
4391.89438843,0.01828087
4393.82319580,0.01830139
4395.75200317,0.01814169
4397.68081055,0.01821734
4399.60961792,0.01813501
4401.53842529,0.01814837
4403.46723267,0.01805727
4405.39604004,0.01794656
4407.32484741,0.01794564
4409.25365478,0.01786445
4411.18246216,0.01789594
4413.11126953,0.01780918
4415.04007690,0.01778141
4416.96888428,0.01771443
4418.89769165,0.01773770
4420.82649902,0.01772295
4422.75530640,0.01760678
4424.68411377,0.01759257
4426.61292114,0.01747063
4428.54172852,0.01741579
4430.47053589,0.01736745
4432.39934326,0.01739293
4434.32815063,0.01735024
4436.25695801,0.01726874
4438.18576538,0.01722579
4440.11457275,0.01720972
4442.04338013,0.01722441
4443.97218750,0.01709191
4445.90099487,0.01708584
4447.82980225,0.01700648
4449.75860962,0.01694786
4451.68741699,0.01690945
4453.61622437,0.01684041
4455.54503174,0.01686765
4457.47383911,0.01677220
4459.40264648,0.01671598
4461.33145386,0.01670651
4463.26026123,0.01670492
4465.18906860,0.01663836
4467.11787598,0.01667627
4469.04668335,0.01653014
4470.97549072,0.01637439
4472.90429810,0.01650794
4474.83310547,0.01645793
4476.76191284,0.01644522
4478.69072021,0.01631735
4480.61952759,0.01633521
4482.54833496,0.01626576
4484.47714233,0.01616370
4486.40594971,0.01628309
4488.33475708,0.01608999
4490.26356445,0.01617496
4492.19237183,0.01605832
4494.12117920,0.01595758
4496.04998657,0.01604319
4497.97879395,0.01588089
4499.90760132,0.01593481
4501.83640869,0.01580912
4503.76521606,0.01580104
4505.69402344,0.01583318
4507.62283081,0.01573011
4509.55163818,0.01567293
4511.48044556,0.01564706
4513.40925293,0.01565925
4515.33806030,0.01553621
4517.26686768,0.01557363
4519.19567505,0.01549648
4521.12448242,0.01544058
4523.05328979,0.01543453
4524.98209717,0.01529755
4526.91090454,0.01526690
4528.83971191,0.01523131
4530.76851929,0.01526720
4532.69732666,0.01527867
4534.62613403,0.01525368
4536.55494141,0.01517055
4538.48374878,0.01512759
4540.41255615,0.01504734
4542.34136353,0.01498670
4544.27017090,0.01501591
4546.19897827,0.01489480
4548.12778564,0.01487502
4550.05659302,0.01481541
4551.98540039,0.01478367
4553.91420776,0.01479470
4555.84301514,0.01484352
4557.77182251,0.01478638
4559.70062988,0.01459328
4561.62943726,0.01467668
4563.55824463,0.01463483
4565.48705200,0.01461450
4567.41585937,0.01452640
4569.34466675,0.01442934
4571.27347412,0.01446587
4573.20228149,0.01433063
4575.13108887,0.01436420
4577.05989624,0.01431976
4578.98870361,0.01424655
4580.91751099,0.01421262
4582.84631836,0.01419835
4584.77512573,0.01420910
4586.70393311,0.01410921
4588.63274048,0.01407819
4590.56154785,0.01405105
4592.49035522,0.01407848
4594.41916260,0.01403470
4596.34796997,0.01401615
4598.27677734,0.01392936
4600.20558472,0.01387581
4602.13439209,0.01391234
4604.06319946,0.01379768
4605.99200684,0.01383380
4607.92081421,0.01376785
4609.84962158,0.01371969
4611.77842895,0.01363978
4613.70723633,0.01352978
4615.63604370,0.01356127
4617.56485107,0.01350941
4619.49365845,0.01347920
4621.42246582,0.01343044
4623.35127319,0.01354214
4625.28008057,0.01338710
4627.20888794,0.01330421
4629.13769531,0.01350306
4631.06650269,0.01331976
4632.99531006,0.01322278
4634.92411743,0.01321185
4636.85292480,0.01320012
4638.78173218,0.01316427
4640.71053955,0.01316988
4642.63934692,0.01314081
4644.56815430,0.01301478
4646.49696167,0.01306575
4648.42576904,0.01299626
4650.35457642,0.01295021
4652.28338379,0.01291460
4654.21219116,0.01291694
4656.14099853,0.01289497
4658.06980591,0.01283509
4659.99861328,0.01288838
4661.92742065,0.01275099
4663.85622803,0.01272970
4665.78503540,0.01278376
4667.71384277,0.01274910
4669.64265015,0.01260300
4671.57145752,0.01253683
4673.50026489,0.01260052
4675.42907227,0.01247756
4677.35787964,0.01250711
4679.28668701,0.01251118
4681.21549438,0.01238485
4683.14430176,0.01235785
4685.07310913,0.01236374
4687.00191650,0.01232758
4688.93072388,0.01232180
4690.85953125,0.01232099
4692.78833862,0.01221741
4694.71714600,0.01227037
4696.64595337,0.01227776
4698.57476074,0.01217361
4700.50356812,0.01212045
4702.43237549,0.01218967
4704.36118286,0.01218326
4706.28999023,0.01198605
4708.21879761,0.01202711
4710.14760498,0.01202907
4712.07641235,0.01194087
4714.00521973,0.01193024
4715.93402710,0.01188930
4717.86283447,0.01178915
4719.79164185,0.01174264
4721.72044922,0.01181905
4723.64925659,0.01177947
4725.57806396,0.01175727
4727.50687134,0.01172808
4729.43567871,0.01171160
4731.36448608,0.01163658
4733.29329346,0.01159855
4735.22210083,0.01162358
4737.15090820,0.01148629
4739.07971558,0.01155621
4741.00852295,0.01152266
4742.93733032,0.01143133
4744.86613770,0.01142127
4746.79494507,0.01138179
4748.72375244,0.01139517
4750.65255981,0.01127159
4752.58136719,0.01129810
4754.51017456,0.01126259
4756.43898193,0.01122532
4758.36778931,0.01125483
4760.29659668,0.01115995
4762.22540405,0.01118625
4764.15421143,0.01116187
4766.08301880,0.01110749
4768.01182617,0.01106923
4769.94063354,0.01101969
4771.86944092,0.01098761
4773.79824829,0.01101783
4775.72705566,0.01094184
4777.65586304,0.01088160
4779.58467041,0.01093379
4781.51347778,0.01080585
4783.44228516,0.01083894
4785.37109253,0.01084237
4787.29989990,0.01077917
4789.22870728,0.01075250
4791.15751465,0.01067850
4793.08632202,0.01071887
4795.01512939,0.01062463
4796.94393677,0.01061462
4798.87274414,0.01062508
4800.80155151,0.01059052
4802.73035889,0.01062724
4804.65916626,0.01061088
4806.58797363,0.01060648
4808.51678101,0.01052784
4810.44558838,0.01046091
4812.37439575,0.01041828
4814.30320312,0.01039501
4816.23201050,0.01036052
4818.16081787,0.01039874
4820.08962524,0.01042893
4822.01843262,0.01029984
4823.94723999,0.01025335
4825.87604736,0.01023966
4827.80485474,0.01022287
4829.73366211,0.01019894
4831.66246948,0.01015075
4833.59127686,0.01008126
4835.52008423,0.01012903
4837.44889160,0.01010224
4839.37769897,0.00998442
4841.30650635,0.01004883
4843.23531372,0.00998382
4845.16412109,0.01001359
4847.09292847,0.00996401
4849.02173584,0.00986269
4850.95054321,0.00993662
4852.87935059,0.00989428
4854.80815796,0.00995027
4856.73696533,0.00987443
4858.66577270,0.00980329
4860.59458008,0.00977295
4862.52338745,0.00971356
4864.45219482,0.00970808
4866.38100220,0.00964149
4868.30980957,0.00967067
4870.23861694,0.00958197
4872.16742432,0.00958654
4874.09623169,0.00954518
4876.02503906,0.00946987
4877.95384644,0.00954782
4879.88265381,0.00949888
4881.81146118,0.00952793
4883.74026855,0.00946425
4885.66907593,0.00937545
4887.59788330,0.00937147
4889.52669067,0.00939840
4891.45549805,0.00936829
4893.38430542,0.00933309
4895.31311279,0.00940218
4897.24192017,0.00931708
4899.17072754,0.00929393
4901.09953491,0.00921199
4903.02834228,0.00917727
4904.95714966,0.00920847
4906.88595703,0.00912935
4908.81476440,0.00915231
4910.74357178,0.00909719
4912.67237915,0.00911917
4914.60118652,0.00909815
4916.52999390,0.00901648
4918.45880127,0.00903805
4920.38760864,0.00900382
4922.31641602,0.00892768
4924.24522339,0.00892002
4926.17403076,0.00898528
4928.10283813,0.00887507
4930.03164551,0.00883839
4931.96045288,0.00883751
4933.88926025,0.00879773
4935.81806763,0.00884839
4937.74687500,0.00879473
4939.67568237,0.00873934
4941.60448975,0.00872641
4943.53329712,0.00872627
4945.46210449,0.00857720
4947.39091187,0.00855135
4949.31971924,0.00865626
4951.24852661,0.00859348
4953.17733398,0.00859744
4955.10614136,0.00853512
4957.03494873,0.00850748
4958.96375610,0.00851146
4960.89256348,0.00845357
4962.82137085,0.00850209
4964.75017822,0.00848535
4966.67898560,0.00839076
4968.60779297,0.00839656
4970.53660034,0.00840911
4972.46540771,0.00830617
4974.39421509,0.00830033
4976.32302246,0.00826597
4978.25182983,0.00817386
4980.18063721,0.00821747
4982.10944458,0.00823513
4984.03825195,0.00821136
4985.96705933,0.00822172
4987.89586670,0.00819775
4989.82467407,0.00812738
4991.75348145,0.00810690
4993.68228882,0.00801075
4995.61109619,0.00803467
4997.53990356,0.00809440
4999.46871094,0.00797977
5001.39751831,0.00801859
5003.32632568,0.00796981
5005.25513306,0.00796830
5007.18394043,0.00803791
5009.11274780,0.00789314
5011.04155518,0.00784367
5012.97036255,0.00788343
5014.89916992,0.00786685
5016.82797729,0.00782273
5018.75678467,0.00782824
5020.68559204,0.00776763
5022.61439941,0.00769136
5024.54320679,0.00770088
5026.47201416,0.00774636
5028.40082153,0.00775654
5030.32962891,0.00764558
5032.25843628,0.00760145
5034.18724365,0.00759838
5036.11605103,0.00761097
5038.04485840,0.00756403
5039.97366577,0.00752152
5041.90247314,0.00756956
5043.83128052,0.00753015
5045.76008789,0.00746455
5047.68889526,0.00740973
5049.61770264,0.00745403
5051.54651001,0.00743137
5053.47531738,0.00736906
5055.40412476,0.00734833
5057.33293213,0.00734680
5059.26173950,0.00736117
5061.19054687,0.00727576
5063.11935425,0.00734053
5065.04816162,0.00726888
5066.97696899,0.00722112
5068.90577637,0.00729315
5070.83458374,0.00721877
5072.76339111,0.00726013
5074.69219849,0.00722156
5076.62100586,0.00723604
5078.54981323,0.00721812
5080.47862061,0.00716065
5082.40742798,0.00709575
5084.33623535,0.00698291
5086.26504272,0.00705102
5088.19385010,0.00698754
5090.12265747,0.00702614
5092.05146484,0.00702514
5093.98027222,0.00695862
5095.90907959,0.00697546
5097.83788696,0.00688552
5099.76669434,0.00700064
5101.69550171,0.00696244
5103.62430908,0.00685329
5105.55311645,0.00687063
5107.48192383,0.00683318
5109.41073120,0.00684588
5111.33953857,0.00683770
5113.26834595,0.00680942
5115.19715332,0.00672482
5117.12596069,0.00673043
5119.05476807,0.00669187
5120.98357544,0.00661873
5122.91238281,0.00670602
5124.84119019,0.00669564
5126.76999756,0.00663665
5128.69880493,0.00667227
5130.62761230,0.00668614
5132.55641968,0.00660380
5134.48522705,0.00659835
5136.41403442,0.00658957
5138.34284180,0.00658075
5140.27164917,0.00659015
5142.20045654,0.00648263
5144.12926392,0.00654501
5146.05807129,0.00656169
5147.98687866,0.00647740
5149.91568603,0.00646710
5151.84449341,0.00636403
5153.77330078,0.00643165
5155.70210815,0.00646718
5157.63091553,0.00631924
5159.55972290,0.00634973
5161.48853027,0.00637018
5163.41733765,0.00631484
5165.34614502,0.00627010
5167.27495239,0.00624967
5169.20375977,0.00628206
5171.13256714,0.00623074
5173.06137451,0.00625182
5174.99018188,0.00627282
5176.91898926,0.00618888
5178.84779663,0.00616221
5180.77660400,0.00619955
5182.70541138,0.00622055
5184.63421875,0.00608388
5186.56302612,0.00607267
5188.49183350,0.00615074
5190.42064087,0.00611928
5192.34944824,0.00611243
5194.27825562,0.00607749
5196.20706299,0.00603668
5198.13587036,0.00601045
5200.06467773,0.00605885
5201.99348511,0.00601391
5203.92229248,0.00593777
5205.85109985,0.00581686
5207.77990723,0.00571189
5209.70871460,0.00589296
5211.63752197,0.00586645
5213.56632935,0.00584146
5215.49513672,0.00590655
5217.42394409,0.00587062
5219.35275146,0.00585687
5221.28155884,0.00583558
5223.21036621,0.00588797
5225.13917358,0.00569026
5227.06798096,0.00566631
5228.99678833,0.00578739
5230.92559570,0.00571061
5232.85440308,0.00571757
5234.78321045,0.00571481
5236.71201782,0.00578566
5238.64082520,0.00570503
5240.56963257,0.00572423
5242.49843994,0.00572800
5244.42724731,0.00550511
5246.35605469,0.00554670
5248.28486206,0.00548116
5250.21366943,0.00546810
5252.14247681,0.00562532
5254.07128418,0.00551469
5256.00009155,0.00542638
5257.92889893,0.00558153
5259.85770630,0.00554732
5261.78651367,0.00542153
5263.71532104,0.00541749
5265.64412842,0.00532449
5267.57293579,0.00545133
5269.50174316,0.00547466
5271.43055054,0.00540005
5273.35935791,0.00549001
5275.28816528,0.00545243
5277.21697266,0.00546181
5279.14578003,0.00536844
5281.07458740,0.00537532
5283.00339478,0.00541398
5284.93220215,0.00526199
5286.86100952,0.00530745
5288.78981689,0.00532073
5290.71862427,0.00526167
5292.64743164,0.00524459
5294.57623901,0.00521784
5296.50504639,0.00525175
5298.43385376,0.00523042
5300.36266113,0.00520278
5302.29146851,0.00522937
5304.22027588,0.00516946
5306.14908325,0.00516064
5308.07789062,0.00515393
5310.00669800,0.00510899
5311.93550537,0.00515301
5313.86431274,0.00510816
5315.79312012,0.00511422
5317.72192749,0.00510076
5319.65073486,0.00512101
5321.57954224,0.00517100
5323.50834961,0.00503400
5325.43715698,0.00500789
5327.36596436,0.00490687
5329.29477173,0.00490811
5331.22357910,0.00500858
5333.15238647,0.00493394
5335.08119385,0.00498886
5337.01000122,0.00487805
5338.93880859,0.00469615
5340.86761597,0.00485696
5342.79642334,0.00485607
5344.72523071,0.00463335
5346.65403809,0.00480587
5348.58284546,0.00487157
5350.51165283,0.00479196
5352.44046020,0.00484023
5354.36926758,0.00467906
5356.29807495,0.00476290
5358.22688232,0.00477688
5360.15568970,0.00470945
5362.08449707,0.00473516
5364.01330444,0.00465117
5365.94211182,0.00473315
5367.87091919,0.00472605
5369.79972656,0.00479782
5371.72853394,0.00474704
5373.65734131,0.00463900
5375.58614868,0.00462271
5377.51495605,0.00447216
5379.44376343,0.00457744
5381.37257080,0.00461006
5383.30137817,0.00461667
5385.23018555,0.00459355
5387.15899292,0.00449939
5389.08780029,0.00459981
5391.01660767,0.00458564
5392.94541504,0.00446290
5394.87422241,0.00441121
5396.80302978,0.00448270
5398.73183716,0.00446811
5400.66064453,0.00449451
5402.58945190,0.00445530
5404.51825928,0.00439192
5406.44706665,0.00450721
5408.37587402,0.00441707
5410.30468140,0.00441413
5412.23348877,0.00434201
5414.16229614,0.00423018
5416.09110352,0.00436525
5418.01991089,0.00441014
5419.94871826,0.00438097
5421.87752563,0.00433778
5423.80633301,0.00437059
5425.73514038,0.00434108
5427.66394775,0.00425439
5429.59275513,0.00412702
5431.52156250,0.00414878
5433.45036987,0.00428138
5435.37917725,0.00412867
5437.30798462,0.00421912
5439.23679199,0.00429733
5441.16559936,0.00413778
5443.09440674,0.00419789
5445.02321411,0.00415462
5446.95202148,0.00410702
5448.88082886,0.00420020
5450.80963623,0.00413983
5452.73844360,0.00411677
5454.66725098,0.00415354
5456.59605835,0.00410450
5458.52486572,0.00413788
5460.45367310,0.00406195
5462.38248047,0.00402114
5464.31128784,0.00410518
5466.24009521,0.00403393
5468.16890259,0.00399558
5470.09770996,0.00397565
5472.02651733,0.00404750
5473.95532471,0.00405120
5475.88413208,0.00388766
5477.81293945,0.00390662
5479.74174683,0.00403384
5481.67055420,0.00406669
5483.59936157,0.00400754
5485.52816895,0.00402157
5487.45697632,0.00392066
5489.38578369,0.00388076
5491.31459106,0.00395069
5493.24339844,0.00379178
5495.17220581,0.00383018
5497.10101318,0.00395321
5499.02982056,0.00388612
5500.95862793,0.00388673
5502.88743530,0.00392470
5504.81624268,0.00389051
5506.74505005,0.00387835
5508.67385742,0.00382489
5510.60266479,0.00372188
5512.53147217,0.00379747
5514.46027954,0.00383313
5516.38908691,0.00376658
5518.31789429,0.00377636
5520.24670166,0.00381060
5522.17550903,0.00375364
5524.10431641,0.00370305
5526.03312378,0.00377538
5527.96193115,0.00374450
5529.89073853,0.00370830
5531.81954590,0.00375400
5533.74835327,0.00377150
5535.67716064,0.00371406
5537.60596802,0.00369192
5539.53477539,0.00371585
5541.46358276,0.00363828
5543.39239014,0.00364123
5545.32119751,0.00362734
5547.25000488,0.00359010
5549.17881226,0.00357963
5551.10761963,0.00358448
5553.03642700,0.00358302
5554.96523437,0.00356067
5556.89404175,0.00364453
5558.82284912,0.00349916
5560.75165649,0.00348386
5562.68046387,0.00361723
5564.60927124,0.00352623
5566.53807861,0.00354856
5568.46688599,0.00353985
5570.39569336,0.00354733
5572.32450073,0.00348254
5574.25330811,0.00343158
5576.18211548,0.00350444
5578.11092285,0.00339026
5580.03973022,0.00339757
5581.96853760,0.00343461
5583.89734497,0.00339551
5585.82615234,0.00343563
5587.75495972,0.00342611
5589.68376709,0.00339582
5591.61257446,0.00341879
5593.54138184,0.00341915
5595.47018921,0.00334307
5597.39899658,0.00336890
5599.32780395,0.00343147
5601.25661133,0.00336200
5603.18541870,0.00330375
5605.11422607,0.00333877
5607.04303345,0.00328912
5608.97184082,0.00325206
5610.90064819,0.00330812
5612.82945557,0.00329064
5614.75826294,0.00333844
5616.68707031,0.00332213
5618.61587769,0.00328313
5620.54468506,0.00329470
5622.47349243,0.00320260
5624.40229980,0.00322448
5626.33110718,0.00320837
5628.25991455,0.00318408
5630.18872192,0.00319816
5632.11752930,0.00313300
5634.04633667,0.00320667
5635.97514404,0.00317488
5637.90395142,0.00311700
5639.83275879,0.00319509
5641.76156616,0.00312797
5643.69037353,0.00311225
5645.61918091,0.00316707
5647.54798828,0.00315569
5649.47679565,0.00313084
5651.40560303,0.00311416
5653.33441040,0.00314135
5655.26321777,0.00309655
5657.19202515,0.00308130
5659.12083252,0.00312141
5661.04963989,0.00313054
5662.97844727,0.00306967
5664.90725464,0.00298871
5666.83606201,0.00307875
5668.76486938,0.00305359
5670.69367676,0.00301431
5672.62248413,0.00306606
5674.55129150,0.00302580
5676.48009888,0.00303134
5678.40890625,0.00297018
5680.33771362,0.00298420
5682.26652100,0.00299822
5684.19532837,0.00294345
5686.12413574,0.00294613
5688.05294311,0.00289757
5689.98175049,0.00291843
5691.91055786,0.00292427
5693.83936523,0.00292313
5695.76817261,0.00289148
5697.69697998,0.00290543
5699.62578735,0.00294182
5701.55459473,0.00287676
5703.48340210,0.00293410
5705.41220947,0.00287829
5707.34101685,0.00282248
5709.26982422,0.00283005
5711.19863159,0.00275470
5713.12743896,0.00280940
5715.05624634,0.00282386
5716.98505371,0.00276679
5718.91386108,0.00277208
5720.84266846,0.00280392
5722.77147583,0.00280167
5724.70028320,0.00278849
5726.62909058,0.00272255
5728.55789795,0.00270211
5730.48670532,0.00278300
5732.41551270,0.00278397
5734.34432007,0.00276428
5736.27312744,0.00269836
5738.20193481,0.00268598
5740.13074219,0.00272756
5742.05954956,0.00268550
5743.98835693,0.00264598
5745.91716431,0.00271139
5747.84597168,0.00271669
5749.77477905,0.00261869
5751.70358643,0.00268560
5753.63239380,0.00257809
5755.56120117,0.00257539
5757.49000854,0.00269270
5759.41881592,0.00254786
5761.34762329,0.00263266
5763.27643066,0.00263774
5765.20523804,0.00258448
5767.13404541,0.00256329
5769.06285278,0.00248975
5770.99166016,0.00258298
5772.92046753,0.00257295
5774.84927490,0.00253329
5776.77808228,0.00251505
5778.70688965,0.00255715
5780.63569702,0.00248818
5782.56450439,0.00245607
5784.49331177,0.00257826
5786.42211914,0.00249341
5788.35092651,0.00249168
5790.27973389,0.00249436
5792.20854126,0.00249177
5794.13734863,0.00248800
5796.06615601,0.00242801
5797.99496338,0.00244121
5799.92377075,0.00242412
5801.85257812,0.00246927
5803.78138550,0.00247053
5805.71019287,0.00248266
5807.63900024,0.00240327
5809.56780762,0.00235552
5811.49661499,0.00240055
5813.42542236,0.00234333
5815.35422974,0.00242286
5817.28303711,0.00237054
5819.21184448,0.00235655
5821.14065186,0.00238728
5823.06945923,0.00233892
5824.99826660,0.00242171
5826.92707397,0.00240099
5828.85588135,0.00240413
5830.78468872,0.00235711
5832.71349609,0.00232762
5834.64230347,0.00234106
5836.57111084,0.00229770
5838.49991821,0.00231906
5840.42872559,0.00231195
5842.35753296,0.00234554
5844.28634033,0.00225270
5846.21514770,0.00226479
5848.14395508,0.00234728
5850.07276245,0.00224188
5852.00156982,0.00229965
5853.93037720,0.00230992
5855.85918457,0.00224348
5857.78799194,0.00223552
5859.71679932,0.00223985
5861.64560669,0.00228163
5863.57441406,0.00229078
5865.50322144,0.00227777
5867.43202881,0.00223927
5869.36083618,0.00228173
5871.28964355,0.00224616
5873.21845093,0.00217663
5875.14725830,0.00222399
5877.07606567,0.00217666
5879.00487305,0.00219976
5880.93368042,0.00221204
5882.86248779,0.00213189
5884.79129517,0.00216910
5886.72010254,0.00215948
5888.64890991,0.00214271
5890.57771728,0.00216796
5892.50652466,0.00211461
5894.43533203,0.00210325
5896.36413940,0.00215576
5898.29294678,0.00215901
5900.22175415,0.00210525
5902.15056152,0.00206350
5904.07936890,0.00205651
5906.00817627,0.00205592
5907.93698364,0.00202704
5909.86579102,0.00200815
5911.79459839,0.00206691
5913.72340576,0.00209600
5915.65221313,0.00204330
5917.58102051,0.00204652
5919.50982788,0.00207050
5921.43863525,0.00203084
5923.36744263,0.00202982
5925.29625000,0.00200362
5927.22505737,0.00197923
5929.15386475,0.00198958
5931.08267212,0.00192181
5933.01147949,0.00196575
5934.94028686,0.00195641
5936.86909424,0.00189268
5938.79790161,0.00200085
5940.72670898,0.00198273
5942.65551636,0.00190932
5944.58432373,0.00191623
5946.51313110,0.00195391
5948.44193848,0.00195584
5950.37074585,0.00193995
5952.29955322,0.00197716
5954.22836060,0.00192858
5956.15716797,0.00190976
5958.08597534,0.00188163
5960.01478271,0.00186533
5961.94359009,0.00192522
5963.87239746,0.00192225
5965.80120483,0.00191892
5967.73001221,0.00188934
5969.65881958,0.00185307
5971.58762695,0.00183894
5973.51643433,0.00188446
5975.44524170,0.00188534
5977.37404907,0.00186346
5979.30285645,0.00186830
5981.23166382,0.00181549
5983.16047119,0.00186759
5985.08927856,0.00181270
5987.01808594,0.00179101
5988.94689331,0.00187681
5990.87570068,0.00186409
5992.80450806,0.00187492
5994.73331543,0.00182416
5996.66212280,0.00186866
5998.59093018,0.00183162
6000.51973755,0.00175099
