399.26312622,0.00168129
401.19193359,0.00228567
403.12074097,0.00337120
405.04954834,0.00280637
406.97835571,0.00286355
408.90716309,0.00359497
410.83597046,0.00335921
412.76477783,0.00324511
414.69358521,0.00374458
416.62239258,0.00362513
418.55119995,0.00323165
420.48000732,0.00348714
422.40881470,0.00327965
424.33762207,0.00316511
426.26642944,0.00368332
428.19523682,0.00404545
430.12404419,0.00383606
432.05285156,0.00317131
433.98165894,0.00362895
435.91046631,0.00382849
437.83927368,0.00358893
439.76808105,0.00388701
441.69688843,0.00333200
443.62569580,0.00327861
445.55450317,0.00331398
447.48331055,0.00311529
449.41211792,0.00357452
451.34092529,0.00319403
453.26973267,0.00279444
455.19854004,0.00287143
457.12734741,0.00260904
459.05615479,0.00265163
460.98496216,0.00266307
462.91376953,0.00208416
464.84257690,0.00205242
466.77138428,0.00204797
468.70019165,0.00147253
470.62899902,0.00175054
472.55780640,0.00165138
474.48661377,0.00104843
476.41542114,0.00139662
478.34422852,0.00130583
480.27303589,0.00109723
482.20184326,0.00135059
484.13065063,0.00081073
486.05945801,0.00062424
487.98826538,0.00112871
489.91707275,0.00095563
491.84588013,0.00058951
493.77468750,0.00066599
495.70349487,0.00089888
497.63230225,0.00067100
499.56110962,0.00061838
501.48991699,0.00075582
503.41872437,0.00004791
505.34753174,0.00018308
507.27633911,0.00093689
509.20514648,0.00067427
511.13395386,0.00103389
513.06276123,0.00098015
514.99156860,0.00007290
516.92037598,0.00056914
518.84918335,0.00058261
520.77799072,0.00040202
522.70679810,0.00074003
524.63560547,0.00001413
526.56441284,0.00002434
528.49322021,0.00025660
530.42202759,0.00017222
532.35083496,0.00071219
534.27964233,0.00057447
536.20844971,0.00058361
538.13725708,0.00055373
540.06606445,-0.00010714
541.99487183,-0.00015870
543.92367920,-0.00006423
545.85248657,0.00027908
547.78129395,0.00047506
549.71010132,0.00041922
551.63890869,0.00029753
553.56771606,0.00004946
555.49652344,0.00067049
557.42533081,0.00029425
559.35413818,-0.00016432
561.28294556,0.00055972
563.21175293,0.00022529
565.14056030,0.00019361
567.06936768,0.00024195
568.99817505,-0.00005451
570.92698242,0.00009711
572.85578979,-0.00003726
574.78459717,0.00006625
576.71340454,0.00000693
578.64221191,0.00008332
580.57101929,0.00047663
582.49982666,0.00045836
584.42863403,0.00031862
586.35744141,0.00009430
588.28624878,-0.00005874
590.21505615,0.00025899
592.14386353,0.00013606
594.07267090,-0.00001069
596.00147827,0.00030641
597.93028564,0.00002571
599.85909302,0.00016734
601.78790039,0.00025077
603.71670776,0.00001388
605.64551514,0.00060569
607.57432251,0.00026343
609.50312988,-0.00002661
611.43193726,0.00018747
613.36074463,-0.00011965
615.28955200,-0.00000897
617.21835938,0.00002989
619.14716675,0.00002870
621.07597412,-0.00006993
623.00478149,0.00002795
624.93358887,0.00018140
626.86239624,-0.00014945
628.79120361,0.00050467
630.72001099,0.00140937
632.64881836,0.00174322
634.57762573,0.00216368
636.50643311,0.00214128
638.43524048,0.00234420
640.36404785,0.00319972
642.29285522,0.00331197
644.22166260,0.00305968
646.15046997,0.00352836
648.07927734,0.00400560
650.00808472,0.00438473
651.93689209,0.00426439
653.86569946,0.00417110
655.79450684,0.00488183
657.72331421,0.00469513
659.65212158,0.00492640
661.58092896,0.00555259
663.50973633,0.00525001
665.43854370,0.00545086
667.36735107,0.00513370
669.29615845,0.00552516
671.22496582,0.00661951
673.15377319,0.00655961
675.08258057,0.00693038
677.01138794,0.00688392
678.94019531,0.00679734
680.86900269,0.00701592
682.79781006,0.00674221
684.72661743,0.00690189
686.65542480,0.00685713
688.58423218,0.00704988
690.51303955,0.00727132
692.44184692,0.00776438
694.37065430,0.00846786
696.29946167,0.00859110
698.22826904,0.01030432
700.15707642,0.01133030
702.08588379,0.01055277
704.01469116,0.01015282
705.94349854,0.00920438
707.87230591,0.00816741
709.80111328,0.00647913
711.72992065,0.00429212
713.65872803,0.00305373
715.58753540,0.00187602
717.51634277,0.00109633
719.44515015,0.00091821
721.37395752,0.00065920
723.30276489,0.00043762
725.23157227,0.00048806
727.16037964,0.00050395
729.08918701,0.00031672
731.01799438,0.00018527
732.94680176,0.00015713
734.87560913,0.00011228
736.80441650,-0.00016672
738.73322388,-0.00011452
740.66203125,0.00004083
742.59083862,0.00005444
744.51964600,0.00022450
746.44845337,0.00006594
748.37726074,0.00026770
750.30606812,0.00049975
752.23487549,0.00026936
754.16368286,0.00030743
756.09249023,0.00035132
758.02129761,0.00036026
759.95010498,0.00031585
761.87891235,0.00039385
763.80771973,0.00060422
765.73652710,0.00066317
767.66533447,0.00048493
769.59414185,0.00062445
771.52294922,0.00087148
773.45175659,0.00046969
775.38056396,0.00071634
777.30937134,0.00063981
779.23817871,0.00057409
781.16698608,0.00086185
783.09579346,0.00031092
785.02460083,0.00057144
786.95340820,0.00048898
788.88221558,0.00038926
790.81102295,0.00076112
792.73983032,0.00061056
794.66863770,0.00097103
796.59744507,0.00093231
798.52625244,0.00144006
800.45505981,0.00183796
802.38386719,0.00122474
804.31267456,0.00116966
806.24148193,0.00071596
808.17028931,0.00073446
810.09909668,0.00118388
812.02790405,0.00077385
813.95671143,0.00044987
815.88551880,0.00061986
817.81432617,0.00075588
819.74313354,0.00059347
821.67194092,0.00077128
823.60074829,0.00079896
825.52955566,0.00072093
827.45836304,0.00107091
829.38717041,0.00141647
831.31597778,0.00183965
833.24478516,0.00190911
835.17359253,0.00215465
837.10239990,0.00276265
839.03120728,0.00268346
840.96001465,0.00235923
842.88882202,0.00214369
844.81762939,0.00197118
846.74643677,0.00180625
848.67524414,0.00161322
850.60405151,0.00157720
852.53285889,0.00136080
854.46166626,0.00133047
856.39047363,0.00131708
858.31928101,0.00095086
860.24808838,0.00089416
862.17689575,0.00067702
864.10570313,0.00080254
866.03451050,0.00104245
867.96331787,0.00064903
869.89212524,0.00070912
871.82093262,0.00081214
873.74973999,0.00074585
875.67854736,0.00071789
877.60735474,0.00087405
879.53616211,0.00069215
881.46496948,0.00020458
883.39377686,0.00052100
885.32258423,0.00041750
887.25139160,0.00037272
889.18019897,0.00067745
891.10900635,0.00055320
893.03781372,0.00064670
894.96662109,0.00050969
896.89542847,0.00054659
898.82423584,0.00064038
900.75304321,0.00057918
902.68185059,0.00068730
904.61065796,0.00069822
906.53946533,0.00076136
908.46827271,0.00066764
910.39708008,0.00108434
912.32588745,0.00114426
914.25469482,0.00092019
916.18350220,0.00147222
918.11230957,0.00153358
920.04111694,0.00166914
921.96992432,0.00197089
923.89873169,0.00190637
925.82753906,0.00202486
927.75634644,0.00231044
929.68515381,0.00255633
931.61396118,0.00285272
933.54276855,0.00294131
935.47157593,0.00267852
937.40038330,0.00311854
939.32919067,0.00337629
941.25799805,0.00341040
943.18680542,0.00383872
945.11561279,0.00355426
947.04442017,0.00343356
948.97322754,0.00355599
950.90203491,0.00335899
952.83084229,0.00323534
954.75964966,0.00316081
956.68845703,0.00337016
958.61726440,0.00353386
960.54607178,0.00325000
962.47487915,0.00330611
964.40368652,0.00352885
966.33249390,0.00328499
968.26130127,0.00364374
970.19010864,0.00403154
972.11891602,0.00410955
974.04772339,0.00447622
975.97653076,0.00455655
977.90533813,0.00494400
979.83414551,0.00536222
981.76295288,0.00581513
983.69176025,0.00650580
985.62056763,0.00712986
987.54937500,0.00827790
989.47818237,0.00914867
991.40698975,0.00992251
993.33579712,0.01100060
995.26460449,0.01181676
997.19341187,0.01289637
999.12221924,0.01413061
1001.05102661,0.01510300
1002.97983398,0.01603017
1004.90864136,0.01704201
1006.83744873,0.01807234
1008.76625610,0.01920692
1010.69506348,0.02030454
1012.62387085,0.02128053
1014.55267822,0.02254782
1016.48148560,0.02385087
1018.41029297,0.02488409
1020.33910034,0.02598310
1022.26790771,0.02713773
1024.19671509,0.02828529
1026.12552246,0.02932543
1028.05432983,0.03032180
1029.98313721,0.03139197
1031.91194458,0.03189543
1033.84075195,0.03237826
1035.76955933,0.03315690
1037.69836670,0.03353476
1039.62717407,0.03364304
1041.55598145,0.03338247
1043.48478882,0.03326100
1045.41359619,0.03308448
1047.34240356,0.03255647
1049.27121094,0.03199079
1051.20001831,0.03123336
1053.12882568,0.03090235
1055.05763306,0.03035262
1056.98644043,0.02961158
1058.91524780,0.02887326
1060.84405518,0.02785395
1062.77286255,0.02715179
1064.70166992,0.02603927
1066.63047729,0.02529813
1068.55928467,0.02453457
1070.48809204,0.02316154
1072.41689941,0.02240820
1074.34570679,0.02111812
1076.27451416,0.01992777
1078.20332153,0.01917979
1080.13212891,0.01816542
1082.06093628,0.01754375
1083.98974365,0.01661596
1085.91855103,0.01574096
1087.84735840,0.01507375
1089.77616577,0.01445455
1091.70497314,0.01389853
1093.63378052,0.01297866
1095.56258789,0.01271967
1097.49139526,0.01231795
1099.42020264,0.01171057
1101.34901001,0.01182703
1103.27781738,0.01146987
1105.20662476,0.01111710
1107.13543213,0.01100873
1109.06423950,0.01065506
1110.99304687,0.01049631
1112.92185425,0.01054502
1114.85066162,0.01033677
1116.77946899,0.01016926
1118.70827637,0.01061747
1120.63708374,0.01043242
1122.56589111,0.01009000
1124.49469849,0.01043764
1126.42350586,0.01061823
1128.35231323,0.01089256
1130.28112061,0.01120998
1132.20992798,0.01145484
1134.13873535,0.01173476
1136.06754272,0.01233250
1137.99635010,0.01310533
1139.92515747,0.01388231
1141.85396484,0.01475585
1143.78277222,0.01548907
1145.71157959,0.01668064
1147.64038696,0.01785095
1149.56919434,0.01873056
1151.49800171,0.01950165
1153.42680908,0.02044512
1155.35561646,0.02160004
1157.28442383,0.02214057
1159.21323120,0.02314652
1161.14203857,0.02426643
1163.07084595,0.02500860
1164.99965332,0.02601885
1166.92846069,0.02695470
1168.85726807,0.02795218
1170.78607544,0.02888320
1172.71488281,0.03012088
1174.64369019,0.03124260
1176.57249756,0.03217809
1178.50130493,0.03350470
1180.43011230,0.03463022
1182.35891968,0.03599594
1184.28772705,0.03780650
1186.21653442,0.03955346
1188.14534180,0.04129715
1190.07414917,0.04324993
1192.00295654,0.04516044
1193.93176392,0.04739544
1195.86057129,0.04986067
1197.78937866,0.05200251
1199.71818604,0.05437342
1201.64699341,0.05657500
1203.57580078,0.05888685
1205.50460815,0.06146154
1207.43341553,0.06350078
1209.36222290,0.06556597
1211.29103027,0.06782362
1213.21983765,0.06966739
1215.14864502,0.07119602
1217.07745239,0.07271625
1219.00625977,0.07402918
1220.93506714,0.07528424
1222.86387451,0.07615362
1224.79268188,0.07690790
1226.72148926,0.07764801
1228.65029663,0.07780424
1230.57910400,0.07817234
1232.50791138,0.07823978
1234.43671875,0.07831261
1236.36552612,0.07858995
1238.29433350,0.07823759
1240.22314087,0.07809503
1242.15194824,0.07780804
1244.08075562,0.07736577
1246.00956299,0.07701816
1247.93837036,0.07650460
1249.86717773,0.07620120
1251.79598511,0.07567272
1253.72479248,0.07465100
1255.65359985,0.07369792
1257.58240723,0.07273123
1259.51121460,0.07145888
1261.44002197,0.07039925
1263.36882935,0.06929392
1265.29763672,0.06834203
1267.22644409,0.06778009
1269.15525146,0.06674488
1271.08405884,0.06563371
1273.01286621,0.06480315
1274.94167358,0.06368382
1276.87048096,0.06228022
1278.79928833,0.06117424
1280.72809570,0.05999260
1282.65690308,0.05881113
1284.58571045,0.05778487
1286.51451782,0.05634932
1288.44332520,0.05533450
1290.37213257,0.05466169
1292.30093994,0.05409313
1294.22974731,0.05374321
1296.15855469,0.05328923
1298.08736206,0.05320658
1300.01616943,0.05337721
1301.94497681,0.05361611
1303.87378418,0.05404315
1305.80259155,0.05453490
1307.73139893,0.05511635
1309.66020630,0.05616995
1311.58901367,0.05696058
1313.51782104,0.05776221
1315.44662842,0.05972990
1317.37543579,0.06094838
1319.30424316,0.06206945
1321.23305054,0.06456169
1323.16185791,0.06663710
1325.09066528,0.06841632
1327.01947266,0.07030674
1328.94828003,0.07205021
1330.87708740,0.07411610
1332.80589478,0.07598274
1334.73470215,0.07732816
1336.66350952,0.07790130
1338.59231689,0.07689907
1340.52112427,0.07793704
1342.44993164,0.08133785
1344.37873901,0.08186606
1346.30754639,0.08183250
1348.23635376,0.08186558
1350.16516113,0.08113115
1352.09396851,0.08114626
1354.02277588,0.07982031
1355.95158325,0.07919955
1357.88039062,0.07904705
1359.80919800,0.07773936
1361.73800537,0.07417178
1363.66681274,0.07277651
1365.59562012,0.07694143
1367.52442749,0.07504477
1369.45323486,0.07388650
1371.38204224,0.07562359
1373.31084961,0.07116109
1375.23965698,0.07160925
1377.16846436,0.07376319
1379.09727173,0.07348861
1381.02607910,0.07340585
1382.95488647,0.07303813
1384.88369385,0.07344669
1386.81250122,0.06983499
1388.74130859,0.07043506
1390.67011597,0.07680041
1392.59892334,0.07500260
1394.52773071,0.06977400
1396.45653809,0.07324418
1398.38534546,0.07320223
1400.31415283,0.07273345
1402.24296021,0.07918111
1404.17176758,0.07431397
1406.10057495,0.07454229
1408.02938232,0.07807045
1409.95818970,0.07480347
1411.88699707,0.07669155
1413.81580444,0.07397372
1415.74461182,0.07531500
1417.67341919,0.06776638
1419.60222656,0.05974261
1421.53103394,0.06974904
1423.45984131,0.06765622
1425.38864868,0.06535907
1427.31745605,0.06650309
1429.24626343,0.06134327
1431.17507080,0.05956339
1433.10387817,0.06047964
1435.03268555,0.05531752
1436.96149292,0.04606768
1438.89030029,0.05276064
1440.81910767,0.05469225
1442.74791504,0.05020036
1444.67672241,0.05306550
1446.60552979,0.04832410
1448.53433716,0.04888339
1450.46314453,0.05075417
1452.39195190,0.05141276
1454.32075928,0.05373942
1456.24956665,0.04383808
1458.17837402,0.04503028
1460.10718140,0.06127585
1462.03598877,0.06576134
1463.96479614,0.06484565
1465.89360352,0.06749173
1467.82241089,0.07732621
1469.75121826,0.08355895
1471.68002563,0.07362783
1473.60883301,0.07744567
1475.53764038,0.08905020
1477.46644775,0.09572689
1479.39525513,0.10597654
1481.32406250,0.10734048
1483.25286987,0.11433859
1485.18167725,0.11846587
1487.11048462,0.11594826
1489.03929199,0.11538333
1490.96809937,0.11564972
1492.89690674,0.13574612
1494.82571411,0.13313469
1496.75452148,0.11834867
1498.68332886,0.13453431
1500.61213623,0.13918385
1502.54094360,0.14977062
1504.46975098,0.14229375
1506.39855835,0.10115603
1508.32736572,0.12357622
1510.25617310,0.14782916
1512.18498047,0.14255975
1514.11378784,0.15541270
1516.04259521,0.13968337
1517.97140259,0.14514112
1519.90020996,0.14123200
1521.82901733,0.12026289
1523.75782471,0.14892621
1525.68663208,0.14689827
1527.61543945,0.14532423
1529.54424683,0.16252670
1531.47305420,0.15618746
1533.40186157,0.14224520
1535.33066895,0.15043052
1537.25947632,0.16294527
1539.18828369,0.11484899
1541.11709106,0.11825714
1543.04589844,0.14476791
1544.97470581,0.13791130
1546.90351318,0.16532856
1548.83232056,0.15426633
1550.76112793,0.15841469
1552.68993530,0.15867461
1554.61874268,0.14220405
1556.54755005,0.15356088
1558.47635742,0.10654403
1560.40516479,0.11345842
1562.33397217,0.16641715
1564.26277954,0.15734130
1566.19158691,0.16156690
1568.12039429,0.16051143
1570.04920166,0.14069808
1571.97800903,0.16323832
1573.90681641,0.16676626
1575.83562378,0.13006303
1577.76443115,0.14715242
1579.69323853,0.16824022
1581.62204590,0.16063899
1583.55085327,0.16512316
1585.47966064,0.16239315
1587.40846802,0.16376585
1589.33727539,0.16234320
1591.26608276,0.16216162
1593.19489014,0.16266765
1595.12369751,0.16019833
1597.05250488,0.16272365
1598.98131226,0.16163087
1600.91011963,0.16276036
1602.83892700,0.15966910
1604.76773437,0.16250330
1606.69654175,0.16019657
1608.62534912,0.15949476
1610.55415649,0.15968530
1612.48296387,0.16033955
1614.41177124,0.16343929
1616.34057861,0.13227522
1618.26938599,0.14274862
1620.19819336,0.16880891
1622.12700073,0.14869133
1624.05580811,0.14875689
1625.98461548,0.15690228
1627.91342285,0.15623647
1629.84223022,0.15513836
1631.77103760,0.16631272
1633.69984497,0.15357390
1635.62865234,0.12445186
1637.55745972,0.14565299
1639.48626709,0.16209912
1641.41507446,0.15779939
1643.34388184,0.16239166
1645.27268921,0.14620011
1647.20149658,0.12621009
1649.13030396,0.15870480
1651.05911133,0.15246169
1652.98791870,0.09426773
1654.91672607,0.12925708
1656.84553345,0.16638482
1658.77434082,0.15845937
1660.70314819,0.16334856
1662.63195557,0.14761719
1664.56076294,0.15550087
1666.48957031,0.16853002
1668.41837769,0.14590698
1670.34718506,0.14072394
1672.27599243,0.16115007
1674.20479980,0.14878277
1676.13360718,0.14127460
1678.06241455,0.16449198
1679.99122192,0.15851982
1681.92002930,0.15639523
1683.84883667,0.12652177
1685.77764404,0.12322529
1687.70645142,0.17304775
1689.63525879,0.14970915
1691.56406616,0.16390865
1693.49287354,0.16938987
1695.42168091,0.12051343
1697.35048828,0.15017101
1699.27929565,0.13276750
1701.20810303,0.11660425
1703.13691040,0.16279647
1705.06571777,0.14931634
1706.99452515,0.14965284
1708.92333252,0.16433474
1710.85213989,0.15717781
1712.78094727,0.15997963
1714.70975464,0.14819047
1716.63856201,0.13219199
1718.56736938,0.12935920
1720.49617676,0.15454042
1722.42498413,0.16210938
1724.35379150,0.14925595
1726.28259888,0.16299883
1728.21140625,0.15053889
1730.14021362,0.15099263
1732.06902100,0.14831801
1733.99782837,0.11041778
1735.92663574,0.13810350
1737.85544312,0.15534711
1739.78425049,0.13670683
1741.71305786,0.14929432
1743.64186523,0.15173577
1745.57067261,0.15173161
1747.49947998,0.15313974
1749.42828735,0.14611658
1751.35709473,0.13933916
1753.28590210,0.15486413
1755.21470947,0.16320668
1757.14351685,0.14772987
1759.07232422,0.16311246
1761.00113159,0.15338400
1762.92993896,0.14661250
1764.85874634,0.16994357
1766.78755371,0.15235732
1768.71636108,0.15302825
1770.64516846,0.15270145
1772.57397583,0.13588268
1774.50278320,0.15236285
1776.43159058,0.16199774
1778.36039795,0.15968353
1780.28920532,0.15728898
1782.21801270,0.15855893
1784.14682007,0.15859243
1786.07562744,0.15501311
1788.00443481,0.16362765
1789.93324219,0.15973151
1791.86204956,0.14323848
1793.79085693,0.14935669
1795.71966431,0.16144758
1797.64847168,0.15920359
1799.57727905,0.15652549
1801.50608643,0.15339674
1803.43489380,0.15863267
1805.36370117,0.16296746
1807.29250854,0.16012606
1809.22131592,0.16086313
1811.15012329,0.15638413
1813.07893066,0.16120853
1815.00773804,0.16244790
1816.93654541,0.16010992
1818.86535278,0.16163702
1820.79416016,0.16085258
1822.72296753,0.16364068
1824.65177490,0.15220651
1826.58058228,0.15745470
1828.50938965,0.15854113
1830.43819702,0.14749779
1832.36700439,0.16134562
1834.29581177,0.16054091
1836.22461914,0.16027194
1838.15342651,0.15995312
1840.08223389,0.16043609
1842.01104126,0.16143157
1843.93984863,0.14190513
1845.86865601,0.15126920
1847.79746338,0.16076678
1849.72627075,0.15679784
1851.65507812,0.16185927
1853.58388550,0.15832475
1855.51269287,0.16008475
1857.44150024,0.15921181
1859.37030762,0.15809511
1861.29911499,0.15943098
1863.22792236,0.15726359
1865.15672974,0.15922272
1867.08553711,0.15369791
1869.01434448,0.14667937
1870.94315186,0.15284419
1872.87195923,0.15924624
1874.80076660,0.15642931
1876.72957397,0.15743379
1878.65838135,0.15709543
1880.58718872,0.15584476
1882.51599609,0.15747730
1884.44480347,0.15465987
1886.37361084,0.15716736
1888.30241821,0.15370576
1890.23122559,0.15005888
1892.16003296,0.15629002
1894.08884033,0.15396981
1896.01764771,0.15297598
1897.94645508,0.15514946
1899.87526245,0.15432431
1901.80406982,0.15453842
1903.73287720,0.15358564
1905.66168457,0.15433821
1907.59049194,0.15277097
1909.51929932,0.15167645
1911.44810669,0.15269390
1913.37691406,0.15282446
1915.30572144,0.15440828
1917.23452881,0.14736462
1919.16333618,0.14689294
1921.09214355,0.15326542
1923.02095093,0.14823650
1924.94975830,0.15110379
1926.87856567,0.15311839
1928.80737305,0.15074323
1930.73618042,0.15293008
1932.66498779,0.15078819
1934.59379517,0.15216793
1936.52260254,0.15103291
1938.45140991,0.15142971
1940.38021729,0.15178157
1942.30902466,0.14628568
1944.23783203,0.14914355
1946.16663940,0.15081060
1948.09544678,0.15046313
1950.02425415,0.15124208
1951.95306152,0.15056148
1953.88186890,0.15080851
1955.81067627,0.14992014
1957.73948364,0.15044606
1959.66829102,0.15023425
1961.59709839,0.14992040
1963.52590576,0.15038237
1965.45471313,0.14955655
1967.38352051,0.14801386
1969.31232788,0.14884219
1971.24113525,0.15034650
1973.16994263,0.14921561
1975.09875000,0.14965318
1977.02755737,0.14910050
1978.95636475,0.14891370
1980.88517212,0.14903988
1982.81397949,0.14840111
1984.74278687,0.14901903
1986.67159424,0.14761594
1988.60040161,0.14784026
1990.52920898,0.14670572
1992.45801636,0.14497393
1994.38682373,0.14725325
1996.31563110,0.14756081
1998.24443848,0.14665808
2000.17324585,0.14670944
2002.10205322,0.14651760
2004.03086060,0.14626276
2005.95966797,0.14596456
2007.88847534,0.14549357
2009.81728271,0.14539510
2011.74609009,0.14508900
2013.67489746,0.14503488
2015.60370483,0.14422622
2017.53251221,0.14271545
2019.46131958,0.14367720
2021.39012695,0.14366129
2023.31893433,0.14309174
2025.24774170,0.14317077
2027.17654907,0.14265931
2029.10535645,0.14266242
2031.03416382,0.14214945
2032.96297119,0.14210090
2034.89177856,0.14166003
2036.82058594,0.14141896
2038.74939331,0.14139071
2040.67820068,0.14038205
2042.60700806,0.14017680
2044.53581543,0.14017023
2046.46462280,0.14011565
2048.39343018,0.13984810
2050.32223755,0.13962044
2052.25104492,0.13934718
2054.17985229,0.13899955
2056.10865967,0.13880087
2058.03746704,0.13841155
2059.96627441,0.13817774
2061.89508179,0.13796332
2063.82388916,0.13742985
2065.75269653,0.13672182
2067.68150391,0.13723841
2069.61031128,0.13715035
2071.53911865,0.13669546
2073.46792603,0.13674411
2075.39673340,0.13612413
2077.32554077,0.13615432
2079.25434814,0.13564467
2081.18315552,0.13549995
2083.11196289,0.13540912
2085.04077026,0.13490213
2086.96957764,0.13485244
2088.89838501,0.13419518
2090.82719238,0.13418838
2092.75599976,0.13398594
2094.68480713,0.13378391
2096.61361450,0.13368103
2098.54242187,0.13336746
2100.47122925,0.13327102
2102.40003662,0.13299665
2104.32884399,0.13292632
2106.25765137,0.13248834
2108.18645874,0.13236992
2110.11526611,0.13203233
2112.04407349,0.13193756
2113.97288086,0.13182098
2115.90168823,0.13128105
2117.83049561,0.13154197
2119.75930298,0.13111714
2121.68811035,0.13096038
2123.61691772,0.13090193
2125.54572510,0.13057955
2127.47453247,0.13052912
2129.40333984,0.13027042
2131.33214722,0.13015875
2133.26095459,0.12997204
2135.18976196,0.12977338
2137.11856934,0.12934768
2139.04737671,0.12944363
2140.97618408,0.12928963
2142.90499146,0.12907946
2144.83379883,0.12915866
2146.76260620,0.12869519
2148.69141357,0.12872235
2150.62022095,0.12852025
2152.54902832,0.12840910
2154.47783569,0.12812316
2156.40664307,0.12787023
2158.33545044,0.12792054
2160.26425781,0.12761252
2162.19306519,0.12763478
2164.12187256,0.12730873
2166.05067993,0.12727252
2167.97948730,0.12714648
2169.90829468,0.12691668
2171.83710205,0.12689748
2173.76590942,0.12669970
2175.69471680,0.12659788
2177.62352417,0.12625249
2179.55233154,0.12637645
2181.48113892,0.12618464
2183.40994629,0.12598358
2185.33875366,0.12575908
2187.26756104,0.12545554
2189.19636841,0.12568240
2191.12517578,0.12538005
2193.05398315,0.12530157
2194.98279053,0.12518394
2196.91159790,0.12497998
2198.84040527,0.12477709
2200.76921265,0.12457862
2202.69802002,0.12451001
2204.62682739,0.12433997
2206.55563477,0.12442181
2208.48444214,0.12403665
2210.41324951,0.12388004
2212.34205688,0.12372034
2214.27086426,0.12355790
2216.19967163,0.12356961
2218.12847900,0.12332015
2220.05728638,0.12325977
2221.98609375,0.12289157
2223.91490112,0.12278508
2225.84370850,0.12270041
2227.77251587,0.12257347
2229.70132324,0.12233306
2231.63013062,0.12211300
2233.55893799,0.12206247
2235.48774536,0.12166082
2237.41655273,0.12175819
2239.34536011,0.12155625
2241.27416748,0.12127411
2243.20297485,0.12103739
2245.13178223,0.12083257
2247.06058960,0.12074915
2248.98939697,0.12037067
2250.91820435,0.12048126
2252.84701172,0.12013003
2254.77581909,0.11995243
2256.70462646,0.11991544
2258.63343384,0.11959887
2260.56224121,0.11955003
2262.49104858,0.11925238
2264.41985596,0.11911739
2266.34866333,0.11891413
2268.27747070,0.11889315
2270.20627808,0.11877909
2272.13508545,0.11861430
2274.06389282,0.11842753
2275.99270020,0.11811261
2277.92150757,0.11817365
2279.85031494,0.11798097
2281.77912231,0.11797898
2283.70792969,0.11790822
2285.63673706,0.11761343
2287.56554443,0.11728099
2289.49435181,0.11701073
2291.42315918,0.11678214
2293.35196655,0.11641116
2295.28077393,0.11622535
2297.20958130,0.11561908
2299.13838867,0.11516765
2301.06719604,0.11475439
2302.99600342,0.11431512
2304.92481079,0.11374563
2306.85361816,0.11290812
2308.78242554,0.11227162
2310.71123291,0.11108029
2312.64004028,0.11005016
2314.56884766,0.10881737
2316.49765503,0.10739456
2318.42646240,0.10605684
2320.35526978,0.10450050
2322.28407715,0.10300478
2324.21288452,0.10145250
2326.14169189,0.10035150
2328.07049927,0.09891862
2329.99930664,0.09771827
2331.92811401,0.09699562
2333.85692139,0.09654881
2335.78572876,0.09619975
2337.71453613,0.09585735
2339.64334351,0.09600398
2341.57215088,0.09610036
2343.50095825,0.09755927
2345.42976562,0.09942898
2347.35857300,0.10388580
2349.28738037,0.10800517
2351.21618774,0.10403147
2353.14499512,0.09835787
2355.07380249,0.09450276
2357.00260986,0.09128822
2358.93141724,0.08945777
2360.86022461,0.08832552
2362.78903198,0.08839875
2364.71783936,0.08887900
2366.64664673,0.09015875
2368.57545410,0.09190553
2370.50426147,0.09425773
2372.43306885,0.09728280
2374.36187622,0.10016562
2376.29068359,0.10299480
2378.21949097,0.10526249
2380.14829834,0.10734990
2382.07710571,0.10871361
2384.00591309,0.10953967
2385.93472046,0.10995331
2387.86352783,0.10998224
2389.79233521,0.11003358
2391.72114258,0.10986176
2393.64994995,0.10975592
2395.57875732,0.10953100
2397.50756470,0.10961448
2399.43637207,0.10946393
2401.36517944,0.10920078
2403.29398682,0.10914738
2405.22279419,0.10895233
2407.15160156,0.10882214
2409.08040894,0.10855765
2411.00921631,0.10861480
2412.93802368,0.10834929
2414.86683105,0.10819471
2416.79563843,0.10822067
2418.72444580,0.10793430
2420.65325317,0.10790382
2422.58206055,0.10768745
2424.51086792,0.10749444
2426.43967529,0.10727242
2428.36848267,0.10724692
2430.29729004,0.10710144
2432.22609741,0.10692628
2434.15490479,0.10682234
2436.08371216,0.10647684
2438.01251953,0.10664876
2439.94132690,0.10648322
2441.87013428,0.10630377
2443.79894165,0.10629681
2445.72774902,0.10610314
2447.65655640,0.10586907
2449.58536377,0.10564560
2451.51417114,0.10572734
2453.44297852,0.10541964
2455.37178589,0.10540992
2457.30059326,0.10525484
2459.22940063,0.10494060
2461.15820801,0.10508873
2463.08701538,0.10479058
2465.01582275,0.10464661
2466.94463013,0.10457852
2468.87343750,0.10438723
2470.80224487,0.10423242
2472.73105225,0.10412176
2474.65985962,0.10394952
2476.58866699,0.10378971
2478.51747437,0.10377011
2480.44628174,0.10348342
2482.37508911,0.10340755
2484.30389648,0.10328233
2486.23270386,0.10313898
2488.16151123,0.10309041
2490.09031860,0.10295054
2492.01912598,0.10284512
2493.94793335,0.10256338
2495.87674072,0.10254680
2497.80554810,0.10241581
2499.73435547,0.10220982
2501.66316284,0.10225256
2503.59197021,0.10212462
2505.52077759,0.10188732
2507.44958496,0.10175011
2509.37839233,0.10165569
2511.30719971,0.10144745
2513.23600708,0.10145202
2515.16481445,0.10141507
2517.09362183,0.10117532
2519.02242920,0.10090730
2520.95123657,0.10087852
2522.88004395,0.10096180
2524.80885132,0.10062115
2526.73765869,0.10043870
2528.66646606,0.10041710
2530.59527344,0.10029215
2532.52408081,0.10009202
2534.45288818,0.09998986
2536.38169556,0.09993747
2538.31050293,0.09971036
2540.23931030,0.09970188
2542.16811768,0.09954356
2544.09692505,0.09937218
2546.02573242,0.09931705
2547.95453979,0.09911121
2549.88334717,0.09900379
2551.81215454,0.09878217
2553.74096191,0.09862990
2555.66976929,0.09863740
2557.59857666,0.09848362
2559.52738403,0.09836081
2561.45619141,0.09825042
2563.38499878,0.09798366
2565.31380615,0.09793194
2567.24261353,0.09781805
2569.17142090,0.09759793
2571.10022827,0.09755941
2573.02903564,0.09740832
2574.95784302,0.09736983
2576.88665039,0.09722655
2578.81545776,0.09705409
2580.74426514,0.09695321
2582.67307251,0.09675628
2584.60187988,0.09669729
2586.53068726,0.09655730
2588.45949463,0.09643534
2590.38830200,0.09633873
2592.31710937,0.09621643
2594.24591675,0.09601884
2596.17472412,0.09592170
2598.10353149,0.09583682
2600.03233887,0.09568067
2601.96114624,0.09566630
2603.88995361,0.09540197
2605.81876099,0.09532788
2607.74756836,0.09518534
2609.67637573,0.09498735
2611.60518311,0.09503721
2613.53399048,0.09486620
2615.46279785,0.09470531
2617.39160522,0.09443913
2619.32041260,0.09438472
2621.24921997,0.09427011
2623.17802734,0.09411814
2625.10683472,0.09404386
2627.03564209,0.09384392
2628.96444946,0.09389333
2630.89325684,0.09353424
2632.82206421,0.09339888
2634.75087158,0.09346072
2636.67967895,0.09323058
2638.60848633,0.09317870
2640.53729370,0.09308606
2642.46610107,0.09294215
2644.39490845,0.09266059
2646.32371582,0.09266663
2648.25252319,0.09252350
2650.18133057,0.09227353
2652.11013794,0.09229357
2654.03894531,0.09210493
2655.96775269,0.09207930
2657.89656006,0.09195488
2659.82536743,0.09176527
2661.75417480,0.09158128
2663.68298218,0.09146637
2665.61178955,0.09141012
2667.54059692,0.09123278
2669.46940430,0.09119610
2671.39821167,0.09091285
2673.32701904,0.09077902
2675.25582642,0.09074086
2677.18463379,0.09057876
2679.11344116,0.09050424
2681.04224854,0.09032021
2682.97105591,0.09026606
2684.89986328,0.09006567
2686.82867065,0.08987270
2688.75747803,0.08985585
2690.68628540,0.08973306
2692.61509277,0.08967794
2694.54390015,0.08952942
2696.47270752,0.08930963
2698.40151489,0.08922670
2700.33032227,0.08909330
2702.25912964,0.08902247
2704.18793701,0.08889595
2706.11674438,0.08862175
2708.04555176,0.08863963
2709.97435913,0.08853151
2711.90316650,0.08837915
2713.83197388,0.08829195
2715.76078125,0.08806126
2717.68958862,0.08801024
2719.61839600,0.08781495
2721.54720337,0.08767343
2723.47601074,0.08747652
2725.40481812,0.08731581
2727.33362549,0.08739105
2729.26243286,0.08724011
2731.19124023,0.08710823
2733.12004761,0.08692114
2735.04885498,0.08684331
2736.97766235,0.08670661
2738.90646973,0.08656542
2740.83527710,0.08647597
2742.76408447,0.08621460
2744.69289185,0.08625653
2746.62169922,0.08601318
2748.55050659,0.08583300
2750.47931396,0.08581166
2752.40812134,0.08552690
2754.33692871,0.08552672
2756.26573608,0.08530603
2758.19454346,0.08510669
2760.12335083,0.08514151
2762.05215820,0.08493687
2763.98096558,0.08481821
2765.90977295,0.08473377
2767.83858032,0.08448905
2769.76738770,0.08438770
2771.69619507,0.08431700
2773.62500244,0.08416075
2775.55380981,0.08404437
2777.48261719,0.08379839
2779.41142456,0.08374287
2781.34023193,0.08369456
2783.26903931,0.08346238
2785.19784668,0.08339372
2787.12665405,0.08322956
2789.05546143,0.08300587
2790.98426880,0.08280231
2792.91307617,0.08265541
2794.84188354,0.08261245
2796.77069092,0.08245954
2798.69949829,0.08220558
2800.62830566,0.08212732
2802.55711304,0.08203706
2804.48592041,0.08181864
2806.41472778,0.08179310
2808.34353516,0.08157095
2810.27234253,0.08136530
2812.20114990,0.08126083
2814.12995728,0.08108158
2816.05876465,0.08109723
2817.98757202,0.08082791
2819.91637939,0.08057933
2821.84518677,0.08047630
2823.77399414,0.08032699
2825.70280151,0.08026463
2827.63160889,0.08002544
2829.56041626,0.07994501
2831.48922363,0.07984266
2833.41803101,0.07953806
2835.34683838,0.07936770
2837.27564575,0.07920004
2839.20445312,0.07908584
2841.13326050,0.07892074
2843.06206787,0.07860786
2844.99087524,0.07825185
2846.91968262,0.07776989
2848.84848999,0.07732496
2850.77729736,0.07710802
2852.70610474,0.07708468
2854.63491211,0.07702875
2856.56371948,0.07687182
2858.49252686,0.07677805
2860.42133423,0.07667142
2862.35014160,0.07660201
2864.27894897,0.07651809
2866.20775635,0.07641196
2868.13656372,0.07627395
2870.06537109,0.07608777
2871.99417847,0.07602958
2873.92298584,0.07584550
2875.85179321,0.07580689
2877.78060059,0.07573429
2879.70940796,0.07549682
2881.63821533,0.07550688
2883.56702270,0.07534398
2885.49583008,0.07520977
2887.42463745,0.07506973
2889.35344482,0.07497701
2891.28225220,0.07490617
2893.21105957,0.07461528
2895.13986694,0.07456107
2897.06867432,0.07438208
2898.99748169,0.07411451
2900.92628906,0.07389702
2902.85509644,0.07374503
2904.78390381,0.07358477
2906.71271118,0.07328168
2908.64151855,0.07305589
2910.57032593,0.07275970
2912.49913330,0.07253520
2914.42794067,0.07203521
2916.35674805,0.07177393
2918.28555542,0.07174667
2920.21436279,0.07133144
2922.14317017,0.07133801
2924.07197754,0.07127845
2926.00078491,0.07106812
2927.92959229,0.07107647
2929.85839966,0.07104994
2931.78720703,0.07102147
2933.71601440,0.07097778
2935.64482178,0.07098928
2937.57362915,0.07106110
2939.50243652,0.07107221
2941.43124390,0.07081680
2943.36005127,0.07085498
2945.28885864,0.07083237
2947.21766602,0.07065412
2949.14647339,0.07068896
2951.07528076,0.07040152
2953.00408813,0.07032238
2954.93289551,0.07014027
2956.86170288,0.06987120
2958.79051025,0.06983333
2960.71931763,0.06959984
2962.64812500,0.06934817
2964.57693237,0.06915919
2966.50573975,0.06921569
2968.43454712,0.06918117
2970.36335449,0.06922717
2972.29216187,0.06930880
2974.22096924,0.06922758
2976.14977661,0.06927696
2978.07858398,0.06932202
2980.00739136,0.06938329
2981.93619873,0.06924238
2983.86500610,0.06927727
2985.79381348,0.06920019
2987.72262085,0.06905156
2989.65142822,0.06911945
2991.58023560,0.06889232
2993.50904297,0.06888118
2995.43785034,0.06878083
2997.36665771,0.06859943
2999.29546509,0.06853382
3001.22427246,0.06844488
3003.15307983,0.06835604
3005.08188721,0.06812580
3007.01069458,0.06814174
3008.93950195,0.06798287
3010.86830933,0.06768285
3012.79711670,0.06756853
3014.72592407,0.06749546
3016.65473145,0.06731696
3018.58353882,0.06720626
3020.51234619,0.06725588
3022.44115356,0.06698325
3024.36996094,0.06677765
3026.29876831,0.06671546
3028.22757568,0.06669775
3030.15638306,0.06640653
3032.08519043,0.06611170
3034.01399780,0.06617383
3035.94280518,0.06602272
3037.87161255,0.06612602
3039.80041992,0.06594606
3041.72922729,0.06566425
3043.65803467,0.06562772
3045.58684204,0.06538701
3047.51564941,0.06540833
3049.44445679,0.06514245
3051.37326416,0.06497166
3053.30207153,0.06503752
3055.23087891,0.06476206
3057.15968628,0.06455765
3059.08849365,0.06455772
3061.01730103,0.06449708
3062.94610840,0.06426620
3064.87491577,0.06413946
3066.80372314,0.06399161
3068.73253052,0.06399934
3070.66133789,0.06396554
3072.59014526,0.06378763
3074.51895264,0.06375083
3076.44776001,0.06353024
3078.37656738,0.06329942
3080.30537476,0.06310742
3082.23418213,0.06306113
3084.16298950,0.06300358
3086.09179687,0.06291835
3088.02060425,0.06287735
3089.94941162,0.06267014
3091.87821899,0.06258824
3093.80702637,0.06239694
3095.73583374,0.06221463
3097.66464111,0.06210189
3099.59344849,0.06191439
3101.52225586,0.06179154
3103.45106323,0.06171557
3105.37987061,0.06168658
3107.30867798,0.06152280
3109.23748535,0.06135086
3111.16629272,0.06121979
3113.09510010,0.06112035
3115.02390747,0.06089357
3116.95271484,0.06070248
3118.88152222,0.06063130
3120.81032959,0.06041256
3122.73913696,0.06027222
3124.66794434,0.06017005
3126.59675171,0.06015221
3128.52555908,0.05997416
3130.45436645,0.05974422
3132.38317383,0.05958951
3134.31198120,0.05941216
3136.24078857,0.05934522
3138.16959595,0.05912991
3140.09840332,0.05907433
3142.02721069,0.05888311
3143.95601807,0.05869305
3145.88482544,0.05867995
3147.81363281,0.05846947
3149.74244019,0.05830119
3151.67124756,0.05807868
3153.60005493,0.05802492
3155.52886230,0.05790289
3157.45766968,0.05778641
3159.38647705,0.05761390
3161.31528442,0.05735596
3163.24409180,0.05729519
3165.17289917,0.05707228
3167.10170654,0.05705322
3169.03051392,0.05688642
3170.95932129,0.05668697
3172.88812866,0.05652050
3174.81693604,0.05633113
3176.74574341,0.05625534
3178.67455078,0.05587982
3180.60335815,0.05592298
3182.53216553,0.05588819
3184.46097290,0.05567765
3186.38978027,0.05559452
3188.31858765,0.05549909
3190.24739502,0.05543206
3192.17620239,0.05506267
3194.10500977,0.05501702
3196.03381714,0.05488279
3197.96262451,0.05465890
3199.89143188,0.05463854
3201.82023926,0.05455132
3203.74904663,0.05442704
3205.67785400,0.05427501
3207.60666138,0.05420709
3209.53546875,0.05391432
3211.46427612,0.05389407
3213.39308350,0.05373737
3215.32189087,0.05366086
3217.25069824,0.05373043
3219.17950562,0.05333271
3221.10831299,0.05337979
3223.03712036,0.05333623
3224.96592773,0.05324751
3226.89473511,0.05309620
3228.82354248,0.05294645
3230.75234985,0.05302930
3232.68115723,0.05280212
3234.60996460,0.05271159
3236.53877197,0.05262035
3238.46757935,0.05269082
3240.39638672,0.05254297
3242.32519409,0.05245116
3244.25400146,0.05241780
3246.18280884,0.05212767
3248.11161621,0.05227989
3250.04042358,0.05215631
3251.96923096,0.05214505
3253.89803833,0.05198127
3255.82684570,0.05178071
3257.75565308,0.05190106
3259.68446045,0.05174220
3261.61326782,0.05176526
3263.54207520,0.05162890
3265.47088257,0.05163156
3267.39968994,0.05155462
3269.32849731,0.05158313
3271.25730469,0.05159481
3273.18611206,0.05126438
3275.11491943,0.05136382
3277.04372681,0.05111761
3278.97253418,0.05111607
3280.90134155,0.05121204
3282.83014893,0.05101639
3284.75895630,0.05104064
3286.68776367,0.05096800
3288.61657104,0.05094710
3290.54537842,0.05069470
3292.47418579,0.05062127
3294.40299316,0.05065170
3296.33180054,0.05053573
3298.26060791,0.05048298
3300.18941528,0.05047663
3302.11822266,0.05045099
3304.04703003,0.05032118
3305.97583740,0.05031228
3307.90464478,0.05005749
3309.83345215,0.05003917
3311.76225952,0.05006922
3313.69106689,0.04996318
3315.61987427,0.05006553
3317.54868164,0.04987673
3319.47748901,0.04985824
3321.40629639,0.04986425
3323.33510376,0.04971555
3325.26391113,0.04958513
3327.19271851,0.04946764
3329.12152588,0.04948652
3331.05033325,0.04949803
3332.97914062,0.04941705
3334.90794800,0.04928271
3336.83675537,0.04912877
3338.76556274,0.04902075
3340.69437012,0.04910139
3342.62317749,0.04890310
3344.55198486,0.04893595
3346.48079224,0.04896562
3348.40959961,0.04868033
3350.33840698,0.04872544
3352.26721436,0.04850768
3354.19602173,0.04840986
3356.12482910,0.04829328
3358.05363647,0.04829294
3359.98244385,0.04829846
3361.91125122,0.04807432
3363.84005859,0.04814891
3365.76886597,0.04787018
3367.69767334,0.04786515
3369.62648071,0.04779323
3371.55528809,0.04768401
3373.48409546,0.04774528
3375.41290283,0.04756477
3377.34171020,0.04753346
3379.27051758,0.04730711
3381.19932495,0.04735751
3383.12813232,0.04724787
3385.05693970,0.04716378
3386.98574707,0.04714990
3388.91455444,0.04704435
3390.84336182,0.04689664
3392.77216919,0.04644851
3394.70097656,0.04668967
3396.62978394,0.04653130
3398.55859131,0.04634945
3400.48739868,0.04632142
3402.41620605,0.04605245
3404.34501343,0.04614333
3406.27382080,0.04609157
3408.20262817,0.04617519
3410.13143555,0.04591694
3412.06024292,0.04601718
3413.98905029,0.04588672
3415.91785767,0.04570366
3417.84666504,0.04591481
3419.77547241,0.04533645
3421.70427979,0.04538254
3423.63308716,0.04539862
3425.56189453,0.04538753
3427.49070190,0.04535185
3429.41950928,0.04515703
3431.34831665,0.04509705
3433.27712402,0.04483186
3435.20593140,0.04505954
3437.13473877,0.04472107
3439.06354614,0.04482444
3440.99235352,0.04469738
3442.92116089,0.04431585
3444.84996826,0.04459018
3446.77877563,0.04385861
3448.70758301,0.04404421
3450.63639038,0.04449552
3452.56519775,0.04432304
3454.49400513,0.04437456
3456.42281250,0.04412557
3458.35161987,0.04408786
3460.28042725,0.04405794
3462.20923462,0.04383776
3464.13804199,0.04379140
3466.06684937,0.04384124
3467.99565674,0.04367241
3469.92446411,0.04376873
3471.85327148,0.04368409
3473.78207886,0.04357390
3475.71088623,0.04360376
3477.63969360,0.04350509
3479.56850098,0.04353181
3481.49730835,0.04298013
3483.42611572,0.04316523
3485.35492310,0.04340047
3487.28373047,0.04313727
3489.21253784,0.04314829
3491.14134521,0.04316225
3493.07015259,0.04342294
3494.99895996,0.04307522
3496.92776733,0.04304348
3498.85657471,0.04315141
3500.78538208,0.04307144
3502.71418945,0.04241481
3504.64299683,0.04226457
3506.57180420,0.04341514
3508.50061157,0.04269294
3510.42941895,0.04243886
3512.35822632,0.04291479
3514.28703369,0.04291832
3516.21584106,0.04319192
3518.14464844,0.04278903
3520.07345581,0.04295965
3522.00226318,0.04256767
3523.93107056,0.04199352
3525.85987793,0.04217069
3527.78868530,0.04211435
3529.71749268,0.04216814
3531.64630005,0.04253145
3533.57510742,0.04293454
3535.50391479,0.04248631
3537.43272217,0.04229898
3539.36152954,0.04274179
3541.29033691,0.04270065
3543.21914429,0.04234670
3545.14795166,0.04143504
3547.07675903,0.04073263
3549.00556641,0.04217912
3550.93437378,0.04253042
3552.86318115,0.04136288
3554.79198853,0.04234090
3556.72079590,0.04249751
3558.64960327,0.04226704
3560.57841064,0.04198572
3562.50721802,0.04164663
3564.43602539,0.04201396
3566.36483276,0.03913339
3568.29364014,0.03815998
3570.22244751,0.04138113
3572.15125488,0.04249858
3574.08006226,0.04193044
3576.00886963,0.04212912
3577.93767700,0.04201083
3579.86648437,0.04182570
3581.79529175,0.04195799
3583.72409912,0.04203954
3585.65290649,0.04110122
3587.58171387,0.03766885
3589.51052124,0.03875540
3591.43932861,0.04224098
3593.36813599,0.04096696
3595.29694336,0.04024010
3597.22575073,0.04099746
3599.15455811,0.04145474
3601.08336548,0.04097590
3603.01217285,0.04136561
3604.94098022,0.04225866
3606.86978760,0.04056277
3608.79859497,0.03814118
3610.72740234,0.03903595
3612.65620972,0.03994653
3614.58501709,0.03875291
3616.51382446,0.04164221
3618.44263184,0.03849716
3620.37143921,0.03696863
3622.30024658,0.04198040
3624.22905395,0.04079118
3626.15786133,0.04271402
3628.08666870,0.03612645
3630.01547607,0.03256098
3631.94428345,0.04132998
3633.87309082,0.04025596
3635.80189819,0.04096676
3637.73070557,0.04180806
3639.65951294,0.04125011
3641.58832031,0.04172849
3643.51712769,0.04097509
3645.44593506,0.04151560
3647.37474243,0.03710081
3649.30354980,0.03402480
3651.23235718,0.03436486
3653.16116455,0.04095523
3655.08997192,0.04078548
3657.01877930,0.03613529
3658.94758667,0.04182785
3660.87639404,0.04100173
3662.80520142,0.04143691
3664.73400879,0.04137404
3666.66281616,0.04080890
3668.59162354,0.03974500
3670.52043091,0.03216995
3672.44923828,0.03916730
3674.37804565,0.03740229
3676.30685303,0.03061586
3678.23566040,0.03887127
3680.16446777,0.03985666
3682.09327515,0.03990922
3684.02208252,0.04109542
3685.95088989,0.04034987
3687.87969727,0.03634047
3689.80850464,0.03316992
3691.73731201,0.03791818
3693.66611938,0.03919006
3695.59492676,0.04013947
3697.52373413,0.04015010
3699.45254150,0.03973470
3701.38134888,0.03866577
3703.31015625,0.03710506
3705.23896362,0.04082174
3707.16777100,0.03887881
3709.09657837,0.03794556
3711.02538574,0.03565732
3712.95419312,0.03325281
3714.88300049,0.03922462
3716.81180786,0.03882270
3718.74061523,0.03897847
3720.66942261,0.03814602
3722.59822998,0.03686597
3724.52703735,0.03824961
3726.45584473,0.03537014
3728.38465210,0.03844097
3730.31345947,0.03805189
3732.24226685,0.03478964
3734.17107422,0.03401796
3736.09988159,0.03220319
3738.02868896,0.03415773
3739.95749634,0.03709117
3741.88630371,0.03887905
3743.81511108,0.03015856
3745.74391846,0.02820855
3747.67272583,0.03701688
3749.60153320,0.03175829
3751.53034058,0.02909323
3753.45914795,0.03366457
3755.38795532,0.03610723
3757.31676270,0.03761622
3759.24557007,0.03476213
3761.17437744,0.03610266
3763.10318481,0.03838253
3765.03199219,0.03569484
3766.96079956,0.03663487
3768.88960693,0.03614493
3770.81841431,0.03445180
3772.74722168,0.03742279
3774.67602905,0.03752726
3776.60483643,0.03748286
3778.53364380,0.03629702
3780.46245117,0.03486703
3782.39125854,0.03735710
3784.32006592,0.03651138
3786.24887329,0.03619079
3788.17768066,0.03701272
3790.10648804,0.03687789
3792.03529541,0.03657777
3793.96410278,0.03721173
3795.89291016,0.03507187
3797.82171753,0.03447076
3799.75052490,0.03641570
3801.67933228,0.02873209
3803.60813965,0.03349114
3805.53694702,0.03662058
3807.46575439,0.02969161
3809.39456177,0.03618671
3811.32336914,0.03554030
3813.25217651,0.03670973
3815.18098389,0.03322230
3817.10979126,0.02885688
3819.03859863,0.03672832
3820.96740601,0.02958941
3822.89621338,0.03106347
3824.82502075,0.03650603
3826.75382812,0.03293968
3828.68263550,0.03558005
3830.61144287,0.03403134
3832.54025024,0.03292154
3834.46905762,0.03362315
3836.39786499,0.03199206
3838.32667236,0.02893164
3840.25547974,0.03111107
3842.18428711,0.03379583
3844.11309448,0.03214920
3846.04190186,0.03471909
3847.97070923,0.03432860
3849.89951660,0.03435356
3851.82832397,0.03092594
3853.75713135,0.02292219
3855.68593872,0.02719365
3857.61474609,0.03450475
3859.54355347,0.03356143
3861.47236084,0.03305241
3863.40116821,0.03240907
3865.32997559,0.02993212
3867.25878296,0.03368271
3869.18759033,0.03085079
3871.11639770,0.02823000
3873.04520508,0.03378871
3874.97401245,0.03101503
3876.90281982,0.03347421
3878.83162720,0.03420877
3880.76043457,0.02914653
3882.68924194,0.03358116
3884.61804932,0.03139770
3886.54685669,0.02874571
3888.47566406,0.03368462
3890.40447144,0.03194123
3892.33327881,0.02984577
3894.26208618,0.03276595
3896.19089355,0.03343609
3898.11970093,0.03175226
3900.04850830,0.03002033
3901.97731567,0.02959472
3903.90612305,0.02933978
3905.83493042,0.02990816
3907.76373779,0.03282760
3909.69254517,0.03276190
3911.62135254,0.03237081
3913.55015991,0.03302985
3915.47896728,0.03188987
3917.40777466,0.03095125
3919.33658203,0.03063022
3921.26538940,0.03193198
3923.19419678,0.03179395
3925.12300415,0.03107396
3927.05181152,0.03176505
3928.98061890,0.03195759
3930.90942627,0.03128403
3932.83823364,0.03034185
3934.76704102,0.03156915
3936.69584839,0.03182124
3938.62465576,0.03161900
3940.55346313,0.03185550
3942.48227051,0.03055136
3944.41107788,0.03092935
3946.33988525,0.03147870
3948.26869263,0.03071882
3950.19750000,0.03060435
3952.12630737,0.03113402
3954.05511475,0.03124919
3955.98392212,0.03107251
3957.91272949,0.03100786
3959.84153687,0.03101102
3961.77034424,0.03074913
3963.69915161,0.03056435
3965.62795898,0.03106442
3967.55676636,0.03074763
3969.48557373,0.03060720
3971.41438110,0.03062979
3973.34318848,0.03044375
3975.27199585,0.03046057
3977.20080322,0.03025535
3979.12961060,0.03060427
3981.05841797,0.03034419
3982.98722534,0.03026269
3984.91603271,0.03028424
3986.84484009,0.03022881
3988.77364746,0.03025354
3990.70245483,0.02980306
3992.63126221,0.03001821
3994.56006958,0.02979652
3996.48887695,0.02984016
3998.41768433,0.02989591
4000.34649170,0.02978925
4002.27529907,0.02980317
4004.20410645,0.02950905
4006.13291382,0.02978216
4008.06172119,0.02945225
4009.99052856,0.02948942
4011.91933594,0.02954789
4013.84814331,0.02935711
4015.77695068,0.02943557
4017.70575806,0.02921481
4019.63456543,0.02930258
4021.56337280,0.02911065
4023.49218018,0.02918182
4025.42098755,0.02904349
4027.34979492,0.02892357
4029.27860229,0.02896487
4031.20740967,0.02881939
4033.13621704,0.02888153
4035.06502441,0.02862259
4036.99383179,0.02880438
4038.92263916,0.02870936
4040.85144653,0.02864473
4042.78025391,0.02856604
4044.70906128,0.02831209
4046.63786865,0.02843058
4048.56667603,0.02824501
4050.49548340,0.02833368
4052.42429077,0.02818177
4054.35309814,0.02820075
4056.28190552,0.02820056
4058.21071289,0.02804946
4060.13952026,0.02810687
4062.06832764,0.02793968
4063.99713501,0.02800362
4065.92594238,0.02779703
4067.85474976,0.02784580
4069.78355713,0.02774964
4071.71236450,0.02761644
4073.64117187,0.02768582
4075.56997925,0.02752466
4077.49878662,0.02758493
4079.42759399,0.02730191
4081.35640137,0.02732068
4083.28520874,0.02733380
4085.21401611,0.02730085
4087.14282349,0.02727697
4089.07163086,0.02705894
4091.00043823,0.02715608
4092.92924561,0.02702218
4094.85805298,0.02706483
4096.78686035,0.02703236
4098.71566772,0.02690631
4100.64447510,0.02689838
4102.57328247,0.02686997
4104.50208984,0.02671197
4106.43089722,0.02655810
4108.35970459,0.02665749
4110.28851196,0.02650082
4112.21731934,0.02653387
4114.14612671,0.02642585
4116.07493408,0.02641140
4118.00374145,0.02637630
4119.93254883,0.02617984
4121.86135620,0.02628619
4123.79016357,0.02613451
4125.71897095,0.02620142
4127.64777832,0.02603270
4129.57658569,0.02604055
4131.50539307,0.02607440
4133.43420044,0.02578861
4135.36300781,0.02583393
4137.29181519,0.02572531
4139.22062256,0.02581701
4141.14942993,0.02570283
4143.07823730,0.02565563
4145.00704468,0.02559762
4146.93585205,0.02549099
4148.86465942,0.02554902
4150.79346680,0.02535861
4152.72227417,0.02547410
4154.65108154,0.02529716
4156.57988892,0.02528428
4158.50869629,0.02528024
4160.43750366,0.02512267
4162.36631103,0.02522744
4164.29511841,0.02505498
4166.22392578,0.02500743
4168.15273315,0.02488731
4170.08154053,0.02487434
4172.01034790,0.02480341
4173.93915527,0.02476631
4175.86796265,0.02481616
4177.79677002,0.02467200
4179.72557739,0.02467102
4181.65438477,0.02458233
4183.58319214,0.02465157
4185.51199951,0.02457122
4187.44080688,0.02445712
4189.36961426,0.02442368
4191.29842163,0.02433935
4193.22722900,0.02424795
4195.15603638,0.02418300
4197.08484375,0.02425721
4199.01365112,0.02407183
4200.94245850,0.02411644
4202.87126587,0.02405853
4204.80007324,0.02397770
4206.72888062,0.02393711
4208.65768799,0.02384862
4210.58649536,0.02394543
4212.51530273,0.02379046
4214.44411011,0.02382176
4216.37291748,0.02357167
4218.30172485,0.02357723
4220.23053223,0.02362060
4222.15933960,0.02344739
4224.08814697,0.02356117
4226.01695435,0.02330525
4227.94576172,0.02346793
4229.87456909,0.02336518
4231.80337646,0.02322770
4233.73218384,0.02326468
4235.66099121,0.02314083
4237.58979858,0.02327893
4239.51860596,0.02297523
4241.44741333,0.02299067
4243.37622070,0.02298225
4245.30502808,0.02292394
4247.23383545,0.02291788
4249.16264282,0.02271520
4251.09145020,0.02281547
4253.02025757,0.02270421
4254.94906494,0.02265685
4256.87787231,0.02265165
4258.80667969,0.02265307
4260.73548706,0.02255864
4262.66429443,0.02246890
4264.59310181,0.02246345
4266.52190918,0.02239902
4268.45071655,0.02237758
4270.37952393,0.02227572
4272.30833130,0.02239196
4274.23713867,0.02218197
4276.16594604,0.02213939
4278.09475342,0.02214750
4280.02356079,0.02207502
4281.95236816,0.02217286
4283.88117554,0.02186929
4285.80998291,0.02199867
4287.73879028,0.02192220
4289.66759766,0.02186592
4291.59640503,0.02193442
4293.52521240,0.02169125
4295.45401978,0.02166730
4297.38282715,0.02160580
4299.31163452,0.02171753
4301.24044189,0.02151641
4303.16924927,0.02154209
4305.09805664,0.02156224
4307.02686401,0.02140333
4308.95567139,0.02149937
4310.88447876,0.02127115
4312.81328613,0.02126444
4314.74209351,0.02114207
4316.67090088,0.02117169
4318.59970825,0.02112238
4320.52851562,0.02103904
4322.45732300,0.02121657
4324.38613037,0.02097346
4326.31493774,0.02098770
4328.24374512,0.02091919
4330.17255249,0.02091765
4332.10135986,0.02091517
4334.03016724,0.02072644
4335.95897461,0.02071838
4337.88778198,0.02070843
4339.81658936,0.02080358
4341.74539673,0.02061480
4343.67420410,0.02057995
4345.60301147,0.02058337
4347.53181885,0.02050035
4349.46062622,0.02049333
4351.38943359,0.02038135
4353.31824097,0.02039737
4355.24704834,0.02031111
4357.17585571,0.02025497
4359.10466309,0.02019520
4361.03347046,0.02017389
4362.96227783,0.02011974
4364.89108520,0.02013972
4366.81989258,0.02017185
4368.74869995,0.02006826
4370.67750732,0.02006669
4372.60631470,0.01989041
4374.53512207,0.01989613
4376.46392944,0.01983038
4378.39273682,0.01980669
4380.32154419,0.01983252
4382.25035156,0.01968761
4384.17915894,0.01973287
4386.10796631,0.01958338
4388.03677368,0.01957660
4389.96558105,0.01956100
4391.89438843,0.01954178
4393.82319580,0.01949371
4395.75200317,0.01939157
4397.68081055,0.01939085
4399.60961792,0.01919228
4401.53842529,0.01930403
4403.46723267,0.01927761
4405.39604004,0.01921738
4407.32484741,0.01919569
4409.25365478,0.01909980
4411.18246216,0.01913638
4413.11126953,0.01899331
4415.04007690,0.01904687
4416.96888428,0.01899890
4418.89769165,0.01895445
4420.82649902,0.01885006
4422.75530640,0.01874854
4424.68411377,0.01881645
4426.61292114,0.01875047
4428.54172852,0.01872152
4430.47053589,0.01852435
4432.39934326,0.01864491
4434.32815063,0.01859248
4436.25695801,0.01842248
4438.18576538,0.01854190
4440.11457275,0.01842420
4442.04338013,0.01841699
4443.97218750,0.01835606
4445.90099487,0.01841159
4447.82980225,0.01830033
4449.75860962,0.01814183
4451.68741699,0.01823118
4453.61622437,0.01815866
4455.54503174,0.01816561
4457.47383911,0.01809680
4459.40264648,0.01807442
4461.33145386,0.01795579
4463.26026123,0.01787634
4465.18906860,0.01789444
4467.11787598,0.01782826
4469.04668335,0.01788459
4470.97549072,0.01780185
4472.90429810,0.01776174
4474.83310547,0.01766527
4476.76191284,0.01761405
4478.69072021,0.01768756
4480.61952759,0.01760057
4482.54833496,0.01748692
4484.47714233,0.01751083
4486.40594971,0.01747908
4488.33475708,0.01733336
4490.26356445,0.01746406
4492.19237183,0.01737669
4494.12117920,0.01729756
4496.04998657,0.01734891
4497.97879395,0.01719281
4499.90760132,0.01723188
4501.83640869,0.01713479
4503.76521606,0.01705902
4505.69402344,0.01710388
4507.62283081,0.01704576
4509.55163818,0.01702868
4511.48044556,0.01705496
4513.40925293,0.01692966
4515.33806030,0.01685277
4517.26686768,0.01696094
4519.19567505,0.01678756
4521.12448242,0.01676096
4523.05328979,0.01679023
4524.98209717,0.01672875
4526.91090454,0.01671134
4528.83971191,0.01657926
4530.76851929,0.01661792
4532.69732666,0.01655139
4534.62613403,0.01649159
4536.55494141,0.01647074
4538.48374878,0.01639881
4540.41255615,0.01638083
4542.34136353,0.01634367
4544.27017090,0.01627747
4546.19897827,0.01624876
4548.12778564,0.01635629
4550.05659302,0.01620065
4551.98540039,0.01616487
4553.91420776,0.01618005
4555.84301514,0.01607543
4557.77182251,0.01610348
4559.70062988,0.01599079
4561.62943726,0.01599687
4563.55824463,0.01593793
4565.48705200,0.01598494
4567.41585937,0.01599366
4569.34466675,0.01581686
4571.27347412,0.01580665
4573.20228149,0.01572212
4575.13108887,0.01578117
4577.05989624,0.01575353
4578.98870361,0.01567818
4580.91751099,0.01560800
4582.84631836,0.01557500
4584.77512573,0.01565583
4586.70393311,0.01549420
4588.63274048,0.01547988
4590.56154785,0.01548940
4592.49035522,0.01544710
4594.41916260,0.01539434
4596.34796997,0.01532158
4598.27677734,0.01533665
4600.20558472,0.01528189
4602.13439209,0.01530722
4604.06319946,0.01518341
4605.99200684,0.01510407
4607.92081421,0.01515710
4609.84962158,0.01506682
4611.77842895,0.01503643
4613.70723633,0.01500821
4615.63604370,0.01497524
4617.56485107,0.01494225
4619.49365845,0.01485323
4621.42246582,0.01483644
4623.35127319,0.01486234
4625.28008057,0.01479132
4627.20888794,0.01476535
4629.13769531,0.01477240
4631.06650269,0.01476424
4632.99531006,0.01472681
4634.92411743,0.01459030
4636.85292480,0.01460711
4638.78173218,0.01462894
4640.71053955,0.01453741
4642.63934692,0.01449324
4644.56815430,0.01448873
4646.49696167,0.01446678
4648.42576904,0.01442883
4650.35457642,0.01439384
4652.28338379,0.01434722
4654.21219116,0.01431913
4656.14099853,0.01422571
4658.06980591,0.01426238
4659.99861328,0.01425492
4661.92742065,0.01417484
4663.85622803,0.01420949
4665.78503540,0.01411767
4667.71384277,0.01410939
4669.64265015,0.01409215
4671.57145752,0.01409380
4673.50026489,0.01406580
4675.42907227,0.01396666
4677.35787964,0.01398100
4679.28668701,0.01390027
4681.21549438,0.01393331
4683.14430176,0.01386715
4685.07310913,0.01376016
4687.00191650,0.01379884
4688.93072388,0.01373020
4690.85953125,0.01371370
4692.78833862,0.01375297
4694.71714600,0.01374835
4696.64595337,0.01363655
4698.57476074,0.01359467
4700.50356812,0.01354391
4702.43237549,0.01350016
4704.36118286,0.01352307
4706.28999023,0.01345401
4708.21879761,0.01344671
4710.14760498,0.01336348
4712.07641235,0.01331117
4714.00521973,0.01331180
4715.93402710,0.01329234
4717.86283447,0.01328595
4719.79164185,0.01323344
4721.72044922,0.01322775
4723.64925659,0.01319492
4725.57806396,0.01321029
4727.50687134,0.01317849
4729.43567871,0.01310414
4731.36448608,0.01307219
4733.29329346,0.01303770
4735.22210083,0.01300194
4737.15090820,0.01293840
4739.07971558,0.01295977
4741.00852295,0.01296213
4742.93733032,0.01292376
4744.86613770,0.01285462
4746.79494507,0.01281074
4748.72375244,0.01275672
4750.65255981,0.01273582
4752.58136719,0.01281500
4754.51017456,0.01277815
4756.43898193,0.01271814
4758.36778931,0.01262055
4760.29659668,0.01261202
4762.22540405,0.01260852
4764.15421143,0.01261233
4766.08301880,0.01267260
4768.01182617,0.01255586
4769.94063354,0.01255886
4771.86944092,0.01249675
4773.79824829,0.01241769
4775.72705566,0.01243218
4777.65586304,0.01242136
4779.58467041,0.01245787
4781.51347778,0.01233026
4783.44228516,0.01228390
4785.37109253,0.01231657
4787.29989990,0.01220284
4789.22870728,0.01211911
4791.15751465,0.01221164
4793.08632202,0.01218708
4795.01512939,0.01209374
4796.94393677,0.01210240
4798.87274414,0.01203376
4800.80155151,0.01207784
4802.73035889,0.01204243
4804.65916626,0.01200945
4806.58797363,0.01194977
4808.51678101,0.01187711
4810.44558838,0.01196728
4812.37439575,0.01186217
4814.30320312,0.01184803
4816.23201050,0.01182058
4818.16081787,0.01177288
4820.08962524,0.01178558
4822.01843262,0.01173032
4823.94723999,0.01174864
4825.87604736,0.01172294
4827.80485474,0.01171257
4829.73366211,0.01163772
4831.66246948,0.01166885
4833.59127686,0.01168153
4835.52008423,0.01156645
4837.44889160,0.01148033
4839.37769897,0.01149623
4841.30650635,0.01159716
4843.23531372,0.01147003
4845.16412109,0.01144374
4847.09292847,0.01137678
4849.02173584,0.01139929
4850.95054321,0.01139582
4852.87935059,0.01119806
4854.80815796,0.01134339
4856.73696533,0.01128845
4858.66577270,0.01126217
4860.59458008,0.01123128
4862.52338745,0.01113429
4864.45219482,0.01121286
4866.38100220,0.01109903
4868.30980957,0.01110150
4870.23861694,0.01109162
4872.16742432,0.01109653
4874.09623169,0.01100234
4876.02503906,0.01092990
4877.95384644,0.01101178
4879.88265381,0.01089231
4881.81146118,0.01092970
4883.74026855,0.01093169
4885.66907593,0.01084283
4887.59788330,0.01079926
4889.52669067,0.01078455
4891.45549805,0.01081399
4893.38430542,0.01080433
4895.31311279,0.01075042
4897.24192017,0.01069700
4899.17072754,0.01072530
4901.09953491,0.01062526
4903.02834228,0.01062560
4904.95714966,0.01055446
4906.88595703,0.01055160
4908.81476440,0.01066643
4910.74357178,0.01050447
4912.67237915,0.01057398
4914.60118652,0.01048899
4916.52999390,0.01044175
4918.45880127,0.01052619
4920.38760864,0.01036099
4922.31641602,0.01041938
4924.24522339,0.01035199
4926.17403076,0.01030735
4928.10283813,0.01039550
4930.03164551,0.01031078
4931.96045288,0.01020875
4933.88926025,0.01016763
4935.81806763,0.01022818
4937.74687500,0.01019828
4939.67568237,0.01011266
4941.60448975,0.01010982
4943.53329712,0.01015496
4945.46210449,0.01013031
4947.39091187,0.01007417
4949.31971924,0.01004723
4951.24852661,0.01001441
4953.17733398,0.00998013
4955.10614136,0.00990854
4957.03494873,0.00994031
4958.96375610,0.00993780
4960.89256348,0.00985892
4962.82137085,0.00991479
4964.75017822,0.00994720
4966.67898560,0.00981409
4968.60779297,0.00976382
4970.53660034,0.00984995
4972.46540771,0.00976925
4974.39421509,0.00967524
4976.32302246,0.00974349
4978.25182983,0.00973980
4980.18063721,0.00964375
4982.10944458,0.00966150
4984.03825195,0.00962966
4985.96705933,0.00956916
4987.89586670,0.00960945
4989.82467407,0.00951765
4991.75348145,0.00950388
4993.68228882,0.00948922
4995.61109619,0.00941048
4997.53990356,0.00947312
4999.46871094,0.00944705
5001.39751831,0.00938580
5003.32632568,0.00939473
5005.25513306,0.00938821
5007.18394043,0.00933679
5009.11274780,0.00931759
5011.04155518,0.00926482
5012.97036255,0.00923402
5014.89916992,0.00928263
5016.82797729,0.00922449
5018.75678467,0.00918984
5020.68559204,0.00919350
5022.61439941,0.00918071
5024.54320679,0.00916763
5026.47201416,0.00918887
5028.40082153,0.00912015
5030.32962891,0.00897579
5032.25843628,0.00901932
5034.18724365,0.00903071
5036.11605103,0.00899454
5038.04485840,0.00900932
5039.97366577,0.00900107
5041.90247314,0.00897036
5043.83128052,0.00894349
5045.76008789,0.00890536
5047.68889526,0.00893698
5049.61770264,0.00898543
5051.54651001,0.00882721
5053.47531738,0.00886434
5055.40412476,0.00889106
5057.33293213,0.00871432
5059.26173950,0.00873446
5061.19054687,0.00878990
5063.11935425,0.00878231
5065.04816162,0.00872189
5066.97696899,0.00871977
5068.90577637,0.00864131
5070.83458374,0.00859358
5072.76339111,0.00861486
5074.69219849,0.00854563
5076.62100586,0.00856020
5078.54981323,0.00849779
5080.47862061,0.00852841
5082.40742798,0.00848988
5084.33623535,0.00846394
5086.26504272,0.00859081
5088.19385010,0.00850276
5090.12265747,0.00846213
5092.05146484,0.00842598
5093.98027222,0.00837779
5095.90907959,0.00830087
5097.83788696,0.00830683
5099.76669434,0.00840186
5101.69550171,0.00833292
5103.62430908,0.00830961
5105.55311645,0.00827974
5107.48192383,0.00824854
5109.41073120,0.00821298
5111.33953857,0.00824429
5113.26834595,0.00819121
5115.19715332,0.00807865
5117.12596069,0.00813442
5119.05476807,0.00809217
5120.98357544,0.00809847
5122.91238281,0.00809208
5124.84119019,0.00808564
5126.76999756,0.00806090
5128.69880493,0.00801246
5130.62761230,0.00805514
5132.55641968,0.00799447
5134.48522705,0.00797925
5136.41403442,0.00791494
5138.34284180,0.00796452
5140.27164917,0.00799857
5142.20045654,0.00789626
5144.12926392,0.00792320
5146.05807129,0.00781200
5147.98687866,0.00780703
5149.91568603,0.00785215
5151.84449341,0.00775042
5153.77330078,0.00771657
5155.70210815,0.00774105
5157.63091553,0.00775213
5159.55972290,0.00769371
5161.48853027,0.00769719
5163.41733765,0.00770288
5165.34614502,0.00766492
5167.27495239,0.00770633
5169.20375977,0.00767029
5171.13256714,0.00760118
5173.06137451,0.00766859
5174.99018188,0.00757675
5176.91898926,0.00754101
5178.84779663,0.00756749
5180.77660400,0.00746519
5182.70541138,0.00755375
5184.63421875,0.00743425
5186.56302612,0.00739768
5188.49183350,0.00749046
5190.42064087,0.00738117
5192.34944824,0.00741813
5194.27825562,0.00738744
5196.20706299,0.00736602
5198.13587036,0.00731848
5200.06467773,0.00735057
5201.99348511,0.00737868
5203.92229248,0.00729924
5205.85109985,0.00726025
5207.77990723,0.00705955
5209.70871460,0.00716460
5211.63752197,0.00724752
5213.56632935,0.00722027
5215.49513672,0.00731772
5217.42394409,0.00720916
5219.35275146,0.00711759
5221.28155884,0.00712276
5223.21036621,0.00715434
5225.13917358,0.00697341
5227.06798096,0.00698255
5228.99678833,0.00718104
5230.92559570,0.00711254
5232.85440308,0.00703900
5234.78321045,0.00705539
5236.71201782,0.00710477
5238.64082520,0.00700251
5240.56963257,0.00704852
5242.49843994,0.00700139
5244.42724731,0.00685901
5246.35605469,0.00691946
5248.28486206,0.00673930
5250.21366943,0.00682648
5252.14247681,0.00695461
5254.07128418,0.00675780
5256.00009155,0.00676490
5257.92889893,0.00687698
5259.85770630,0.00688697
5261.78651367,0.00678517
5263.71532104,0.00663039
5265.64412842,0.00661521
5267.57293579,0.00681375
5269.50174316,0.00675372
5271.43055054,0.00665654
5273.35935791,0.00680091
5275.28816528,0.00672395
5277.21697266,0.00666649
5279.14578003,0.00669825
5281.07458740,0.00664423
5283.00339478,0.00663545
5284.93220215,0.00658330
5286.86100952,0.00657542
5288.78981689,0.00660376
5290.71862427,0.00647230
5292.64743164,0.00653587
5294.57623901,0.00664586
5296.50504639,0.00653726
5298.43385376,0.00652398
5300.36266113,0.00650127
5302.29146851,0.00649819
5304.22027588,0.00645845
5306.14908325,0.00640361
5308.07789062,0.00634638
5310.00669800,0.00632751
5311.93550537,0.00641107
5313.86431274,0.00633568
5315.79312012,0.00638884
5317.72192749,0.00637929
5319.65073486,0.00637368
5321.57954224,0.00636049
5323.50834961,0.00628028
5325.43715698,0.00637026
5327.36596436,0.00614221
5329.29477173,0.00618892
5331.22357910,0.00631573
5333.15238647,0.00618234
5335.08119385,0.00620701
5337.01000122,0.00606891
5338.93880859,0.00597786
5340.86761597,0.00607150
5342.79642334,0.00615777
5344.72523071,0.00596586
5346.65403809,0.00595296
5348.58284546,0.00611844
5350.51165283,0.00612977
5352.44046020,0.00604938
5354.36926758,0.00581296
5356.29807495,0.00599260
5358.22688232,0.00605096
5360.15568970,0.00602765
5362.08449707,0.00610569
5364.01330444,0.00598848
5365.94211182,0.00600746
5367.87091919,0.00590559
5369.79972656,0.00595051
5371.72853394,0.00591718
5373.65734131,0.00593100
5375.58614868,0.00587997
5377.51495605,0.00564629
5379.44376343,0.00583460
5381.37257080,0.00582874
5383.30137817,0.00584767
5385.23018555,0.00579005
5387.15899292,0.00569020
5389.08780029,0.00583325
5391.01660767,0.00579590
5392.94541504,0.00572964
5394.87422241,0.00561519
5396.80302978,0.00570358
5398.73183716,0.00573576
5400.66064453,0.00573472
5402.58945190,0.00576033
5404.51825928,0.00564308
5406.44706665,0.00569707
5408.37587402,0.00565034
5410.30468140,0.00561731
5412.23348877,0.00553403
5414.16229614,0.00544414
5416.09110352,0.00554532
5418.01991089,0.00563336
5419.94871826,0.00560380
5421.87752563,0.00554183
5423.80633301,0.00557886
5425.73514038,0.00550962
5427.66394775,0.00546197
5429.59275513,0.00536809
5431.52156250,0.00541925
5433.45036987,0.00544515
5435.37917725,0.00525556
5437.30798462,0.00545361
5439.23679199,0.00550671
5441.16559936,0.00532966
5443.09440674,0.00535611
5445.02321411,0.00534419
5446.95202148,0.00522891
5448.88082886,0.00531895
5450.80963623,0.00541463
5452.73844360,0.00534950
5454.66725098,0.00533705
5456.59605835,0.00523188
5458.52486572,0.00530365
5460.45367310,0.00519416
5462.38248047,0.00517252
5464.31128784,0.00536198
5466.24009521,0.00516810
5468.16890259,0.00519846
5470.09770996,0.00517727
5472.02651733,0.00520148
5473.95532471,0.00518308
5475.88413208,0.00501015
5477.81293945,0.00514779
5479.74174683,0.00514892
5481.67055420,0.00519624
5483.59936157,0.00516073
5485.52816895,0.00513046
5487.45697632,0.00508640
5489.38578369,0.00500389
5491.31459106,0.00510002
5493.24339844,0.00494677
5495.17220581,0.00498568
5497.10101318,0.00502077
5499.02982056,0.00497574
5500.95862793,0.00505804
5502.88743530,0.00499893
5504.81624268,0.00495807
5506.74505005,0.00488417
5508.67385742,0.00493403
5510.60266479,0.00493836
5512.53147217,0.00495846
5514.46027954,0.00502853
5516.38908691,0.00488297
5518.31789429,0.00486856
5520.24670166,0.00490766
5522.17550903,0.00484820
5524.10431641,0.00480538
5526.03312378,0.00487323
5527.96193115,0.00489967
5529.89073853,0.00484882
5531.81954590,0.00489872
5533.74835327,0.00483540
5535.67716064,0.00477318
5537.60596802,0.00479867
5539.53477539,0.00474013
5541.46358276,0.00474808
5543.39239014,0.00471860
5545.32119751,0.00471245
5547.25000488,0.00481153
5549.17881226,0.00470566
5551.10761963,0.00469812
5553.03642700,0.00475036
5554.96523437,0.00466888
5556.89404175,0.00469419
5558.82284912,0.00467556
5560.75165649,0.00466124
5562.68046387,0.00464606
5564.60927124,0.00466785
5566.53807861,0.00467896
5568.46688599,0.00465853
5570.39569336,0.00464847
5572.32450073,0.00453773
5574.25330811,0.00461136
5576.18211548,0.00458625
5578.11092285,0.00454916
5580.03973022,0.00459997
5581.96853760,0.00452020
5583.89734497,0.00455299
5585.82615234,0.00448025
5587.75495972,0.00448592
5589.68376709,0.00454384
5591.61257446,0.00449857
5593.54138184,0.00450390
5595.47018921,0.00449616
5597.39899658,0.00446469
5599.32780395,0.00438583
5601.25661133,0.00441759
5603.18541870,0.00442919
5605.11422607,0.00445039
5607.04303345,0.00445125
5608.97184082,0.00444263
5610.90064819,0.00441910
5612.82945557,0.00429684
5614.75826294,0.00440396
5616.68707031,0.00434220
5618.61587769,0.00426453
5620.54468506,0.00433999
5622.47349243,0.00430814
5624.40229980,0.00435343
5626.33110718,0.00430355
5628.25991455,0.00423923
5630.18872192,0.00423897
5632.11752930,0.00432348
5634.04633667,0.00431512
5635.97514404,0.00423242
5637.90395142,0.00419144
5639.83275879,0.00420474
5641.76156616,0.00435042
5643.69037353,0.00421219
5645.61918091,0.00418083
5647.54798828,0.00417651
5649.47679565,0.00408120
5651.40560303,0.00419735
5653.33441040,0.00412027
5655.26321777,0.00413682
5657.19202515,0.00412890
5659.12083252,0.00412068
5661.04963989,0.00418814
5662.97844727,0.00408003
5664.90725464,0.00411036
5666.83606201,0.00410770
5668.76486938,0.00410913
5670.69367676,0.00407971
5672.62248413,0.00398505
5674.55129150,0.00404181
5676.48009888,0.00405951
5678.40890625,0.00404002
5680.33771362,0.00401261
5682.26652100,0.00393927
5684.19532837,0.00392243
5686.12413574,0.00402227
5688.05294311,0.00400782
5689.98175049,0.00392715
5691.91055786,0.00395163
5693.83936523,0.00392395
5695.76817261,0.00394602
5697.69697998,0.00398574
5699.62578735,0.00391626
5701.55459473,0.00385882
5703.48340210,0.00384205
5705.41220947,0.00388976
5707.34101685,0.00391671
5709.26982422,0.00382255
5711.19863159,0.00385381
5713.12743896,0.00384246
5715.05624634,0.00375850
5716.98505371,0.00387235
5718.91386108,0.00377505
5720.84266846,0.00375194
5722.77147583,0.00384666
5724.70028320,0.00368868
5726.62909058,0.00370552
5728.55789795,0.00373409
5730.48670532,0.00373579
5732.41551270,0.00375001
5734.34432007,0.00370092
5736.27312744,0.00376018
5738.20193481,0.00368801
5740.13074219,0.00362461
5742.05954956,0.00366521
5743.98835693,0.00365751
5745.91716431,0.00365338
5747.84597168,0.00362610
5749.77477905,0.00359347
5751.70358643,0.00360581
5753.63239380,0.00364670
5755.56120117,0.00359751
5757.49000854,0.00359903
5759.41881592,0.00362605
5761.34762329,0.00354831
5763.27643066,0.00358544
5765.20523804,0.00358896
5767.13404541,0.00351398
5769.06285278,0.00351022
5770.99166016,0.00351543
5772.92046753,0.00354114
5774.84927490,0.00355440
5776.77808228,0.00354617
5778.70688965,0.00349050
5780.63569702,0.00347597
5782.56450439,0.00348132
5784.49331177,0.00346381
5786.42211914,0.00352623
5788.35092651,0.00348103
5790.27973389,0.00344986
5792.20854126,0.00344086
5794.13734863,0.00338962
5796.06615601,0.00342352
5797.99496338,0.00336555
5799.92377075,0.00340714
5801.85257812,0.00344610
5803.78138550,0.00337383
5805.71019287,0.00340720
5807.63900024,0.00334705
5809.56780762,0.00329262
5811.49661499,0.00331813
5813.42542236,0.00330647
5815.35422974,0.00329656
5817.28303711,0.00328758
5819.21184448,0.00327712
5821.14065186,0.00329739
5823.06945923,0.00331613
5824.99826660,0.00331833
5826.92707397,0.00329432
5828.85588135,0.00323755
5830.78468872,0.00328216
5832.71349609,0.00320674
5834.64230347,0.00313406
5836.57111084,0.00320472
5838.49991821,0.00311084
5840.42872559,0.00311086
5842.35753296,0.00319451
5844.28634033,0.00321214
5846.21514770,0.00320289
5848.14395508,0.00317894
5850.07276245,0.00315136
5852.00156982,0.00312701
5853.93037720,0.00316540
5855.85918457,0.00309092
5857.78799194,0.00306613
5859.71679932,0.00308959
5861.64560669,0.00310544
5863.57441406,0.00309874
5865.50322144,0.00305608
5867.43202881,0.00312342
5869.36083618,0.00303104
5871.28964355,0.00304058
5873.21845093,0.00309323
5875.14725830,0.00305645
5877.07606567,0.00305352
5879.00487305,0.00291070
5880.93368042,0.00297276
5882.86248779,0.00303277
5884.79129517,0.00296884
5886.72010254,0.00297894
5888.64890991,0.00301088
5890.57771728,0.00296411
5892.50652466,0.00289732
5894.43533203,0.00302319
5896.36413940,0.00298923
5898.29294678,0.00295840
5900.22175415,0.00299906
5902.15056152,0.00291869
5904.07936890,0.00286239
5906.00817627,0.00285052
5907.93698364,0.00294980
5909.86579102,0.00294427
5911.79459839,0.00291109
5913.72340576,0.00286177
5915.65221313,0.00286640
5917.58102051,0.00294256
5919.50982788,0.00285765
5921.43863525,0.00285321
5923.36744263,0.00282531
5925.29625000,0.00280309
5927.22505737,0.00282190
5929.15386475,0.00282283
5931.08267212,0.00287092
5933.01147949,0.00280039
5934.94028686,0.00276568
5936.86909424,0.00281131
5938.79790161,0.00277876
5940.72670898,0.00275101
5942.65551636,0.00280075
5944.58432373,0.00275274
5946.51313110,0.00274083
5948.44193848,0.00274341
5950.37074585,0.00269385
5952.29955322,0.00275574
5954.22836060,0.00266173
5956.15716797,0.00266467
5958.08597534,0.00271827
5960.01478271,0.00266541
5961.94359009,0.00271781
5963.87239746,0.00269600
5965.80120483,0.00273304
5967.73001221,0.00272694
5969.65881958,0.00267533
5971.58762695,0.00268678
5973.51643433,0.00265077
5975.44524170,0.00261795
5977.37404907,0.00260826
5979.30285645,0.00265560
5981.23166382,0.00266169
5983.16047119,0.00264943
5985.08927856,0.00263493
5987.01808594,0.00263489
5988.94689331,0.00261148
5990.87570068,0.00260203
5992.80450806,0.00262524
5994.73331543,0.00257099
5996.66212280,0.00258255
5998.59093018,0.00255491
6000.51973755,0.00255730
