399.26312622,0.00161613
401.19193359,0.00196792
403.12074097,0.00242137
405.04954834,0.00231833
406.97835571,0.00252202
408.90716309,0.00277242
410.83597046,0.00268910
412.76477783,0.00277149
414.69358521,0.00313436
416.62239258,0.00300563
418.55119995,0.00251799
420.48000732,0.00293167
422.40881470,0.00271735
424.33762207,0.00279010
426.26642944,0.00295505
428.19523682,0.00290655
430.12404419,0.00350012
432.05285156,0.00275254
433.98165894,0.00295188
435.91046631,0.00310014
437.83927368,0.00267306
439.76808105,0.00332082
441.69688843,0.00283306
443.62569580,0.00285917
445.55450317,0.00285012
447.48331055,0.00246240
449.41211792,0.00279354
451.34092529,0.00258664
453.26973267,0.00247235
455.19854004,0.00226661
457.12734741,0.00201703
459.05615479,0.00197346
460.98496216,0.00167049
462.91376953,0.00155528
464.84257690,0.00196862
466.77138428,0.00184818
468.70019165,0.00152499
470.62899902,0.00179468
472.55780640,0.00120534
474.48661377,0.00065942
476.41542114,0.00116786
478.34422852,0.00147867
480.27303589,0.00105807
482.20184326,0.00103956
484.13065063,0.00090806
486.05945801,0.00014399
487.98826538,0.00061786
489.91707275,0.00086364
491.84588013,0.00068464
493.77468750,0.00066721
495.70349487,0.00050115
497.63230225,0.00077979
499.56110962,0.00015467
501.48991699,0.00018681
503.41872437,0.00094167
505.34753174,0.00063687
507.27633911,0.00053345
509.20514648,0.00038161
511.13395386,0.00037888
513.06276123,0.00050965
514.99156860,0.00043158
516.92037598,0.00072525
518.84918335,0.00052412
520.77799072,0.00044533
522.70679810,0.00057750
524.63560547,0.00005151
526.56441284,0.00051593
528.49322021,0.00058933
530.42202759,0.00012961
532.35083496,0.00021539
534.27964233,0.00001660
536.20844971,0.00004836
538.13725708,0.00033212
540.06606445,0.00035904
541.99487183,0.00021063
543.92367920,0.00043015
545.85248657,0.00052921
547.78129395,0.00037824
549.71010132,0.00045330
551.63890869,0.00044185
553.56771606,0.00050591
555.49652344,0.00040065
557.42533081,0.00054908
559.35413818,0.00054621
561.28294556,0.00035663
563.21175293,0.00042422
565.14056030,0.00005336
567.06936768,0.00052920
568.99817505,0.00043891
570.92698242,-0.00001164
572.85578979,0.00063403
574.78459717,0.00026277
576.71340454,0.00011393
578.64221191,0.00033044
580.57101929,0.00041855
582.49982666,0.00048395
584.42863403,0.00030729
586.35744141,0.00060818
588.28624878,-0.00001913
590.21505615,-0.00018103
592.14386353,0.00063095
594.07267090,0.00060545
596.00147827,0.00025783
597.93028564,0.00026438
599.85909302,0.00008832
601.78790039,0.00007039
603.71670776,0.00019362
605.64551514,0.00007472
607.57432251,0.00016623
609.50312988,0.00036002
611.43193726,0.00043396
613.36074463,0.00016064
615.28955200,0.00010187
617.21835938,0.00027140
619.14716675,0.00020811
621.07597412,0.00022688
623.00478149,0.00002609
624.93358887,-0.00017016
626.86239624,0.00022571
628.79120361,0.00057633
630.72001099,0.00098297
632.64881836,0.00180473
634.57762573,0.00218776
636.50643311,0.00221797
638.43524048,0.00222712
640.36404785,0.00218840
642.29285522,0.00272152
644.22166260,0.00324113
646.15046997,0.00338967
648.07927734,0.00334576
650.00808472,0.00332319
651.93689209,0.00340379
653.86569946,0.00356487
655.79450684,0.00392548
657.72331421,0.00381643
659.65212158,0.00409361
661.58092896,0.00459391
663.50973633,0.00474467
665.43854370,0.00464148
667.36735107,0.00416252
669.29615845,0.00470246
671.22496582,0.00532796
673.15377319,0.00552257
675.08258057,0.00549956
677.01138794,0.00550944
678.94019531,0.00597130
680.86900269,0.00599415
682.79781006,0.00614068
684.72661743,0.00574423
686.65542480,0.00576742
688.58423218,0.00615472
690.51303955,0.00600235
692.44184692,0.00661432
694.37065430,0.00673652
696.29946167,0.00763731
698.22826904,0.00893599
700.15707642,0.00913910
702.08588379,0.00920640
704.01469116,0.00847027
705.94349854,0.00751428
707.87230591,0.00634779
709.80111328,0.00495149
711.72992065,0.00362389
713.65872803,0.00221806
715.58753540,0.00133927
717.51634277,0.00127780
719.44515015,0.00100619
721.37395752,0.00057370
723.30276489,0.00081131
725.23157227,0.00020267
727.16037964,0.00010090
729.08918701,0.00039926
731.01799438,-0.00002911
732.94680176,0.00031172
734.87560913,0.00051927
736.80441650,0.00048330
738.73322388,0.00016474
740.66203125,0.00041253
742.59083862,0.00046388
744.51964600,0.00006150
746.44845337,0.00053085
748.37726074,0.00005593
750.30606812,0.00031297
752.23487549,0.00058654
754.16368286,0.00019163
756.09249023,0.00089249
758.02129761,0.00071021
759.95010498,0.00048178
761.87891235,0.00082222
763.80771973,0.00054557
765.73652710,0.00028201
767.66533447,0.00043119
769.59414185,0.00040136
771.52294922,0.00041745
773.45175659,0.00063935
775.38056396,0.00069413
777.30937134,0.00082083
779.23817871,0.00074160
781.16698608,0.00068769
783.09579346,0.00058640
785.02460083,0.00066648
786.95340820,0.00072698
788.88221558,0.00062295
790.81102295,0.00098302
792.73983032,0.00083631
794.66863770,0.00079148
796.59744507,0.00093987
798.52625244,0.00118829
800.45505981,0.00152009
802.38386719,0.00126166
804.31267456,0.00114489
806.24148193,0.00081496
808.17028931,0.00079646
810.09909668,0.00082913
812.02790405,0.00061976
813.95671143,0.00051335
815.88551880,0.00039390
817.81432617,0.00082841
819.74313354,0.00078907
821.67194092,0.00069868
823.60074829,0.00091492
825.52955566,0.00104550
827.45836304,0.00100072
829.38717041,0.00098206
831.31597778,0.00161817
833.24478516,0.00174964
835.17359253,0.00187231
837.10239990,0.00212989
839.03120728,0.00200831
840.96001465,0.00206254
842.88882202,0.00198878
844.81762939,0.00163241
846.74643677,0.00155507
848.67524414,0.00180063
850.60405151,0.00140558
852.53285889,0.00127250
854.46166626,0.00123429
856.39047363,0.00085669
858.31928101,0.00095617
860.24808838,0.00102731
862.17689575,0.00103177
864.10570313,0.00061036
866.03451050,0.00054453
867.96331787,0.00065214
869.89212524,0.00037844
871.82093262,0.00044913
873.74973999,0.00055076
875.67854736,0.00077148
877.60735474,0.00063544
879.53616211,0.00066443
881.46496948,0.00076902
883.39377686,0.00051571
885.32258423,0.00071943
887.25139160,0.00075102
889.18019897,0.00058485
891.10900635,0.00049952
893.03781372,0.00046723
894.96662109,0.00064990
896.89542847,0.00073872
898.82423584,0.00048995
900.75304321,0.00041773
902.68185059,0.00068618
904.61065796,0.00081368
906.53946533,0.00098060
908.46827271,0.00105651
910.39708008,0.00099789
912.32588745,0.00107344
914.25469482,0.00120806
916.18350220,0.00113836
918.11230957,0.00117610
920.04111694,0.00154443
921.96992432,0.00172155
923.89873169,0.00180884
925.82753906,0.00177591
927.75634644,0.00207675
929.68515381,0.00243517
931.61396118,0.00220152
933.54276855,0.00228430
935.47157593,0.00263644
937.40038330,0.00292322
939.32919067,0.00299489
941.25799805,0.00296686
943.18680542,0.00309917
945.11561279,0.00316100
947.04442017,0.00328454
948.97322754,0.00324022
950.90203491,0.00295698
952.83084229,0.00294806
954.75964966,0.00308779
956.68845703,0.00295659
958.61726440,0.00286395
960.54607178,0.00289407
962.47487915,0.00306738
964.40368652,0.00301824
966.33249390,0.00285242
968.26130127,0.00337933
970.19010864,0.00356951
972.11891602,0.00361483
974.04772339,0.00387788
975.97653076,0.00393128
977.90533813,0.00440345
979.83414551,0.00483998
981.76295288,0.00522939
983.69176025,0.00582494
985.62056763,0.00640408
987.54937500,0.00706550
989.47818237,0.00793711
991.40698975,0.00866866
993.33579712,0.00940803
995.26460449,0.01047605
997.19341187,0.01110333
999.12221924,0.01179020
1001.05102661,0.01280948
1002.97983398,0.01389954
1004.90864136,0.01467422
1006.83744873,0.01524047
1008.76625610,0.01639428
1010.69506348,0.01733740
1012.62387085,0.01831709
1014.55267822,0.01928998
1016.48148560,0.02014055
1018.41029297,0.02125495
1020.33910034,0.02238024
1022.26790771,0.02343662
1024.19671509,0.02395585
1026.12552246,0.02490352
1028.05432983,0.02587165
1029.98313721,0.02658935
1031.91194458,0.02745545
1033.84075195,0.02781808
1035.76955933,0.02830523
1037.69836670,0.02844158
1039.62717407,0.02867924
1041.55598145,0.02891643
1043.48478882,0.02853531
1045.41359619,0.02839852
1047.34240356,0.02789955
1049.27121094,0.02735501
1051.20001831,0.02695195
1053.12882568,0.02638344
1055.05763306,0.02586245
1056.98644043,0.02525543
1058.91524780,0.02472758
1060.84405518,0.02400602
1062.77286255,0.02324633
1064.70166992,0.02267697
1066.63047729,0.02173096
1068.55928467,0.02078287
1070.48809204,0.02003561
1072.41689941,0.01903974
1074.34570679,0.01838968
1076.27451416,0.01754835
1078.20332153,0.01655818
1080.13212891,0.01599056
1082.06093628,0.01513274
1083.98974365,0.01448162
1085.91855103,0.01370904
1087.84735840,0.01314480
1089.77616577,0.01272894
1091.70497314,0.01183575
1093.63378052,0.01154475
1095.56258789,0.01118382
1097.49139526,0.01075528
1099.42020264,0.01045133
1101.34901001,0.01023732
1103.27781738,0.01025978
1105.20662476,0.00996874
1107.13543213,0.00970599
1109.06423950,0.00925274
1110.99304687,0.00913741
1112.92185425,0.00921474
1114.85066162,0.00908417
1116.77946899,0.00923465
1118.70827637,0.00912698
1120.63708374,0.00908405
1122.56589111,0.00916318
1124.49469849,0.00945240
1126.42350586,0.00986821
1128.35231323,0.00963597
1130.28112061,0.00967721
1132.20992798,0.01019079
1134.13873535,0.01044278
1136.06754272,0.01087531
1137.99635010,0.01145736
1139.92515747,0.01205338
1141.85396484,0.01280298
1143.78277222,0.01352114
1145.71157959,0.01445147
1147.64038696,0.01538748
1149.56919434,0.01614254
1151.49800171,0.01685581
1153.42680908,0.01766932
1155.35561646,0.01855956
1157.28442383,0.01931022
1159.21323120,0.02006176
1161.14203857,0.02076761
1163.07084595,0.02170211
1164.99965332,0.02241934
1166.92846069,0.02321014
1168.85726807,0.02435709
1170.78607544,0.02500789
1172.71488281,0.02589514
1174.64369019,0.02677989
1176.57249756,0.02773985
1178.50130493,0.02887348
1180.43011230,0.02984029
1182.35891968,0.03121751
1184.28772705,0.03254952
1186.21653442,0.03408369
1188.14534180,0.03561273
1190.07414917,0.03730633
1192.00295654,0.03914121
1193.93176392,0.04062929
1195.86057129,0.04266586
1197.78937866,0.04456558
1199.71818604,0.04640587
1201.64699341,0.04863929
1203.57580078,0.05055951
1205.50460815,0.05231630
1207.43341553,0.05434331
1209.36222290,0.05643409
1211.29103027,0.05804939
1213.21983765,0.05958355
1215.14864502,0.06115706
1217.07745239,0.06242926
1219.00625977,0.06351359
1220.93506714,0.06456494
1222.86387451,0.06532490
1224.79268188,0.06594512
1226.72148926,0.06660512
1228.65029663,0.06697030
1230.57910400,0.06725083
1232.50791138,0.06736664
1234.43671875,0.06748457
1236.36552612,0.06741547
1238.29433350,0.06730279
1240.22314087,0.06727648
1242.15194824,0.06669238
1244.08075562,0.06647483
1246.00956299,0.06632673
1247.93837036,0.06581189
1249.86717773,0.06539991
1251.79598511,0.06487069
1253.72479248,0.06425516
1255.65359985,0.06340593
1257.58240723,0.06252912
1259.51121460,0.06153277
1261.44002197,0.06056623
1263.36882935,0.05976128
1265.29763672,0.05895746
1267.22644409,0.05831894
1269.15525146,0.05748375
1271.08405884,0.05654161
1273.01286621,0.05568860
1274.94167358,0.05477026
1276.87048096,0.05361442
1278.79928833,0.05245766
1280.72809570,0.05136421
1282.65690308,0.05023823
1284.58571045,0.04943401
1286.51451782,0.04863752
1288.44332520,0.04773160
1290.37213257,0.04711841
1292.30093994,0.04666319
1294.22974731,0.04617996
1296.15855469,0.04606453
1298.08736206,0.04599225
1300.01616943,0.04585734
1301.94497681,0.04611778
1303.87378418,0.04654334
1305.80259155,0.04716325
1307.73139893,0.04765186
1309.66020630,0.04842108
1311.58901367,0.04924041
1313.51782104,0.04994047
1315.44662842,0.05144232
1317.37543579,0.05251624
1319.30424316,0.05348476
1321.23305054,0.05525739
1323.16185791,0.05715388
1325.09066528,0.05886397
1327.01947266,0.06036415
1328.94828003,0.06196418
1330.87708740,0.06361318
1332.80589478,0.06523554
1334.73470215,0.06643213
1336.66350952,0.06702004
1338.59231689,0.06636538
1340.52112427,0.06691550
1342.44993164,0.06984367
1344.37873901,0.07049020
1346.30754639,0.07033257
1348.23635376,0.07033910
1350.16516113,0.06961240
1352.09396851,0.06966045
1354.02277588,0.06878777
1355.95158325,0.06828411
1357.88039062,0.06782393
1359.80919800,0.06664424
1361.73800537,0.06386735
1363.66681274,0.06248549
1365.59562012,0.06591859
1367.52442749,0.06466433
1369.45323486,0.06354983
1371.38204224,0.06491966
1373.31084961,0.06132925
1375.23965698,0.06153380
1377.16846436,0.06331600
1379.09727173,0.06304058
1381.02607910,0.06311942
1382.95488647,0.06310423
1384.88369385,0.06315407
1386.81250122,0.06009953
1388.74130859,0.06082241
1390.67011597,0.06596212
1392.59892334,0.06417215
1394.52773071,0.05977321
1396.45653809,0.06296906
1398.38534546,0.06301832
1400.31415283,0.06251709
1402.24296021,0.06802003
1404.17176758,0.06400122
1406.10057495,0.06431939
1408.02938232,0.06746255
1409.95818970,0.06452408
1411.88699707,0.06601939
1413.81580444,0.06366617
1415.74461182,0.06475800
1417.67341919,0.05855933
1419.60222656,0.05147586
1421.53103394,0.05990202
1423.45984131,0.05830415
1425.38864868,0.05633431
1427.31745605,0.05737630
1429.24626343,0.05271737
1431.17507080,0.05127360
1433.10387817,0.05222288
1435.03268555,0.04783533
1436.96149292,0.03994531
1438.89030029,0.04538673
1440.81910767,0.04708711
1442.74791504,0.04319316
1444.67672241,0.04558104
1446.60552979,0.04170953
1448.53433716,0.04227486
1450.46314453,0.04387680
1452.39195190,0.04441782
1454.32075928,0.04637549
1456.24956665,0.03792071
1458.17837402,0.03917841
1460.10718140,0.05286509
1462.03598877,0.05674253
1463.96479614,0.05622728
1465.89360352,0.05824987
1467.82241089,0.06668015
1469.75121826,0.07213843
1471.68002563,0.06367689
1473.60883301,0.06649767
1475.53764038,0.07650734
1477.46644775,0.08260682
1479.39525513,0.09110010
1481.32406250,0.09251566
1483.25286987,0.09846661
1485.18167725,0.10186715
1487.11048462,0.09973215
1489.03929199,0.09916186
1490.96809937,0.09944794
1492.89690674,0.11657502
1494.82571411,0.11468397
1496.75452148,0.10199030
1498.68332886,0.11600868
1500.61213623,0.12007225
1502.54094360,0.12875408
1504.46975098,0.12276638
1506.39855835,0.08728875
1508.32736572,0.10632284
1510.25617310,0.12746957
1512.18498047,0.12292798
1514.11378784,0.13402390
1516.04259521,0.12041195
1517.97140259,0.12520266
1519.90020996,0.12195346
1521.82901733,0.10378695
1523.75782471,0.12838580
1525.68663208,0.12662134
1527.61543945,0.12522919
1529.54424683,0.13991250
1531.47305420,0.13457622
1533.40186157,0.12279661
1535.33066895,0.12978965
1537.25947632,0.14060858
1539.18828369,0.09922343
1541.11709106,0.10205382
1543.04589844,0.12504207
1544.97470581,0.11894812
1546.90351318,0.14247200
1548.83232056,0.13305461
1550.76112793,0.13644102
1552.68993530,0.13697070
1554.61874268,0.12276214
1556.54755005,0.13263643
1558.47635742,0.09230246
1560.40516479,0.09769347
1562.33397217,0.14355938
1564.26277954,0.13586420
1566.19158691,0.13923669
1568.12039429,0.13871390
1570.04920166,0.12162592
1571.97800903,0.14076385
1573.90681641,0.14403018
1575.83562378,0.11242709
1577.76443115,0.12706158
1579.69323853,0.14552231
1581.62204590,0.13869712
1583.55085327,0.14237480
1585.47966064,0.14039147
1587.40846802,0.14150384
1589.33727539,0.14009529
1591.26608276,0.13998812
1593.19489014,0.14059454
1595.12369751,0.13852067
1597.05250488,0.14068848
1598.98131226,0.13972029
1600.91011963,0.14064613
1602.83892700,0.13804513
1604.76773437,0.14050779
1606.69654175,0.13845804
1608.62534912,0.13792297
1610.55415649,0.13818963
1612.48296387,0.13852930
1614.41177124,0.14130297
1616.34057861,0.11437481
1618.26938599,0.12314371
1620.19819336,0.14587446
1622.12700073,0.12858039
1624.05580811,0.12886091
1625.98461548,0.13578430
1627.91342285,0.13503239
1629.84223022,0.13414353
1631.77103760,0.14356245
1633.69984497,0.13294283
1635.62865234,0.10773909
1637.55745972,0.12578499
1639.48626709,0.14024517
1641.41507446,0.13662571
1643.34388184,0.14047915
1645.27268921,0.12647824
1647.20149658,0.10949659
1649.13030396,0.13727476
1651.05911133,0.13213347
1652.98791870,0.08207887
1654.91672607,0.11159414
1656.84553345,0.14391083
1658.77434082,0.13727303
1660.70314819,0.14142659
1662.63195557,0.12794951
1664.56076294,0.13458259
1666.48957031,0.14596534
1668.41837769,0.12676877
1670.34718506,0.12218711
1672.27599243,0.13956860
1674.20479980,0.12899289
1676.13360718,0.12238880
1678.06241455,0.14248401
1679.99122192,0.13738826
1681.92002930,0.13547286
1683.84883667,0.10980879
1685.77764404,0.10653955
1687.70645142,0.14978150
1689.63525879,0.12987895
1691.56406616,0.14173308
1693.49287354,0.14691821
1695.42168091,0.10474511
1697.35048828,0.13008530
1699.27929565,0.11502042
1701.20810303,0.10076661
1703.13691040,0.14104611
1705.06571777,0.12955514
1706.99452515,0.12957159
1708.92333252,0.14239272
1710.85213989,0.13626234
1712.78094727,0.13883112
1714.70975464,0.12866795
1716.63856201,0.11463104
1718.56736938,0.11212318
1720.49617676,0.13395897
1722.42498413,0.14054751
1724.35379150,0.12942770
1726.28259888,0.14152628
1728.21140625,0.13066684
1730.14021362,0.13089034
1732.06902100,0.12874436
1733.99782837,0.09593671
1735.92663574,0.11977482
1737.85544312,0.13474718
1739.78425049,0.11863583
1741.71305786,0.12932496
1743.64186523,0.13162106
1745.57067261,0.13162741
1747.49947998,0.13277200
1749.42828735,0.12712175
1751.35709473,0.12083430
1753.28590210,0.13422748
1755.21470947,0.14191392
1757.14351685,0.12804040
1759.07232422,0.14145073
1761.00113159,0.13338016
1762.92993896,0.12710230
1764.85874634,0.14724660
1766.78755371,0.13222432
1768.71636108,0.13274635
1770.64516846,0.13262266
1772.57397583,0.11796804
1774.50278320,0.13211748
1776.43159058,0.14060786
1778.36039795,0.13855445
1780.28920532,0.13661042
1782.21801270,0.13766769
1784.14682007,0.13754933
1786.07562744,0.13444188
1788.00443481,0.14190936
1789.93324219,0.13861609
1791.86204956,0.12433465
1793.79085693,0.12953487
1795.71966431,0.13995707
1797.64847168,0.13830234
1799.57727905,0.13590643
1801.50608643,0.13320151
1803.43489380,0.13764159
1805.36370117,0.14108589
1807.29250854,0.13917682
1809.22131592,0.13968733
1811.15012329,0.13564254
1813.07893066,0.13999692
1815.00773804,0.14084995
1816.93654541,0.13904254
1818.86535278,0.14039081
1820.79416016,0.13958350
1822.72296753,0.14179787
1824.65177490,0.13204485
1826.58058228,0.13677794
1828.50938965,0.13756880
1830.43819702,0.12816754
1832.36700439,0.14013346
1834.29581177,0.13950127
1836.22461914,0.13899581
1838.15342651,0.13866773
1840.08223389,0.13956547
1842.01104126,0.14025930
1843.93984863,0.12323888
1845.86865601,0.13134632
1847.79746338,0.13958815
1849.72627075,0.13618368
1851.65507812,0.14059697
1853.58388550,0.13761821
1855.51269287,0.13901761
1857.44150024,0.13839124
1859.37030762,0.13746616
1861.29911499,0.13851941
1863.22792236,0.13677421
1865.15672974,0.13843624
1867.08553711,0.13357766
1869.01434448,0.12757051
1870.94315186,0.13273636
1872.87195923,0.13831562
1874.80076660,0.13611920
1876.72957397,0.13678116
1878.65838135,0.13648510
1880.58718872,0.13559000
1882.51599609,0.13700493
1884.44480347,0.13462777
1886.37361084,0.13667680
1888.30241821,0.13345666
1890.23122559,0.13033028
1892.16003296,0.13570091
1894.08884033,0.13383025
1896.01764771,0.13329838
1897.94645508,0.13493893
1899.87526245,0.13417909
1901.80406982,0.13442028
1903.73287720,0.13348499
1905.66168457,0.13425243
1907.59049194,0.13284977
1909.51929932,0.13198560
1911.44810669,0.13269889
1913.37691406,0.13280630
1915.30572144,0.13421226
1917.23452881,0.12811193
1919.16333618,0.12802112
1921.09214355,0.13322078
1923.02095093,0.12893400
1924.94975830,0.13139722
1926.87856567,0.13302702
1928.80737305,0.13132012
1930.73618042,0.13308778
1932.66498779,0.13125820
1934.59379517,0.13247010
1936.52260254,0.13169533
1938.45140991,0.13193172
1940.38021729,0.13207363
1942.30902466,0.12747793
1944.23783203,0.12973464
1946.16663940,0.13142532
1948.09544678,0.13085638
1950.02425415,0.13137801
1951.95306152,0.13100733
1953.88186890,0.13111159
1955.81067627,0.13070060
1957.73948364,0.13107228
1959.66829102,0.13088122
1961.59709839,0.13058567
1963.52590576,0.13082710
1965.45471313,0.13017358
1967.38352051,0.12876922
1969.31232788,0.12977719
1971.24113525,0.13080347
1973.16994263,0.12967664
1975.09875000,0.13035469
1977.02755737,0.12971464
1978.95636475,0.12969393
1980.88517212,0.12982439
1982.81397949,0.12911928
1984.74278687,0.12971124
1986.67159424,0.12858522
1988.60040161,0.12891100
1990.52920898,0.12776595
1992.45801636,0.12612569
1994.38682373,0.12823436
1996.31563110,0.12853557
1998.24443848,0.12781227
2000.17324585,0.12788774
2002.10205322,0.12753555
2004.03086060,0.12731780
2005.95966797,0.12724027
2007.88847534,0.12683839
2009.81728271,0.12671191
2011.74609009,0.12654325
2013.67489746,0.12657802
2015.60370483,0.12583929
2017.53251221,0.12448479
2019.46131958,0.12530662
2021.39012695,0.12532482
2023.31893433,0.12491823
2025.24774170,0.12494178
2027.17654907,0.12433551
2029.10535645,0.12449062
2031.03416382,0.12414297
2032.96297119,0.12397949
2034.89177856,0.12363078
2036.82058594,0.12335511
2038.74939331,0.12333471
2040.67820068,0.12243555
2042.60700806,0.12230740
2044.53581543,0.12242248
2046.46462280,0.12214004
2048.39343018,0.12199245
2050.32223755,0.12195490
2052.25104492,0.12163681
2054.17985229,0.12137201
2056.10865967,0.12119603
2058.03746704,0.12089058
2059.96627441,0.12072645
2061.89508179,0.12049880
2063.82388916,0.11994865
2065.75269653,0.11935003
2067.68150391,0.11990192
2069.61031128,0.11985943
2071.53911865,0.11935478
2073.46792603,0.11932456
2075.39673340,0.11885563
2077.32554077,0.11885067
2079.25434814,0.11854549
2081.18315552,0.11844979
2083.11196289,0.11821393
2085.04077026,0.11784695
2086.96957764,0.11790186
2088.89838501,0.11738212
2090.82719238,0.11729835
2092.75599976,0.11732444
2094.68480713,0.11721157
2096.61361450,0.11676397
2098.54242187,0.11662351
2100.47122925,0.11656766
2102.40003662,0.11620405
2104.32884399,0.11632780
2106.25765137,0.11595757
2108.18645874,0.11585070
2110.11526611,0.11560881
2112.04407349,0.11537953
2113.97288086,0.11522123
2115.90168823,0.11486111
2117.83049561,0.11491521
2119.75930298,0.11461495
2121.68811035,0.11470136
2123.61691772,0.11442484
2125.54572510,0.11429082
2127.47453247,0.11425149
2129.40333984,0.11384674
2131.33214722,0.11395462
2133.26095459,0.11354494
2135.18976196,0.11347398
2137.11856934,0.11344161
2139.04737671,0.11334333
2140.97618408,0.11326189
2142.90499146,0.11295434
2144.83379883,0.11281898
2146.76260620,0.11257597
2148.69141357,0.11270609
2150.62022095,0.11250535
2152.54902832,0.11243272
2154.47783569,0.11231242
2156.40664307,0.11194236
2158.33545044,0.11189868
2160.26425781,0.11184088
2162.19306519,0.11186705
2164.12187256,0.11161466
2166.05067993,0.11160121
2167.97948730,0.11130093
2169.90829468,0.11110872
2171.83710205,0.11111425
2173.76590942,0.11077928
2175.69471680,0.11084805
2177.62352417,0.11076093
2179.55233154,0.11075336
2181.48113892,0.11046605
2183.40994629,0.11028893
2185.33875366,0.11023860
2187.26756104,0.11002244
2189.19636841,0.11011766
2191.12517578,0.10980918
2193.05398315,0.10976629
2194.98279053,0.10974727
2196.91159790,0.10951437
2198.84040527,0.10930313
2200.76921265,0.10924476
2202.69802002,0.10925653
2204.62682739,0.10902533
2206.55563477,0.10898554
2208.48444214,0.10872637
2210.41324951,0.10865162
2212.34205688,0.10849288
2214.27086426,0.10821569
2216.19967163,0.10813681
2218.12847900,0.10805610
2220.05728638,0.10802187
2221.98609375,0.10774601
2223.91490112,0.10769135
2225.84370850,0.10753191
2227.77251587,0.10751669
2229.70132324,0.10737190
2231.63013062,0.10718099
2233.55893799,0.10712084
2235.48774536,0.10664268
2237.41655273,0.10673133
2239.34536011,0.10662052
2241.27416748,0.10635372
2243.20297485,0.10608545
2245.13178223,0.10589881
2247.06058960,0.10602584
2248.98939697,0.10575620
2250.91820435,0.10564311
2252.84701172,0.10534257
2254.77581909,0.10524917
2256.70462646,0.10518413
2258.63343384,0.10497773
2260.56224121,0.10489048
2262.49104858,0.10471810
2264.41985596,0.10472019
2266.34866333,0.10440674
2268.27747070,0.10437748
2270.20627808,0.10417087
2272.13508545,0.10405907
2274.06389282,0.10410140
2275.99270020,0.10367787
2277.92150757,0.10376529
2279.85031494,0.10374829
2281.77912231,0.10355639
2283.70792969,0.10339065
2285.63673706,0.10332420
2287.56554443,0.10305376
2289.49435181,0.10276690
2291.42315918,0.10258554
2293.35196655,0.10211036
2295.28077393,0.10195905
2297.20958130,0.10153820
2299.13838867,0.10138184
2301.06719604,0.10094777
2302.99600342,0.10030617
2304.92481079,0.10011075
2306.85361816,0.09923342
2308.78242554,0.09860708
2310.71123291,0.09775200
2312.64004028,0.09662347
2314.56884766,0.09569447
2316.49765503,0.09454951
2318.42646240,0.09329920
2320.35526978,0.09189956
2322.28407715,0.09053478
2324.21288452,0.08921029
2326.14169189,0.08838072
2328.07049927,0.08726112
2329.99930664,0.08601795
2331.92811401,0.08540434
2333.85692139,0.08502947
2335.78572876,0.08464580
2337.71453613,0.08445901
2339.64334351,0.08453075
2341.57215088,0.08466977
2343.50095825,0.08596089
2345.42976562,0.08766022
2347.35857300,0.09146404
2349.28738037,0.09478988
2351.21618774,0.09151739
2353.14499512,0.08664818
2355.07380249,0.08324891
2357.00260986,0.08048385
2358.93141724,0.07894383
2360.86022461,0.07804354
2362.78903198,0.07790090
2364.71783936,0.07819924
2366.64664673,0.07936299
2368.57545410,0.08110370
2370.50426147,0.08326279
2372.43306885,0.08553906
2374.36187622,0.08806789
2376.29068359,0.09076017
2378.21949097,0.09276999
2380.14829834,0.09456554
2382.07710571,0.09558357
2384.00591309,0.09638928
2385.93472046,0.09672539
2387.86352783,0.09675723
2389.79233521,0.09693782
2391.72114258,0.09655947
2393.64994995,0.09657063
2395.57875732,0.09644043
2397.50756470,0.09632777
2399.43637207,0.09613250
2401.36517944,0.09595826
2403.29398682,0.09606996
2405.22279419,0.09568247
2407.15160156,0.09574641
2409.08040894,0.09570940
2411.00921631,0.09549146
2412.93802368,0.09548699
2414.86683105,0.09531346
2416.79563843,0.09508124
2418.72444580,0.09495088
2420.65325317,0.09498545
2422.58206055,0.09479026
2424.51086792,0.09467889
2426.43967529,0.09453804
2428.36848267,0.09447837
2430.29729004,0.09437880
2432.22609741,0.09420629
2434.15490479,0.09417539
2436.08371216,0.09397503
2438.01251953,0.09396933
2439.94132690,0.09381715
2441.87013428,0.09370014
2443.79894165,0.09356807
2445.72774902,0.09337834
2447.65655640,0.09333658
2449.58536377,0.09325783
2451.51417114,0.09319007
2453.44297852,0.09284962
2455.37178589,0.09288719
2457.30059326,0.09276351
2459.22940063,0.09253877
2461.15820801,0.09253154
2463.08701538,0.09232368
2465.01582275,0.09235122
2466.94463013,0.09200095
2468.87343750,0.09198591
2470.80224487,0.09204122
2472.73105225,0.09171411
2474.65985962,0.09172698
2476.58866699,0.09150814
2478.51747437,0.09138706
2480.44628174,0.09132884
2482.37508911,0.09124212
2484.30389648,0.09117863
2486.23270386,0.09100267
2488.16151123,0.09087415
2490.09031860,0.09071971
2492.01912598,0.09071033
2493.94793335,0.09065293
2495.87674072,0.09046339
2497.80554810,0.09030081
2499.73435547,0.09021109
2501.66316284,0.09007891
2503.59197021,0.08998637
2505.52077759,0.08990690
2507.44958496,0.08978695
2509.37839233,0.08971770
2511.30719971,0.08950655
2513.23600708,0.08940597
2515.16481445,0.08935681
2517.09362183,0.08924630
2519.02242920,0.08911383
2520.95123657,0.08902943
2522.88004395,0.08887073
2524.80885132,0.08867797
2526.73765869,0.08871097
2528.66646606,0.08848481
2530.59527344,0.08843896
2532.52408081,0.08842106
2534.45288818,0.08826774
2536.38169556,0.08830872
2538.31050293,0.08800770
2540.23931030,0.08785098
2542.16811768,0.08782179
2544.09692505,0.08772854
2546.02573242,0.08764344
2547.95453979,0.08749844
2549.88334717,0.08743650
2551.81215454,0.08726887
2553.74096191,0.08716168
2555.66976929,0.08704357
2557.59857666,0.08689480
2559.52738403,0.08681449
2561.45619141,0.08678012
2563.38499878,0.08668288
2565.31380615,0.08646394
2567.24261353,0.08628041
2569.17142090,0.08622219
2571.10022827,0.08625637
2573.02903564,0.08611284
2574.95784302,0.08601812
2576.88665039,0.08584830
2578.81545776,0.08569647
2580.74426514,0.08566123
2582.67307251,0.08541543
2584.60187988,0.08539265
2586.53068726,0.08538046
2588.45949463,0.08524092
2590.38830200,0.08507611
2592.31710937,0.08491229
2594.24591675,0.08486046
2596.17472412,0.08480370
2598.10353149,0.08469272
2600.03233887,0.08449964
2601.96114624,0.08446946
2603.88995361,0.08439438
2605.81876099,0.08426212
2607.74756836,0.08411661
2609.67637573,0.08406154
2611.60518311,0.08396161
2613.53399048,0.08368833
2615.46279785,0.08378613
2617.39160522,0.08362417
2619.32041260,0.08346812
2621.24921997,0.08344634
2623.17802734,0.08322162
2625.10683472,0.08323355
2627.03564209,0.08301273
2628.96444946,0.08292691
2630.89325684,0.08290210
2632.82206421,0.08272347
2634.75087158,0.08264828
2636.67967895,0.08243132
2638.60848633,0.08239110
2640.53729370,0.08233906
2642.46610107,0.08214565
2644.39490845,0.08204979
2646.32371582,0.08194145
2648.25252319,0.08177006
2650.18133057,0.08172217
2652.11013794,0.08164646
2654.03894531,0.08150485
2655.96775269,0.08146985
2657.89656006,0.08129932
2659.82536743,0.08114216
2661.75417480,0.08106899
2663.68298218,0.08108094
2665.61178955,0.08094501
2667.54059692,0.08071911
2669.46940430,0.08070686
2671.39821167,0.08053286
2673.32701904,0.08036081
2675.25582642,0.08031926
2677.18463379,0.08022358
2679.11344116,0.07997090
2681.04224854,0.07988098
2682.97105591,0.07991381
2684.89986328,0.07979782
2686.82867065,0.07978503
2688.75747803,0.07960024
2690.68628540,0.07952163
2692.61509277,0.07945178
2694.54390015,0.07917964
2696.47270752,0.07912340
2698.40151489,0.07910383
2700.33032227,0.07903676
2702.25912964,0.07884724
2704.18793701,0.07869892
2706.11674438,0.07863328
2708.04555176,0.07856503
2709.97435913,0.07842700
2711.90316650,0.07825708
2713.83197388,0.07815075
2715.76078125,0.07798013
2717.68958862,0.07790561
2719.61839600,0.07779418
2721.54720337,0.07773142
2723.47601074,0.07759621
2725.40481812,0.07742314
2727.33362549,0.07736550
2729.26243286,0.07719389
2731.19124023,0.07717078
2733.12004761,0.07707544
2735.04885498,0.07698768
2736.97766235,0.07690044
2738.90646973,0.07666855
2740.83527710,0.07650043
2742.76408447,0.07652079
2744.69289185,0.07655522
2746.62169922,0.07625166
2748.55050659,0.07620038
2750.47931396,0.07603771
2752.40812134,0.07587914
2754.33692871,0.07599171
2756.26573608,0.07576427
2758.19454346,0.07566831
2760.12335083,0.07547605
2762.05215820,0.07540321
2763.98096558,0.07535585
2765.90977295,0.07513560
2767.83858032,0.07519048
2769.76738770,0.07492603
2771.69619507,0.07470292
2773.62500244,0.07465090
2775.55380981,0.07443278
2777.48261719,0.07434808
2779.41142456,0.07433425
2781.34023193,0.07420531
2783.26903931,0.07406772
2785.19784668,0.07392759
2787.12665405,0.07379974
2789.05546143,0.07382353
2790.98426880,0.07360899
2792.91307617,0.07342456
2794.84188354,0.07334355
2796.77069092,0.07315604
2798.69949829,0.07314695
2800.62830566,0.07302352
2802.55711304,0.07285054
2804.48592041,0.07270138
2806.41472778,0.07253754
2808.34353516,0.07245518
2810.27234253,0.07239459
2812.20114990,0.07218967
2814.12995728,0.07196081
2816.05876465,0.07200943
2817.98757202,0.07198690
2819.91637939,0.07180692
2821.84518677,0.07147991
2823.77399414,0.07127245
2825.70280151,0.07132823
2827.63160889,0.07125667
2829.56041626,0.07108685
2831.48922363,0.07088579
2833.41803101,0.07073512
2835.34683838,0.07050530
2837.27564575,0.07036951
2839.20445312,0.07031482
2841.13326050,0.07003704
2843.06206787,0.06978238
2844.99087524,0.06952615
2846.91968262,0.06912103
2848.84848999,0.06870447
2850.77729736,0.06856650
2852.70610474,0.06847058
2854.63491211,0.06839033
2856.56371948,0.06838350
2858.49252686,0.06823755
2860.42133423,0.06821872
2862.35014160,0.06813549
2864.27894897,0.06796762
2866.20775635,0.06793179
2868.13656372,0.06791801
2870.06537109,0.06774542
2871.99417847,0.06757253
2873.92298584,0.06756656
2875.85179321,0.06742078
2877.78060059,0.06731264
2879.70940796,0.06730240
2881.63821533,0.06722447
2883.56702270,0.06705712
2885.49583008,0.06698675
2887.42463745,0.06692308
2889.35344482,0.06669478
2891.28225220,0.06653222
2893.21105957,0.06633924
2895.13986694,0.06636298
2897.06867432,0.06625508
2898.99748169,0.06593131
2900.92628906,0.06579480
2902.85509644,0.06567228
2904.78390381,0.06569478
2906.71271118,0.06537428
2908.64151855,0.06498758
2910.57032593,0.06489781
2912.49913330,0.06451690
2914.42794067,0.06406365
2916.35674805,0.06390521
2918.28555542,0.06386973
2920.21436279,0.06371692
2922.14317017,0.06357206
2924.07197754,0.06347412
2926.00078491,0.06341724
2927.92959229,0.06333391
2929.85839966,0.06339513
2931.78720703,0.06333552
2933.71601440,0.06315993
2935.64482178,0.06331415
2937.57362915,0.06316811
2939.50243652,0.06326009
2941.43124390,0.06329896
2943.36005127,0.06304079
2945.28885864,0.06320749
2947.21766602,0.06294459
2949.14647339,0.06284761
2951.07528076,0.06293596
2953.00408813,0.06263527
2954.93289551,0.06245779
2956.86170288,0.06231777
2958.79051025,0.06217614
2960.71931763,0.06202983
2962.64812500,0.06192525
2964.57693237,0.06167354
2966.50573975,0.06156836
2968.43454712,0.06171543
2970.36335449,0.06178721
2972.29216187,0.06179202
2974.22096924,0.06183901
2976.14977661,0.06192907
2978.07858398,0.06183482
2980.00739136,0.06186481
2981.93619873,0.06174202
2983.86500610,0.06171277
2985.79381348,0.06172823
2987.72262085,0.06150808
2989.65142822,0.06164575
2991.58023560,0.06145900
2993.50904297,0.06133151
2995.43785034,0.06136236
2997.36665771,0.06125990
2999.29546509,0.06118780
3001.22427246,0.06093555
3003.15307983,0.06100161
3005.08188721,0.06079091
3007.01069458,0.06068802
3008.93950195,0.06073909
3010.86830933,0.06034194
3012.79711670,0.06024124
3014.72592407,0.06016206
3016.65473145,0.06016903
3018.58353882,0.06012863
3020.51234619,0.05992525
3022.44115356,0.05989228
3024.36996094,0.05966635
3026.29876831,0.05954295
3028.22757568,0.05958305
3030.15638306,0.05932409
3032.08519043,0.05906358
3034.01399780,0.05902232
3035.94280518,0.05893297
3037.87161255,0.05890173
3039.80041992,0.05876713
3041.72922729,0.05858769
3043.65803467,0.05859298
3045.58684204,0.05853078
3047.51564941,0.05834287
3049.44445679,0.05808273
3051.37326416,0.05809278
3053.30207153,0.05809940
3055.23087891,0.05788472
3057.15968628,0.05769684
3059.08849365,0.05762885
3061.01730103,0.05767041
3062.94610840,0.05748769
3064.87491577,0.05728279
3066.80372314,0.05711916
3068.73253052,0.05709426
3070.66133789,0.05706331
3072.59014526,0.05690169
3074.51895264,0.05689200
3076.44776001,0.05673970
3078.37656738,0.05654359
3080.30537476,0.05633334
3082.23418213,0.05638605
3084.16298950,0.05641695
3086.09179687,0.05621747
3088.02060425,0.05629428
3089.94941162,0.05606706
3091.87821899,0.05588665
3093.80702637,0.05583314
3095.73583374,0.05562091
3097.66464111,0.05557879
3099.59344849,0.05538128
3101.52225586,0.05524527
3103.45106323,0.05523631
3105.37987061,0.05513478
3107.30867798,0.05499458
3109.23748535,0.05487027
3111.16629272,0.05486255
3113.09510010,0.05470415
3115.02390747,0.05435356
3116.95271484,0.05422208
3118.88152222,0.05418779
3120.81032959,0.05404615
3122.73913696,0.05395779
3124.66794434,0.05390578
3126.59675171,0.05377470
3128.52555908,0.05358596
3130.45436645,0.05358394
3132.38317383,0.05330152
3134.31198120,0.05302586
3136.24078857,0.05314079
3138.16959595,0.05294687
3140.09840332,0.05287524
3142.02721069,0.05272109
3143.95601807,0.05251329
3145.88482544,0.05248623
3147.81363281,0.05234424
3149.74244019,0.05230089
3151.67124756,0.05200996
3153.60005493,0.05188059
3155.52886230,0.05181625
3157.45766968,0.05172636
3159.38647705,0.05165104
3161.31528442,0.05139577
3163.24409180,0.05133764
3165.17289917,0.05113602
3167.10170654,0.05106569
3169.03051392,0.05089729
3170.95932129,0.05071728
3172.88812866,0.05070019
3174.81693604,0.05048861
3176.74574341,0.05034273
3178.67455078,0.05010050
3180.60335815,0.05014518
3182.53216553,0.05004195
3184.46097290,0.04984413
3186.38978027,0.04975262
3188.31858765,0.04961493
3190.24739502,0.04966464
3192.17620239,0.04935619
3194.10500977,0.04928475
3196.03381714,0.04915676
3197.96262451,0.04901105
3199.89143188,0.04906283
3201.82023926,0.04881199
3203.74904663,0.04878774
3205.67785400,0.04868396
3207.60666138,0.04860718
3209.53546875,0.04850301
3211.46427612,0.04840041
3213.39308350,0.04823157
3215.32189087,0.04806368
3217.25069824,0.04816425
3219.17950562,0.04790128
3221.10831299,0.04789607
3223.03712036,0.04788836
3224.96592773,0.04773136
3226.89473511,0.04766282
3228.82354248,0.04749075
3230.75234985,0.04750958
3232.68115723,0.04734963
3234.60996460,0.04730390
3236.53877197,0.04729466
3238.46757935,0.04721580
3240.39638672,0.04719166
3242.32519409,0.04714034
3244.25400146,0.04701458
3246.18280884,0.04680791
3248.11161621,0.04683422
3250.04042358,0.04685276
3251.96923096,0.04690894
3253.89803833,0.04660167
3255.82684570,0.04640910
3257.75565308,0.04662147
3259.68446045,0.04649747
3261.61326782,0.04647877
3263.54207520,0.04644451
3265.47088257,0.04645643
3267.39968994,0.04641955
3269.32849731,0.04627611
3271.25730469,0.04613107
3273.18611206,0.04601534
3275.11491943,0.04610577
3277.04372681,0.04594225
3278.97253418,0.04591833
3280.90134155,0.04591875
3282.83014893,0.04590560
3284.75895630,0.04589167
3286.68776367,0.04574583
3288.61657104,0.04577284
3290.54537842,0.04553945
3292.47418579,0.04548306
3294.40299316,0.04558174
3296.33180054,0.04548374
3298.26060791,0.04545648
3300.18941528,0.04546159
3302.11822266,0.04531469
3304.04703003,0.04516135
3305.97583740,0.04519347
3307.90464478,0.04508200
3309.83345215,0.04507098
3311.76225952,0.04503124
3313.69106689,0.04494176
3315.61987427,0.04492253
3317.54868164,0.04487377
3319.47748901,0.04487924
3321.40629639,0.04477049
3323.33510376,0.04471901
3325.26391113,0.04461323
3327.19271851,0.04462024
3329.12152588,0.04447260
3331.05033325,0.04431040
3332.97914062,0.04440636
3334.90794800,0.04426083
3336.83675537,0.04416995
3338.76556274,0.04409708
3340.69437012,0.04416056
3342.62317749,0.04404003
3344.55198486,0.04395125
3346.48079224,0.04400660
3348.40959961,0.04381806
3350.33840698,0.04385019
3352.26721436,0.04368421
3354.19602173,0.04356411
3356.12482910,0.04354092
3358.05363647,0.04354999
3359.98244385,0.04341036
3361.91125122,0.04324165
3363.84005859,0.04336456
3365.76886597,0.04317015
3367.69767334,0.04312716
3369.62648071,0.04292419
3371.55528809,0.04296893
3373.48409546,0.04307073
3375.41290283,0.04283229
3377.34171020,0.04284356
3379.27051758,0.04262450
3381.19932495,0.04269589
3383.12813232,0.04252765
3385.05693970,0.04238445
3386.98574707,0.04236396
3388.91455444,0.04226983
3390.84336182,0.04225799
3392.77216919,0.04185871
3394.70097656,0.04205111
3396.62978394,0.04190269
3398.55859131,0.04176139
3400.48739868,0.04180489
3402.41620605,0.04156888
3404.34501343,0.04169588
3406.27382080,0.04152221
3408.20262817,0.04157334
3410.13143555,0.04146307
3412.06024292,0.04144027
3413.98905029,0.04133362
3415.91785767,0.04116274
3417.84666504,0.04136935
3419.77547241,0.04093595
3421.70427979,0.04081569
3423.63308716,0.04084809
3425.56189453,0.04092109
3427.49070190,0.04085305
3429.41950928,0.04071869
3431.34831665,0.04074127
3433.27712402,0.04046751
3435.20593140,0.04052134
3437.13473877,0.04028054
3439.06354614,0.04040336
3440.99235352,0.04034827
3442.92116089,0.04006615
3444.84996826,0.04019381
3446.77877563,0.03961613
3448.70758301,0.03967627
3450.63639038,0.04002547
3452.56519775,0.03996149
3454.49400513,0.03997532
3456.42281250,0.03985885
3458.35161987,0.03972558
3460.28042725,0.03965976
3462.20923462,0.03957259
3464.13804199,0.03960463
3466.06684937,0.03964996
3467.99565674,0.03928860
3469.92446411,0.03950385
3471.85327148,0.03962579
3473.78207886,0.03940762
3475.71088623,0.03935944
3477.63969360,0.03931776
3479.56850098,0.03932986
3481.49730835,0.03875402
3483.42611572,0.03900851
3485.35492310,0.03925340
3487.28373047,0.03894210
3489.21253784,0.03904611
3491.14134521,0.03907473
3493.07015259,0.03917433
3494.99895996,0.03891679
3496.92776733,0.03893930
3498.85657471,0.03895066
3500.78538208,0.03892186
3502.71418945,0.03836901
3504.64299683,0.03822535
3506.57180420,0.03921395
3508.50061157,0.03852119
3510.42941895,0.03834648
3512.35822632,0.03881910
3514.28703369,0.03881702
3516.21584106,0.03897915
3518.14464844,0.03863440
3520.07345581,0.03886783
3522.00226318,0.03847349
3523.93107056,0.03791133
3525.85987793,0.03812621
3527.78868530,0.03810842
3529.71749268,0.03811073
3531.64630005,0.03845902
3533.57510742,0.03880057
3535.50391479,0.03838573
3537.43272217,0.03822388
3539.36152954,0.03859916
3541.29033691,0.03862073
3543.21914429,0.03833962
3545.14795166,0.03755404
3547.07675903,0.03692628
3549.00556641,0.03817343
3550.93437378,0.03838328
3552.86318115,0.03730075
3554.79198853,0.03823871
3556.72079590,0.03842407
3558.64960327,0.03829773
3560.57841064,0.03799050
3562.50721802,0.03766099
3564.43602539,0.03805722
3566.36483276,0.03544874
3568.29364014,0.03447714
3570.22244751,0.03736362
3572.15125488,0.03851014
3574.08006226,0.03790613
3576.00886963,0.03802131
3577.93767700,0.03803565
3579.86648437,0.03790607
3581.79529175,0.03797224
3583.72409912,0.03799560
3585.65290649,0.03726466
3587.58171387,0.03408147
3589.51052124,0.03498854
3591.43932861,0.03830242
3593.36813599,0.03710070
3595.29694336,0.03644140
3597.22575073,0.03718205
3599.15455811,0.03751306
3601.08336548,0.03712277
3603.01217285,0.03746272
3604.94098022,0.03822865
3606.86978760,0.03684740
3608.79859497,0.03461606
3610.72740234,0.03528963
3612.65620972,0.03617012
3614.58501709,0.03508461
3616.51382446,0.03768509
3618.44263184,0.03483993
3620.37143921,0.03336794
3622.30024658,0.03794202
3624.22905395,0.03692842
3626.15786133,0.03865372
3628.08666870,0.03274631
3630.01547607,0.02947638
3631.94428345,0.03749633
3633.87309082,0.03657972
3635.80189819,0.03710901
3637.73070557,0.03796798
3639.65951294,0.03732422
3641.58832031,0.03779317
3643.51712769,0.03726756
3645.44593506,0.03756978
3647.37474243,0.03362354
3649.30354980,0.03075291
3651.23235718,0.03105193
3653.16116455,0.03713121
3655.08997192,0.03689803
3657.01877930,0.03272926
3658.94758667,0.03787184
3660.87639404,0.03716049
3662.80520142,0.03753159
3664.73400879,0.03746184
3666.66281616,0.03699423
3668.59162354,0.03606992
3670.52043091,0.02924787
3672.44923828,0.03543343
3674.37804565,0.03391535
3676.30685303,0.02783514
3678.23566040,0.03524057
3680.16446777,0.03616031
3682.09327515,0.03617528
3684.02208252,0.03735473
3685.95088989,0.03673048
3687.87969727,0.03291984
3689.80850464,0.02999378
3691.73731201,0.03442882
3693.66611938,0.03557565
3695.59492676,0.03633203
3697.52373413,0.03631942
3699.45254150,0.03611177
3701.38134888,0.03524761
3703.31015625,0.03366449
3705.23896362,0.03709197
3707.16777100,0.03533173
3709.09657837,0.03437794
3711.02538574,0.03240933
3712.95419312,0.03020955
3714.88300049,0.03554538
3716.81180786,0.03513589
3718.74061523,0.03535273
3720.66942261,0.03468378
3722.59822998,0.03342378
3724.52703735,0.03471782
3726.45584473,0.03218252
3728.38465210,0.03484741
3730.31345947,0.03454828
3732.24226685,0.03167880
3734.17107422,0.03090118
3736.09988159,0.02921131
3738.02868896,0.03094606
3739.95749634,0.03377639
3741.88630371,0.03542690
3743.81511108,0.02744500
3745.74391846,0.02565252
3747.67272583,0.03352167
3749.60153320,0.02891487
3751.53034058,0.02632307
3753.45914795,0.03044564
3755.38795532,0.03298256
3757.31676270,0.03423432
3759.24557007,0.03159798
3761.17437744,0.03275846
3763.10318481,0.03492612
3765.03199219,0.03248874
3766.96079956,0.03321896
3768.88960693,0.03293399
3770.81841431,0.03132264
3772.74722168,0.03394319
3774.67602905,0.03398836
3776.60483643,0.03409819
3778.53364380,0.03317662
3780.46245117,0.03170571
3782.39125854,0.03391209
3784.32006592,0.03312754
3786.24887329,0.03301140
3788.17768066,0.03378494
3790.10648804,0.03349652
3792.03529541,0.03326378
3793.96410278,0.03383203
3795.89291016,0.03187696
3797.82171753,0.03129129
3799.75052490,0.03309913
3801.67933228,0.02612642
3803.60813965,0.03041280
3805.53694702,0.03338829
3807.46575439,0.02703581
3809.39456177,0.03293627
3811.32336914,0.03243208
3813.25217651,0.03337704
3815.18098389,0.03022102
3817.10979126,0.02627721
3819.03859863,0.03340907
3820.96740601,0.02690423
3822.89621338,0.02823661
3824.82502075,0.03329512
3826.75382812,0.02993170
3828.68263550,0.03231461
3830.61144287,0.03108954
3832.54025024,0.02997363
3834.46905762,0.03057072
3836.39786499,0.02912659
3838.32667236,0.02629369
3840.25547974,0.02826060
3842.18428711,0.03072888
3844.11309448,0.02930532
3846.04190186,0.03172365
3847.97070923,0.03136185
3849.89951660,0.03127747
3851.82832397,0.02811486
3853.75713135,0.02085101
3855.68593872,0.02482060
3857.61474609,0.03146689
3859.54355347,0.03058221
3861.47236084,0.03022450
3863.40116821,0.02965173
3865.32997559,0.02736287
3867.25878296,0.03062453
3869.18759033,0.02803341
3871.11639770,0.02580319
3873.04520508,0.03083070
3874.97401245,0.02823122
3876.90281982,0.03042762
3878.83162720,0.03116666
3880.76043457,0.02654600
3882.68924194,0.03057357
3884.61804932,0.02869941
3886.54685669,0.02627626
3888.47566406,0.03077684
3890.40447144,0.02915577
3892.33327881,0.02723279
3894.26208618,0.02991818
3896.19089355,0.03050466
3898.11970093,0.02897826
3900.04850830,0.02736517
3901.97731567,0.02698168
3903.90612305,0.02677177
3905.83493042,0.02724851
3907.76373779,0.02993946
3909.69254517,0.02989169
3911.62135254,0.02953846
3913.55015991,0.03020195
3915.47896728,0.02904839
3917.40777466,0.02823625
3919.33658203,0.02813267
3921.26538940,0.02919329
3923.19419678,0.02901353
3925.12300415,0.02840829
3927.05181152,0.02894494
3928.98061890,0.02909075
3930.90942627,0.02863930
3932.83823364,0.02779013
3934.76704102,0.02881817
3936.69584839,0.02909029
3938.62465576,0.02879425
3940.55346313,0.02904494
3942.48227051,0.02787124
3944.41107788,0.02811837
3946.33988525,0.02870926
3948.26869263,0.02798316
3950.19750000,0.02796565
3952.12630737,0.02847308
3954.05511475,0.02846835
3955.98392212,0.02845114
3957.91272949,0.02839324
3959.84153687,0.02827070
3961.77034424,0.02810115
3963.69915161,0.02794809
3965.62795898,0.02838703
3967.55676636,0.02822335
3969.48557373,0.02808589
3971.41438110,0.02810324
3973.34318848,0.02791257
3975.27199585,0.02786117
3977.20080322,0.02773654
3979.12961060,0.02797063
3981.05841797,0.02778616
3982.98722534,0.02780810
3984.91603271,0.02770411
3986.84484009,0.02759521
3988.77364746,0.02769460
3990.70245483,0.02736842
3992.63126221,0.02749963
3994.56006958,0.02730836
3996.48887695,0.02738976
3998.41768433,0.02739473
4000.34649170,0.02723394
4002.27529907,0.02727398
4004.20410645,0.02704644
4006.13291382,0.02715855
4008.06172119,0.02690737
4009.99052856,0.02696325
4011.91933594,0.02697805
4013.84814331,0.02689310
4015.77695068,0.02693017
4017.70575806,0.02673590
4019.63456543,0.02678045
4021.56337280,0.02661726
4023.49218018,0.02675337
4025.42098755,0.02659578
4027.34979492,0.02651450
4029.27860229,0.02652812
4031.20740967,0.02637918
4033.13621704,0.02651063
4035.06502441,0.02630839
4036.99383179,0.02638973
4038.92263916,0.02619682
4040.85144653,0.02622076
4042.78025391,0.02623734
4044.70906128,0.02591392
4046.63786865,0.02607976
4048.56667603,0.02601927
4050.49548340,0.02601637
4052.42429077,0.02591593
4054.35309814,0.02590333
4056.28190552,0.02579535
4058.21071289,0.02573681
4060.13952026,0.02581006
4062.06832764,0.02563842
4063.99713501,0.02568384
4065.92594238,0.02547448
4067.85474976,0.02549824
4069.78355713,0.02542485
4071.71236450,0.02537362
4073.64117187,0.02542800
4075.56997925,0.02523844
4077.49878662,0.02527958
4079.42759399,0.02513264
4081.35640137,0.02515416
4083.28520874,0.02502492
4085.21401611,0.02503425
4087.14282349,0.02501493
4089.07163086,0.02487901
4091.00043823,0.02501826
4092.92924561,0.02480412
4094.85805298,0.02487091
4096.78686035,0.02476757
4098.71566772,0.02470286
4100.64447510,0.02472520
4102.57328247,0.02462189
4104.50208984,0.02462255
4106.43089722,0.02437239
4108.35970459,0.02447455
4110.28851196,0.02438264
4112.21731934,0.02430640
4114.14612671,0.02435068
4116.07493408,0.02422483
4118.00374145,0.02423177
4119.93254883,0.02417024
4121.86135620,0.02417226
4123.79016357,0.02406935
4125.71897095,0.02398769
4127.64777832,0.02385209
4129.57658569,0.02384094
4131.50539307,0.02382340
4133.43420044,0.02381044
4135.36300781,0.02385763
4137.29181519,0.02369551
4139.22062256,0.02368816
4141.14942993,0.02353542
4143.07823730,0.02363038
4145.00704468,0.02357260
4146.93585205,0.02338393
4148.86465942,0.02343387
4150.79346680,0.02334172
4152.72227417,0.02343253
4154.65108154,0.02328218
4156.57988892,0.02324276
4158.50869629,0.02314120
4160.43750366,0.02314090
4162.36631103,0.02320737
4164.29511841,0.02296633
4166.22392578,0.02307437
4168.15273315,0.02296203
4170.08154053,0.02289141
4172.01034790,0.02283501
4173.93915527,0.02285391
4175.86796265,0.02288744
4177.79677002,0.02274599
4179.72557739,0.02272615
4181.65438477,0.02248923
4183.58319214,0.02259847
4185.51199951,0.02255404
4187.44080688,0.02249891
4189.36961426,0.02248034
4191.29842163,0.02230892
4193.22722900,0.02239601
4195.15603638,0.02217660
4197.08484375,0.02216814
4199.01365112,0.02218174
4200.94245850,0.02218871
4202.87126587,0.02209736
4204.80007324,0.02200140
4206.72888062,0.02215244
4208.65768799,0.02193436
4210.58649536,0.02199770
4212.51530273,0.02193543
4214.44411011,0.02178408
4216.37291748,0.02185688
4218.30172485,0.02179563
4220.23053223,0.02177272
4222.15933960,0.02168841
4224.08814697,0.02166472
4226.01695435,0.02156487
4227.94576172,0.02159388
4229.87456909,0.02152723
4231.80337646,0.02139496
4233.73218384,0.02145207
4235.66099121,0.02134308
4237.58979858,0.02127374
4239.51860596,0.02125393
4241.44741333,0.02124205
4243.37622070,0.02120752
4245.30502808,0.02115250
4247.23383545,0.02107651
4249.16264282,0.02113123
4251.09145020,0.02104697
4253.02025757,0.02091382
4254.94906494,0.02099789
4256.87787231,0.02085913
4258.80667969,0.02088158
4260.73548706,0.02080580
4262.66429443,0.02070868
4264.59310181,0.02071542
4266.52190918,0.02064338
4268.45071655,0.02069347
4270.37952393,0.02055030
4272.30833130,0.02060601
4274.23713867,0.02061403
4276.16594604,0.02052386
4278.09475342,0.02043707
4280.02356079,0.02037016
4281.95236816,0.02047975
4283.88117554,0.02034935
4285.80998291,0.02023957
4287.73879028,0.02014548
4289.66759766,0.02020301
4291.59640503,0.02016473
4293.52521240,0.02007234
4295.45401978,0.02007798
4297.38282715,0.01996376
4299.31163452,0.02001012
4301.24044189,0.01988529
4303.16924927,0.01991335
4305.09805664,0.01987365
4307.02686401,0.01975948
4308.95567139,0.01979315
4310.88447876,0.01973945
4312.81328613,0.01972496
4314.74209351,0.01956924
4316.67090088,0.01971437
4318.59970825,0.01962689
4320.52851562,0.01951006
4322.45732300,0.01959274
4324.38613037,0.01939820
4326.31493774,0.01939286
4328.24374512,0.01936934
4330.17255249,0.01939056
4332.10135986,0.01921178
4334.03016724,0.01917539
4335.95897461,0.01926787
4337.88778198,0.01916967
4339.81658936,0.01919874
4341.74539673,0.01902582
4343.67420410,0.01905078
4345.60301147,0.01910534
4347.53181885,0.01910247
4349.46062622,0.01895799
4351.38943359,0.01879406
4353.31824097,0.01885243
4355.24704834,0.01874204
4357.17585571,0.01876988
4359.10466309,0.01869119
4361.03347046,0.01868892
4362.96227783,0.01862300
4364.89108520,0.01853064
4366.81989258,0.01861123
4368.74869995,0.01845885
4370.67750732,0.01848288
4372.60631470,0.01843949
4374.53512207,0.01842946
4376.46392944,0.01837884
4378.39273682,0.01827090
4380.32154419,0.01830335
4382.25035156,0.01824089
4384.17915894,0.01825220
4386.10796631,0.01814362
4388.03677368,0.01809358
4389.96558105,0.01805632
4391.89438843,0.01807730
4393.82319580,0.01809270
4395.75200317,0.01798009
4397.68081055,0.01796517
4399.60961792,0.01790401
4401.53842529,0.01787089
4403.46723267,0.01781574
4405.39604004,0.01786551
4407.32484741,0.01772791
4409.25365478,0.01767788
4411.18246216,0.01774559
4413.11126953,0.01762946
4415.04007690,0.01767271
4416.96888428,0.01745244
4418.89769165,0.01748990
4420.82649902,0.01753747
4422.75530640,0.01739180
4424.68411377,0.01741426
4426.61292114,0.01730961
4428.54172852,0.01734757
4430.47053589,0.01721029
4432.39934326,0.01727698
4434.32815063,0.01736105
4436.25695801,0.01720326
4438.18576538,0.01719057
4440.11457275,0.01707463
4442.04338013,0.01705870
4443.97218750,0.01700829
4445.90099487,0.01702600
4447.82980225,0.01698178
4449.75860962,0.01690998
4451.68741699,0.01694702
4453.61622437,0.01685059
4455.54503174,0.01687158
4457.47383911,0.01679331
4459.40264648,0.01671994
4461.33145386,0.01677030
4463.26026123,0.01672939
4465.18906860,0.01661674
4467.11787598,0.01657962
4469.04668335,0.01656288
4470.97549072,0.01650375
4472.90429810,0.01649963
4474.83310547,0.01645169
4476.76191284,0.01643590
4478.69072021,0.01633963
4480.61952759,0.01633712
4482.54833496,0.01628842
4484.47714233,0.01623638
4486.40594971,0.01633296
4488.33475708,0.01619923
4490.26356445,0.01618934
4492.19237183,0.01606904
4494.12117920,0.01604883
4496.04998657,0.01613760
4497.97879395,0.01593578
4499.90760132,0.01597418
4501.83640869,0.01597951
4503.76521606,0.01587255
4505.69402344,0.01584437
4507.62283081,0.01588204
4509.55163818,0.01583471
4511.48044556,0.01577732
4513.40925293,0.01582324
4515.33806030,0.01577794
4517.26686768,0.01575336
4519.19567505,0.01560491
4521.12448242,0.01558958
4523.05328979,0.01558626
4524.98209717,0.01547443
4526.91090454,0.01552502
4528.83971191,0.01549877
4530.76851929,0.01549856
4532.69732666,0.01548945
4534.62613403,0.01546485
4536.55494141,0.01539730
4538.48374878,0.01529716
4540.41255615,0.01530357
4542.34136353,0.01531671
4544.27017090,0.01527665
4546.19897827,0.01519228
4548.12778564,0.01513716
4550.05659302,0.01510377
4551.98540039,0.01508816
4553.91420776,0.01495381
4555.84301514,0.01496895
4557.77182251,0.01503122
4559.70062988,0.01494725
4561.62943726,0.01497225
4563.55824463,0.01489475
4565.48705200,0.01484587
4567.41585937,0.01479232
4569.34466675,0.01480569
4571.27347412,0.01476428
4573.20228149,0.01465479
4575.13108887,0.01476964
4577.05989624,0.01465747
4578.98870361,0.01456779
4580.91751099,0.01456128
4582.84631836,0.01456713
4584.77512573,0.01456519
4586.70393311,0.01443407
4588.63274048,0.01446153
4590.56154785,0.01441324
4592.49035522,0.01436679
4594.41916260,0.01440269
4596.34796997,0.01433256
4598.27677734,0.01421924
4600.20558472,0.01425716
4602.13439209,0.01430262
4604.06319946,0.01424564
4605.99200684,0.01420453
4607.92081421,0.01411201
4609.84962158,0.01413127
4611.77842895,0.01405816
4613.70723633,0.01406958
4615.63604370,0.01406384
4617.56485107,0.01396424
4619.49365845,0.01407882
4621.42246582,0.01391656
4623.35127319,0.01381167
4625.28008057,0.01383675
4627.20888794,0.01383784
4629.13769531,0.01382551
4631.06650269,0.01371642
4632.99531006,0.01372141
4634.92411743,0.01368083
4636.85292480,0.01371814
4638.78173218,0.01365329
4640.71053955,0.01354769
4642.63934692,0.01352009
4644.56815430,0.01353165
4646.49696167,0.01356531
4648.42576904,0.01346773
4650.35457642,0.01346380
4652.28338379,0.01334362
4654.21219116,0.01339335
4656.14099853,0.01340825
4658.06980591,0.01329721
4659.99861328,0.01339377
4661.92742065,0.01322448
4663.85622803,0.01321821
4665.78503540,0.01328541
4667.71384277,0.01320811
4669.64265015,0.01314434
4671.57145752,0.01307327
4673.50026489,0.01314190
4675.42907227,0.01312329
4677.35787964,0.01310327
4679.28668701,0.01304409
4681.21549438,0.01297316
4683.14430176,0.01294537
4685.07310913,0.01294406
4687.00191650,0.01297605
4688.93072388,0.01290018
4690.85953125,0.01289105
4692.78833862,0.01283282
4694.71714600,0.01272980
4696.64595337,0.01270189
4698.57476074,0.01268652
4700.50356812,0.01269587
4702.43237549,0.01266221
4704.36118286,0.01264243
4706.28999023,0.01264558
4708.21879761,0.01254645
4710.14760498,0.01254313
4712.07641235,0.01259039
4714.00521973,0.01245087
4715.93402710,0.01248445
4717.86283447,0.01249462
4719.79164185,0.01242466
4721.72044922,0.01243965
4723.64925659,0.01237731
4725.57806396,0.01235914
4727.50687134,0.01227070
4729.43567871,0.01234468
4731.36448608,0.01232633
4733.29329346,0.01222404
4735.22210083,0.01226541
4737.15090820,0.01216061
4739.07971558,0.01224432
4741.00852295,0.01219872
4742.93733032,0.01206127
4744.86613770,0.01206289
4746.79494507,0.01208023
4748.72375244,0.01206841
4750.65255981,0.01197460
4752.58136719,0.01205668
4754.51017456,0.01194635
4756.43898193,0.01189008
4758.36778931,0.01196291
4760.29659668,0.01187117
4762.22540405,0.01189914
4764.15421143,0.01192628
4766.08301880,0.01187012
4768.01182617,0.01175840
4769.94063354,0.01180059
4771.86944092,0.01180325
4773.79824829,0.01171072
4775.72705566,0.01172362
4777.65586304,0.01170383
4779.58467041,0.01165471
4781.51347778,0.01158290
4783.44228516,0.01157434
4785.37109253,0.01152730
4787.29989990,0.01151616
4789.22870728,0.01146974
4791.15751465,0.01141934
4793.08632202,0.01141726
4795.01512939,0.01135696
4796.94393677,0.01139286
4798.87274414,0.01128222
4800.80155151,0.01126830
4802.73035889,0.01134300
4804.65916626,0.01134394
4806.58797363,0.01126938
4808.51678101,0.01113276
4810.44558838,0.01123459
4812.37439575,0.01124339
4814.30320312,0.01117703
4816.23201050,0.01105949
4818.16081787,0.01106406
4820.08962524,0.01111138
4822.01843262,0.01106885
4823.94723999,0.01113617
4825.87604736,0.01092984
4827.80485474,0.01094172
4829.73366211,0.01099351
4831.66246948,0.01088627
4833.59127686,0.01090594
4835.52008423,0.01087233
4837.44889160,0.01092032
4839.37769897,0.01078178
4841.30650635,0.01080079
4843.23531372,0.01084064
4845.16412109,0.01073770
4847.09292847,0.01078029
4849.02173584,0.01068762
4850.95054321,0.01069069
4852.87935059,0.01067771
4854.80815796,0.01059260
4856.73696533,0.01059198
4858.66577270,0.01060256
4860.59458008,0.01053342
4862.52338745,0.01051621
4864.45219482,0.01055217
4866.38100220,0.01046168
4868.30980957,0.01047909
4870.23861694,0.01041777
4872.16742432,0.01041561
4874.09623169,0.01043422
4876.02503906,0.01036507
4877.95384644,0.01043127
4879.88265381,0.01032351
4881.81146118,0.01028431
4883.74026855,0.01032275
4885.66907593,0.01027867
4887.59788330,0.01027926
4889.52669067,0.01022962
4891.45549805,0.01016694
4893.38430542,0.01014164
4895.31311279,0.01010336
4897.24192017,0.01009412
4899.17072754,0.01012982
4901.09953491,0.01004672
4903.02834228,0.01009702
4904.95714966,0.01006572
4906.88595703,0.00990586
4908.81476440,0.00997012
4910.74357178,0.00993120
4912.67237915,0.00995914
4914.60118652,0.00995474
4916.52999390,0.00982383
4918.45880127,0.00983014
4920.38760864,0.00989361
4922.31641602,0.00991329
4924.24522339,0.00975559
4926.17403076,0.00975797
4928.10283813,0.00980719
4930.03164551,0.00967017
4931.96045288,0.00967597
4933.88926025,0.00969773
4935.81806763,0.00963351
4937.74687500,0.00966625
4939.67568237,0.00967053
4941.60448975,0.00960946
4943.53329712,0.00963577
4945.46210449,0.00958880
4947.39091187,0.00949723
4949.31971924,0.00948247
4951.24852661,0.00949468
4953.17733398,0.00945961
4955.10614136,0.00940385
4957.03494873,0.00938715
4958.96375610,0.00934641
4960.89256348,0.00937723
4962.82137085,0.00935957
4964.75017822,0.00936649
4966.67898560,0.00937833
4968.60779297,0.00927807
4970.53660034,0.00928937
4972.46540771,0.00922664
4974.39421509,0.00916031
4976.32302246,0.00919279
4978.25182983,0.00922397
4980.18063721,0.00919678
4982.10944458,0.00912017
4984.03825195,0.00913831
4985.96705933,0.00909951
4987.89586670,0.00904717
4989.82467407,0.00904654
4991.75348145,0.00903585
4993.68228882,0.00900220
4995.61109619,0.00894440
4997.53990356,0.00892106
4999.46871094,0.00894692
5001.39751831,0.00891682
5003.32632568,0.00887029
5005.25513306,0.00892149
5007.18394043,0.00880690
5009.11274780,0.00876415
5011.04155518,0.00883180
5012.97036255,0.00877300
5014.89916992,0.00878222
5016.82797729,0.00877588
5018.75678467,0.00875347
5020.68559204,0.00867539
5022.61439941,0.00868057
5024.54320679,0.00870918
5026.47201416,0.00867993
5028.40082153,0.00870091
5030.32962891,0.00860095
5032.25843628,0.00855242
5034.18724365,0.00853989
5036.11605103,0.00859025
5038.04485840,0.00858176
5039.97366577,0.00854967
5041.90247314,0.00854940
5043.83128052,0.00841578
5045.76008789,0.00849125
5047.68889526,0.00844327
5049.61770264,0.00837820
5051.54651001,0.00843862
5053.47531738,0.00834381
5055.40412476,0.00835364
5057.33293213,0.00834928
5059.26173950,0.00832058
5061.19054687,0.00826936
5063.11935425,0.00826925
5065.04816162,0.00828751
5066.97696899,0.00826217
5068.90577637,0.00829551
5070.83458374,0.00822839
5072.76339111,0.00815083
5074.69219849,0.00813739
5076.62100586,0.00819228
5078.54981323,0.00815429
5080.47862061,0.00812116
5082.40742798,0.00813089
5084.33623535,0.00806192
5086.26504272,0.00808782
5088.19385010,0.00807172
5090.12265747,0.00807442
5092.05146484,0.00802638
5093.98027222,0.00796840
5095.90907959,0.00799345
5097.83788696,0.00792932
5099.76669434,0.00793195
5101.69550171,0.00792698
5103.62430908,0.00785796
5105.55311645,0.00785771
5107.48192383,0.00790014
5109.41073120,0.00780739
5111.33953857,0.00776968
5113.26834595,0.00781261
5115.19715332,0.00777294
5117.12596069,0.00781528
5119.05476807,0.00776258
5120.98357544,0.00774265
5122.91238281,0.00778145
5124.84119019,0.00772737
5126.76999756,0.00768450
5128.69880493,0.00768762
5130.62761230,0.00770511
5132.55641968,0.00764148
5134.48522705,0.00762880
5136.41403442,0.00756579
5138.34284180,0.00758651
5140.27164917,0.00760258
5142.20045654,0.00751565
5144.12926392,0.00758389
5146.05807129,0.00751235
5147.98687866,0.00747645
5149.91568603,0.00749504
5151.84449341,0.00747820
5153.77330078,0.00745649
5155.70210815,0.00737667
5157.63091553,0.00744607
5159.55972290,0.00740949
5161.48853027,0.00733849
5163.41733765,0.00731240
5165.34614502,0.00730576
5167.27495239,0.00736759
5169.20375977,0.00726672
5171.13256714,0.00721072
5173.06137451,0.00724771
5174.99018188,0.00719068
5176.91898926,0.00720231
5178.84779663,0.00725479
5180.77660400,0.00717299
5182.70541138,0.00717171
5184.63421875,0.00715817
5186.56302612,0.00711439
5188.49183350,0.00717111
5190.42064087,0.00706898
5192.34944824,0.00706562
5194.27825562,0.00711393
5196.20706299,0.00705120
5198.13587036,0.00707498
5200.06467773,0.00708170
5201.99348511,0.00706700
5203.92229248,0.00700684
5205.85109985,0.00688311
5207.77990723,0.00679709
5209.70871460,0.00688804
5211.63752197,0.00699501
5213.56632935,0.00694110
5215.49513672,0.00687042
5217.42394409,0.00681206
5219.35275146,0.00676607
5221.28155884,0.00683015
5223.21036621,0.00685959
5225.13917358,0.00668041
5227.06798096,0.00675045
5228.99678833,0.00688733
5230.92559570,0.00675046
5232.85440308,0.00669093
5234.78321045,0.00668917
5236.71201782,0.00676137
5238.64082520,0.00673254
5240.56963257,0.00672076
5242.49843994,0.00672170
5244.42724731,0.00656381
5246.35605469,0.00661175
5248.28486206,0.00653651
5250.21366943,0.00650639
5252.14247681,0.00666791
5254.07128418,0.00655644
5256.00009155,0.00650987
5257.92889893,0.00656271
5259.85770630,0.00652686
5261.78651367,0.00647484
5263.71532104,0.00634790
5265.64412842,0.00640596
5267.57293579,0.00653735
5269.50174316,0.00640425
5271.43055054,0.00644931
5273.35935791,0.00654380
5275.28816528,0.00646390
5277.21697266,0.00649787
5279.14578003,0.00640668
5281.07458740,0.00635272
5283.00339478,0.00639857
5284.93220215,0.00633980
5286.86100952,0.00639421
5288.78981689,0.00638545
5290.71862427,0.00623480
5292.64743164,0.00628371
5294.57623901,0.00629154
5296.50504639,0.00620839
5298.43385376,0.00636376
5300.36266113,0.00630419
5302.29146851,0.00619745
5304.22027588,0.00625245
5306.14908325,0.00616798
5308.07789062,0.00618342
5310.00669800,0.00616904
5311.93550537,0.00617287
5313.86431274,0.00616536
5315.79312012,0.00611259
5317.72192749,0.00616779
5319.65073486,0.00613890
5321.57954224,0.00614942
5323.50834961,0.00615284
5325.43715698,0.00605377
5327.36596436,0.00588443
5329.29477173,0.00589631
5331.22357910,0.00598511
5333.15238647,0.00591159
5335.08119385,0.00602567
5337.01000122,0.00595437
5338.93880859,0.00576779
5340.86761597,0.00596970
5342.79642334,0.00599533
5344.72523071,0.00571974
5346.65403809,0.00572714
5348.58284546,0.00584682
5350.51165283,0.00581784
5352.44046020,0.00575490
5354.36926758,0.00566184
5356.29807495,0.00581551
5358.22688232,0.00589184
5360.15568970,0.00575025
5362.08449707,0.00577059
5364.01330444,0.00577977
5365.94211182,0.00576706
5367.87091919,0.00575310
5369.79972656,0.00574535
5371.72853394,0.00570663
5373.65734131,0.00575488
5375.58614868,0.00568769
5377.51495605,0.00548897
5379.44376343,0.00566253
5381.37257080,0.00572462
5383.30137817,0.00563668
5385.23018555,0.00555573
5387.15899292,0.00551207
5389.08780029,0.00565854
5391.01660767,0.00562429
5392.94541504,0.00551720
5394.87422241,0.00542060
5396.80302978,0.00544074
5398.73183716,0.00548978
5400.66064453,0.00546526
5402.58945190,0.00549373
5404.51825928,0.00548496
5406.44706665,0.00556677
5408.37587402,0.00545784
5410.30468140,0.00535425
5412.23348877,0.00537162
5414.16229614,0.00523097
5416.09110352,0.00530061
5418.01991089,0.00541810
5419.94871826,0.00544486
5421.87752563,0.00543434
5423.80633301,0.00534047
5425.73514038,0.00537310
5427.66394775,0.00529680
5429.59275513,0.00506597
5431.52156250,0.00520316
5433.45036987,0.00530381
5435.37917725,0.00508162
5437.30798462,0.00524443
5439.23679199,0.00533641
5441.16559936,0.00515340
5443.09440674,0.00520522
5445.02321411,0.00513550
5446.95202148,0.00514814
5448.88082886,0.00521451
5450.80963623,0.00510877
5452.73844360,0.00523895
5454.66725098,0.00522525
5456.59605835,0.00510403
5458.52486572,0.00514744
5460.45367310,0.00501074
5462.38248047,0.00501344
5464.31128784,0.00509989
5466.24009521,0.00509799
5468.16890259,0.00509250
5470.09770996,0.00499275
5472.02651733,0.00510736
5473.95532471,0.00502897
5475.88413208,0.00485046
5477.81293945,0.00499456
5479.74174683,0.00503045
5481.67055420,0.00505445
5483.59936157,0.00500062
5485.52816895,0.00494030
5487.45697632,0.00489378
5489.38578369,0.00481128
5491.31459106,0.00491870
5493.24339844,0.00487714
5495.17220581,0.00488507
5497.10101318,0.00493613
5499.02982056,0.00484306
5500.95862793,0.00482171
5502.88743530,0.00481466
5504.81624268,0.00487125
5506.74505005,0.00480728
5508.67385742,0.00474440
5510.60266479,0.00480963
5512.53147217,0.00480899
5514.46027954,0.00476735
5516.38908691,0.00471270
5518.31789429,0.00477151
5520.24670166,0.00478233
5522.17550903,0.00474623
5524.10431641,0.00475970
5526.03312378,0.00474306
5527.96193115,0.00474863
5529.89073853,0.00470280
5531.81954590,0.00469821
5533.74835327,0.00468202
5535.67716064,0.00462954
5537.60596802,0.00464967
5539.53477539,0.00466823
5541.46358276,0.00467320
5543.39239014,0.00466205
5545.32119751,0.00472699
5547.25000488,0.00466294
5549.17881226,0.00450140
5551.10761963,0.00458733
5553.03642700,0.00468372
5554.96523437,0.00462040
5556.89404175,0.00453909
5558.82284912,0.00449932
5560.75165649,0.00447461
5562.68046387,0.00453552
5564.60927124,0.00454131
5566.53807861,0.00446039
5568.46688599,0.00451076
5570.39569336,0.00446520
5572.32450073,0.00442130
5574.25330811,0.00449375
5576.18211548,0.00448257
5578.11092285,0.00448837
5580.03973022,0.00446699
5581.96853760,0.00440779
5583.89734497,0.00443865
5585.82615234,0.00441108
5587.75495972,0.00434552
5589.68376709,0.00445357
5591.61257446,0.00439626
5593.54138184,0.00428492
5595.47018921,0.00437776
5597.39899658,0.00438692
5599.32780395,0.00441913
5601.25661133,0.00430517
5603.18541870,0.00422910
5605.11422607,0.00433697
5607.04303345,0.00430507
5608.97184082,0.00428167
5610.90064819,0.00425581
5612.82945557,0.00429473
5614.75826294,0.00427526
5616.68707031,0.00427592
5618.61587769,0.00426110
5620.54468506,0.00417460
5622.47349243,0.00426798
5624.40229980,0.00420177
5626.33110718,0.00423320
5628.25991455,0.00421030
5630.18872192,0.00409745
5632.11752930,0.00417683
5634.04633667,0.00410332
5635.97514404,0.00411464
5637.90395142,0.00408573
5639.83275879,0.00411421
5641.76156616,0.00415524
5643.69037353,0.00409807
5645.61918091,0.00417442
5647.54798828,0.00409922
5649.47679565,0.00404000
5651.40560303,0.00403982
5653.33441040,0.00413880
5655.26321777,0.00409828
5657.19202515,0.00397194
5659.12083252,0.00406955
5661.04963989,0.00401740
5662.97844727,0.00402661
5664.90725464,0.00398585
5666.83606201,0.00393478
5668.76486938,0.00401400
5670.69367676,0.00398332
5672.62248413,0.00396574
5674.55129150,0.00394072
5676.48009888,0.00396613
5678.40890625,0.00391055
5680.33771362,0.00389569
5682.26652100,0.00397665
5684.19532837,0.00393733
5686.12413574,0.00391738
5688.05294311,0.00389594
5689.98175049,0.00381790
5691.91055786,0.00381668
5693.83936523,0.00391199
5695.76817261,0.00385850
5697.69697998,0.00385867
5699.62578735,0.00384476
5701.55459473,0.00372759
5703.48340210,0.00378197
5705.41220947,0.00376172
5707.34101685,0.00382181
5709.26982422,0.00384101
5711.19863159,0.00373160
5713.12743896,0.00377970
5715.05624634,0.00376755
5716.98505371,0.00371195
5718.91386108,0.00370555
5720.84266846,0.00371995
5722.77147583,0.00368969
5724.70028320,0.00366433
5726.62909058,0.00368957
5728.55789795,0.00371238
5730.48670532,0.00371053
5732.41551270,0.00369356
5734.34432007,0.00365908
5736.27312744,0.00358193
5738.20193481,0.00361057
5740.13074219,0.00360931
5742.05954956,0.00358240
5743.98835693,0.00361744
5745.91716431,0.00360727
5747.84597168,0.00356068
5749.77477905,0.00356532
5751.70358643,0.00359308
5753.63239380,0.00348859
5755.56120117,0.00354085
5757.49000854,0.00354176
5759.41881592,0.00347364
5761.34762329,0.00356176
5763.27643066,0.00350320
5765.20523804,0.00350592
5767.13404541,0.00352898
5769.06285278,0.00352654
5770.99166016,0.00347227
5772.92046753,0.00347073
5774.84927490,0.00353760
5776.77808228,0.00344224
5778.70688965,0.00345050
5780.63569702,0.00340125
5782.56450439,0.00341332
5784.49331177,0.00343933
5786.42211914,0.00340013
5788.35092651,0.00344377
5790.27973389,0.00337759
5792.20854126,0.00336708
5794.13734863,0.00329776
5796.06615601,0.00331113
5797.99496338,0.00331525
5799.92377075,0.00328788
5801.85257812,0.00335880
5803.78138550,0.00329579
5805.71019287,0.00334107
5807.63900024,0.00329122
5809.56780762,0.00325911
5811.49661499,0.00328731
5813.42542236,0.00324122
5815.35422974,0.00326429
5817.28303711,0.00321440
5819.21184448,0.00324775
5821.14065186,0.00325907
5823.06945923,0.00324510
5824.99826660,0.00321027
5826.92707397,0.00318881
5828.85588135,0.00320707
5830.78468872,0.00314694
5832.71349609,0.00318049
5834.64230347,0.00317283
5836.57111084,0.00313558
5838.49991821,0.00309777
5840.42872559,0.00315667
5842.35753296,0.00317077
5844.28634033,0.00303439
5846.21514770,0.00307833
5848.14395508,0.00310587
5850.07276245,0.00309026
5852.00156982,0.00307927
5853.93037720,0.00307501
5855.85918457,0.00304060
5857.78799194,0.00300838
5859.71679932,0.00307389
5861.64560669,0.00310112
5863.57441406,0.00313871
5865.50322144,0.00306984
5867.43202881,0.00303177
5869.36083618,0.00303958
5871.28964355,0.00301521
5873.21845093,0.00303880
5875.14725830,0.00298780
5877.07606567,0.00296272
5879.00487305,0.00297392
5880.93368042,0.00299766
5882.86248779,0.00295781
5884.79129517,0.00297539
5886.72010254,0.00302041
5888.64890991,0.00299079
5890.57771728,0.00295147
5892.50652466,0.00288963
5894.43533203,0.00300070
5896.36413940,0.00294561
5898.29294678,0.00282652
5900.22175415,0.00284420
5902.15056152,0.00284756
5904.07936890,0.00291309
5906.00817627,0.00286848
5907.93698364,0.00290461
5909.86579102,0.00288560
5911.79459839,0.00284537
5913.72340576,0.00289612
5915.65221313,0.00279405
5917.58102051,0.00279337
5919.50982788,0.00289304
5921.43863525,0.00288201
5923.36744263,0.00277596
5925.29625000,0.00280587
5927.22505737,0.00278414
5929.15386475,0.00274179
5931.08267212,0.00279222
5933.01147949,0.00274035
5934.94028686,0.00282258
5936.86909424,0.00279465
5938.79790161,0.00273249
5940.72670898,0.00273784
5942.65551636,0.00268970
5944.58432373,0.00275248
5946.51313110,0.00273124
5948.44193848,0.00274110
5950.37074585,0.00273241
5952.29955322,0.00268164
5954.22836060,0.00270780
5956.15716797,0.00269229
5958.08597534,0.00266234
5960.01478271,0.00267380
5961.94359009,0.00273416
5963.87239746,0.00266613
5965.80120483,0.00257043
5967.73001221,0.00263366
5969.65881958,0.00272910
5971.58762695,0.00270708
5973.51643433,0.00268548
5975.44524170,0.00265855
5977.37404907,0.00262144
5979.30285645,0.00270410
5981.23166382,0.00261080
5983.16047119,0.00252619
5985.08927856,0.00257485
5987.01808594,0.00258730
5988.94689331,0.00260379
5990.87570068,0.00257925
5992.80450806,0.00263097
5994.73331543,0.00262239
5996.66212280,0.00256515
5998.59093018,0.00254157
6000.51973755,0.00260139
