399.26312622,0.00097992
401.19193359,0.00164287
403.12074097,0.00151725
405.04954834,0.00151409
406.97835571,0.00134483
408.90716309,0.00132538
410.83597046,0.00162176
412.76477783,0.00223970
414.69358521,0.00235178
416.62239258,0.00164147
418.55119995,0.00199645
420.48000732,0.00194718
422.40881470,0.00182738
424.33762207,0.00185662
426.26642944,0.00234161
428.19523682,0.00270169
430.12404419,0.00231619
432.05285156,0.00289417
433.98165894,0.00260745
435.91046631,0.00253277
437.83927368,0.00258810
439.76808105,0.00194013
441.69688843,0.00205502
443.62569580,0.00215206
445.55450317,0.00205938
447.48331055,0.00144324
449.41211792,0.00160511
451.34092529,0.00184625
453.26973267,0.00161719
455.19854004,0.00166697
457.12734741,0.00106516
459.05615479,0.00125574
460.98496216,0.00155866
462.91376953,0.00137141
464.84257690,0.00133774
466.77138428,0.00112515
468.70019165,0.00100402
470.62899902,0.00083566
472.55780640,0.00104877
474.48661377,0.00122290
476.41542114,0.00082564
478.34422852,0.00072954
480.27303589,0.00084712
482.20184326,0.00040821
484.13065063,0.00053280
486.05945801,0.00083915
487.98826538,0.00040122
489.91707275,0.00048285
491.84588013,0.00043721
493.77468750,0.00039566
495.70349487,0.00049154
497.63230225,0.00045560
499.56110962,0.00073694
501.48991699,0.00043757
503.41872437,0.00022756
505.34753174,0.00017925
507.27633911,0.00008671
509.20514648,0.00006238
511.13395386,0.00025433
513.06276123,0.00054631
514.99156860,0.00000017
516.92037598,0.00014169
518.84918335,0.00053433
520.77799072,0.00047627
522.70679810,0.00026869
524.63560547,-0.00016365
526.56441284,0.00042086
528.49322021,0.00065665
530.42202759,0.00023826
532.35083496,0.00020652
534.27964233,0.00015165
536.20844971,0.00029767
538.13725708,0.00036732
540.06606445,0.00024702
541.99487183,0.00058513
543.92367920,0.00028245
545.85248657,-0.00006479
547.78129395,0.00036017
549.71010132,0.00027935
551.63890869,-0.00017897
553.56771606,0.00011227
555.49652344,0.00058888
557.42533081,0.00030967
559.35413818,-0.00042786
561.28294556,0.00042540
563.21175293,0.00058039
565.14056030,-0.00016131
567.06936768,0.00055993
568.99817505,0.00064757
570.92698242,0.00027290
572.85578979,0.00017100
574.78459717,0.00051675
576.71340454,0.00009411
578.64221191,-0.00046589
580.57101929,0.00013924
582.49982666,-0.00017913
584.42863403,0.00013714
586.35744141,0.00029438
588.28624878,-0.00000646
590.21505615,0.00058230
592.14386353,0.00016552
594.07267090,0.00017839
596.00147827,0.00034619
597.93028564,0.00000373
599.85909302,0.00021237
601.78790039,0.00006439
603.71670776,-0.00017128
605.64551514,0.00005114
607.57432251,0.00006130
609.50312988,-0.00021870
611.43193726,0.00020013
613.36074463,0.00020287
615.28955200,0.00000462
617.21835938,-0.00007509
619.14716675,0.00002976
621.07597412,-0.00003954
623.00478149,-0.00004493
624.93358887,-0.00014529
626.86239624,-0.00002578
628.79120361,0.00024400
630.72001099,0.00065909
632.64881836,0.00130039
634.57762573,0.00134950
636.50643311,0.00158122
638.43524048,0.00145328
640.36404785,0.00149268
642.29285522,0.00216724
644.22166260,0.00204428
646.15046997,0.00224357
648.07927734,0.00262458
650.00808472,0.00251212
651.93689209,0.00246191
653.86569946,0.00262445
655.79450684,0.00266506
657.72331421,0.00275979
659.65212158,0.00330314
661.58092896,0.00334308
663.50973633,0.00350065
665.43854370,0.00374504
667.36735107,0.00339113
669.29615845,0.00364251
671.22496582,0.00417731
673.15377319,0.00407706
675.08258057,0.00387748
677.01138794,0.00422403
678.94019531,0.00447051
680.86900269,0.00440089
682.79781006,0.00454656
684.72661743,0.00456430
686.65542480,0.00430405
688.58423218,0.00419131
690.51303955,0.00442352
692.44184692,0.00467871
694.37065430,0.00505975
696.29946167,0.00572327
698.22826904,0.00657183
700.15707642,0.00721322
702.08588379,0.00701610
704.01469116,0.00632509
705.94349854,0.00562722
707.87230591,0.00504060
709.80111328,0.00388077
711.72992065,0.00251846
713.65872803,0.00191171
715.58753540,0.00125535
717.51634277,0.00086829
719.44515015,0.00059933
721.37395752,0.00009258
723.30276489,0.00017146
725.23157227,0.00035751
727.16037964,0.00029977
729.08918701,0.00010995
731.01799438,0.00026931
732.94680176,0.00032412
734.87560913,-0.00006445
736.80441650,0.00006294
738.73322388,0.00006952
740.66203125,0.00000225
742.59083862,0.00022813
744.51964600,0.00019530
746.44845337,0.00010486
748.37726074,0.00003275
750.30606812,0.00002597
752.23487549,0.00013912
754.16368286,0.00061259
756.09249023,0.00070987
758.02129761,0.00021612
759.95010498,0.00027881
761.87891235,0.00009465
763.80771973,0.00019079
765.73652710,0.00060994
767.66533447,0.00018569
769.59414185,0.00047124
771.52294922,0.00062830
773.45175659,0.00009571
775.38056396,0.00027308
777.30937134,0.00056458
779.23817871,0.00045457
781.16698608,0.00054805
783.09579346,0.00081453
785.02460083,0.00052170
786.95340820,0.00022769
788.88221558,0.00040561
790.81102295,0.00058792
792.73983032,0.00081697
794.66863770,0.00075956
796.59744507,0.00045820
798.52625244,0.00056452
800.45505981,0.00083970
802.38386719,0.00099587
804.31267456,0.00074167
806.24148193,0.00062273
808.17028931,0.00089858
810.09909668,0.00038225
812.02790405,0.00021744
813.95671143,0.00066202
815.88551880,0.00058759
817.81432617,0.00052330
819.74313354,0.00045338
821.67194092,0.00046962
823.60074829,0.00037035
825.52955566,0.00046314
827.45836304,0.00077616
829.38717041,0.00087871
831.31597778,0.00096823
833.24478516,0.00107651
835.17359253,0.00173031
837.10239990,0.00167463
839.03120728,0.00136314
840.96001465,0.00144727
842.88882202,0.00114338
844.81762939,0.00146035
846.74643677,0.00130826
848.67524414,0.00111576
850.60405151,0.00126362
852.53285889,0.00085139
854.46166626,0.00099005
856.39047363,0.00087827
858.31928101,0.00059202
860.24808838,0.00069736
862.17689575,0.00051089
864.10570313,0.00059251
866.03451050,0.00056999
867.96331787,-0.00000685
869.89212524,0.00032425
871.82093262,0.00084754
873.74973999,0.00063327
875.67854736,0.00066427
877.60735474,0.00030999
879.53616211,0.00013877
881.46496948,0.00052862
883.39377686,0.00055227
885.32258423,0.00032300
887.25139160,0.00034975
889.18019897,0.00053970
891.10900635,0.00042706
893.03781372,0.00054097
894.96662109,0.00044995
896.89542847,0.00033043
898.82423584,0.00063911
900.75304321,0.00050108
902.68185059,0.00059767
904.61065796,0.00082647
906.53946533,0.00058952
908.46827271,0.00061128
910.39708008,0.00075024
912.32588745,0.00069998
914.25469482,0.00098121
916.18350220,0.00093118
918.11230957,0.00077166
920.04111694,0.00124360
921.96992432,0.00111033
923.89873169,0.00124351
925.82753906,0.00159058
927.75634644,0.00145709
929.68515381,0.00174578
931.61396118,0.00184526
933.54276855,0.00200657
935.47157593,0.00196709
937.40038330,0.00191241
939.32919067,0.00210313
941.25799805,0.00220776
943.18680542,0.00263643
945.11561279,0.00235771
947.04442017,0.00230039
948.97322754,0.00251192
950.90203491,0.00209438
952.83084229,0.00213756
954.75964966,0.00226034
956.68845703,0.00208158
958.61726440,0.00194070
960.54607178,0.00205151
962.47487915,0.00212971
964.40368652,0.00229100
966.33249390,0.00243307
968.26130127,0.00234398
970.19010864,0.00247861
972.11891602,0.00256320
974.04772339,0.00280615
975.97653076,0.00306763
977.90533813,0.00342404
979.83414551,0.00375167
981.76295288,0.00383920
983.69176025,0.00439277
985.62056763,0.00472567
987.54937500,0.00508785
989.47818237,0.00596405
991.40698975,0.00641883
993.33579712,0.00671842
995.26460449,0.00755808
997.19341187,0.00833153
999.12221924,0.00903571
1001.05102661,0.00982022
1002.97983398,0.01005937
1004.90864136,0.01071519
1006.83744873,0.01173787
1008.76625610,0.01238822
1010.69506348,0.01283967
1012.62387085,0.01333127
1014.55267822,0.01452740
1016.48148560,0.01535203
1018.41029297,0.01580299
1020.33910034,0.01668871
1022.26790771,0.01716785
1024.19671509,0.01786684
1026.12552246,0.01879942
1028.05432983,0.01924061
1029.98313721,0.01992091
1031.91194458,0.02032105
1033.84075195,0.02041009
1035.76955933,0.02095529
1037.69836670,0.02125005
1039.62717407,0.02135593
1041.55598145,0.02113687
1043.48478882,0.02105957
1045.41359619,0.02119461
1047.34240356,0.02060948
1049.27121094,0.02028228
1051.20001831,0.01982486
1053.12882568,0.01945967
1055.05763306,0.01925883
1056.98644043,0.01867341
1058.91524780,0.01844662
1060.84405518,0.01772002
1062.77286255,0.01722819
1064.70166992,0.01684803
1066.63047729,0.01609427
1068.55928467,0.01560978
1070.48809204,0.01477370
1072.41689941,0.01421829
1074.34570679,0.01347357
1076.27451416,0.01271474
1078.20332153,0.01238015
1080.13212891,0.01178293
1082.06093628,0.01116129
1083.98974365,0.01042965
1085.91855103,0.01014552
1087.84735840,0.00981745
1089.77616577,0.00915345
1091.70497314,0.00877219
1093.63378052,0.00842711
1095.56258789,0.00819397
1097.49139526,0.00787043
1099.42020264,0.00759999
1101.34901001,0.00745818
1103.27781738,0.00734048
1105.20662476,0.00726856
1107.13543213,0.00701529
1109.06423950,0.00694544
1110.99304687,0.00703554
1112.92185425,0.00684579
1114.85066162,0.00671864
1116.77946899,0.00688933
1118.70827637,0.00688607
1120.63708374,0.00679996
1122.56589111,0.00683671
1124.49469849,0.00681140
1126.42350586,0.00684818
1128.35231323,0.00708989
1130.28112061,0.00727096
1132.20992798,0.00736062
1134.13873535,0.00770487
1136.06754272,0.00792558
1137.99635010,0.00833032
1139.92515747,0.00901292
1141.85396484,0.00933982
1143.78277222,0.00998520
1145.71157959,0.01075667
1147.64038696,0.01132722
1149.56919434,0.01198125
1151.49800171,0.01252262
1153.42680908,0.01313575
1155.35561646,0.01374417
1157.28442383,0.01434422
1159.21323120,0.01488560
1161.14203857,0.01536942
1163.07084595,0.01594061
1164.99965332,0.01645152
1166.92846069,0.01708696
1168.85726807,0.01773512
1170.78607544,0.01845165
1172.71488281,0.01904700
1174.64369019,0.01962662
1176.57249756,0.02063039
1178.50130493,0.02114848
1180.43011230,0.02192987
1182.35891968,0.02322011
1184.28772705,0.02398582
1186.21653442,0.02523759
1188.14534180,0.02646006
1190.07414917,0.02727851
1192.00295654,0.02848901
1193.93176392,0.02976291
1195.86057129,0.03120661
1197.78937866,0.03270645
1199.71818604,0.03421568
1201.64699341,0.03570890
1203.57580078,0.03720260
1205.50460815,0.03866798
1207.43341553,0.03979220
1209.36222290,0.04112159
1211.29103027,0.04248976
1213.21983765,0.04359711
1215.14864502,0.04462648
1217.07745239,0.04547887
1219.00625977,0.04627669
1220.93506714,0.04710805
1222.86387451,0.04790076
1224.79268188,0.04828323
1226.72148926,0.04847837
1228.65029663,0.04878102
1230.57910400,0.04889207
1232.50791138,0.04900157
1234.43671875,0.04912910
1236.36552612,0.04918754
1238.29433350,0.04923554
1240.22314087,0.04889277
1242.15194824,0.04850419
1244.08075562,0.04837990
1246.00956299,0.04814648
1247.93837036,0.04793181
1249.86717773,0.04738722
1251.79598511,0.04703104
1253.72479248,0.04698439
1255.65359985,0.04628933
1257.58240723,0.04578569
1259.51121460,0.04498672
1261.44002197,0.04395679
1263.36882935,0.04366039
1265.29763672,0.04306282
1267.22644409,0.04254194
1269.15525146,0.04217818
1271.08405884,0.04141448
1273.01286621,0.04072539
1274.94167358,0.04022365
1276.87048096,0.03951621
1278.79928833,0.03841984
1280.72809570,0.03758044
1282.65690308,0.03693417
1284.58571045,0.03622241
1286.51451782,0.03560860
1288.44332520,0.03502775
1290.37213257,0.03457236
1292.30093994,0.03420860
1294.22974731,0.03398553
1296.15855469,0.03392711
1298.08736206,0.03382515
1300.01616943,0.03377450
1301.94497681,0.03406391
1303.87378418,0.03435469
1305.80259155,0.03468728
1307.73139893,0.03515837
1309.66020630,0.03542545
1311.58901367,0.03596688
1313.51782104,0.03680605
1315.44662842,0.03770299
1317.37543579,0.03854446
1319.30424316,0.03947197
1321.23305054,0.04076659
1323.16185791,0.04207252
1325.09066528,0.04324164
1327.01947266,0.04426755
1328.94828003,0.04545860
1330.87708740,0.04670182
1332.80589478,0.04781302
1334.73470215,0.04864591
1336.66350952,0.04882909
1338.59231689,0.04864187
1340.52112427,0.04939374
1342.44993164,0.05127964
1344.37873901,0.05164508
1346.30754639,0.05134647
1348.23635376,0.05140946
1350.16516113,0.05108229
1352.09396851,0.05111443
1354.02277588,0.05035698
1355.95158325,0.04983299
1357.88039062,0.04965731
1359.80919800,0.04878552
1361.73800537,0.04666742
1363.66681274,0.04610525
1365.59562012,0.04850291
1367.52442749,0.04711904
1369.45323486,0.04675711
1371.38204224,0.04744215
1373.31084961,0.04463972
1375.23965698,0.04545065
1377.16846436,0.04632150
1379.09727173,0.04620725
1381.02607910,0.04639716
1382.95488647,0.04605663
1384.88369385,0.04620433
1386.81250122,0.04377938
1388.74130859,0.04458907
1390.67011597,0.04844183
1392.59892334,0.04677185
1394.52773071,0.04376595
1396.45653809,0.04611723
1398.38534546,0.04614881
1400.31415283,0.04594006
1402.24296021,0.04953104
1404.17176758,0.04676204
1406.10057495,0.04703446
1408.02938232,0.04870327
1409.95818970,0.04695337
1411.88699707,0.04804836
1413.81580444,0.04640087
1415.74461182,0.04709162
1417.67341919,0.04230846
1419.60222656,0.03814296
1421.53103394,0.04389236
1423.45984131,0.04240073
1425.38864868,0.04128788
1427.31745605,0.04181781
1429.24626343,0.03864021
1431.17507080,0.03750892
1433.10387817,0.03803021
1435.03268555,0.03457371
1436.96149292,0.02939106
1438.89030029,0.03370804
1440.81910767,0.03443492
1442.74791504,0.03182229
1444.67672241,0.03341758
1446.60552979,0.03059007
1448.53433716,0.03105446
1450.46314453,0.03204181
1452.39195190,0.03264508
1454.32075928,0.03376597
1456.24956665,0.02761358
1458.17837402,0.02929879
1460.10718140,0.03906200
1462.03598877,0.04121106
1463.96479614,0.04098003
1465.89360352,0.04268123
1467.82241089,0.04879902
1469.75121826,0.05208742
1471.68002563,0.04614710
1473.60883301,0.04906989
1475.53764038,0.05602079
1477.46644775,0.06029050
1479.39525513,0.06591094
1481.32406250,0.06685526
1483.25286987,0.07116768
1485.18167725,0.07313232
1487.11048462,0.07211216
1489.03929199,0.07147381
1490.96809937,0.07197278
1492.89690674,0.08401880
1494.82571411,0.08142924
1496.75452148,0.07366896
1498.68332886,0.08362935
1500.61213623,0.08584122
1502.54094360,0.09241500
1504.46975098,0.08635278
1506.39855835,0.06279804
1508.32736572,0.07789664
1510.25617310,0.09047677
1512.18498047,0.08800530
1514.11378784,0.09533235
1516.04259521,0.08553358
1517.97140259,0.08976321
1519.90020996,0.08587892
1521.82901733,0.07487921
1523.75782471,0.09185006
1525.68663208,0.08945307
1527.61543945,0.08961153
1529.54424683,0.09912506
1531.47305420,0.09503391
1533.40186157,0.08701450
1535.33066895,0.09291203
1537.25947632,0.09860554
1539.18828369,0.07006076
1541.11709106,0.07455816
1543.04589844,0.08862624
1544.97470581,0.08536152
1546.90351318,0.10108791
1548.83232056,0.09369258
1550.76112793,0.09715818
1552.68993530,0.09613609
1554.61874268,0.08771278
1556.54755005,0.09335081
1558.47635742,0.06527942
1560.40516479,0.07208017
1562.33397217,0.10172353
1564.26277954,0.09584583
1566.19158691,0.09904249
1568.12039429,0.09720630
1570.04920166,0.08654489
1571.97800903,0.10036992
1573.90681641,0.10035572
1575.83562378,0.07978668
1577.76443115,0.09094504
1579.69323853,0.10206775
1581.62204590,0.09772689
1583.55085327,0.10025270
1585.47966064,0.09871084
1587.40846802,0.09939314
1589.33727539,0.09850778
1591.26608276,0.09865580
1593.19489014,0.09846351
1595.12369751,0.09742074
1597.05250488,0.09893152
1598.98131226,0.09816198
1600.91011963,0.09873296
1602.83892700,0.09697151
1604.76773437,0.09846525
1606.69654175,0.09679805
1608.62534912,0.09691674
1610.55415649,0.09685643
1612.48296387,0.09740947
1614.41177124,0.09820685
1616.34057861,0.08023120
1618.26938599,0.08801854
1620.19819336,0.10166772
1622.12700073,0.08994566
1624.05580811,0.09079207
1625.98461548,0.09509529
1627.91342285,0.09455556
1629.84223022,0.09392217
1631.77103760,0.10048045
1633.69984497,0.09198508
1635.62865234,0.07597867
1637.55745972,0.08930060
1639.48626709,0.09773278
1641.41507446,0.09529790
1643.34388184,0.09784776
1645.27268921,0.08755901
1647.20149658,0.07736242
1649.13030396,0.09674200
1651.05911133,0.09014396
1652.98791870,0.05808212
1654.91672607,0.08056220
1656.84553345,0.10001539
1658.77434082,0.09566970
1660.70314819,0.09799322
1662.63195557,0.08907257
1664.56076294,0.09465756
1666.48957031,0.10079223
1668.41837769,0.08784123
1670.34718506,0.08593117
1672.27599243,0.09727743
1674.20479980,0.08927055
1676.13360718,0.08619393
1678.06241455,0.09937436
1679.99122192,0.09518231
1681.92002930,0.09398462
1683.84883667,0.07594907
1685.77764404,0.07649533
1687.70645142,0.10421149
1689.63525879,0.08984046
1691.56406616,0.09993532
1693.49287354,0.10024065
1695.42168091,0.07351038
1697.35048828,0.09126949
1699.27929565,0.07903485
1701.20810303,0.07260649
1703.13691040,0.09851664
1705.06571777,0.08962694
1706.99452515,0.09109774
1708.92333252,0.09844781
1710.85213989,0.09445808
1712.78094727,0.09620113
1714.70975464,0.08880477
1716.63856201,0.07978935
1718.56736938,0.07885972
1720.49617676,0.09370835
1722.42498413,0.09691032
1724.35379150,0.08994892
1726.28259888,0.09790736
1728.21140625,0.09016135
1730.14021362,0.09120835
1732.06902100,0.08808692
1733.99782837,0.06729856
1735.92663574,0.08468492
1737.85544312,0.09259282
1739.78425049,0.08265024
1741.71305786,0.09013097
1743.64186523,0.09098472
1745.57067261,0.09140697
1747.49947998,0.09189035
1749.42828735,0.08774644
1751.35709473,0.08427759
1753.28590210,0.09357077
1755.21470947,0.09710079
1757.14351685,0.08888891
1759.07232422,0.09792463
1761.00113159,0.09140185
1762.92993896,0.08917812
1764.85874634,0.10142204
1766.78755371,0.09088540
1768.71636108,0.09224635
1770.64516846,0.09108204
1772.57397583,0.08226545
1774.50278320,0.09196715
1776.43159058,0.09677787
1778.36039795,0.09550327
1780.28920532,0.09422436
1782.21801270,0.09497552
1784.14682007,0.09482005
1786.07562744,0.09320575
1788.00443481,0.09814425
1789.93324219,0.09496128
1791.86204956,0.08598763
1793.79085693,0.09027705
1795.71966431,0.09642065
1797.64847168,0.09504317
1799.57727905,0.09358428
1801.50608643,0.09202600
1803.43489380,0.09521511
1805.36370117,0.09706846
1807.29250854,0.09585062
1809.22131592,0.09595016
1811.15012329,0.09346819
1813.07893066,0.09665708
1815.00773804,0.09684294
1816.93654541,0.09576268
1818.86535278,0.09652456
1820.79416016,0.09611624
1822.72296753,0.09727570
1824.65177490,0.09097601
1826.58058228,0.09440422
1828.50938965,0.09417881
1830.43819702,0.08865308
1832.36700439,0.09651500
1834.29581177,0.09564006
1836.22461914,0.09562021
1838.15342651,0.09533030
1840.08223389,0.09599285
1842.01104126,0.09571250
1843.93984863,0.08496320
1845.86865601,0.09094539
1847.79746338,0.09565914
1849.72627075,0.09359290
1851.65507812,0.09639481
1853.58388550,0.09434278
1855.51269287,0.09544420
1857.44150024,0.09471811
1859.37030762,0.09413648
1861.29911499,0.09490669
1863.22792236,0.09365471
1865.15672974,0.09469020
1867.08553711,0.09132233
1869.01434448,0.08746056
1870.94315186,0.09124783
1872.87195923,0.09456892
1874.80076660,0.09291196
1876.72957397,0.09355524
1878.65838135,0.09312704
1880.58718872,0.09249590
1882.51599609,0.09325754
1884.44480347,0.09170586
1886.37361084,0.09313532
1888.30241821,0.09090649
1890.23122559,0.08923759
1892.16003296,0.09266280
1894.08884033,0.09110072
1896.01764771,0.09073818
1897.94645508,0.09171268
1899.87526245,0.09128111
1901.80406982,0.09143610
1903.73287720,0.09076328
1905.66168457,0.09129263
1907.59049194,0.09038602
1909.51929932,0.08975020
1911.44810669,0.09013760
1913.37691406,0.09035186
1915.30572144,0.09099934
1917.23452881,0.08685592
1919.16333618,0.08725945
1921.09214355,0.09040564
1923.02095093,0.08751500
1924.94975830,0.08932200
1926.87856567,0.09012830
1928.80737305,0.08913469
1930.73618042,0.09004074
1932.66498779,0.08881029
1934.59379517,0.08970867
1936.52260254,0.08899537
1938.45140991,0.08949828
1940.38021729,0.08925811
1942.30902466,0.08619939
1944.23783203,0.08784419
1946.16663940,0.08855292
1948.09544678,0.08860540
1950.02425415,0.08897115
1951.95306152,0.08852812
1953.88186890,0.08866360
1955.81067627,0.08807382
1957.73948364,0.08838267
1959.66829102,0.08839091
1961.59709839,0.08815873
1963.52590576,0.08828577
1965.45471313,0.08769536
1967.38352051,0.08675936
1969.31232788,0.08752227
1971.24113525,0.08821682
1973.16994263,0.08749543
1975.09875000,0.08787548
1977.02755737,0.08742650
1978.95636475,0.08742274
1980.88517212,0.08731522
1982.81397949,0.08684264
1984.74278687,0.08725907
1986.67159424,0.08639461
1988.60040161,0.08656612
1990.52920898,0.08586126
1992.45801636,0.08489656
1994.38682373,0.08616200
1996.31563110,0.08622569
1998.24443848,0.08568716
2000.17324585,0.08567997
2002.10205322,0.08559029
2004.03086060,0.08546256
2005.95966797,0.08523856
2007.88847534,0.08488122
2009.81728271,0.08481053
2011.74609009,0.08456683
2013.67489746,0.08443117
2015.60370483,0.08399537
2017.53251221,0.08306919
2019.46131958,0.08348107
2021.39012695,0.08355691
2023.31893433,0.08332410
2025.24774170,0.08321779
2027.17654907,0.08279388
2029.10535645,0.08274262
2031.03416382,0.08244029
2032.96297119,0.08252174
2034.89177856,0.08229817
2036.82058594,0.08198886
2038.74939331,0.08195557
2040.67820068,0.08148356
2042.60700806,0.08124374
2044.53581543,0.08122477
2046.46462280,0.08119032
2048.39343018,0.08088629
2050.32223755,0.08071732
2052.25104492,0.08044840
2054.17985229,0.08029796
2056.10865967,0.08036135
2058.03746704,0.08006351
2059.96627441,0.07989195
2061.89508179,0.07978153
2063.82388916,0.07947315
2065.75269653,0.07909951
2067.68150391,0.07924633
2069.61031128,0.07896006
2071.53911865,0.07868758
2073.46792603,0.07891365
2075.39673340,0.07852216
2077.32554077,0.07837991
2079.25434814,0.07817223
2081.18315552,0.07806614
2083.11196289,0.07794767
2085.04077026,0.07765317
2086.96957764,0.07763395
2088.89838501,0.07736689
2090.82719238,0.07728315
2092.75599976,0.07701081
2094.68480713,0.07685341
2096.61361450,0.07684883
2098.54242187,0.07670882
2100.47122925,0.07659805
2102.40003662,0.07626932
2104.32884399,0.07614980
2106.25765137,0.07618739
2108.18645874,0.07609807
2110.11526611,0.07581885
2112.04407349,0.07584862
2113.97288086,0.07557356
2115.90168823,0.07532325
2117.83049561,0.07542622
2119.75930298,0.07503183
2121.68811035,0.07505876
2123.61691772,0.07501215
2125.54572510,0.07494505
2127.47453247,0.07484899
2129.40333984,0.07448348
2131.33214722,0.07451870
2133.26095459,0.07438834
2135.18976196,0.07420515
2137.11856934,0.07410714
2139.04737671,0.07417612
2140.97618408,0.07391942
2142.90499146,0.07375577
2144.83379883,0.07383348
2146.76260620,0.07359459
2148.69141357,0.07360440
2150.62022095,0.07325841
2152.54902832,0.07318188
2154.47783569,0.07332994
2156.40664307,0.07315031
2158.33545044,0.07307820
2160.26425781,0.07286970
2162.19306519,0.07280521
2164.12187256,0.07272492
2166.05067993,0.07257400
2167.97948730,0.07243153
2169.90829468,0.07245726
2171.83710205,0.07236903
2173.76590942,0.07218160
2175.69471680,0.07212935
2177.62352417,0.07195246
2179.55233154,0.07198291
2181.48113892,0.07181678
2183.40994629,0.07178409
2185.33875366,0.07177874
2187.26756104,0.07151636
2189.19636841,0.07142235
2191.12517578,0.07125080
2193.05398315,0.07126134
2194.98279053,0.07116498
2196.91159790,0.07105953
2198.84040527,0.07107024
2200.76921265,0.07093059
2202.69802002,0.07081363
2204.62682739,0.07083857
2206.55563477,0.07077655
2208.48444214,0.07053070
2210.41324951,0.07055967
2212.34205688,0.07036577
2214.27086426,0.07019207
2216.19967163,0.07022668
2218.12847900,0.07004081
2220.05728638,0.06991471
2221.98609375,0.06980807
2223.91490112,0.06978092
2225.84370850,0.06966496
2227.77251587,0.06951504
2229.70132324,0.06943254
2231.63013062,0.06938836
2233.55893799,0.06921951
2235.48774536,0.06916338
2237.41655273,0.06922862
2239.34536011,0.06890834
2241.27416748,0.06878617
2243.20297485,0.06864426
2245.13178223,0.06855670
2247.06058960,0.06844534
2248.98939697,0.06816728
2250.91820435,0.06826565
2252.84701172,0.06805386
2254.77581909,0.06791694
2256.70462646,0.06794437
2258.63343384,0.06764945
2260.56224121,0.06754075
2262.49104858,0.06757801
2264.41985596,0.06740382
2266.34866333,0.06735615
2268.27747070,0.06740955
2270.20627808,0.06722981
2272.13508545,0.06714542
2274.06389282,0.06688192
2275.99270020,0.06676090
2277.92150757,0.06674299
2279.85031494,0.06661313
2281.77912231,0.06662247
2283.70792969,0.06644008
2285.63673706,0.06640814
2287.56554443,0.06631297
2289.49435181,0.06616522
2291.42315918,0.06589073
2293.35196655,0.06566554
2295.28077393,0.06557424
2297.20958130,0.06524751
2299.13838867,0.06513216
2301.06719604,0.06484152
2302.99600342,0.06458767
2304.92481079,0.06411432
2306.85361816,0.06364986
2308.78242554,0.06324813
2310.71123291,0.06247043
2312.64004028,0.06220197
2314.56884766,0.06155100
2316.49765503,0.06067535
2318.42646240,0.05991845
2320.35526978,0.05908246
2322.28407715,0.05831901
2324.21288452,0.05750544
2326.14169189,0.05691868
2328.07049927,0.05608384
2329.99930664,0.05539227
2331.92811401,0.05495913
2333.85692139,0.05481473
2335.78572876,0.05457967
2337.71453613,0.05438133
2339.64334351,0.05442297
2341.57215088,0.05451777
2343.50095825,0.05548484
2345.42976562,0.05643301
2347.35857300,0.05895717
2349.28738037,0.06078945
2351.21618774,0.05837366
2353.14499512,0.05550698
2355.07380249,0.05335679
2357.00260986,0.05175900
2358.93141724,0.05077247
2360.86022461,0.05020242
2362.78903198,0.05015550
2364.71783936,0.05035389
2366.64664673,0.05121376
2368.57545410,0.05220032
2370.50426147,0.05354543
2372.43306885,0.05493066
2374.36187622,0.05646198
2376.29068359,0.05813639
2378.21949097,0.05933945
2380.14829834,0.06028949
2382.07710571,0.06087022
2384.00591309,0.06138056
2385.93472046,0.06147939
2387.86352783,0.06165763
2389.79233521,0.06167191
2391.72114258,0.06142228
2393.64994995,0.06147593
2395.57875732,0.06121495
2397.50756470,0.06121539
2399.43637207,0.06112166
2401.36517944,0.06091256
2403.29398682,0.06092455
2405.22279419,0.06088127
2407.15160156,0.06078806
2409.08040894,0.06070080
2411.00921631,0.06068240
2412.93802368,0.06046885
2414.86683105,0.06047107
2416.79563843,0.06028552
2418.72444580,0.06026018
2420.65325317,0.06027042
2422.58206055,0.05992161
2424.51086792,0.05999509
2426.43967529,0.05985716
2428.36848267,0.05975322
2430.29729004,0.05967138
2432.22609741,0.05961609
2434.15490479,0.05962044
2436.08371216,0.05940614
2438.01251953,0.05938784
2439.94132690,0.05920845
2441.87013428,0.05914574
2443.79894165,0.05913959
2445.72774902,0.05908975
2447.65655640,0.05894373
2449.58536377,0.05877624
2451.51417114,0.05878877
2453.44297852,0.05863502
2455.37178589,0.05860664
2457.30059326,0.05844050
2459.22940063,0.05833968
2461.15820801,0.05834272
2463.08701538,0.05821313
2465.01582275,0.05815770
2466.94463013,0.05806193
2468.87343750,0.05799108
2470.80224487,0.05783498
2472.73105225,0.05777508
2474.65985962,0.05770406
2476.58866699,0.05763099
2478.51747437,0.05749663
2480.44628174,0.05738047
2482.37508911,0.05742204
2484.30389648,0.05721176
2486.23270386,0.05705827
2488.16151123,0.05697823
2490.09031860,0.05700111
2492.01912598,0.05699947
2493.94793335,0.05689348
2495.87674072,0.05682341
2497.80554810,0.05675301
2499.73435547,0.05664808
2501.66316284,0.05645782
2503.59197021,0.05651114
2505.52077759,0.05632319
2507.44958496,0.05621311
2509.37839233,0.05625056
2511.30719971,0.05609787
2513.23600708,0.05612047
2515.16481445,0.05596071
2517.09362183,0.05581021
2519.02242920,0.05571068
2520.95123657,0.05577856
2522.88004395,0.05567079
2524.80885132,0.05547735
2526.73765869,0.05550493
2528.66646606,0.05533804
2530.59527344,0.05540373
2532.52408081,0.05524942
2534.45288818,0.05514193
2536.38169556,0.05518333
2538.31050293,0.05500418
2540.23931030,0.05489579
2542.16811768,0.05478831
2544.09692505,0.05467211
2546.02573242,0.05450420
2547.95453979,0.05463726
2549.88334717,0.05447443
2551.81215454,0.05438862
2553.74096191,0.05439305
2555.66976929,0.05416389
2557.59857666,0.05422954
2559.52738403,0.05395107
2561.45619141,0.05398539
2563.38499878,0.05388615
2565.31380615,0.05375513
2567.24261353,0.05383077
2569.17142090,0.05359817
2571.10022827,0.05374353
2573.02903564,0.05351321
2574.95784302,0.05346265
2576.88665039,0.05343463
2578.81545776,0.05324487
2580.74426514,0.05323537
2582.67307251,0.05300652
2584.60187988,0.05309940
2586.53068726,0.05288865
2588.45949463,0.05285167
2590.38830200,0.05287249
2592.31710937,0.05271036
2594.24591675,0.05272496
2596.17472412,0.05245647
2598.10353149,0.05245686
2600.03233887,0.05237789
2601.96114624,0.05230182
2603.88995361,0.05229028
2605.81876099,0.05214775
2607.74756836,0.05210270
2609.67637573,0.05197634
2611.60518311,0.05190919
2613.53399048,0.05177220
2615.46279785,0.05165517
2617.39160522,0.05160300
2619.32041260,0.05162486
2621.24921997,0.05158325
2623.17802734,0.05155782
2625.10683472,0.05149920
2627.03564209,0.05132382
2628.96444946,0.05137779
2630.89325684,0.05120154
2632.82206421,0.05103391
2634.75087158,0.05099255
2636.67967895,0.05095132
2638.60848633,0.05094877
2640.53729370,0.05072358
2642.46610107,0.05060451
2644.39490845,0.05063353
2646.32371582,0.05054183
2648.25252319,0.05034862
2650.18133057,0.05036245
2652.11013794,0.05026082
2654.03894531,0.05015957
2655.96775269,0.05009343
2657.89656006,0.04989575
2659.82536743,0.05000196
2661.75417480,0.04989793
2663.68298218,0.04977026
2665.61178955,0.04967599
2667.54059692,0.04961374
2669.46940430,0.04965175
2671.39821167,0.04942621
2673.32701904,0.04934753
2675.25582642,0.04927780
2677.18463379,0.04928289
2679.11344116,0.04924886
2681.04224854,0.04914435
2682.97105591,0.04903085
2684.89986328,0.04888384
2686.82867065,0.04887848
2688.75747803,0.04880361
2690.68628540,0.04881838
2692.61509277,0.04854612
2694.54390015,0.04847719
2696.47270752,0.04854338
2698.40151489,0.04828678
2700.33032227,0.04837190
2702.25912964,0.04829292
2704.18793701,0.04811583
2706.11674438,0.04809840
2708.04555176,0.04807278
2709.97435913,0.04793376
2711.90316650,0.04782645
2713.83197388,0.04771152
2715.76078125,0.04757287
2717.68958862,0.04772849
2719.61839600,0.04756621
2721.54720337,0.04743368
2723.47601074,0.04734589
2725.40481812,0.04723710
2727.33362549,0.04723760
2729.26243286,0.04705783
2731.19124023,0.04711115
2733.12004761,0.04698405
2735.04885498,0.04694829
2736.97766235,0.04685193
2738.90646973,0.04664911
2740.83527710,0.04673278
2742.76408447,0.04652276
2744.69289185,0.04643301
2746.62169922,0.04635436
2748.55050659,0.04626989
2750.47931396,0.04627790
2752.40812134,0.04617807
2754.33692871,0.04604585
2756.26573608,0.04592130
2758.19454346,0.04604315
2760.12335083,0.04596138
2762.05215820,0.04574198
2763.98096558,0.04564529
2765.90977295,0.04558524
2767.83858032,0.04547300
2769.76738770,0.04533415
2771.69619507,0.04531591
2773.62500244,0.04520589
2775.55380981,0.04515035
2777.48261719,0.04509767
2779.41142456,0.04503256
2781.34023193,0.04495732
2783.26903931,0.04479200
2785.19784668,0.04476374
2787.12665405,0.04469789
2789.05546143,0.04444226
2790.98426880,0.04437131
2792.91307617,0.04448961
2794.84188354,0.04436189
2796.77069092,0.04421547
2798.69949829,0.04410535
2800.62830566,0.04397001
2802.55711304,0.04384274
2804.48592041,0.04381638
2806.41472778,0.04379469
2808.34353516,0.04358900
2810.27234253,0.04362737
2812.20114990,0.04349103
2814.12995728,0.04338460
2816.05876465,0.04337519
2817.98757202,0.04325166
2819.91637939,0.04323398
2821.84518677,0.04294892
2823.77399414,0.04302445
2825.70280151,0.04296821
2827.63160889,0.04276299
2829.56041626,0.04272760
2831.48922363,0.04252821
2833.41803101,0.04260061
2835.34683838,0.04238747
2837.27564575,0.04231870
2839.20445312,0.04224795
2841.13326050,0.04203312
2843.06206787,0.04199495
2844.99087524,0.04170876
2846.91968262,0.04153112
2848.84848999,0.04117946
2850.77729736,0.04106139
2852.70610474,0.04108126
2854.63491211,0.04097172
2856.56371948,0.04086591
2858.49252686,0.04075562
2860.42133423,0.04104321
2862.35014160,0.04082461
2864.27894897,0.04062513
2866.20775635,0.04066059
2868.13656372,0.04042354
2870.06537109,0.04046270
2871.99417847,0.04030896
2873.92298584,0.04019678
2875.85179321,0.04028069
2877.78060059,0.04020976
2879.70940796,0.04016179
2881.63821533,0.04012194
2883.56702270,0.04005862
2885.49583008,0.03990807
2887.42463745,0.03972105
2889.35344482,0.03973111
2891.28225220,0.03969922
2893.21105957,0.03959600
2895.13986694,0.03960702
2897.06867432,0.03939393
2898.99748169,0.03934556
2900.92628906,0.03923066
2902.85509644,0.03900785
2904.78390381,0.03906957
2906.71271118,0.03883378
2908.64151855,0.03873894
2910.57032593,0.03860207
2912.49913330,0.03830921
2914.42794067,0.03817692
2916.35674805,0.03788655
2918.28555542,0.03779302
2920.21436279,0.03783502
2922.14317017,0.03778306
2924.07197754,0.03766416
2926.00078491,0.03763942
2927.92959229,0.03760816
2929.85839966,0.03754189
2931.78720703,0.03752085
2933.71601440,0.03751046
2935.64482178,0.03756909
2937.57362915,0.03741944
2939.50243652,0.03743417
2941.43124390,0.03752386
2943.36005127,0.03749175
2945.28885864,0.03743934
2947.21766602,0.03732614
2949.14647339,0.03730750
2951.07528076,0.03713269
2953.00408813,0.03707436
2954.93289551,0.03700041
2956.86170288,0.03682353
2958.79051025,0.03673785
2960.71931763,0.03671912
2962.64812500,0.03660192
2964.57693237,0.03637484
2966.50573975,0.03655212
2968.43454712,0.03646813
2970.36335449,0.03645885
2972.29216187,0.03659118
2974.22096924,0.03640291
2976.14977661,0.03648308
2978.07858398,0.03637079
2980.00739136,0.03633605
2981.93619873,0.03636199
2983.86500610,0.03635093
2985.79381348,0.03639990
2987.72262085,0.03628976
2989.65142822,0.03630540
2991.58023560,0.03610499
2993.50904297,0.03603928
2995.43785034,0.03606921
2997.36665771,0.03599544
2999.29546509,0.03596778
3001.22427246,0.03584117
3003.15307983,0.03576569
3005.08188721,0.03563424
3007.01069458,0.03567566
3008.93950195,0.03565199
3010.86830933,0.03550779
3012.79711670,0.03543698
3014.72592407,0.03530236
3016.65473145,0.03523736
3018.58353882,0.03517317
3020.51234619,0.03509939
3022.44115356,0.03495651
3024.36996094,0.03493968
3026.29876831,0.03494686
3028.22757568,0.03480833
3030.15638306,0.03461213
3032.08519043,0.03447552
3034.01399780,0.03449494
3035.94280518,0.03444276
3037.87161255,0.03439289
3039.80041992,0.03424738
3041.72922729,0.03429416
3043.65803467,0.03427635
3045.58684204,0.03404670
3047.51564941,0.03409915
3049.44445679,0.03388314
3051.37326416,0.03381386
3053.30207153,0.03390861
3055.23087891,0.03373877
3057.15968628,0.03368372
3059.08849365,0.03362657
3061.01730103,0.03352796
3062.94610840,0.03339574
3064.87491577,0.03326828
3066.80372314,0.03316274
3068.73253052,0.03316986
3070.66133789,0.03309696
3072.59014526,0.03306016
3074.51895264,0.03313073
3076.44776001,0.03292298
3078.37656738,0.03285000
3080.30537476,0.03276695
3082.23418213,0.03270443
3084.16298950,0.03276537
3086.09179687,0.03266186
3088.02060425,0.03264110
3089.94941162,0.03259873
3091.87821899,0.03253748
3093.80702637,0.03235306
3095.73583374,0.03217158
3097.66464111,0.03220286
3099.59344849,0.03214101
3101.52225586,0.03197513
3103.45106323,0.03186516
3105.37987061,0.03187764
3107.30867798,0.03181684
3109.23748535,0.03170171
3111.16629272,0.03162210
3113.09510010,0.03159196
3115.02390747,0.03153756
3116.95271484,0.03135465
3118.88152222,0.03126767
3120.81032959,0.03117426
3122.73913696,0.03108655
3124.66794434,0.03105681
3126.59675171,0.03092647
3128.52555908,0.03090103
3130.45436645,0.03086789
3132.38317383,0.03068878
3134.31198120,0.03064987
3136.24078857,0.03057468
3138.16959595,0.03042616
3140.09840332,0.03037092
3142.02721069,0.03025066
3143.95601807,0.03022914
3145.88482544,0.03016378
3147.81363281,0.03000475
3149.74244019,0.02993593
3151.67124756,0.02984596
3153.60005493,0.02977002
3155.52886230,0.02966234
3157.45766968,0.02957714
3159.38647705,0.02945580
3161.31528442,0.02941721
3163.24409180,0.02937314
3165.17289917,0.02924903
3167.10170654,0.02926163
3169.03051392,0.02906472
3170.95932129,0.02893544
3172.88812866,0.02892359
3174.81693604,0.02886037
3176.74574341,0.02877036
3178.67455078,0.02856072
3180.60335815,0.02858446
3182.53216553,0.02857416
3184.46097290,0.02843896
3186.38978027,0.02829625
3188.31858765,0.02823825
3190.24739502,0.02820393
3192.17620239,0.02803688
3194.10500977,0.02807450
3196.03381714,0.02794090
3197.96262451,0.02780288
3199.89143188,0.02784499
3201.82023926,0.02770271
3203.74904663,0.02769879
3205.67785400,0.02772534
3207.60666138,0.02756349
3209.53546875,0.02737424
3211.46427612,0.02732212
3213.39308350,0.02737228
3215.32189087,0.02738914
3217.25069824,0.02729888
3219.17950562,0.02716024
3221.10831299,0.02707484
3223.03712036,0.02705417
3224.96592773,0.02705006
3226.89473511,0.02695132
3228.82354248,0.02690411
3230.75234985,0.02684618
3232.68115723,0.02681559
3234.60996460,0.02676614
3236.53877197,0.02666369
3238.46757935,0.02668900
3240.39638672,0.02659964
3242.32519409,0.02656438
3244.25400146,0.02645595
3246.18280884,0.02640195
3248.11161621,0.02650398
3250.04042358,0.02639133
3251.96923096,0.02636693
3253.89803833,0.02631285
3255.82684570,0.02632513
3257.75565308,0.02625830
3259.68446045,0.02613953
3261.61326782,0.02622063
3263.54207520,0.02609419
3265.47088257,0.02605211
3267.39968994,0.02601020
3269.32849731,0.02601652
3271.25730469,0.02597923
3273.18611206,0.02578314
3275.11491943,0.02581670
3277.04372681,0.02574316
3278.97253418,0.02587393
3280.90134155,0.02598671
3282.83014893,0.02579079
3284.75895630,0.02578845
3286.68776367,0.02574736
3288.61657104,0.02567538
3290.54537842,0.02559876
3292.47418579,0.02555316
3294.40299316,0.02557913
3296.33180054,0.02550355
3298.26060791,0.02546584
3300.18941528,0.02545813
3302.11822266,0.02547650
3304.04703003,0.02547168
3305.97583740,0.02539182
3307.90464478,0.02530149
3309.83345215,0.02519673
3311.76225952,0.02527928
3313.69106689,0.02530701
3315.61987427,0.02515451
3317.54868164,0.02517453
3319.47748901,0.02515177
3321.40629639,0.02512852
3323.33510376,0.02508451
3325.26391113,0.02492874
3327.19271851,0.02492276
3329.12152588,0.02496703
3331.05033325,0.02499521
3332.97914062,0.02482534
3334.90794800,0.02471045
3336.83675537,0.02470437
3338.76556274,0.02467663
3340.69437012,0.02476756
3342.62317749,0.02466801
3344.55198486,0.02461773
3346.48079224,0.02454965
3348.40959961,0.02455482
3350.33840698,0.02456566
3352.26721436,0.02435293
3354.19602173,0.02443261
3356.12482910,0.02438877
3358.05363647,0.02433000
3359.98244385,0.02431819
3361.91125122,0.02419053
3363.84005859,0.02412813
3365.76886597,0.02407830
3367.69767334,0.02408295
3369.62648071,0.02380782
3371.55528809,0.02390641
3373.48409546,0.02411853
3375.41290283,0.02391826
3377.34171020,0.02383359
3379.27051758,0.02375656
3381.19932495,0.02382485
3383.12813232,0.02377162
3385.05693970,0.02367077
3386.98574707,0.02364245
3388.91455444,0.02360960
3390.84336182,0.02353996
3392.77216919,0.02339275
3394.70097656,0.02345781
3396.62978394,0.02331744
3398.55859131,0.02323155
3400.48739868,0.02314995
3402.41620605,0.02307452
3404.34501343,0.02316554
3406.27382080,0.02306342
3408.20262817,0.02308148
3410.13143555,0.02298164
3412.06024292,0.02302739
3413.98905029,0.02296356
3415.91785767,0.02285238
3417.84666504,0.02306446
3419.77547241,0.02277954
3421.70427979,0.02262685
3423.63308716,0.02268865
3425.56189453,0.02267041
3427.49070190,0.02268976
3429.41950928,0.02256354
3431.34831665,0.02249568
3433.27712402,0.02248956
3435.20593140,0.02246731
3437.13473877,0.02233493
3439.06354614,0.02233627
3440.99235352,0.02221261
3442.92116089,0.02214551
3444.84996826,0.02220556
3446.77877563,0.02192517
3448.70758301,0.02206009
3450.63639038,0.02222675
3452.56519775,0.02212831
3454.49400513,0.02214742
3456.42281250,0.02198181
3458.35161987,0.02198668
3460.28042725,0.02199790
3462.20923462,0.02179942
3464.13804199,0.02183884
3466.06684937,0.02182657
3467.99565674,0.02167285
3469.92446411,0.02163063
3471.85327148,0.02169791
3473.78207886,0.02176891
3475.71088623,0.02156385
3477.63969360,0.02164707
3479.56850098,0.02168053
3481.49730835,0.02132052
3483.42611572,0.02147353
3485.35492310,0.02152110
3487.28373047,0.02138886
3489.21253784,0.02141758
3491.14134521,0.02147808
3493.07015259,0.02152129
3494.99895996,0.02141603
3496.92776733,0.02145889
3498.85657471,0.02148725
3500.78538208,0.02146199
3502.71418945,0.02095591
3504.64299683,0.02095468
3506.57180420,0.02157621
3508.50061157,0.02122498
3510.42941895,0.02105480
3512.35822632,0.02123496
3514.28703369,0.02134909
3516.21584106,0.02134779
3518.14464844,0.02120449
3520.07345581,0.02129927
3522.00226318,0.02100424
3523.93107056,0.02087510
3525.85987793,0.02088626
3527.78868530,0.02073559
3529.71749268,0.02084091
3531.64630005,0.02106924
3533.57510742,0.02125275
3535.50391479,0.02106025
3537.43272217,0.02097693
3539.36152954,0.02118733
3541.29033691,0.02114617
3543.21914429,0.02091425
3545.14795166,0.02050407
3547.07675903,0.02028732
3549.00556641,0.02092472
3550.93437378,0.02089463
3552.86318115,0.02044964
3554.79198853,0.02100493
3556.72079590,0.02099448
3558.64960327,0.02093895
3560.57841064,0.02083876
3562.50721802,0.02067549
3564.43602539,0.02081477
3566.36483276,0.01939569
3568.29364014,0.01897152
3570.22244751,0.02054027
3572.15125488,0.02095676
3574.08006226,0.02068454
3576.00886963,0.02084768
3577.93767700,0.02080271
3579.86648437,0.02076725
3581.79529175,0.02069164
3583.72409912,0.02070749
3585.65290649,0.02023414
3587.58171387,0.01861614
3589.51052124,0.01932802
3591.43932861,0.02091154
3593.36813599,0.02023172
3595.29694336,0.01987479
3597.22575073,0.02025232
3599.15455811,0.02040638
3601.08336548,0.02022191
3603.01217285,0.02053208
3604.94098022,0.02083580
3606.86978760,0.02001891
3608.79859497,0.01888994
3610.72740234,0.01931307
3612.65620972,0.01964913
3614.58501709,0.01918058
3616.51382446,0.02052135
3618.44263184,0.01886762
3620.37143921,0.01847075
3622.30024658,0.02074865
3624.22905395,0.02009363
3626.15786133,0.02094328
3628.08666870,0.01771184
3630.01547607,0.01637409
3631.94428345,0.02046946
3633.87309082,0.01986584
3635.80189819,0.02019649
3637.73070557,0.02062443
3639.65951294,0.02030291
3641.58832031,0.02047299
3643.51712769,0.02034405
3645.44593506,0.02037304
3647.37474243,0.01819467
3649.30354980,0.01678998
3651.23235718,0.01713389
3653.16116455,0.02029434
3655.08997192,0.01984762
3657.01877930,0.01796153
3658.94758667,0.02060014
3660.87639404,0.02006497
3662.80520142,0.02041548
3664.73400879,0.02021812
3666.66281616,0.02017425
3668.59162354,0.01952084
3670.52043091,0.01596019
3672.44923828,0.01940301
3674.37804565,0.01823728
3676.30685303,0.01527208
3678.23566040,0.01917065
3680.16446777,0.01957011
3682.09327515,0.01966365
3684.02208252,0.02014132
3685.95088989,0.01982946
3687.87969727,0.01772521
3689.80850464,0.01649530
3691.73731201,0.01878879
3693.66611938,0.01915262
3695.59492676,0.01975942
3697.52373413,0.01960158
3699.45254150,0.01943410
3701.38134888,0.01894430
3703.31015625,0.01825783
3705.23896362,0.02008608
3707.16777100,0.01899339
3709.09657837,0.01857537
3711.02538574,0.01751527
3712.95419312,0.01655434
3714.88300049,0.01920987
3716.81180786,0.01892105
3718.74061523,0.01905861
3720.66942261,0.01851670
3722.59822998,0.01805619
3724.52703735,0.01864309
3726.45584473,0.01739406
3728.38465210,0.01878536
3730.31345947,0.01852114
3732.24226685,0.01717602
3734.17107422,0.01663585
3736.09988159,0.01588676
3738.02868896,0.01678674
3739.95749634,0.01824072
3741.88630371,0.01896990
3743.81511108,0.01457500
3745.74391846,0.01408446
3747.67272583,0.01808440
3749.60153320,0.01539386
3751.53034058,0.01440995
3753.45914795,0.01658805
3755.38795532,0.01772385
3757.31676270,0.01835428
3759.24557007,0.01691515
3761.17437744,0.01760327
3763.10318481,0.01869788
3765.03199219,0.01736557
3766.96079956,0.01786076
3768.88960693,0.01756319
3770.81841431,0.01674409
3772.74722168,0.01818153
3774.67602905,0.01818846
3776.60483643,0.01817813
3778.53364380,0.01760411
3780.46245117,0.01708352
3782.39125854,0.01820134
3784.32006592,0.01765493
3786.24887329,0.01750121
3788.17768066,0.01796037
3790.10648804,0.01790513
3792.03529541,0.01766447
3793.96410278,0.01804455
3795.89291016,0.01693708
3797.82171753,0.01674763
3799.75052490,0.01757711
3801.67933228,0.01398613
3803.60813965,0.01647790
3805.53694702,0.01759744
3807.46575439,0.01458885
3809.39456177,0.01764996
3811.32336914,0.01720156
3813.25217651,0.01779241
3815.18098389,0.01583968
3817.10979126,0.01420596
3819.03859863,0.01773334
3820.96740601,0.01425408
3822.89621338,0.01529174
3824.82502075,0.01753914
3826.75382812,0.01593265
3828.68263550,0.01720299
3830.61144287,0.01642428
3832.54025024,0.01599239
3834.46905762,0.01622272
3836.39786499,0.01539231
3838.32667236,0.01407135
3840.25547974,0.01518670
3842.18428711,0.01627733
3844.11309448,0.01557177
3846.04190186,0.01677956
3847.97070923,0.01649752
3849.89951660,0.01658416
3851.82832397,0.01486571
3853.75713135,0.01116326
3855.68593872,0.01337802
3857.61474609,0.01666368
3859.54355347,0.01607582
3861.47236084,0.01591165
3863.40116821,0.01556538
3865.32997559,0.01456177
3867.25878296,0.01625920
3869.18759033,0.01476878
3871.11639770,0.01378816
3873.04520508,0.01620866
3874.97401245,0.01489260
3876.90281982,0.01615871
3878.83162720,0.01626673
3880.76043457,0.01402039
3882.68924194,0.01612988
3884.61804932,0.01498749
3886.54685669,0.01388253
3888.47566406,0.01621353
3890.40447144,0.01522378
3892.33327881,0.01436910
3894.26208618,0.01583200
3896.19089355,0.01596098
3898.11970093,0.01522950
3900.04850830,0.01452682
3901.97731567,0.01434181
3903.90612305,0.01412674
3905.83493042,0.01434409
3907.76373779,0.01572917
3909.69254517,0.01564018
3911.62135254,0.01551277
3913.55015991,0.01573676
3915.47896728,0.01518781
3917.40777466,0.01487224
3919.33658203,0.01470697
3921.26538940,0.01523026
3923.19419678,0.01510397
3925.12300415,0.01481350
3927.05181152,0.01508547
3928.98061890,0.01523869
3930.90942627,0.01493406
3932.83823364,0.01434918
3934.76704102,0.01504614
3936.69584839,0.01519303
3938.62465576,0.01505642
3940.55346313,0.01521987
3942.48227051,0.01461412
3944.41107788,0.01473396
3946.33988525,0.01493772
3948.26869263,0.01466854
3950.19750000,0.01458677
3952.12630737,0.01477840
3954.05511475,0.01485718
3955.98392212,0.01474966
3957.91272949,0.01477963
3959.84153687,0.01476193
3961.77034424,0.01463273
3963.69915161,0.01455463
3965.62795898,0.01472787
3967.55676636,0.01470706
3969.48557373,0.01455561
3971.41438110,0.01442752
3973.34318848,0.01442063
3975.27199585,0.01443488
3977.20080322,0.01444285
3979.12961060,0.01450685
3981.05841797,0.01429491
3982.98722534,0.01435851
3984.91603271,0.01427904
3986.84484009,0.01425684
3988.77364746,0.01427423
3990.70245483,0.01409340
3992.63126221,0.01416621
3994.56006958,0.01405908
3996.48887695,0.01423655
3998.41768433,0.01411936
4000.34649170,0.01407506
4002.27529907,0.01414823
4004.20410645,0.01386803
4006.13291382,0.01402422
4008.06172119,0.01389729
4009.99052856,0.01385646
4011.91933594,0.01389581
4013.84814331,0.01385436
4015.77695068,0.01379469
4017.70575806,0.01374580
4019.63456543,0.01382000
4021.56337280,0.01367673
4023.49218018,0.01378286
4025.42098755,0.01356633
4027.34979492,0.01362911
4029.27860229,0.01371453
4031.20740967,0.01351787
4033.13621704,0.01367564
4035.06502441,0.01341611
4036.99383179,0.01348790
4038.92263916,0.01350263
4040.85144653,0.01341383
4042.78025391,0.01345293
4044.70906128,0.01335131
4046.63786865,0.01341563
4048.56667603,0.01325795
4050.49548340,0.01336569
4052.42429077,0.01327146
4054.35309814,0.01317165
4056.28190552,0.01328134
4058.21071289,0.01313441
4060.13952026,0.01318867
4062.06832764,0.01308654
4063.99713501,0.01296556
4065.92594238,0.01302456
4067.85474976,0.01305717
4069.78355713,0.01295887
4071.71236450,0.01292058
4073.64117187,0.01294985
4075.56997925,0.01292187
4077.49878662,0.01286465
4079.42759399,0.01273639
4081.35640137,0.01276558
4083.28520874,0.01273403
4085.21401611,0.01275817
4087.14282349,0.01268157
4089.07163086,0.01260573
4091.00043823,0.01264037
4092.92924561,0.01256891
4094.85805298,0.01261525
4096.78686035,0.01249625
4098.71566772,0.01254375
4100.64447510,0.01252294
4102.57328247,0.01247682
4104.50208984,0.01247878
4106.43089722,0.01229860
4108.35970459,0.01241718
4110.28851196,0.01234105
4112.21731934,0.01229040
4114.14612671,0.01232861
4116.07493408,0.01228864
4118.00374145,0.01223805
4119.93254883,0.01223276
4121.86135620,0.01228499
4123.79016357,0.01203862
4125.71897095,0.01206612
4127.64777832,0.01209969
4129.57658569,0.01206222
4131.50539307,0.01205768
4133.43420044,0.01199454
4135.36300781,0.01202924
4137.29181519,0.01192812
4139.22062256,0.01198338
4141.14942993,0.01190835
4143.07823730,0.01181754
4145.00704468,0.01178612
4146.93585205,0.01182146
4148.86465942,0.01184359
4150.79346680,0.01169887
4152.72227417,0.01182349
4154.65108154,0.01170217
4156.57988892,0.01162246
4158.50869629,0.01164627
4160.43750366,0.01163589
4162.36631103,0.01166745
4164.29511841,0.01155899
4166.22392578,0.01153263
4168.15273315,0.01149819
4170.08154053,0.01163922
4172.01034790,0.01142745
4173.93915527,0.01139996
4175.86796265,0.01156426
4177.79677002,0.01127513
4179.72557739,0.01133307
4181.65438477,0.01134014
4183.58319214,0.01130429
4185.51199951,0.01126364
4187.44080688,0.01127053
4189.36961426,0.01122998
4191.29842163,0.01107535
4193.22722900,0.01118944
4195.15603638,0.01108687
4197.08484375,0.01113674
4199.01365112,0.01107105
4200.94245850,0.01100906
4202.87126587,0.01112665
4204.80007324,0.01096390
4206.72888062,0.01097788
4208.65768799,0.01091756
4210.58649536,0.01088270
4212.51530273,0.01087118
4214.44411011,0.01087485
4216.37291748,0.01087099
4218.30172485,0.01072919
4220.23053223,0.01081457
4222.15933960,0.01081113
4224.08814697,0.01072605
4226.01695435,0.01074722
4227.94576172,0.01077424
4229.87456909,0.01065395
4231.80337646,0.01062269
4233.73218384,0.01069443
4235.66099121,0.01063109
4237.58979858,0.01058548
4239.51860596,0.01049233
4241.44741333,0.01048131
4243.37622070,0.01041279
4245.30502808,0.01045535
4247.23383545,0.01050268
4249.16264282,0.01036159
4251.09145020,0.01038383
4253.02025757,0.01033526
4254.94906494,0.01030878
4256.87787231,0.01020881
4258.80667969,0.01020426
4260.73548706,0.01030145
4262.66429443,0.01017450
4264.59310181,0.01018693
4266.52190918,0.01020071
4268.45071655,0.01014538
4270.37952393,0.01010150
4272.30833130,0.01011846
4274.23713867,0.01013108
4276.16594604,0.01009896
4278.09475342,0.01009937
4280.02356079,0.01002082
4281.95236816,0.01002387
4283.88117554,0.00999719
4285.80998291,0.00990242
4287.73879028,0.00989159
4289.66759766,0.00990383
4291.59640503,0.00985611
4293.52521240,0.00981298
4295.45401978,0.00982799
4297.38282715,0.00977371
4299.31163452,0.00975000
4301.24044189,0.00981077
4303.16924927,0.00977839
4305.09805664,0.00966720
4307.02686401,0.00971704
4308.95567139,0.00968285
4310.88447876,0.00955024
4312.81328613,0.00953258
4314.74209351,0.00952641
4316.67090088,0.00960797
4318.59970825,0.00952800
4320.52851562,0.00946636
4322.45732300,0.00949844
4324.38613037,0.00945704
4326.31493774,0.00948999
4328.24374512,0.00943245
4330.17255249,0.00941481
4332.10135986,0.00941965
4334.03016724,0.00935447
4335.95897461,0.00932076
4337.88778198,0.00936600
4339.81658936,0.00934381
4341.74539673,0.00930748
4343.67420410,0.00933845
4345.60301147,0.00919757
4347.53181885,0.00917327
4349.46062622,0.00918770
4351.38943359,0.00916471
4353.31824097,0.00913302
4355.24704834,0.00907399
4357.17585571,0.00910973
4359.10466309,0.00905425
4361.03347046,0.00908623
4362.96227783,0.00905951
4364.89108520,0.00900021
4366.81989258,0.00899929
4368.74869995,0.00899600
4370.67750732,0.00898173
4372.60631470,0.00885246
4374.53512207,0.00885187
4376.46392944,0.00881175
4378.39273682,0.00889804
4380.32154419,0.00888853
4382.25035156,0.00870499
4384.17915894,0.00883749
4386.10796631,0.00887618
4388.03677368,0.00873837
4389.96558105,0.00863583
4391.89438843,0.00867003
4393.82319580,0.00863262
4395.75200317,0.00862609
4397.68081055,0.00868241
4399.60961792,0.00862623
4401.53842529,0.00859823
4403.46723267,0.00849237
4405.39604004,0.00857887
4407.32484741,0.00854262
4409.25365478,0.00847260
4411.18246216,0.00851220
4413.11126953,0.00841552
4415.04007690,0.00846949
4416.96888428,0.00839291
4418.89769165,0.00844833
4420.82649902,0.00847824
4422.75530640,0.00834340
4424.68411377,0.00833927
4426.61292114,0.00828263
4428.54172852,0.00828792
4430.47053589,0.00825912
4432.39934326,0.00826274
4434.32815063,0.00819958
4436.25695801,0.00820510
4438.18576538,0.00824084
4440.11457275,0.00818250
4442.04338013,0.00825013
4443.97218750,0.00813937
4445.90099487,0.00810879
4447.82980225,0.00812891
4449.75860962,0.00804931
4451.68741699,0.00803432
4453.61622437,0.00802752
4455.54503174,0.00802181
4457.47383911,0.00799664
4459.40264648,0.00797416
4461.33145386,0.00791281
4463.26026123,0.00796298
4465.18906860,0.00789138
4467.11787598,0.00784668
4469.04668335,0.00789423
4470.97549072,0.00779367
4472.90429810,0.00781716
4474.83310547,0.00778500
4476.76191284,0.00781429
4478.69072021,0.00783082
4480.61952759,0.00776937
4482.54833496,0.00773781
4484.47714233,0.00770709
4486.40594971,0.00775877
4488.33475708,0.00764333
4490.26356445,0.00767250
4492.19237183,0.00771335
4494.12117920,0.00758555
4496.04998657,0.00762184
4497.97879395,0.00767509
4499.90760132,0.00760390
4501.83640869,0.00751065
4503.76521606,0.00751660
4505.69402344,0.00746124
4507.62283081,0.00750163
4509.55163818,0.00753410
4511.48044556,0.00743829
4513.40925293,0.00741400
4515.33806030,0.00737096
4517.26686768,0.00741255
4519.19567505,0.00741488
4521.12448242,0.00731914
4523.05328979,0.00733052
4524.98209717,0.00744140
4526.91090454,0.00730201
4528.83971191,0.00716970
4530.76851929,0.00736192
4532.69732666,0.00734905
4534.62613403,0.00721043
4536.55494141,0.00717996
4538.48374878,0.00719701
4540.41255615,0.00711902
4542.34136353,0.00709769
4544.27017090,0.00716300
4546.19897827,0.00710031
4548.12778564,0.00712461
4550.05659302,0.00708684
4551.98540039,0.00705554
4553.91420776,0.00701846
4555.84301514,0.00699342
4557.77182251,0.00703075
4559.70062988,0.00694867
4561.62943726,0.00695766
4563.55824463,0.00694082
4565.48705200,0.00696510
4567.41585937,0.00694255
4569.34466675,0.00685938
4571.27347412,0.00687966
4573.20228149,0.00688302
4575.13108887,0.00688345
4577.05989624,0.00682305
4578.98870361,0.00679961
4580.91751099,0.00676736
4582.84631836,0.00687563
4584.77512573,0.00683842
4586.70393311,0.00667859
4588.63274048,0.00673605
4590.56154785,0.00667143
4592.49035522,0.00672125
4594.41916260,0.00662639
4596.34796997,0.00660191
4598.27677734,0.00677117
4600.20558472,0.00662088
4602.13439209,0.00658067
4604.06319946,0.00663027
4605.99200684,0.00666948
4607.92081421,0.00659329
4609.84962158,0.00652803
4611.77842895,0.00660264
4613.70723633,0.00655872
4615.63604370,0.00648069
4617.56485107,0.00646632
4619.49365845,0.00653099
4621.42246582,0.00638778
4623.35127319,0.00635763
4625.28008057,0.00645129
4627.20888794,0.00630128
4629.13769531,0.00630147
4631.06650269,0.00635466
4632.99531006,0.00628840
4634.92411743,0.00627227
4636.85292480,0.00635501
4638.78173218,0.00632201
4640.71053955,0.00620034
4642.63934692,0.00625114
4644.56815430,0.00635296
4646.49696167,0.00627669
4648.42576904,0.00617463
4650.35457642,0.00618486
4652.28338379,0.00609549
4654.21219116,0.00613798
4656.14099853,0.00616445
4658.06980591,0.00610007
4659.99861328,0.00614634
4661.92742065,0.00603886
4663.85622803,0.00603812
4665.78503540,0.00607463
4667.71384277,0.00604353
4669.64265015,0.00606223
4671.57145752,0.00602901
4673.50026489,0.00601721
4675.42907227,0.00597469
4677.35787964,0.00592075
4679.28668701,0.00586683
4681.21549438,0.00588613
4683.14430176,0.00594267
4685.07310913,0.00592395
4687.00191650,0.00585616
4688.93072388,0.00587042
4690.85953125,0.00588463
4692.78833862,0.00576978
4694.71714600,0.00583206
4696.64595337,0.00588472
4698.57476074,0.00586362
4700.50356812,0.00584910
4702.43237549,0.00571517
4704.36118286,0.00565103
4706.28999023,0.00565780
4708.21879761,0.00570286
4710.14760498,0.00569207
4712.07641235,0.00569670
4714.00521973,0.00573878
4715.93402710,0.00570373
4717.86283447,0.00564640
4719.79164185,0.00563469
4721.72044922,0.00567544
4723.64925659,0.00556901
4725.57806396,0.00554677
4727.50687134,0.00561128
4729.43567871,0.00553313
4731.36448608,0.00554698
4733.29329346,0.00557742
4735.22210083,0.00551238
4737.15090820,0.00554355
4739.07971558,0.00557847
4741.00852295,0.00547883
4742.93733032,0.00545115
4744.86613770,0.00542141
4746.79494507,0.00543572
4748.72375244,0.00546707
4750.65255981,0.00535620
4752.58136719,0.00534304
4754.51017456,0.00536000
4756.43898193,0.00538847
4758.36778931,0.00534276
4760.29659668,0.00535061
4762.22540405,0.00544234
4764.15421143,0.00532875
4766.08301880,0.00530464
4768.01182617,0.00533440
4769.94063354,0.00533858
4771.86944092,0.00529055
4773.79824829,0.00521252
4775.72705566,0.00527722
4777.65586304,0.00531103
4779.58467041,0.00526879
4781.51347778,0.00517857
4783.44228516,0.00515297
4785.37109253,0.00517844
4787.29989990,0.00516379
4789.22870728,0.00509477
4791.15751465,0.00511573
4793.08632202,0.00515923
4795.01512939,0.00503878
4796.94393677,0.00507374
4798.87274414,0.00512072
4800.80155151,0.00504664
4802.73035889,0.00499026
4804.65916626,0.00497666
4806.58797363,0.00497620
4808.51678101,0.00496616
4810.44558838,0.00502253
4812.37439575,0.00495581
4814.30320312,0.00495279
4816.23201050,0.00494249
4818.16081787,0.00489697
4820.08962524,0.00497262
4822.01843262,0.00492371
4823.94723999,0.00489571
4825.87604736,0.00481710
4827.80485474,0.00484154
4829.73366211,0.00489509
4831.66246948,0.00475595
4833.59127686,0.00476614
4835.52008423,0.00477899
4837.44889160,0.00483117
4839.37769897,0.00491294
4841.30650635,0.00483610
4843.23531372,0.00479480
4845.16412109,0.00482264
4847.09292847,0.00475038
4849.02173584,0.00471115
4850.95054321,0.00478680
4852.87935059,0.00472203
4854.80815796,0.00465089
4856.73696533,0.00465560
4858.66577270,0.00472397
4860.59458008,0.00472212
4862.52338745,0.00463761
4864.45219482,0.00467848
4866.38100220,0.00456357
4868.30980957,0.00456815
4870.23861694,0.00466063
4872.16742432,0.00453242
4874.09623169,0.00457283
4876.02503906,0.00460828
4877.95384644,0.00460877
4879.88265381,0.00459736
4881.81146118,0.00449103
4883.74026855,0.00452239
4885.66907593,0.00448992
4887.59788330,0.00450238
4889.52669067,0.00455014
4891.45549805,0.00445519
4893.38430542,0.00446369
4895.31311279,0.00440786
4897.24192017,0.00440081
4899.17072754,0.00442280
4901.09953491,0.00433754
4903.02834228,0.00441732
4904.95714966,0.00440372
4906.88595703,0.00438675
4908.81476440,0.00440651
4910.74357178,0.00430344
4912.67237915,0.00433527
4914.60118652,0.00435053
4916.52999390,0.00427850
4918.45880127,0.00430665
4920.38760864,0.00437350
4922.31641602,0.00429387
4924.24522339,0.00425723
4926.17403076,0.00429709
4928.10283813,0.00425098
4930.03164551,0.00424614
4931.96045288,0.00420874
4933.88926025,0.00423163
4935.81806763,0.00423344
4937.74687500,0.00413518
4939.67568237,0.00411053
4941.60448975,0.00412712
4943.53329712,0.00419741
4945.46210449,0.00417249
4947.39091187,0.00407824
4949.31971924,0.00407048
4951.24852661,0.00415299
4953.17733398,0.00414556
4955.10614136,0.00408116
4957.03494873,0.00411185
4958.96375610,0.00405340
4960.89256348,0.00404365
4962.82137085,0.00405124
4964.75017822,0.00403561
4966.67898560,0.00407768
4968.60779297,0.00403278
4970.53660034,0.00398924
4972.46540771,0.00396936
4974.39421509,0.00400331
4976.32302246,0.00399570
4978.25182983,0.00387082
4980.18063721,0.00388764
4982.10944458,0.00400145
4984.03825195,0.00394400
4985.96705933,0.00386316
4987.89586670,0.00384555
4989.82467407,0.00382690
4991.75348145,0.00391544
4993.68228882,0.00389390
4995.61109619,0.00378563
4997.53990356,0.00381002
4999.46871094,0.00386979
5001.39751831,0.00376566
5003.32632568,0.00372121
5005.25513306,0.00391252
5007.18394043,0.00379589
5009.11274780,0.00368048
5011.04155518,0.00381011
5012.97036255,0.00378747
5014.89916992,0.00374465
5016.82797729,0.00370774
5018.75678467,0.00369848
5020.68559204,0.00372000
5022.61439941,0.00372481
5024.54320679,0.00370832
5026.47201416,0.00371846
5028.40082153,0.00364585
5030.32962891,0.00356887
5032.25843628,0.00367423
5034.18724365,0.00365330
5036.11605103,0.00361300
5038.04485840,0.00363431
5039.97366577,0.00364583
5041.90247314,0.00360805
5043.83128052,0.00357738
5045.76008789,0.00359754
5047.68889526,0.00355211
5049.61770264,0.00361952
5051.54651001,0.00356568
5053.47531738,0.00356027
5055.40412476,0.00356124
5057.33293213,0.00349195
5059.26173950,0.00359577
5061.19054687,0.00350039
5063.11935425,0.00355171
5065.04816162,0.00353570
5066.97696899,0.00343788
5068.90577637,0.00352493
5070.83458374,0.00341325
5072.76339111,0.00349342
5074.69219849,0.00357999
5076.62100586,0.00350217
5078.54981323,0.00347185
5080.47862061,0.00344091
5082.40742798,0.00340053
5084.33623535,0.00339822
5086.26504272,0.00343447
5088.19385010,0.00335870
5090.12265747,0.00336833
5092.05146484,0.00339290
5093.98027222,0.00342354
5095.90907959,0.00338196
5097.83788696,0.00332893
5099.76669434,0.00342223
5101.69550171,0.00333336
5103.62430908,0.00332111
5105.55311645,0.00331930
5107.48192383,0.00327502
5109.41073120,0.00326320
5111.33953857,0.00320589
5113.26834595,0.00325660
5115.19715332,0.00321800
5117.12596069,0.00323452
5119.05476807,0.00325836
5120.98357544,0.00326972
5122.91238281,0.00330461
5124.84119019,0.00325664
5126.76999756,0.00330298
5128.69880493,0.00319539
5130.62761230,0.00313357
5132.55641968,0.00321262
5134.48522705,0.00315954
5136.41403442,0.00317823
5138.34284180,0.00313104
5140.27164917,0.00306390
5142.20045654,0.00317271
5144.12926392,0.00317907
5146.05807129,0.00311919
5147.98687866,0.00310353
5149.91568603,0.00312351
5151.84449341,0.00315529
5153.77330078,0.00310132
5155.70210815,0.00312987
5157.63091553,0.00306771
5159.55972290,0.00302514
5161.48853027,0.00312736
5163.41733765,0.00303623
5165.34614502,0.00304123
5167.27495239,0.00308862
5169.20375977,0.00306203
5171.13256714,0.00299897
5173.06137451,0.00291402
5174.99018188,0.00299599
5176.91898926,0.00299082
5178.84779663,0.00291734
5180.77660400,0.00292924
5182.70541138,0.00300487
5184.63421875,0.00294203
5186.56302612,0.00289315
5188.49183350,0.00300994
5190.42064087,0.00295548
5192.34944824,0.00295832
5194.27825562,0.00299516
5196.20706299,0.00290592
5198.13587036,0.00282360
5200.06467773,0.00286603
5201.99348511,0.00291633
5203.92229248,0.00283275
5205.85109985,0.00280775
5207.77990723,0.00274486
5209.70871460,0.00282380
5211.63752197,0.00293737
5213.56632935,0.00285298
5215.49513672,0.00281021
5217.42394409,0.00286282
5219.35275146,0.00288427
5221.28155884,0.00277456
5223.21036621,0.00280170
5225.13917358,0.00274916
5227.06798096,0.00273644
5228.99678833,0.00285118
5230.92559570,0.00272850
5232.85440308,0.00273948
5234.78321045,0.00276698
5236.71201782,0.00275048
5238.64082520,0.00275051
5240.56963257,0.00278433
5242.49843994,0.00280137
5244.42724731,0.00266416
5246.35605469,0.00270755
5248.28486206,0.00264366
5250.21366943,0.00260761
5252.14247681,0.00271430
5254.07128418,0.00264652
5256.00009155,0.00264816
5257.92889893,0.00269781
5259.85770630,0.00271912
5261.78651367,0.00262686
5263.71532104,0.00259220
5265.64412842,0.00265969
5267.57293579,0.00264409
5269.50174316,0.00264508
5271.43055054,0.00262735
5273.35935791,0.00263320
5275.28816528,0.00264297
5277.21697266,0.00263514
5279.14578003,0.00257228
5281.07458740,0.00258048
5283.00339478,0.00266053
5284.93220215,0.00255826
5286.86100952,0.00256305
5288.78981689,0.00258414
5290.71862427,0.00250691
5292.64743164,0.00255778
5294.57623901,0.00256704
5296.50504639,0.00255736
5298.43385376,0.00251983
5300.36266113,0.00246568
5302.29146851,0.00252608
5304.22027588,0.00255939
5306.14908325,0.00248277
5308.07789062,0.00241974
5310.00669800,0.00250775
5311.93550537,0.00252321
5313.86431274,0.00247032
5315.79312012,0.00246506
5317.72192749,0.00239388
5319.65073486,0.00246802
5321.57954224,0.00245216
5323.50834961,0.00235908
5325.43715698,0.00243562
5327.36596436,0.00236199
5329.29477173,0.00236726
5331.22357910,0.00247784
5333.15238647,0.00241206
5335.08119385,0.00235198
5337.01000122,0.00233521
5338.93880859,0.00228295
5340.86761597,0.00236188
5342.79642334,0.00237687
5344.72523071,0.00224607
5346.65403809,0.00232842
5348.58284546,0.00230116
5350.51165283,0.00230493
5352.44046020,0.00233493
5354.36926758,0.00219865
5356.29807495,0.00226715
5358.22688232,0.00225607
5360.15568970,0.00233222
5362.08449707,0.00230564
5364.01330444,0.00224523
5365.94211182,0.00234349
5367.87091919,0.00216125
5369.79972656,0.00225066
5371.72853394,0.00229249
5373.65734131,0.00222666
5375.58614868,0.00223021
5377.51495605,0.00210488
5379.44376343,0.00221889
5381.37257080,0.00224674
5383.30137817,0.00228852
5385.23018555,0.00225990
5387.15899292,0.00217729
5389.08780029,0.00230310
5391.01660767,0.00227244
5392.94541504,0.00219033
5394.87422241,0.00210034
5396.80302978,0.00211380
5398.73183716,0.00221908
5400.66064453,0.00220746
5402.58945190,0.00212009
5404.51825928,0.00211463
5406.44706665,0.00214961
5408.37587402,0.00212827
5410.30468140,0.00212888
5412.23348877,0.00204162
5414.16229614,0.00209051
5416.09110352,0.00213457
5418.01991089,0.00212723
5419.94871826,0.00219577
5421.87752563,0.00210692
5423.80633301,0.00211423
5425.73514038,0.00217682
5427.66394775,0.00212774
5429.59275513,0.00195174
5431.52156250,0.00198190
5433.45036987,0.00209385
5435.37917725,0.00193711
5437.30798462,0.00200957
5439.23679199,0.00204001
5441.16559936,0.00194528
5443.09440674,0.00199751
5445.02321411,0.00199375
5446.95202148,0.00194950
5448.88082886,0.00196085
5450.80963623,0.00203074
5452.73844360,0.00203529
5454.66725098,0.00203183
5456.59605835,0.00199026
5458.52486572,0.00200551
5460.45367310,0.00204381
5462.38248047,0.00199772
5464.31128784,0.00196635
5466.24009521,0.00193464
5468.16890259,0.00199764
5470.09770996,0.00196657
5472.02651733,0.00197906
5473.95532471,0.00196262
5475.88413208,0.00187045
5477.81293945,0.00198328
5479.74174683,0.00195460
5481.67055420,0.00195534
5483.59936157,0.00194431
5485.52816895,0.00189281
5487.45697632,0.00196813
5489.38578369,0.00186523
5491.31459106,0.00182046
5493.24339844,0.00184448
5495.17220581,0.00183341
5497.10101318,0.00184167
5499.02982056,0.00184620
5500.95862793,0.00188685
5502.88743530,0.00184170
5504.81624268,0.00184290
5506.74505005,0.00187173
5508.67385742,0.00185935
5510.60266479,0.00189380
5512.53147217,0.00180583
5514.46027954,0.00184016
5516.38908691,0.00194625
5518.31789429,0.00177600
5520.24670166,0.00177513
5522.17550903,0.00182435
5524.10431641,0.00176676
5526.03312378,0.00183127
5527.96193115,0.00181754
5529.89073853,0.00186970
5531.81954590,0.00183995
5533.74835327,0.00173950
5535.67716064,0.00177989
5537.60596802,0.00178019
5539.53477539,0.00182573
5541.46358276,0.00180945
5543.39239014,0.00175490
5545.32119751,0.00173918
5547.25000488,0.00175210
5549.17881226,0.00181183
5551.10761963,0.00174489
5553.03642700,0.00168361
5554.96523437,0.00178191
5556.89404175,0.00179587
5558.82284912,0.00166360
5560.75165649,0.00170474
5562.68046387,0.00173386
5564.60927124,0.00170939
5566.53807861,0.00174969
5568.46688599,0.00165092
5570.39569336,0.00168120
5572.32450073,0.00173909
5574.25330811,0.00169115
5576.18211548,0.00169735
5578.11092285,0.00164158
5580.03973022,0.00158808
5581.96853760,0.00164772
5583.89734497,0.00172925
5585.82615234,0.00166255
5587.75495972,0.00163671
5589.68376709,0.00168882
5591.61257446,0.00163379
5593.54138184,0.00162050
5595.47018921,0.00166903
5597.39899658,0.00165581
5599.32780395,0.00162043
5601.25661133,0.00162379
5603.18541870,0.00159408
5605.11422607,0.00158488
5607.04303345,0.00164460
5608.97184082,0.00169518
5610.90064819,0.00164055
5612.82945557,0.00160578
5614.75826294,0.00168822
5616.68707031,0.00163144
5618.61587769,0.00156707
5620.54468506,0.00158161
5622.47349243,0.00157258
5624.40229980,0.00152341
5626.33110718,0.00149007
5628.25991455,0.00160493
5630.18872192,0.00158174
5632.11752930,0.00153413
5634.04633667,0.00160676
5635.97514404,0.00154509
5637.90395142,0.00154148
5639.83275879,0.00164666
5641.76156616,0.00159692
5643.69037353,0.00150957
5645.61918091,0.00156295
5647.54798828,0.00153993
5649.47679565,0.00147364
5651.40560303,0.00156366
5653.33441040,0.00163839
5655.26321777,0.00151771
5657.19202515,0.00148320
5659.12083252,0.00153942
5661.04963989,0.00146171
5662.97844727,0.00151151
5664.90725464,0.00148058
5666.83606201,0.00144138
5668.76486938,0.00154447
5670.69367676,0.00150775
5672.62248413,0.00149503
5674.55129150,0.00146744
5676.48009888,0.00149927
5678.40890625,0.00148822
5680.33771362,0.00145532
5682.26652100,0.00148160
5684.19532837,0.00139550
5686.12413574,0.00146583
5688.05294311,0.00143519
5689.98175049,0.00138818
5691.91055786,0.00142305
5693.83936523,0.00136621
5695.76817261,0.00146078
5697.69697998,0.00143232
5699.62578735,0.00137540
5701.55459473,0.00141885
5703.48340210,0.00142941
5705.41220947,0.00145070
5707.34101685,0.00139880
5709.26982422,0.00139134
5711.19863159,0.00139176
5713.12743896,0.00135278
5715.05624634,0.00134647
5716.98505371,0.00135486
5718.91386108,0.00140559
5720.84266846,0.00142590
5722.77147583,0.00140866
5724.70028320,0.00140182
5726.62909058,0.00134613
5728.55789795,0.00136719
5730.48670532,0.00140299
5732.41551270,0.00132288
5734.34432007,0.00133425
5736.27312744,0.00133522
5738.20193481,0.00130851
5740.13074219,0.00130778
5742.05954956,0.00129005
5743.98835693,0.00133071
5745.91716431,0.00131852
5747.84597168,0.00133669
5749.77477905,0.00134230
5751.70358643,0.00128367
5753.63239380,0.00127357
5755.56120117,0.00127863
5757.49000854,0.00129765
5759.41881592,0.00129408
5761.34762329,0.00128753
5763.27643066,0.00124537
5765.20523804,0.00124226
5767.13404541,0.00125984
5769.06285278,0.00124765
5770.99166016,0.00125279
5772.92046753,0.00124691
5774.84927490,0.00132643
5776.77808228,0.00125224
5778.70688965,0.00113400
5780.63569702,0.00120032
5782.56450439,0.00120447
5784.49331177,0.00125499
5786.42211914,0.00131089
5788.35092651,0.00126900
5790.27973389,0.00122207
5792.20854126,0.00119320
5794.13734863,0.00124207
5796.06615601,0.00123098
5797.99496338,0.00119386
5799.92377075,0.00121268
5801.85257812,0.00117645
5803.78138550,0.00125256
5805.71019287,0.00128281
5807.63900024,0.00117301
5809.56780762,0.00119064
5811.49661499,0.00116402
5813.42542236,0.00116781
5815.35422974,0.00118015
5817.28303711,0.00115802
5819.21184448,0.00119590
5821.14065186,0.00112003
5823.06945923,0.00116292
5824.99826660,0.00116722
5826.92707397,0.00115107
5828.85588135,0.00123461
5830.78468872,0.00111497
5832.71349609,0.00112107
5834.64230347,0.00114682
5836.57111084,0.00105646
5838.49991821,0.00110801
5840.42872559,0.00111749
5842.35753296,0.00108636
5844.28634033,0.00114500
5846.21514770,0.00116306
5848.14395508,0.00115695
5850.07276245,0.00117236
5852.00156982,0.00107752
5853.93037720,0.00109708
5855.85918457,0.00119588
5857.78799194,0.00116079
5859.71679932,0.00111796
5861.64560669,0.00107753
5863.57441406,0.00110353
5865.50322144,0.00109285
5867.43202881,0.00105853
5869.36083618,0.00106975
5871.28964355,0.00102888
5873.21845093,0.00106455
5875.14725830,0.00110402
5877.07606567,0.00108537
5879.00487305,0.00113964
5880.93368042,0.00111303
5882.86248779,0.00102641
5884.79129517,0.00106313
5886.72010254,0.00102068
5888.64890991,0.00104201
5890.57771728,0.00107494
5892.50652466,0.00097957
5894.43533203,0.00108558
5896.36413940,0.00110199
5898.29294678,0.00104109
5900.22175415,0.00103282
5902.15056152,0.00099914
5904.07936890,0.00101906
5906.00817627,0.00097391
5907.93698364,0.00100893
5909.86579102,0.00101922
5911.79459839,0.00100993
5913.72340576,0.00103084
5915.65221313,0.00098559
5917.58102051,0.00098090
5919.50982788,0.00100059
5921.43863525,0.00099446
5923.36744263,0.00093846
5925.29625000,0.00100423
5927.22505737,0.00096941
5929.15386475,0.00094864
5931.08267212,0.00099408
5933.01147949,0.00086781
5934.94028686,0.00099213
5936.86909424,0.00101752
5938.79790161,0.00094117
5940.72670898,0.00102801
5942.65551636,0.00102090
5944.58432373,0.00100828
5946.51313110,0.00095994
5948.44193848,0.00098794
5950.37074585,0.00101401
5952.29955322,0.00097510
5954.22836060,0.00095320
5956.15716797,0.00094802
5958.08597534,0.00096434
5960.01478271,0.00096085
5961.94359009,0.00099552
5963.87239746,0.00094700
5965.80120483,0.00090832
5967.73001221,0.00094871
5969.65881958,0.00093782
5971.58762695,0.00083735
5973.51643433,0.00088069
5975.44524170,0.00097835
5977.37404907,0.00088467
5979.30285645,0.00089352
5981.23166382,0.00086011
5983.16047119,0.00089254
5985.08927856,0.00092112
5987.01808594,0.00083089
5988.94689331,0.00090986
5990.87570068,0.00092245
5992.80450806,0.00096007
5994.73331543,0.00085798
5996.66212280,0.00081801
5998.59093018,0.00095964
6000.51973755,0.00091019
