399.26312622,0.00012519
401.19193359,-0.00001753
403.12074097,-0.00014006
405.04954834,0.00013214
406.97835571,0.00030899
408.90716309,0.00044737
410.83597046,0.00025951
412.76477783,0.00011172
414.69358521,0.00029856
416.62239258,0.00045697
418.55119995,0.00039536
420.48000732,0.00002515
422.40881470,0.00004755
424.33762207,0.00040730
426.26642944,0.00026890
428.19523682,0.00010510
430.12404419,0.00034598
432.05285156,0.00014981
433.98165894,-0.00026052
435.91046631,0.00007739
437.83927368,0.00042551
439.76808105,0.00026122
441.69688843,0.00041052
443.62569580,0.00054659
445.55450317,0.00027536
447.48331055,0.00027551
449.41211792,0.00023437
451.34092529,0.00016163
453.26973267,0.00036353
455.19854004,0.00037421
457.12734741,0.00022636
459.05615479,0.00013940
460.98496216,0.00010802
462.91376953,0.00006327
464.84257690,0.00027581
466.77138428,0.00017739
468.70019165,-0.00016879
470.62899902,0.00006416
472.55780640,0.00008138
474.48661377,0.00027207
476.41542114,0.00029713
478.34422852,-0.00009299
480.27303589,0.00010556
482.20184326,-0.00000276
484.13065063,0.00022341
486.05945801,0.00032826
487.98826538,-0.00014242
489.91707275,0.00026692
491.84588013,0.00005066
493.77468750,-0.00013269
495.70349487,0.00048497
497.63230225,0.00026096
499.56110962,0.00025185
501.48991699,0.00025937
503.41872437,-0.00017995
505.34753174,0.00016750
507.27633911,0.00037962
509.20514648,0.00011633
511.13395386,0.00004860
513.06276123,0.00000058
514.99156860,0.00036016
516.92037598,0.00034821
518.84918335,-0.00009626
520.77799072,-0.00008543
522.70679810,0.00000503
524.63560547,-0.00011983
526.56441284,-0.00025354
528.49322021,0.00009868
530.42202759,0.00006714
532.35083496,0.00003763
534.27964233,0.00015426
536.20844971,0.00018388
538.13725708,0.00031252
540.06606445,0.00015800
541.99487183,0.00035818
543.92367920,0.00027015
545.85248657,0.00015575
547.78129395,0.00002812
549.71010132,-0.00011366
551.63890869,0.00028913
553.56771606,0.00015445
555.49652344,0.00032216
557.42533081,0.00028660
559.35413818,-0.00014946
561.28294556,-0.00011805
563.21175293,-0.00011393
565.14056030,0.00019875
567.06936768,0.00017255
568.99817505,0.00008631
570.92698242,0.00018180
572.85578979,0.00019514
574.78459717,0.00021239
576.71340454,0.00005891
578.64221191,0.00022766
580.57101929,0.00005532
582.49982666,-0.00012485
584.42863403,0.00003008
586.35744141,-0.00010116
588.28624878,0.00008871
590.21505615,0.00030791
592.14386353,0.00009502
594.07267090,0.00023123
596.00147827,0.00023934
597.93028564,-0.00008701
599.85909302,0.00005962
601.78790039,0.00003494
603.71670776,-0.00022166
605.64551514,-0.00001278
607.57432251,0.00033768
609.50312988,0.00020389
611.43193726,0.00010528
613.36074463,0.00025473
615.28955200,0.00030124
617.21835938,0.00029381
619.14716675,-0.00014499
621.07597412,0.00003256
623.00478149,0.00028067
624.93358887,0.00008857
626.86239624,0.00010956
628.79120361,-0.00012573
630.72001099,0.00006312
632.64881836,0.00020932
634.57762573,0.00043653
636.50643311,0.00039542
638.43524048,-0.00002077
640.36404785,0.00033841
642.29285522,0.00039983
644.22166260,0.00051066
646.15046997,0.00069223
648.07927734,0.00052366
650.00808472,0.00051637
651.93689209,0.00033134
653.86569946,0.00038448
655.79450684,0.00060726
657.72331421,0.00060601
659.65212158,0.00057934
661.58092896,0.00038445
663.50973633,0.00047615
665.43854370,0.00062840
667.36735107,0.00030614
669.29615845,0.00057412
671.22496582,0.00064542
673.15377319,0.00039750
675.08258057,0.00084247
677.01138794,0.00071754
678.94019531,0.00061635
680.86900269,0.00084629
682.79781006,0.00066986
684.72661743,0.00043726
686.65542480,0.00067812
688.58423218,0.00098404
690.51303955,0.00063160
692.44184692,0.00079695
694.37065430,0.00083615
696.29946167,0.00082268
698.22826904,0.00107568
700.15707642,0.00085143
702.08588379,0.00133613
704.01469116,0.00120325
705.94349854,0.00077543
707.87230591,0.00097270
709.80111328,0.00060614
711.72992065,0.00060239
713.65872803,0.00049488
715.58753540,0.00002555
717.51634277,0.00015504
719.44515015,0.00029485
721.37395752,0.00019395
723.30276489,0.00014379
725.23157227,0.00025550
727.16037964,0.00043245
729.08918701,0.00016863
731.01799438,0.00008692
732.94680176,0.00046319
734.87560913,0.00031558
736.80441650,0.00013730
738.73322388,0.00010909
740.66203125,0.00007674
742.59083862,0.00004455
744.51964600,0.00023580
746.44845337,0.00043152
748.37726074,-0.00002391
750.30606812,0.00031378
752.23487549,0.00058062
754.16368286,0.00023824
756.09249023,0.00034229
758.02129761,0.00018537
759.95010498,0.00017575
761.87891235,0.00025804
763.80771973,0.00035891
765.73652710,0.00023482
767.66533447,0.00022925
769.59414185,0.00050160
771.52294922,0.00044830
773.45175659,0.00052159
775.38056396,0.00017577
777.30937134,0.00032910
779.23817871,0.00037646
781.16698608,0.00020939
783.09579346,0.00053909
785.02460083,0.00005788
786.95340820,0.00022097
788.88221558,0.00046940
790.81102295,0.00027276
792.73983032,0.00029933
794.66863770,0.00014351
796.59744507,0.00020961
798.52625244,0.00025297
800.45505981,0.00044099
802.38386719,0.00047709
804.31267456,0.00046471
806.24148193,0.00026236
808.17028931,0.00023727
810.09909668,0.00026404
812.02790405,-0.00004859
813.95671143,0.00046865
815.88551880,0.00025941
817.81432617,0.00014992
819.74313354,0.00048580
821.67194092,0.00011599
823.60074829,0.00024993
825.52955566,0.00023468
827.45836304,0.00040116
829.38717041,0.00042073
831.31597778,0.00023794
833.24478516,0.00051682
835.17359253,0.00057959
837.10239990,0.00057142
839.03120728,0.00033190
840.96001465,0.00006956
842.88882202,0.00015243
844.81762939,0.00060203
846.74643677,0.00049186
848.67524414,0.00032602
850.60405151,0.00050585
852.53285889,0.00017751
854.46166626,0.00030497
856.39047363,0.00030911
858.31928101,0.00047497
860.24808838,0.00082850
862.17689575,0.00026030
864.10570313,0.00015070
866.03451050,0.00034652
867.96331787,0.00030421
869.89212524,0.00036868
871.82093262,0.00033932
873.74973999,0.00041314
875.67854736,0.00043312
877.60735474,0.00023081
879.53616211,0.00019875
881.46496948,0.00026904
883.39377686,0.00032080
885.32258423,0.00043308
887.25139160,0.00052962
889.18019897,0.00048083
891.10900635,0.00030802
893.03781372,0.00056208
894.96662109,0.00059916
896.89542847,0.00029132
898.82423584,0.00032298
900.75304321,0.00023132
902.68185059,0.00020822
904.61065796,0.00011502
906.53946533,0.00023542
908.46827271,0.00059880
910.39708008,0.00057140
912.32588745,0.00050992
914.25469482,0.00056697
916.18350220,0.00068758
918.11230957,0.00056788
920.04111694,0.00067309
921.96992432,0.00051008
923.89873169,0.00037260
925.82753906,0.00085940
927.75634644,0.00056831
929.68515381,0.00066547
931.61396118,0.00084885
933.54276855,0.00050664
935.47157593,0.00054517
937.40038330,0.00046255
939.32919067,0.00077997
941.25799805,0.00092135
943.18680542,0.00082985
945.11561279,0.00089776
947.04442017,0.00080375
948.97322754,0.00082304
950.90203491,0.00067365
952.83084229,0.00067837
954.75964966,0.00069382
956.68845703,0.00069794
958.61726440,0.00078499
960.54607178,0.00076135
962.47487915,0.00082500
964.40368652,0.00062560
966.33249390,0.00057206
968.26130127,0.00072421
970.19010864,0.00059065
972.11891602,0.00062770
974.04772339,0.00101667
975.97653076,0.00095586
977.90533813,0.00074402
979.83414551,0.00106335
981.76295288,0.00099237
983.69176025,0.00102786
985.62056763,0.00128227
987.54937500,0.00104712
989.47818237,0.00123885
991.40698975,0.00138077
993.33579712,0.00131296
995.26460449,0.00155746
997.19341187,0.00165361
999.12221924,0.00182908
1001.05102661,0.00197930
1002.97983398,0.00208084
1004.90864136,0.00229416
1006.83744873,0.00227606
1008.76625610,0.00221427
1010.69506348,0.00238360
1012.62387085,0.00253602
1014.55267822,0.00261580
1016.48148560,0.00286584
1018.41029297,0.00298346
1020.33910034,0.00320782
1022.26790771,0.00341590
1024.19671509,0.00324088
1026.12552246,0.00338268
1028.05432983,0.00340717
1029.98313721,0.00347758
1031.91194458,0.00382760
1033.84075195,0.00378838
1035.76955933,0.00376542
1037.69836670,0.00366913
1039.62717407,0.00362943
1041.55598145,0.00382873
1043.48478882,0.00391951
1045.41359619,0.00387611
1047.34240356,0.00377257
1049.27121094,0.00367396
1051.20001831,0.00347206
1053.12882568,0.00346978
1055.05763306,0.00345418
1056.98644043,0.00338201
1058.91524780,0.00340130
1060.84405518,0.00318746
1062.77286255,0.00304039
1064.70166992,0.00298584
1066.63047729,0.00298542
1068.55928467,0.00286277
1070.48809204,0.00270716
1072.41689941,0.00276934
1074.34570679,0.00259504
1076.27451416,0.00233510
1078.20332153,0.00231708
1080.13212891,0.00234622
1082.06093628,0.00221895
1083.98974365,0.00212610
1085.91855103,0.00199076
1087.84735840,0.00183729
1089.77616577,0.00195308
1091.70497314,0.00209511
1093.63378052,0.00202473
1095.56258789,0.00170298
1097.49139526,0.00171615
1099.42020264,0.00176735
1101.34901001,0.00153543
1103.27781738,0.00164335
1105.20662476,0.00173427
1107.13543213,0.00179974
1109.06423950,0.00169525
1110.99304687,0.00148052
1112.92185425,0.00157622
1114.85066162,0.00152309
1116.77946899,0.00161527
1118.70827637,0.00175328
1120.63708374,0.00174135
1122.56589111,0.00186638
1124.49469849,0.00170375
1126.42350586,0.00170308
1128.35231323,0.00195955
1130.28112061,0.00178845
1132.20992798,0.00161350
1134.13873535,0.00169252
1136.06754272,0.00177629
1137.99635010,0.00177387
1139.92515747,0.00197559
1141.85396484,0.00227564
1143.78277222,0.00218362
1145.71157959,0.00219413
1147.64038696,0.00240637
1149.56919434,0.00252119
1151.49800171,0.00251499
1153.42680908,0.00272300
1155.35561646,0.00295846
1157.28442383,0.00273525
1159.21323120,0.00288313
1161.14203857,0.00304873
1163.07084595,0.00313907
1164.99965332,0.00329764
1166.92846069,0.00318760
1168.85726807,0.00342669
1170.78607544,0.00346139
1172.71488281,0.00354535
1174.64369019,0.00370331
1176.57249756,0.00374896
1178.50130493,0.00397797
1180.43011230,0.00400543
1182.35891968,0.00420091
1184.28772705,0.00416883
1186.21653442,0.00442342
1188.14534180,0.00475126
1190.07414917,0.00472299
1192.00295654,0.00502144
1193.93176392,0.00505338
1195.86057129,0.00542527
1197.78937866,0.00577707
1199.71818604,0.00582995
1201.64699341,0.00606813
1203.57580078,0.00630805
1205.50460815,0.00663959
1207.43341553,0.00679225
1209.36222290,0.00712770
1211.29103027,0.00707460
1213.21983765,0.00721875
1215.14864502,0.00771772
1217.07745239,0.00759015
1219.00625977,0.00769982
1220.93506714,0.00772882
1222.86387451,0.00782281
1224.79268188,0.00792906
1226.72148926,0.00801779
1228.65029663,0.00820925
1230.57910400,0.00799226
1232.50791138,0.00818120
1234.43671875,0.00809753
1236.36552612,0.00805882
1238.29433350,0.00829984
1240.22314087,0.00794959
1242.15194824,0.00813479
1244.08075562,0.00834778
1246.00956299,0.00809810
1247.93837036,0.00798989
1249.86717773,0.00788550
1251.79598511,0.00790412
1253.72479248,0.00791635
1255.65359985,0.00781297
1257.58240723,0.00774071
1259.51121460,0.00765237
1261.44002197,0.00752816
1263.36882935,0.00746547
1265.29763672,0.00730719
1267.22644409,0.00722392
1269.15525146,0.00723307
1271.08405884,0.00699768
1273.01286621,0.00704013
1274.94167358,0.00699197
1276.87048096,0.00660810
1278.79928833,0.00674616
1280.72809570,0.00671191
1282.65690308,0.00636011
1284.58571045,0.00636148
1286.51451782,0.00628932
1288.44332520,0.00600965
1290.37213257,0.00575619
1292.30093994,0.00593944
1294.22974731,0.00607355
1296.15855469,0.00575655
1298.08736206,0.00585709
1300.01616943,0.00610144
1301.94497681,0.00603015
1303.87378418,0.00600622
1305.80259155,0.00613981
1307.73139893,0.00614496
1309.66020630,0.00617191
1311.58901367,0.00636204
1313.51782104,0.00633072
1315.44662842,0.00655104
1317.37543579,0.00674586
1319.30424316,0.00660276
1321.23305054,0.00685142
1323.16185791,0.00724316
1325.09066528,0.00744854
1327.01947266,0.00762121
1328.94828003,0.00780349
1330.87708740,0.00787339
1332.80589478,0.00801008
1334.73470215,0.00820812
1336.66350952,0.00833261
1338.59231689,0.00832960
1340.52112427,0.00829489
1342.44993164,0.00854304
1344.37873901,0.00857266
1346.30754639,0.00872996
1348.23635376,0.00883383
1350.16516113,0.00850148
1352.09396851,0.00865126
1354.02277588,0.00871292
1355.95158325,0.00845134
1357.88039062,0.00837062
1359.80919800,0.00840832
1361.73800537,0.00804960
1363.66681274,0.00785938
1365.59562012,0.00826031
1367.52442749,0.00796878
1369.45323486,0.00785144
1371.38204224,0.00798446
1373.31084961,0.00771830
1375.23965698,0.00777808
1377.16846436,0.00783347
1379.09727173,0.00780066
1381.02607910,0.00769734
1382.95488647,0.00787787
1384.88369385,0.00788745
1386.81250122,0.00748005
1388.74130859,0.00770454
1390.67011597,0.00825311
1392.59892334,0.00808989
1394.52773071,0.00740183
1396.45653809,0.00769398
1398.38534546,0.00792505
1400.31415283,0.00790202
1402.24296021,0.00842603
1404.17176758,0.00802890
1406.10057495,0.00804863
1408.02938232,0.00842967
1409.95818970,0.00814472
1411.88699707,0.00803176
1413.81580444,0.00794330
1415.74461182,0.00797614
1417.67341919,0.00726717
1419.60222656,0.00684841
1421.53103394,0.00758571
1423.45984131,0.00751894
1425.38864868,0.00704212
1427.31745605,0.00716304
1429.24626343,0.00705039
1431.17507080,0.00656995
1433.10387817,0.00669124
1435.03268555,0.00625119
1436.96149292,0.00555769
1438.89030029,0.00616468
1440.81910767,0.00613317
1442.74791504,0.00592588
1444.67672241,0.00620843
1446.60552979,0.00582707
1448.53433716,0.00572063
1450.46314453,0.00576204
1452.39195190,0.00601738
1454.32075928,0.00610839
1456.24956665,0.00524594
1458.17837402,0.00566165
1460.10718140,0.00694938
1462.03598877,0.00716554
1463.96479614,0.00727226
1465.89360352,0.00746072
1467.82241089,0.00827358
1469.75121826,0.00875967
1471.68002563,0.00795466
1473.60883301,0.00846669
1475.53764038,0.00935092
1477.46644775,0.00992599
1479.39525513,0.01079404
1481.32406250,0.01088806
1483.25286987,0.01158025
1485.18167725,0.01205842
1487.11048462,0.01179903
1489.03929199,0.01153092
1490.96809937,0.01166265
1492.89690674,0.01342511
1494.82571411,0.01325517
1496.75452148,0.01210421
1498.68332886,0.01333428
1500.61213623,0.01379561
1502.54094360,0.01472061
1504.46975098,0.01377351
1506.39855835,0.01050183
1508.32736572,0.01274883
1510.25617310,0.01446561
1512.18498047,0.01400205
1514.11378784,0.01514980
1516.04259521,0.01378678
1517.97140259,0.01430180
1519.90020996,0.01373302
1521.82901733,0.01208882
1523.75782471,0.01449419
1525.68663208,0.01432537
1527.61543945,0.01424315
1529.54424683,0.01548429
1531.47305420,0.01504920
1533.40186157,0.01390583
1535.33066895,0.01472554
1537.25947632,0.01550657
1539.18828369,0.01143852
1541.11709106,0.01207660
1543.04589844,0.01400054
1544.97470581,0.01366084
1546.90351318,0.01601532
1548.83232056,0.01487099
1550.76112793,0.01519683
1552.68993530,0.01503242
1554.61874268,0.01388906
1556.54755005,0.01465156
1558.47635742,0.01074998
1560.40516479,0.01176750
1562.33397217,0.01592528
1564.26277954,0.01507594
1566.19158691,0.01542704
1568.12039429,0.01516685
1570.04920166,0.01366903
1571.97800903,0.01549053
1573.90681641,0.01555537
1575.83562378,0.01266353
1577.76443115,0.01408078
1579.69323853,0.01574576
1581.62204590,0.01521647
1583.55085327,0.01543004
1585.47966064,0.01525641
1587.40846802,0.01552974
1589.33727539,0.01519412
1591.26608276,0.01504022
1593.19489014,0.01519532
1595.12369751,0.01497230
1597.05250488,0.01503444
1598.98131226,0.01496877
1600.91011963,0.01509858
1602.83892700,0.01485615
1604.76773437,0.01506130
1606.69654175,0.01494084
1608.62534912,0.01491185
1610.55415649,0.01484159
1612.48296387,0.01495840
1614.41177124,0.01499180
1616.34057861,0.01259651
1618.26938599,0.01380305
1620.19819336,0.01581578
1622.12700073,0.01431551
1624.05580811,0.01430535
1625.98461548,0.01493271
1627.91342285,0.01491080
1629.84223022,0.01486997
1631.77103760,0.01594190
1633.69984497,0.01471492
1635.62865234,0.01263368
1637.55745972,0.01470622
1639.48626709,0.01591360
1641.41507446,0.01559323
1643.34388184,0.01602340
1645.27268921,0.01462439
1647.20149658,0.01322248
1649.13030396,0.01637437
1651.05911133,0.01535269
1652.98791870,0.01041269
1654.91672607,0.01404455
1656.84553345,0.01708727
1658.77434082,0.01653655
1660.70314819,0.01707868
1662.63195557,0.01561717
1664.56076294,0.01645369
1666.48957031,0.01757120
1668.41837769,0.01556179
1670.34718506,0.01541965
1672.27599243,0.01729058
1674.20479980,0.01597195
1676.13360718,0.01564867
1678.06241455,0.01770420
1679.99122192,0.01707566
1681.92002930,0.01690330
1683.84883667,0.01403235
1685.77764404,0.01429890
1687.70645142,0.01859585
1689.63525879,0.01623585
1691.56406616,0.01795344
1693.49287354,0.01801340
1695.42168091,0.01360248
1697.35048828,0.01640817
1699.27929565,0.01453161
1701.20810303,0.01346409
1703.13691040,0.01774811
1705.06571777,0.01628930
1706.99452515,0.01637078
1708.92333252,0.01760767
1710.85213989,0.01690394
1712.78094727,0.01719625
1714.70975464,0.01604751
1716.63856201,0.01435725
1718.56736938,0.01423969
1720.49617676,0.01671785
1722.42498413,0.01697250
1724.35379150,0.01605855
1726.28259888,0.01744853
1728.21140625,0.01602353
1730.14021362,0.01628149
1732.06902100,0.01567730
1733.99782837,0.01240414
1735.92663574,0.01514145
1737.85544312,0.01623829
1739.78425049,0.01468931
1741.71305786,0.01589917
1743.64186523,0.01616213
1745.57067261,0.01602381
1747.49947998,0.01602331
1749.42828735,0.01541807
1751.35709473,0.01473856
1753.28590210,0.01633521
1755.21470947,0.01684920
1757.14351685,0.01547499
1759.07232422,0.01696341
1761.00113159,0.01595065
1762.92993896,0.01552451
1764.85874634,0.01749900
1766.78755371,0.01590286
1768.71636108,0.01596186
1770.64516846,0.01582810
1772.57397583,0.01428263
1774.50278320,0.01580624
1776.43159058,0.01677219
1778.36039795,0.01634395
1780.28920532,0.01626752
1782.21801270,0.01644290
1784.14682007,0.01616496
1786.07562744,0.01597166
1788.00443481,0.01670933
1789.93324219,0.01614485
1791.86204956,0.01484982
1793.79085693,0.01550705
1795.71966431,0.01643668
1797.64847168,0.01624567
1799.57727905,0.01588183
1801.50608643,0.01556032
1803.43489380,0.01616698
1805.36370117,0.01652107
1807.29250854,0.01634039
1809.22131592,0.01634401
1811.15012329,0.01583032
1813.07893066,0.01631956
1815.00773804,0.01640658
1816.93654541,0.01611307
1818.86535278,0.01632803
1820.79416016,0.01626478
1822.72296753,0.01631577
1824.65177490,0.01542030
1826.58058228,0.01590448
1828.50938965,0.01593457
1830.43819702,0.01511934
1832.36700439,0.01624877
1834.29581177,0.01607047
1836.22461914,0.01610469
1838.15342651,0.01615085
1840.08223389,0.01612674
1842.01104126,0.01611887
1843.93984863,0.01450585
1845.86865601,0.01531863
1847.79746338,0.01597323
1849.72627075,0.01560269
1851.65507812,0.01616000
1853.58388550,0.01582430
1855.51269287,0.01594742
1857.44150024,0.01588337
1859.37030762,0.01573366
1861.29911499,0.01577943
1863.22792236,0.01552127
1865.15672974,0.01563212
1867.08553711,0.01515635
1869.01434448,0.01469106
1870.94315186,0.01522310
1872.87195923,0.01580136
1874.80076660,0.01557447
1876.72957397,0.01548014
1878.65838135,0.01553691
1880.58718872,0.01546792
1882.51599609,0.01550512
1884.44480347,0.01528488
1886.37361084,0.01557707
1888.30241821,0.01524933
1890.23122559,0.01475124
1892.16003296,0.01535817
1894.08884033,0.01520328
1896.01764771,0.01496110
1897.94645508,0.01513468
1899.87526245,0.01508407
1901.80406982,0.01512066
1903.73287720,0.01508192
1905.66168457,0.01513440
1907.59049194,0.01499322
1909.51929932,0.01488556
1911.44810669,0.01488217
1913.37691406,0.01491971
1915.30572144,0.01502601
1917.23452881,0.01441738
1919.16333618,0.01448234
1921.09214355,0.01487077
1923.02095093,0.01444419
1924.94975830,0.01473874
1926.87856567,0.01489591
1928.80737305,0.01479089
1930.73618042,0.01481951
1932.66498779,0.01458232
1934.59379517,0.01476885
1936.52260254,0.01468897
1938.45140991,0.01470155
1940.38021729,0.01463745
1942.30902466,0.01422877
1944.23783203,0.01447520
1946.16663940,0.01461104
1948.09544678,0.01453185
1950.02425415,0.01451597
1951.95306152,0.01463602
1953.88186890,0.01469763
1955.81067627,0.01452059
1957.73948364,0.01449224
1959.66829102,0.01445744
1961.59709839,0.01453665
1963.52590576,0.01444218
1965.45471313,0.01433270
1967.38352051,0.01431858
1969.31232788,0.01432231
1971.24113525,0.01452020
1973.16994263,0.01436206
1975.09875000,0.01437698
1977.02755737,0.01438855
1978.95636475,0.01418639
1980.88517212,0.01427079
1982.81397949,0.01420307
1984.74278687,0.01423094
1986.67159424,0.01421537
1988.60040161,0.01407977
1990.52920898,0.01396142
1992.45801636,0.01379318
1994.38682373,0.01406781
1996.31563110,0.01416191
1998.24443848,0.01394268
2000.17324585,0.01404508
2002.10205322,0.01405756
2004.03086060,0.01391130
2005.95966797,0.01380245
2007.88847534,0.01373406
2009.81728271,0.01374698
2011.74609009,0.01378423
2013.67489746,0.01377645
2015.60370483,0.01356175
2017.53251221,0.01354408
2019.46131958,0.01371717
2021.39012695,0.01353181
2023.31893433,0.01345166
2025.24774170,0.01362375
2027.17654907,0.01365484
2029.10535645,0.01360375
2031.03416382,0.01353004
2032.96297119,0.01332614
2034.89177856,0.01318238
2036.82058594,0.01331538
2038.74939331,0.01330708
2040.67820068,0.01323009
2042.60700806,0.01330885
2044.53581543,0.01324171
2046.46462280,0.01322348
2048.39343018,0.01331581
2050.32223755,0.01332254
2052.25104492,0.01327174
2054.17985229,0.01311489
2056.10865967,0.01300533
2058.03746704,0.01300727
2059.96627441,0.01298424
2061.89508179,0.01297184
2063.82388916,0.01292234
2065.75269653,0.01296541
2067.68150391,0.01297548
2069.61031128,0.01282285
2071.53911865,0.01279453
2073.46792603,0.01275778
2075.39673340,0.01288942
2077.32554077,0.01295722
2079.25434814,0.01272313
2081.18315552,0.01273175
2083.11196289,0.01267443
2085.04077026,0.01258022
2086.96957764,0.01263199
2088.89838501,0.01257214
2090.82719238,0.01255878
2092.75599976,0.01249371
2094.68480713,0.01248057
2096.61361450,0.01264058
2098.54242187,0.01259065
2100.47122925,0.01246790
2102.40003662,0.01249330
2104.32884399,0.01242349
2106.25765137,0.01238228
2108.18645874,0.01238574
2110.11526611,0.01240778
2112.04407349,0.01242057
2113.97288086,0.01233484
2115.90168823,0.01232507
2117.83049561,0.01219408
2119.75930298,0.01223519
2121.68811035,0.01232458
2123.61691772,0.01221034
2125.54572510,0.01224422
2127.47453247,0.01214648
2129.40333984,0.01210171
2131.33214722,0.01210578
2133.26095459,0.01213133
2135.18976196,0.01215340
2137.11856934,0.01202497
2139.04737671,0.01208845
2140.97618408,0.01214037
2142.90499146,0.01209674
2144.83379883,0.01201705
2146.76260620,0.01207663
2148.69141357,0.01199412
2150.62022095,0.01186324
2152.54902832,0.01200464
2154.47783569,0.01197348
2156.40664307,0.01196504
2158.33545044,0.01184931
2160.26425781,0.01200466
2162.19306519,0.01201283
2164.12187256,0.01172381
2166.05067993,0.01195641
2167.97948730,0.01187965
2169.90829468,0.01196819
2171.83710205,0.01191991
2173.76590942,0.01170477
2175.69471680,0.01197108
2177.62352417,0.01179991
2179.55233154,0.01170620
2181.48113892,0.01163537
2183.40994629,0.01168958
2185.33875366,0.01175608
2187.26756104,0.01156916
2189.19636841,0.01173695
2191.12517578,0.01157815
2193.05398315,0.01155422
2194.98279053,0.01170269
2196.91159790,0.01157063
2198.84040527,0.01154589
2200.76921265,0.01148870
2202.69802002,0.01155207
2204.62682739,0.01151820
2206.55563477,0.01144313
2208.48444214,0.01146489
2210.41324951,0.01151562
2212.34205688,0.01157240
2214.27086426,0.01134929
2216.19967163,0.01133005
2218.12847900,0.01145582
2220.05728638,0.01129692
2221.98609375,0.01128712
2223.91490112,0.01139865
2225.84370850,0.01141515
2227.77251587,0.01137449
2229.70132324,0.01123962
2231.63013062,0.01122997
2233.55893799,0.01124294
2235.48774536,0.01121342
2237.41655273,0.01123120
2239.34536011,0.01119532
2241.27416748,0.01121396
2243.20297485,0.01111318
2245.13178223,0.01108283
2247.06058960,0.01114217
2248.98939697,0.01102794
2250.91820435,0.01109883
2252.84701172,0.01115531
2254.77581909,0.01107388
2256.70462646,0.01105764
2258.63343384,0.01103519
2260.56224121,0.01103222
2262.49104858,0.01104410
2264.41985596,0.01102658
2266.34866333,0.01093818
2268.27747070,0.01084848
2270.20627808,0.01084760
2272.13508545,0.01086081
2274.06389282,0.01087504
2275.99270020,0.01090437
2277.92150757,0.01082319
2279.85031494,0.01079200
2281.77912231,0.01074866
2283.70792969,0.01074927
2285.63673706,0.01089043
2287.56554443,0.01071597
2289.49435181,0.01069684
2291.42315918,0.01078972
2293.35196655,0.01068301
2295.28077393,0.01070129
2297.20958130,0.01059250
2299.13838867,0.01055510
2301.06719604,0.01057098
2302.99600342,0.01046555
2304.92481079,0.01036420
2306.85361816,0.01036052
2308.78242554,0.01031425
2310.71123291,0.01016970
2312.64004028,0.01013616
2314.56884766,0.00985141
2316.49765503,0.00968870
2318.42646240,0.00960116
2320.35526978,0.00943487
2322.28407715,0.00946232
2324.21288452,0.00923162
2326.14169189,0.00908620
2328.07049927,0.00897880
2329.99930664,0.00893065
2331.92811401,0.00894642
2333.85692139,0.00873842
2335.78572876,0.00870913
2337.71453613,0.00874491
2339.64334351,0.00875559
2341.57215088,0.00868003
2343.50095825,0.00882436
2345.42976562,0.00909947
2347.35857300,0.00946251
2349.28738037,0.00981827
2351.21618774,0.00931319
2353.14499512,0.00889327
2355.07380249,0.00869151
2357.00260986,0.00830673
2358.93141724,0.00815617
2360.86022461,0.00796695
2362.78903198,0.00794540
2364.71783936,0.00795457
2366.64664673,0.00812259
2368.57545410,0.00839282
2370.50426147,0.00850084
2372.43306885,0.00884257
2374.36187622,0.00912381
2376.29068359,0.00937603
2378.21949097,0.00961050
2380.14829834,0.00966361
2382.07710571,0.00982004
2384.00591309,0.00996228
2385.93472046,0.00988951
2387.86352783,0.00983903
2389.79233521,0.00988951
2391.72114258,0.00981992
2393.64994995,0.00984007
2395.57875732,0.00985778
2397.50756470,0.00972474
2399.43637207,0.00977194
2401.36517944,0.00985928
2403.29398682,0.00979630
2405.22279419,0.00976788
2407.15160156,0.00978090
2409.08040894,0.00966738
2411.00921631,0.00965072
2412.93802368,0.00973232
2414.86683105,0.00964788
2416.79563843,0.00961732
2418.72444580,0.00969672
2420.65325317,0.00973056
2422.58206055,0.00963557
2424.51086792,0.00950791
2426.43967529,0.00951050
2428.36848267,0.00958058
2430.29729004,0.00967495
2432.22609741,0.00964185
2434.15490479,0.00954035
2436.08371216,0.00949378
2438.01251953,0.00947030
2439.94132690,0.00956101
2441.87013428,0.00949532
2443.79894165,0.00941045
2445.72774902,0.00945010
2447.65655640,0.00929012
2449.58536377,0.00928194
2451.51417114,0.00934449
2453.44297852,0.00930964
2455.37178589,0.00933938
2457.30059326,0.00934525
2459.22940063,0.00948963
2461.15820801,0.00941939
2463.08701538,0.00925022
2465.01582275,0.00934521
2466.94463013,0.00932150
2468.87343750,0.00921486
2470.80224487,0.00918189
2472.73105225,0.00926785
2474.65985962,0.00919618
2476.58866699,0.00910144
2478.51747437,0.00919971
2480.44628174,0.00909759
2482.37508911,0.00913815
2484.30389648,0.00919600
2486.23270386,0.00907585
2488.16151123,0.00911321
2490.09031860,0.00912711
2492.01912598,0.00913322
2493.94793335,0.00901957
2495.87674072,0.00895127
2497.80554810,0.00902381
2499.73435547,0.00898002
2501.66316284,0.00902449
2503.59197021,0.00893213
2505.52077759,0.00883995
2507.44958496,0.00894915
2509.37839233,0.00890126
2511.30719971,0.00886431
2513.23600708,0.00880951
2515.16481445,0.00875004
2517.09362183,0.00884410
2519.02242920,0.00886003
2520.95123657,0.00883347
2522.88004395,0.00888489
2524.80885132,0.00891849
2526.73765869,0.00886989
2528.66646606,0.00881746
2530.59527344,0.00877019
2532.52408081,0.00875207
2534.45288818,0.00874255
2536.38169556,0.00867139
2538.31050293,0.00867886
2540.23931030,0.00866241
2542.16811768,0.00856445
2544.09692505,0.00851261
2546.02573242,0.00851491
2547.95453979,0.00855488
2549.88334717,0.00851874
2551.81215454,0.00849290
2553.74096191,0.00853922
2555.66976929,0.00847482
2557.59857666,0.00837046
2559.52738403,0.00843992
2561.45619141,0.00857634
2563.38499878,0.00857671
2565.31380615,0.00845617
2567.24261353,0.00845428
2569.17142090,0.00851552
2571.10022827,0.00837065
2573.02903564,0.00837345
2574.95784302,0.00848060
2576.88665039,0.00837945
2578.81545776,0.00826597
2580.74426514,0.00821206
2582.67307251,0.00827478
2584.60187988,0.00830217
2586.53068726,0.00827050
2588.45949463,0.00823714
2590.38830200,0.00817536
2592.31710937,0.00816466
2594.24591675,0.00823220
2596.17472412,0.00831012
2598.10353149,0.00816554
2600.03233887,0.00813695
2601.96114624,0.00813352
2603.88995361,0.00802458
2605.81876099,0.00813410
2607.74756836,0.00812091
2609.67637573,0.00809953
2611.60518311,0.00808706
2613.53399048,0.00799739
2615.46279785,0.00800354
2617.39160522,0.00804522
2619.32041260,0.00801562
2621.24921997,0.00792702
2623.17802734,0.00798908
2625.10683472,0.00796897
2627.03564209,0.00803958
2628.96444946,0.00801615
2630.89325684,0.00784316
2632.82206421,0.00797278
2634.75087158,0.00790437
2636.67967895,0.00787920
2638.60848633,0.00790799
2640.53729370,0.00783756
2642.46610107,0.00788552
2644.39490845,0.00782481
2646.32371582,0.00782833
2648.25252319,0.00783877
2650.18133057,0.00784131
2652.11013794,0.00781828
2654.03894531,0.00783613
2655.96775269,0.00782288
2657.89656006,0.00766387
2659.82536743,0.00764253
2661.75417480,0.00772003
2663.68298218,0.00786898
2665.61178955,0.00771274
2667.54059692,0.00756908
2669.46940430,0.00758914
2671.39821167,0.00751637
2673.32701904,0.00770260
2675.25582642,0.00762583
2677.18463379,0.00751913
2679.11344116,0.00758195
2681.04224854,0.00754035
2682.97105591,0.00761481
2684.89986328,0.00750455
2686.82867065,0.00745525
2688.75747803,0.00754168
2690.68628540,0.00747332
2692.61509277,0.00743866
2694.54390015,0.00752336
2696.47270752,0.00748668
2698.40151489,0.00737430
2700.33032227,0.00743333
2702.25912964,0.00740028
2704.18793701,0.00734270
2706.11674438,0.00735272
2708.04555176,0.00736692
2709.97435913,0.00736990
2711.90316650,0.00726846
2713.83197388,0.00729485
2715.76078125,0.00733734
2717.68958862,0.00727457
2719.61839600,0.00726402
2721.54720337,0.00723977
2723.47601074,0.00720543
2725.40481812,0.00723865
2727.33362549,0.00718171
2729.26243286,0.00708600
2731.19124023,0.00712221
2733.12004761,0.00711330
2735.04885498,0.00715640
2736.97766235,0.00720982
2738.90646973,0.00714223
2740.83527710,0.00713537
2742.76408447,0.00706691
2744.69289185,0.00702995
2746.62169922,0.00712669
2748.55050659,0.00710338
2750.47931396,0.00705193
2752.40812134,0.00699769
2754.33692871,0.00692424
2756.26573608,0.00698291
2758.19454346,0.00700273
2760.12335083,0.00702630
2762.05215820,0.00694659
2763.98096558,0.00683487
2765.90977295,0.00693241
2767.83858032,0.00679205
2769.76738770,0.00677767
2771.69619507,0.00689462
2773.62500244,0.00675075
2775.55380981,0.00677155
2777.48261719,0.00680409
2779.41142456,0.00678376
2781.34023193,0.00677136
2783.26903931,0.00669675
2785.19784668,0.00663017
2787.12665405,0.00667943
2789.05546143,0.00672867
2790.98426880,0.00665154
2792.91307617,0.00662702
2794.84188354,0.00654994
2796.77069092,0.00667268
2798.69949829,0.00671143
2800.62830566,0.00657278
2802.55711304,0.00656089
2804.48592041,0.00640622
2806.41472778,0.00651422
2808.34353516,0.00644464
2810.27234253,0.00631744
2812.20114990,0.00657119
2814.12995728,0.00653261
2816.05876465,0.00649237
2817.98757202,0.00645690
2819.91637939,0.00641477
2821.84518677,0.00639247
2823.77399414,0.00631157
2825.70280151,0.00639872
2827.63160889,0.00638799
2829.56041626,0.00632713
2831.48922363,0.00625434
2833.41803101,0.00621904
2835.34683838,0.00626792
2837.27564575,0.00626581
2839.20445312,0.00614648
2841.13326050,0.00607683
2843.06206787,0.00621523
2844.99087524,0.00616758
2846.91968262,0.00609208
2848.84848999,0.00604883
2850.77729736,0.00602166
2852.70610474,0.00613274
2854.63491211,0.00599280
2856.56371948,0.00594749
2858.49252686,0.00604587
2860.42133423,0.00597447
2862.35014160,0.00594097
2864.27894897,0.00595242
2866.20775635,0.00601393
2868.13656372,0.00593809
2870.06537109,0.00582377
2871.99417847,0.00590587
2873.92298584,0.00585941
2875.85179321,0.00583905
2877.78060059,0.00591661
2879.70940796,0.00586216
2881.63821533,0.00584476
2883.56702270,0.00578194
2885.49583008,0.00579913
2887.42463745,0.00583228
2889.35344482,0.00571845
2891.28225220,0.00576023
2893.21105957,0.00577417
2895.13986694,0.00574109
2897.06867432,0.00568307
2898.99748169,0.00561008
2900.92628906,0.00562894
2902.85509644,0.00563661
2904.78390381,0.00564631
2906.71271118,0.00556005
2908.64151855,0.00559979
2910.57032593,0.00554003
2912.49913330,0.00544375
2914.42794067,0.00559483
2916.35674805,0.00543904
2918.28555542,0.00535505
2920.21436279,0.00541789
2922.14317017,0.00534592
2924.07197754,0.00534228
2926.00078491,0.00532572
2927.92959229,0.00530385
2929.85839966,0.00529116
2931.78720703,0.00539290
2933.71601440,0.00537633
2935.64482178,0.00531652
2937.57362915,0.00528536
2939.50243652,0.00524317
2941.43124390,0.00543815
2943.36005127,0.00536906
2945.28885864,0.00527278
2947.21766602,0.00531181
2949.14647339,0.00521621
2951.07528076,0.00527696
2953.00408813,0.00525466
2954.93289551,0.00519127
2956.86170288,0.00522061
2958.79051025,0.00525936
2960.71931763,0.00523936
2962.64812500,0.00516031
2964.57693237,0.00511114
2966.50573975,0.00506567
2968.43454712,0.00516466
2970.36335449,0.00512864
2972.29216187,0.00508443
2974.22096924,0.00514140
2976.14977661,0.00502534
2978.07858398,0.00507870
2980.00739136,0.00510962
2981.93619873,0.00504020
2983.86500610,0.00508636
2985.79381348,0.00509872
2987.72262085,0.00510814
2989.65142822,0.00510240
2991.58023560,0.00508606
2993.50904297,0.00504995
2995.43785034,0.00498756
2997.36665771,0.00495180
2999.29546509,0.00503237
3001.22427246,0.00501616
3003.15307983,0.00483717
3005.08188721,0.00487693
3007.01069458,0.00488404
3008.93950195,0.00483144
3010.86830933,0.00489427
3012.79711670,0.00487115
3014.72592407,0.00483116
3016.65473145,0.00478415
3018.58353882,0.00483914
3020.51234619,0.00485120
3022.44115356,0.00473160
3024.36996094,0.00479922
3026.29876831,0.00480721
3028.22757568,0.00470457
3030.15638306,0.00471970
3032.08519043,0.00472718
3034.01399780,0.00470931
3035.94280518,0.00466662
3037.87161255,0.00465980
3039.80041992,0.00465148
3041.72922729,0.00452607
3043.65803467,0.00453653
3045.58684204,0.00457782
3047.51564941,0.00455055
3049.44445679,0.00456675
3051.37326416,0.00445168
3053.30207153,0.00450360
3055.23087891,0.00460683
3057.15968628,0.00452030
3059.08849365,0.00451701
3061.01730103,0.00443630
3062.94610840,0.00440022
3064.87491577,0.00439137
3066.80372314,0.00436547
3068.73253052,0.00448046
3070.66133789,0.00447853
3072.59014526,0.00443544
3074.51895264,0.00439548
3076.44776001,0.00439935
3078.37656738,0.00441346
3080.30537476,0.00432780
3082.23418213,0.00432896
3084.16298950,0.00436431
3086.09179687,0.00439033
3088.02060425,0.00434381
3089.94941162,0.00438961
3091.87821899,0.00440653
3093.80702637,0.00419489
3095.73583374,0.00420689
3097.66464111,0.00421130
3099.59344849,0.00421876
3101.52225586,0.00430948
3103.45106323,0.00415371
3105.37987061,0.00422188
3107.30867798,0.00429738
3109.23748535,0.00416154
3111.16629272,0.00423873
3113.09510010,0.00423953
3115.02390747,0.00415366
3116.95271484,0.00412804
3118.88152222,0.00405427
3120.81032959,0.00406957
3122.73913696,0.00409047
3124.66794434,0.00403541
3126.59675171,0.00405919
3128.52555908,0.00407927
3130.45436645,0.00402877
3132.38317383,0.00404453
3134.31198120,0.00400803
3136.24078857,0.00396248
3138.16959595,0.00402145
3140.09840332,0.00399500
3142.02721069,0.00401362
3143.95601807,0.00400780
3145.88482544,0.00386083
3147.81363281,0.00384174
3149.74244019,0.00389158
3151.67124756,0.00384574
3153.60005493,0.00378308
3155.52886230,0.00385874
3157.45766968,0.00390367
3159.38647705,0.00388299
3161.31528442,0.00385981
3163.24409180,0.00377458
3165.17289917,0.00386472
3167.10170654,0.00383337
3169.03051392,0.00366552
3170.95932129,0.00372138
3172.88812866,0.00377904
3174.81693604,0.00379851
3176.74574341,0.00375352
3178.67455078,0.00374258
3180.60335815,0.00376750
3182.53216553,0.00367018
3184.46097290,0.00362879
3186.38978027,0.00366355
3188.31858765,0.00368583
3190.24739502,0.00369307
3192.17620239,0.00375010
3194.10500977,0.00374081
3196.03381714,0.00367413
3197.96262451,0.00367381
3199.89143188,0.00362644
3201.82023926,0.00364479
3203.74904663,0.00367785
3205.67785400,0.00361714
3207.60666138,0.00361516
3209.53546875,0.00361087
3211.46427612,0.00360854
3213.39308350,0.00363556
3215.32189087,0.00356678
3217.25069824,0.00360395
3219.17950562,0.00365601
3221.10831299,0.00355206
3223.03712036,0.00358628
3224.96592773,0.00360235
3226.89473511,0.00365066
3228.82354248,0.00373404
3230.75234985,0.00365988
3232.68115723,0.00368867
3234.60996460,0.00370141
3236.53877197,0.00368992
3238.46757935,0.00366360
3240.39638672,0.00368352
3242.32519409,0.00375818
3244.25400146,0.00364472
3246.18280884,0.00363732
3248.11161621,0.00371295
3250.04042358,0.00370415
3251.96923096,0.00365197
3253.89803833,0.00363193
3255.82684570,0.00365104
3257.75565308,0.00362733
3259.68446045,0.00365361
3261.61326782,0.00366096
3263.54207520,0.00368303
3265.47088257,0.00367445
3267.39968994,0.00372705
3269.32849731,0.00374918
3271.25730469,0.00364789
3273.18611206,0.00369561
3275.11491943,0.00366950
3277.04372681,0.00370782
3278.97253418,0.00376615
3280.90134155,0.00376603
3282.83014893,0.00383802
3284.75895630,0.00372236
3286.68776367,0.00369297
3288.61657104,0.00381911
3290.54537842,0.00381489
3292.47418579,0.00365947
3294.40299316,0.00369554
3296.33180054,0.00379883
3298.26060791,0.00378328
3300.18941528,0.00386002
3302.11822266,0.00378703
3304.04703003,0.00383052
3305.97583740,0.00379910
3307.90464478,0.00366277
3309.83345215,0.00383188
3311.76225952,0.00379804
3313.69106689,0.00376489
3315.61987427,0.00385863
3317.54868164,0.00385107
3319.47748901,0.00387587
3321.40629639,0.00384603
3323.33510376,0.00379459
3325.26391113,0.00388584
3327.19271851,0.00390610
3329.12152588,0.00377717
3331.05033325,0.00381059
3332.97914062,0.00381393
3334.90794800,0.00382503
3336.83675537,0.00385575
3338.76556274,0.00388881
3340.69437012,0.00395549
3342.62317749,0.00382333
3344.55198486,0.00387005
3346.48079224,0.00389888
3348.40959961,0.00393003
3350.33840698,0.00398044
3352.26721436,0.00384343
3354.19602173,0.00391912
3356.12482910,0.00388380
3358.05363647,0.00394657
3359.98244385,0.00409867
3361.91125122,0.00403677
3363.84005859,0.00399951
3365.76886597,0.00393312
3367.69767334,0.00398783
3369.62648071,0.00402776
3371.55528809,0.00405958
3373.48409546,0.00403602
3375.41290283,0.00397643
3377.34171020,0.00402930
3379.27051758,0.00402843
3381.19932495,0.00404981
3383.12813232,0.00401635
3385.05693970,0.00407563
3386.98574707,0.00409405
3388.91455444,0.00403111
3390.84336182,0.00406374
3392.77216919,0.00405606
3394.70097656,0.00416565
3396.62978394,0.00415355
3398.55859131,0.00406413
3400.48739868,0.00410850
3402.41620605,0.00409750
3404.34501343,0.00412251
3406.27382080,0.00424605
3408.20262817,0.00419765
3410.13143555,0.00410960
3412.06024292,0.00419793
3413.98905029,0.00414127
3415.91785767,0.00424851
3417.84666504,0.00429617
3419.77547241,0.00414798
3421.70427979,0.00427262
3423.63308716,0.00428652
3425.56189453,0.00431366
3427.49070190,0.00428173
3429.41950928,0.00428385
3431.34831665,0.00436428
3433.27712402,0.00423528
3435.20593140,0.00433254
3437.13473877,0.00432918
3439.06354614,0.00425019
3440.99235352,0.00426588
3442.92116089,0.00430839
3444.84996826,0.00441601
3446.77877563,0.00430938
3448.70758301,0.00433976
3450.63639038,0.00433791
3452.56519775,0.00428624
3454.49400513,0.00437100
3456.42281250,0.00434245
3458.35161987,0.00440562
3460.28042725,0.00438493
3462.20923462,0.00439248
3464.13804199,0.00448366
3466.06684937,0.00442049
3467.99565674,0.00440473
3469.92446411,0.00434101
3471.85327148,0.00438224
3473.78207886,0.00444657
3475.71088623,0.00433780
3477.63969360,0.00443560
3479.56850098,0.00444678
3481.49730835,0.00436451
3483.42611572,0.00449556
3485.35492310,0.00443876
3487.28373047,0.00441892
3489.21253784,0.00455187
3491.14134521,0.00446481
3493.07015259,0.00445719
3494.99895996,0.00453508
3496.92776733,0.00443888
3498.85657471,0.00446734
3500.78538208,0.00454331
3502.71418945,0.00442617
3504.64299683,0.00447901
3506.57180420,0.00451846
3508.50061157,0.00440636
3510.42941895,0.00452551
3512.35822632,0.00455101
3514.28703369,0.00451732
3516.21584106,0.00458601
3518.14464844,0.00449330
3520.07345581,0.00448421
3522.00226318,0.00443821
3523.93107056,0.00431661
3525.85987793,0.00443488
3527.78868530,0.00445794
3529.71749268,0.00442398
3531.64630005,0.00451846
3533.57510742,0.00453353
3535.50391479,0.00448986
3537.43272217,0.00441604
3539.36152954,0.00447647
3541.29033691,0.00455170
3543.21914429,0.00449796
3545.14795166,0.00442682
3547.07675903,0.00440711
3549.00556641,0.00455838
3550.93437378,0.00450744
3552.86318115,0.00450254
3554.79198853,0.00464333
3556.72079590,0.00452025
3558.64960327,0.00450425
3560.57841064,0.00449729
3562.50721802,0.00451816
3564.43602539,0.00448524
3566.36483276,0.00421091
3568.29364014,0.00417580
3570.22244751,0.00440153
3572.15125488,0.00461954
3574.08006226,0.00461465
3576.00886963,0.00450025
3577.93767700,0.00444182
3579.86648437,0.00450155
3581.79529175,0.00456156
3583.72409912,0.00454495
3585.65290649,0.00438140
3587.58171387,0.00403360
3589.51052124,0.00420071
3591.43932861,0.00449405
3593.36813599,0.00439841
3595.29694336,0.00432838
3597.22575073,0.00439110
3599.15455811,0.00443632
3601.08336548,0.00434647
3603.01217285,0.00446467
3604.94098022,0.00449973
3606.86978760,0.00433316
3608.79859497,0.00421175
3610.72740234,0.00429070
3612.65620972,0.00429252
3614.58501709,0.00416980
3616.51382446,0.00443840
3618.44263184,0.00403128
3620.37143921,0.00398134
3622.30024658,0.00451704
3624.22905395,0.00444682
3626.15786133,0.00454586
3628.08666870,0.00381583
3630.01547607,0.00366672
3631.94428345,0.00439618
3633.87309082,0.00434018
3635.80189819,0.00448037
3637.73070557,0.00441890
3639.65951294,0.00441194
3641.58832031,0.00436405
3643.51712769,0.00431770
3645.44593506,0.00437531
3647.37474243,0.00389966
3649.30354980,0.00370315
3651.23235718,0.00373549
3653.16116455,0.00433217
3655.08997192,0.00427977
3657.01877930,0.00383729
3658.94758667,0.00436631
3660.87639404,0.00429690
3662.80520142,0.00434160
3664.73400879,0.00429292
3666.66281616,0.00423605
3668.59162354,0.00412976
3670.52043091,0.00345111
3672.44923828,0.00410423
3674.37804565,0.00386049
3676.30685303,0.00326012
3678.23566040,0.00412906
3680.16446777,0.00412598
3682.09327515,0.00410946
3684.02208252,0.00424666
3685.95088989,0.00406750
3687.87969727,0.00368590
3689.80850464,0.00339542
3691.73731201,0.00393951
3693.66611938,0.00401395
3695.59492676,0.00398129
3697.52373413,0.00411404
3699.45254150,0.00401270
3701.38134888,0.00378867
3703.31015625,0.00367121
3705.23896362,0.00404277
3707.16777100,0.00381959
3709.09657837,0.00373734
3711.02538574,0.00356186
3712.95419312,0.00332313
3714.88300049,0.00387383
3716.81180786,0.00376295
3718.74061523,0.00386248
3720.66942261,0.00378792
3722.59822998,0.00358752
3724.52703735,0.00378877
3726.45584473,0.00346873
3728.38465210,0.00373257
3730.31345947,0.00360695
3732.24226685,0.00334419
3734.17107422,0.00344542
3736.09988159,0.00321020
3738.02868896,0.00336176
3739.95749634,0.00358049
3741.88630371,0.00366293
3743.81511108,0.00286842
3745.74391846,0.00278755
3747.67272583,0.00359344
3749.60153320,0.00300446
3751.53034058,0.00283425
3753.45914795,0.00323887
3755.38795532,0.00342272
3757.31676270,0.00360551
3759.24557007,0.00335395
3761.17437744,0.00344330
3763.10318481,0.00357299
3765.03199219,0.00341448
3766.96079956,0.00354686
3768.88960693,0.00346206
3770.81841431,0.00329466
3772.74722168,0.00347297
3774.67602905,0.00347851
3776.60483643,0.00348127
3778.53364380,0.00337592
3780.46245117,0.00329121
3782.39125854,0.00350722
3784.32006592,0.00340805
3786.24887329,0.00335141
3788.17768066,0.00345525
3790.10648804,0.00342274
3792.03529541,0.00337290
3793.96410278,0.00343199
3795.89291016,0.00323431
3797.82171753,0.00325782
3799.75052490,0.00336482
3801.67933228,0.00273369
3803.60813965,0.00323019
3805.53694702,0.00339367
3807.46575439,0.00284940
3809.39456177,0.00342638
3811.32336914,0.00331779
3813.25217651,0.00335086
3815.18098389,0.00307167
3817.10979126,0.00276185
3819.03859863,0.00333176
3820.96740601,0.00279815
3822.89621338,0.00290173
3824.82502075,0.00334423
3826.75382812,0.00308734
3828.68263550,0.00325184
3830.61144287,0.00323836
3832.54025024,0.00307420
3834.46905762,0.00310722
3836.39786499,0.00297865
3838.32667236,0.00263602
3840.25547974,0.00290489
3842.18428711,0.00308783
3844.11309448,0.00294625
3846.04190186,0.00316713
3847.97070923,0.00310044
3849.89951660,0.00309507
3851.82832397,0.00280385
3853.75713135,0.00220481
3855.68593872,0.00250689
3857.61474609,0.00310581
3859.54355347,0.00308533
3861.47236084,0.00296664
3863.40116821,0.00284934
3865.32997559,0.00279154
3867.25878296,0.00313061
3869.18759033,0.00281558
3871.11639770,0.00265765
3873.04520508,0.00303964
3874.97401245,0.00288033
3876.90281982,0.00308285
3878.83162720,0.00301615
3880.76043457,0.00269656
3882.68924194,0.00300683
3884.61804932,0.00277224
3886.54685669,0.00256619
3888.47566406,0.00302087
3890.40447144,0.00290716
3892.33327881,0.00270254
3894.26208618,0.00296315
3896.19089355,0.00294144
3898.11970093,0.00283200
3900.04850830,0.00270780
3901.97731567,0.00265914
3903.90612305,0.00270499
3905.83493042,0.00266905
3907.76373779,0.00287349
3909.69254517,0.00294505
3911.62135254,0.00289235
3913.55015991,0.00288157
3915.47896728,0.00278347
3917.40777466,0.00273313
3919.33658203,0.00277760
3921.26538940,0.00282623
3923.19419678,0.00275635
3925.12300415,0.00272703
3927.05181152,0.00277349
3928.98061890,0.00288847
3930.90942627,0.00276877
3932.83823364,0.00269325
3934.76704102,0.00280226
3936.69584839,0.00270054
3938.62465576,0.00283609
3940.55346313,0.00280339
3942.48227051,0.00267498
3944.41107788,0.00276665
3946.33988525,0.00271060
3948.26869263,0.00274822
3950.19750000,0.00275080
3952.12630737,0.00274238
3954.05511475,0.00275552
3955.98392212,0.00273289
3957.91272949,0.00269038
3959.84153687,0.00269617
3961.77034424,0.00271520
3963.69915161,0.00264288
3965.62795898,0.00272856
3967.55676636,0.00269681
3969.48557373,0.00267843
3971.41438110,0.00270806
3973.34318848,0.00264120
3975.27199585,0.00263205
3977.20080322,0.00255764
3979.12961060,0.00261710
3981.05841797,0.00261678
3982.98722534,0.00258290
3984.91603271,0.00261321
3986.84484009,0.00261697
3988.77364746,0.00265304
3990.70245483,0.00259950
3992.63126221,0.00256761
3994.56006958,0.00250221
3996.48887695,0.00255584
3998.41768433,0.00261648
4000.34649170,0.00254371
4002.27529907,0.00248268
4004.20410645,0.00248776
4006.13291382,0.00258110
4008.06172119,0.00247088
4009.99052856,0.00255995
4011.91933594,0.00259962
4013.84814331,0.00241667
4015.77695068,0.00259464
4017.70575806,0.00256783
4019.63456543,0.00246885
4021.56337280,0.00253737
4023.49218018,0.00242224
4025.42098755,0.00244940
4027.34979492,0.00253999
4029.27860229,0.00244325
4031.20740967,0.00249085
4033.13621704,0.00257691
4035.06502441,0.00243368
4036.99383179,0.00243132
4038.92263916,0.00247853
4040.85144653,0.00240613
4042.78025391,0.00239259
4044.70906128,0.00239505
4046.63786865,0.00243056
4048.56667603,0.00242823
4050.49548340,0.00244548
4052.42429077,0.00240535
4054.35309814,0.00229486
4056.28190552,0.00240599
4058.21071289,0.00241830
4060.13952026,0.00231807
4062.06832764,0.00241489
4063.99713501,0.00241716
4065.92594238,0.00235449
4067.85474976,0.00234014
4069.78355713,0.00233048
4071.71236450,0.00236017
4073.64117187,0.00226484
4075.56997925,0.00222446
4077.49878662,0.00230519
4079.42759399,0.00234087
4081.35640137,0.00230904
4083.28520874,0.00224550
4085.21401611,0.00231512
4087.14282349,0.00235048
4089.07163086,0.00232578
4091.00043823,0.00234032
4092.92924561,0.00231168
4094.85805298,0.00225072
4096.78686035,0.00223220
4098.71566772,0.00233811
4100.64447510,0.00234916
4102.57328247,0.00227073
4104.50208984,0.00224648
4106.43089722,0.00217049
4108.35970459,0.00214452
4110.28851196,0.00226461
4112.21731934,0.00225035
4114.14612671,0.00216410
4116.07493408,0.00220619
4118.00374145,0.00212536
4119.93254883,0.00219097
4121.86135620,0.00223615
4123.79016357,0.00210493
4125.71897095,0.00218804
4127.64777832,0.00217899
4129.57658569,0.00218054
4131.50539307,0.00216842
4133.43420044,0.00217100
4135.36300781,0.00224890
4137.29181519,0.00211094
4139.22062256,0.00209934
4141.14942993,0.00211728
4143.07823730,0.00211825
4145.00704468,0.00212020
4146.93585205,0.00209059
4148.86465942,0.00216163
4150.79346680,0.00214137
4152.72227417,0.00214319
4154.65108154,0.00208533
4156.57988892,0.00206568
4158.50869629,0.00216259
4160.43750366,0.00213849
4162.36631103,0.00209717
4164.29511841,0.00204750
4166.22392578,0.00205633
4168.15273315,0.00208475
4170.08154053,0.00203853
4172.01034790,0.00203858
4173.93915527,0.00208283
4175.86796265,0.00204221
4177.79677002,0.00207153
4179.72557739,0.00213786
4181.65438477,0.00201082
4183.58319214,0.00203139
4185.51199951,0.00207150
4187.44080688,0.00192296
4189.36961426,0.00194922
4191.29842163,0.00204657
4193.22722900,0.00200023
4195.15603638,0.00202328
4197.08484375,0.00209714
4199.01365112,0.00198690
4200.94245850,0.00197717
4202.87126587,0.00203400
4204.80007324,0.00194832
4206.72888062,0.00194681
4208.65768799,0.00198586
4210.58649536,0.00198875
4212.51530273,0.00192274
4214.44411011,0.00189319
4216.37291748,0.00195039
4218.30172485,0.00191999
4220.23053223,0.00191792
4222.15933960,0.00196752
4224.08814697,0.00192170
4226.01695435,0.00187691
4227.94576172,0.00193922
4229.87456909,0.00196874
4231.80337646,0.00193303
4233.73218384,0.00194845
4235.66099121,0.00190550
4237.58979858,0.00182877
4239.51860596,0.00193986
4241.44741333,0.00197181
4243.37622070,0.00183377
4245.30502808,0.00184505
4247.23383545,0.00185679
4249.16264282,0.00180829
4251.09145020,0.00178850
4253.02025757,0.00180836
4254.94906494,0.00184062
4256.87787231,0.00180556
4258.80667969,0.00183981
4260.73548706,0.00185870
4262.66429443,0.00183747
4264.59310181,0.00190628
4266.52190918,0.00190096
4268.45071655,0.00174247
4270.37952393,0.00174451
4272.30833130,0.00183062
4274.23713867,0.00176022
4276.16594604,0.00181478
4278.09475342,0.00181592
4280.02356079,0.00178666
4281.95236816,0.00180074
4283.88117554,0.00172621
4285.80998291,0.00180550
4287.73879028,0.00178886
4289.66759766,0.00177264
4291.59640503,0.00181275
4293.52521240,0.00175069
4295.45401978,0.00173676
4297.38282715,0.00174234
4299.31163452,0.00181476
4301.24044189,0.00176320
4303.16924927,0.00170301
4305.09805664,0.00173466
4307.02686401,0.00175045
4308.95567139,0.00173376
4310.88447876,0.00164089
4312.81328613,0.00171838
4314.74209351,0.00175554
4316.67090088,0.00173659
4318.59970825,0.00177873
4320.52851562,0.00170575
4322.45732300,0.00167171
4324.38613037,0.00168159
4326.31493774,0.00170069
4328.24374512,0.00172832
4330.17255249,0.00173367
4332.10135986,0.00169539
4334.03016724,0.00166692
4335.95897461,0.00168597
4337.88778198,0.00165918
4339.81658936,0.00165947
4341.74539673,0.00168233
4343.67420410,0.00164954
4345.60301147,0.00171030
4347.53181885,0.00176383
4349.46062622,0.00160463
4351.38943359,0.00162444
4353.31824097,0.00164952
4355.24704834,0.00152326
4357.17585571,0.00165560
4359.10466309,0.00164756
4361.03347046,0.00156156
4362.96227783,0.00160015
4364.89108520,0.00161307
4366.81989258,0.00166349
4368.74869995,0.00159516
4370.67750732,0.00158721
4372.60631470,0.00160092
4374.53512207,0.00152980
4376.46392944,0.00158667
4378.39273682,0.00163431
4380.32154419,0.00157277
4382.25035156,0.00157266
4384.17915894,0.00156446
4386.10796631,0.00152026
4388.03677368,0.00158797
4389.96558105,0.00157102
4391.89438843,0.00152350
4393.82319580,0.00147070
4395.75200317,0.00148770
4397.68081055,0.00160488
4399.60961792,0.00154126
4401.53842529,0.00159684
4403.46723267,0.00161371
4405.39604004,0.00152443
4407.32484741,0.00153302
4409.25365478,0.00146301
4411.18246216,0.00151009
4413.11126953,0.00153921
4415.04007690,0.00149012
4416.96888428,0.00150290
4418.89769165,0.00148730
4420.82649902,0.00147499
4422.75530640,0.00147020
4424.68411377,0.00145265
4426.61292114,0.00148470
4428.54172852,0.00148314
4430.47053589,0.00141027
4432.39934326,0.00151355
4434.32815063,0.00149330
4436.25695801,0.00139674
4438.18576538,0.00150378
4440.11457275,0.00145993
4442.04338013,0.00142061
4443.97218750,0.00143816
4445.90099487,0.00143594
4447.82980225,0.00148513
4449.75860962,0.00143880
4451.68741699,0.00139195
4453.61622437,0.00145049
4455.54503174,0.00138876
4457.47383911,0.00131637
4459.40264648,0.00145221
4461.33145386,0.00140983
4463.26026123,0.00137296
4465.18906860,0.00140061
4467.11787598,0.00140762
4469.04668335,0.00154256
4470.97549072,0.00140171
4472.90429810,0.00136109
4474.83310547,0.00143800
4476.76191284,0.00136148
4478.69072021,0.00132496
4480.61952759,0.00129824
4482.54833496,0.00139738
4484.47714233,0.00135566
4486.40594971,0.00135382
4488.33475708,0.00137537
4490.26356445,0.00130185
4492.19237183,0.00141979
4494.12117920,0.00139882
4496.04998657,0.00137075
4497.97879395,0.00133557
4499.90760132,0.00129318
4501.83640869,0.00134207
4503.76521606,0.00128792
4505.69402344,0.00136182
4507.62283081,0.00136558
4509.55163818,0.00129696
4511.48044556,0.00131660
4513.40925293,0.00130264
4515.33806030,0.00134520
4517.26686768,0.00135174
4519.19567505,0.00134821
4521.12448242,0.00128116
4523.05328979,0.00120374
4524.98209717,0.00129320
4526.91090454,0.00130513
4528.83971191,0.00130950
4530.76851929,0.00134461
4532.69732666,0.00127329
4534.62613403,0.00126516
4536.55494141,0.00128036
4538.48374878,0.00128216
4540.41255615,0.00131397
4542.34136353,0.00132535
4544.27017090,0.00129290
4546.19897827,0.00126968
4548.12778564,0.00128193
4550.05659302,0.00125397
4551.98540039,0.00129144
4553.91420776,0.00123257
4555.84301514,0.00114471
4557.77182251,0.00124658
4559.70062988,0.00123152
4561.62943726,0.00121760
4563.55824463,0.00123287
4565.48705200,0.00122093
4567.41585937,0.00124764
4569.34466675,0.00118368
4571.27347412,0.00121485
4573.20228149,0.00123368
4575.13108887,0.00113759
4577.05989624,0.00115441
4578.98870361,0.00119057
4580.91751099,0.00117747
4582.84631836,0.00124722
4584.77512573,0.00121874
4586.70393311,0.00117384
4588.63274048,0.00127548
4590.56154785,0.00118816
4592.49035522,0.00119535
4594.41916260,0.00121634
4596.34796997,0.00103296
4598.27677734,0.00111563
4600.20558472,0.00120690
4602.13439209,0.00116484
4604.06319946,0.00114630
4605.99200684,0.00112521
4607.92081421,0.00114453
4609.84962158,0.00119248
4611.77842895,0.00121143
4613.70723633,0.00119281
4615.63604370,0.00123522
4617.56485107,0.00121170
4619.49365845,0.00114628
4621.42246582,0.00111984
4623.35127319,0.00112723
4625.28008057,0.00110722
4627.20888794,0.00113048
4629.13769531,0.00119341
4631.06650269,0.00105010
4632.99531006,0.00107788
4634.92411743,0.00111295
4636.85292480,0.00110111
4638.78173218,0.00117522
4640.71053955,0.00098732
4642.63934692,0.00104224
4644.56815430,0.00113202
4646.49696167,0.00103923
4648.42576904,0.00110305
4650.35457642,0.00109410
4652.28338379,0.00100761
4654.21219116,0.00101717
4656.14099853,0.00114989
4658.06980591,0.00111894
4659.99861328,0.00109581
4661.92742065,0.00111598
4663.85622803,0.00104732
4665.78503540,0.00106348
4667.71384277,0.00101727
4669.64265015,0.00103886
4671.57145752,0.00103209
4673.50026489,0.00102094
4675.42907227,0.00107598
4677.35787964,0.00106632
4679.28668701,0.00107467
4681.21549438,0.00108018
4683.14430176,0.00115219
4685.07310913,0.00109280
4687.00191650,0.00105275
4688.93072388,0.00102849
4690.85953125,0.00099533
4692.78833862,0.00109492
4694.71714600,0.00098627
4696.64595337,0.00097593
4698.57476074,0.00102731
4700.50356812,0.00104639
4702.43237549,0.00106433
4704.36118286,0.00098042
4706.28999023,0.00103116
4708.21879761,0.00098482
4710.14760498,0.00098233
4712.07641235,0.00100159
4714.00521973,0.00097509
4715.93402710,0.00100274
4717.86283447,0.00094947
4719.79164185,0.00100221
4721.72044922,0.00097689
4723.64925659,0.00097830
4725.57806396,0.00102907
4727.50687134,0.00097309
4729.43567871,0.00099012
4731.36448608,0.00102257
4733.29329346,0.00103966
4735.22210083,0.00097477
4737.15090820,0.00099964
4739.07971558,0.00102020
4741.00852295,0.00098045
4742.93733032,0.00103953
4744.86613770,0.00097968
4746.79494507,0.00093424
4748.72375244,0.00096705
4750.65255981,0.00095719
4752.58136719,0.00090331
4754.51017456,0.00093444
4756.43898193,0.00096417
4758.36778931,0.00091281
4760.29659668,0.00094516
4762.22540405,0.00089142
4764.15421143,0.00093997
4766.08301880,0.00100170
4768.01182617,0.00092174
4769.94063354,0.00094547
4771.86944092,0.00091046
4773.79824829,0.00091104
4775.72705566,0.00091262
4777.65586304,0.00092991
4779.58467041,0.00100204
4781.51347778,0.00089082
4783.44228516,0.00083639
4785.37109253,0.00093912
4787.29989990,0.00099490
4789.22870728,0.00092739
4791.15751465,0.00088736
4793.08632202,0.00087679
4795.01512939,0.00083818
4796.94393677,0.00085726
4798.87274414,0.00089937
4800.80155151,0.00096326
4802.73035889,0.00091858
4804.65916626,0.00087754
4806.58797363,0.00088322
4808.51678101,0.00087210
4810.44558838,0.00095159
4812.37439575,0.00092302
4814.30320312,0.00091495
4816.23201050,0.00094153
4818.16081787,0.00087263
4820.08962524,0.00085289
4822.01843262,0.00087949
4823.94723999,0.00089728
4825.87604736,0.00083417
4827.80485474,0.00088991
4829.73366211,0.00091443
4831.66246948,0.00089762
4833.59127686,0.00097537
4835.52008423,0.00084701
4837.44889160,0.00088848
4839.37769897,0.00092661
4841.30650635,0.00079313
4843.23531372,0.00087255
4845.16412109,0.00083217
4847.09292847,0.00080021
4849.02173584,0.00082442
4850.95054321,0.00079658
4852.87935059,0.00085836
4854.80815796,0.00085289
4856.73696533,0.00085278
4858.66577270,0.00082713
4860.59458008,0.00076598
4862.52338745,0.00074611
4864.45219482,0.00078683
4866.38100220,0.00085324
4868.30980957,0.00079732
4870.23861694,0.00082157
4872.16742432,0.00087988
4874.09623169,0.00081969
4876.02503906,0.00083373
4877.95384644,0.00085176
4879.88265381,0.00077830
4881.81146118,0.00077053
4883.74026855,0.00079451
4885.66907593,0.00077389
4887.59788330,0.00079747
4889.52669067,0.00076062
4891.45549805,0.00076779
4893.38430542,0.00082406
4895.31311279,0.00077456
4897.24192017,0.00081749
4899.17072754,0.00074671
4901.09953491,0.00069543
4903.02834228,0.00082904
4904.95714966,0.00074597
4906.88595703,0.00075390
4908.81476440,0.00085394
4910.74357178,0.00077666
4912.67237915,0.00075940
4914.60118652,0.00078835
4916.52999390,0.00077968
4918.45880127,0.00074251
4920.38760864,0.00076356
4922.31641602,0.00076548
4924.24522339,0.00075291
4926.17403076,0.00078091
4928.10283813,0.00074444
4930.03164551,0.00079652
4931.96045288,0.00077141
4933.88926025,0.00073557
4935.81806763,0.00080588
4937.74687500,0.00077885
4939.67568237,0.00083222
4941.60448975,0.00074955
4943.53329712,0.00070547
4945.46210449,0.00083352
4947.39091187,0.00074195
4949.31971924,0.00072629
4951.24852661,0.00078276
4953.17733398,0.00078226
4955.10614136,0.00069714
4957.03494873,0.00064182
4958.96375610,0.00073114
4960.89256348,0.00068642
4962.82137085,0.00074472
4964.75017822,0.00077944
4966.67898560,0.00073341
4968.60779297,0.00079062
4970.53660034,0.00069017
4972.46540771,0.00067717
4974.39421509,0.00076037
4976.32302246,0.00074356
4978.25182983,0.00068624
4980.18063721,0.00067533
4982.10944458,0.00067182
4984.03825195,0.00064106
4985.96705933,0.00071699
4987.89586670,0.00069775
4989.82467407,0.00069889
4991.75348145,0.00072216
4993.68228882,0.00069405
4995.61109619,0.00075489
4997.53990356,0.00068373
4999.46871094,0.00066561
5001.39751831,0.00067210
5003.32632568,0.00065103
5005.25513306,0.00073555
5007.18394043,0.00071960
5009.11274780,0.00065242
5011.04155518,0.00065210
5012.97036255,0.00071874
5014.89916992,0.00068574
5016.82797729,0.00069421
5018.75678467,0.00070491
5020.68559204,0.00062364
5022.61439941,0.00066893
5024.54320679,0.00062330
5026.47201416,0.00066101
5028.40082153,0.00069513
5030.32962891,0.00065314
5032.25843628,0.00071243
5034.18724365,0.00063191
5036.11605103,0.00065503
5038.04485840,0.00065323
5039.97366577,0.00060163
5041.90247314,0.00063144
5043.83128052,0.00064197
5045.76008789,0.00073638
5047.68889526,0.00069292
5049.61770264,0.00067442
5051.54651001,0.00065404
5053.47531738,0.00061549
5055.40412476,0.00062542
5057.33293213,0.00053401
5059.26173950,0.00068284
5061.19054687,0.00070109
5063.11935425,0.00055656
5065.04816162,0.00061578
5066.97696899,0.00059972
5068.90577637,0.00060440
5070.83458374,0.00059920
5072.76339111,0.00057607
5074.69219849,0.00062204
5076.62100586,0.00060195
5078.54981323,0.00058628
5080.47862061,0.00061019
5082.40742798,0.00058358
5084.33623535,0.00061101
5086.26504272,0.00068519
5088.19385010,0.00057523
5090.12265747,0.00056742
5092.05146484,0.00061212
5093.98027222,0.00052048
5095.90907959,0.00060202
5097.83788696,0.00060562
5099.76669434,0.00056554
5101.69550171,0.00064534
5103.62430908,0.00063034
5105.55311645,0.00064435
5107.48192383,0.00066135
5109.41073120,0.00061653
5111.33953857,0.00061030
5113.26834595,0.00064623
5115.19715332,0.00063283
5117.12596069,0.00060634
5119.05476807,0.00060016
5120.98357544,0.00056161
5122.91238281,0.00060627
5124.84119019,0.00058815
5126.76999756,0.00053226
5128.69880493,0.00056833
5130.62761230,0.00051337
5132.55641968,0.00052370
5134.48522705,0.00059274
5136.41403442,0.00059968
5138.34284180,0.00056174
5140.27164917,0.00047616
5142.20045654,0.00057876
5144.12926392,0.00064259
5146.05807129,0.00052382
5147.98687866,0.00053836
5149.91568603,0.00054674
5151.84449341,0.00055452
5153.77330078,0.00061279
5155.70210815,0.00056370
5157.63091553,0.00055927
5159.55972290,0.00058349
5161.48853027,0.00057340
5163.41733765,0.00055862
5165.34614502,0.00054925
5167.27495239,0.00058829
5169.20375977,0.00054640
5171.13256714,0.00054978
5173.06137451,0.00059613
5174.99018188,0.00054050
5176.91898926,0.00054740
5178.84779663,0.00051978
5180.77660400,0.00051310
5182.70541138,0.00057561
5184.63421875,0.00054718
5186.56302612,0.00050231
5188.49183350,0.00050350
5190.42064087,0.00057780
5192.34944824,0.00051552
5194.27825562,0.00047181
5196.20706299,0.00054177
5198.13587036,0.00047917
5200.06467773,0.00056094
5201.99348511,0.00053205
5203.92229248,0.00043030
5205.85109985,0.00055032
5207.77990723,0.00048132
5209.70871460,0.00049345
5211.63752197,0.00056461
5213.56632935,0.00046526
5215.49513672,0.00052062
5217.42394409,0.00057867
5219.35275146,0.00054255
5221.28155884,0.00050119
5223.21036621,0.00044674
5225.13917358,0.00048358
5227.06798096,0.00055005
5228.99678833,0.00050024
5230.92559570,0.00045440
5232.85440308,0.00047501
5234.78321045,0.00050147
5236.71201782,0.00051104
5238.64082520,0.00046736
5240.56963257,0.00047771
5242.49843994,0.00048626
5244.42724731,0.00050377
5246.35605469,0.00048712
5248.28486206,0.00040096
5250.21366943,0.00047294
5252.14247681,0.00046716
5254.07128418,0.00047011
5256.00009155,0.00051568
5257.92889893,0.00041565
5259.85770630,0.00046260
5261.78651367,0.00044595
5263.71532104,0.00040777
5265.64412842,0.00050589
5267.57293579,0.00048252
5269.50174316,0.00050010
5271.43055054,0.00050687
5273.35935791,0.00041697
5275.28816528,0.00046398
5277.21697266,0.00051853
5279.14578003,0.00048577
5281.07458740,0.00048154
5283.00339478,0.00040823
5284.93220215,0.00040269
5286.86100952,0.00047550
5288.78981689,0.00045173
5290.71862427,0.00045289
5292.64743164,0.00043986
5294.57623901,0.00047477
5296.50504639,0.00047914
5298.43385376,0.00044759
5300.36266113,0.00050440
5302.29146851,0.00046385
5304.22027588,0.00050724
5306.14908325,0.00050685
5308.07789062,0.00042290
5310.00669800,0.00046241
5311.93550537,0.00043115
5313.86431274,0.00049507
5315.79312012,0.00049809
5317.72192749,0.00035902
5319.65073486,0.00043614
5321.57954224,0.00049140
5323.50834961,0.00043811
5325.43715698,0.00049249
5327.36596436,0.00044469
5329.29477173,0.00032204
5331.22357910,0.00041017
5333.15238647,0.00046582
5335.08119385,0.00045809
5337.01000122,0.00045535
5338.93880859,0.00037385
5340.86761597,0.00045306
5342.79642334,0.00049144
5344.72523071,0.00040617
5346.65403809,0.00040276
5348.58284546,0.00039046
5350.51165283,0.00044575
5352.44046020,0.00047153
5354.36926758,0.00043044
5356.29807495,0.00042477
5358.22688232,0.00036015
5360.15568970,0.00036891
5362.08449707,0.00043005
5364.01330444,0.00039755
5365.94211182,0.00040764
5367.87091919,0.00045731
5369.79972656,0.00042751
5371.72853394,0.00039672
5373.65734131,0.00043625
5375.58614868,0.00044014
5377.51495605,0.00041359
5379.44376343,0.00038442
5381.37257080,0.00034378
5383.30137817,0.00038599
5385.23018555,0.00036741
5387.15899292,0.00036311
5389.08780029,0.00049348
5391.01660767,0.00044274
5392.94541504,0.00038455
5394.87422241,0.00045332
5396.80302978,0.00040180
5398.73183716,0.00038148
5400.66064453,0.00040565
5402.58945190,0.00038163
5404.51825928,0.00040660
5406.44706665,0.00042867
5408.37587402,0.00043349
5410.30468140,0.00038082
5412.23348877,0.00035434
5414.16229614,0.00044753
5416.09110352,0.00040212
5418.01991089,0.00038317
5419.94871826,0.00045681
5421.87752563,0.00040313
5423.80633301,0.00036675
5425.73514038,0.00031115
5427.66394775,0.00035282
5429.59275513,0.00038565
5431.52156250,0.00031126
5433.45036987,0.00036430
5435.37917725,0.00033815
5437.30798462,0.00036157
5439.23679199,0.00039313
5441.16559936,0.00038222
5443.09440674,0.00041169
5445.02321411,0.00031169
5446.95202148,0.00039676
5448.88082886,0.00037917
5450.80963623,0.00029903
5452.73844360,0.00044233
5454.66725098,0.00038845
5456.59605835,0.00040015
5458.52486572,0.00040248
5460.45367310,0.00033533
5462.38248047,0.00037586
5464.31128784,0.00032139
5466.24009521,0.00038891
5468.16890259,0.00037563
5470.09770996,0.00029271
5472.02651733,0.00038658
5473.95532471,0.00037708
5475.88413208,0.00036125
5477.81293945,0.00032705
5479.74174683,0.00030185
5481.67055420,0.00039549
5483.59936157,0.00036816
5485.52816895,0.00033141
5487.45697632,0.00038062
5489.38578369,0.00035876
5491.31459106,0.00030910
5493.24339844,0.00034364
5495.17220581,0.00034257
5497.10101318,0.00029254
5499.02982056,0.00034019
5500.95862793,0.00034107
5502.88743530,0.00033021
5504.81624268,0.00039066
5506.74505005,0.00040154
5508.67385742,0.00036549
5510.60266479,0.00034301
5512.53147217,0.00035885
5514.46027954,0.00035222
5516.38908691,0.00035312
5518.31789429,0.00029921
5520.24670166,0.00030460
5522.17550903,0.00038475
5524.10431641,0.00030171
5526.03312378,0.00026962
5527.96193115,0.00026298
5529.89073853,0.00031076
5531.81954590,0.00037935
5533.74835327,0.00032020
5535.67716064,0.00033358
5537.60596802,0.00031361
5539.53477539,0.00036501
5541.46358276,0.00034107
5543.39239014,0.00025408
5545.32119751,0.00032773
5547.25000488,0.00030794
5549.17881226,0.00035798
5551.10761963,0.00031210
5553.03642700,0.00024503
5554.96523437,0.00035128
5556.89404175,0.00031659
5558.82284912,0.00032265
5560.75165649,0.00033293
5562.68046387,0.00030209
5564.60927124,0.00031923
5566.53807861,0.00027266
5568.46688599,0.00028255
5570.39569336,0.00038307
5572.32450073,0.00040812
5574.25330811,0.00036177
5576.18211548,0.00031079
5578.11092285,0.00022959
5580.03973022,0.00029704
5581.96853760,0.00035354
5583.89734497,0.00027221
5585.82615234,0.00033159
5587.75495972,0.00034248
5589.68376709,0.00028462
5591.61257446,0.00034288
5593.54138184,0.00036674
5595.47018921,0.00031099
5597.39899658,0.00030364
5599.32780395,0.00033663
5601.25661133,0.00029150
5603.18541870,0.00031806
5605.11422607,0.00039249
5607.04303345,0.00027644
5608.97184082,0.00028780
5610.90064819,0.00039891
5612.82945557,0.00026835
5614.75826294,0.00029391
5616.68707031,0.00036234
5618.61587769,0.00024613
5620.54468506,0.00026232
5622.47349243,0.00030546
5624.40229980,0.00033829
5626.33110718,0.00036160
5628.25991455,0.00030508
5630.18872192,0.00027560
5632.11752930,0.00031734
5634.04633667,0.00027920
5635.97514404,0.00024548
5637.90395142,0.00034666
5639.83275879,0.00031442
5641.76156616,0.00029103
5643.69037353,0.00027203
5645.61918091,0.00025319
5647.54798828,0.00029705
5649.47679565,0.00023459
5651.40560303,0.00035811
5653.33441040,0.00035089
5655.26321777,0.00025224
5657.19202515,0.00036268
5659.12083252,0.00032819
5661.04963989,0.00030797
5662.97844727,0.00027180
5664.90725464,0.00022175
5666.83606201,0.00027187
5668.76486938,0.00032483
5670.69367676,0.00028591
5672.62248413,0.00022608
5674.55129150,0.00029711
5676.48009888,0.00025432
5678.40890625,0.00027555
5680.33771362,0.00029587
5682.26652100,0.00026568
5684.19532837,0.00038775
5686.12413574,0.00029308
5688.05294311,0.00023863
5689.98175049,0.00031429
5691.91055786,0.00028277
5693.83936523,0.00031605
5695.76817261,0.00034336
5697.69697998,0.00030936
5699.62578735,0.00030666
5701.55459473,0.00028521
5703.48340210,0.00020236
5705.41220947,0.00029386
5707.34101685,0.00031131
5709.26982422,0.00015628
5711.19863159,0.00026783
5713.12743896,0.00029307
5715.05624634,0.00017333
5716.98505371,0.00020498
5718.91386108,0.00023477
5720.84266846,0.00026666
5722.77147583,0.00023399
5724.70028320,0.00022146
5726.62909058,0.00025978
5728.55789795,0.00021323
5730.48670532,0.00024885
5732.41551270,0.00027742
5734.34432007,0.00025512
5736.27312744,0.00027806
5738.20193481,0.00024793
5740.13074219,0.00024359
5742.05954956,0.00024520
5743.98835693,0.00021999
5745.91716431,0.00028442
5747.84597168,0.00034450
5749.77477905,0.00028530
5751.70358643,0.00025269
5753.63239380,0.00027733
5755.56120117,0.00024783
5757.49000854,0.00025518
5759.41881592,0.00022596
5761.34762329,0.00020910
5763.27643066,0.00027287
5765.20523804,0.00024250
5767.13404541,0.00024232
5769.06285278,0.00027282
5770.99166016,0.00022605
5772.92046753,0.00020799
5774.84927490,0.00025900
5776.77808228,0.00021030
5778.70688965,0.00019427
5780.63569702,0.00029453
5782.56450439,0.00022366
5784.49331177,0.00024610
5786.42211914,0.00032070
5788.35092651,0.00026285
5790.27973389,0.00023772
5792.20854126,0.00017998
5794.13734863,0.00020734
5796.06615601,0.00021038
5797.99496338,0.00019824
5799.92377075,0.00026679
5801.85257812,0.00024289
5803.78138550,0.00026334
5805.71019287,0.00032291
5807.63900024,0.00024735
5809.56780762,0.00018289
5811.49661499,0.00025224
5813.42542236,0.00023759
5815.35422974,0.00023472
5817.28303711,0.00029317
5819.21184448,0.00025281
5821.14065186,0.00023534
5823.06945923,0.00019261
5824.99826660,0.00022440
5826.92707397,0.00027480
5828.85588135,0.00022109
5830.78468872,0.00024719
5832.71349609,0.00027536
5834.64230347,0.00025262
5836.57111084,0.00020823
5838.49991821,0.00018209
5840.42872559,0.00020809
5842.35753296,0.00023002
5844.28634033,0.00022035
5846.21514770,0.00023064
5848.14395508,0.00020101
5850.07276245,0.00016849
5852.00156982,0.00024988
5853.93037720,0.00026450
5855.85918457,0.00023936
5857.78799194,0.00020131
5859.71679932,0.00018378
5861.64560669,0.00021034
5863.57441406,0.00022563
5865.50322144,0.00024665
5867.43202881,0.00016928
5869.36083618,0.00022143
5871.28964355,0.00025356
5873.21845093,0.00017253
5875.14725830,0.00017431
5877.07606567,0.00016538
5879.00487305,0.00020268
5880.93368042,0.00015241
5882.86248779,0.00017637
5884.79129517,0.00021412
5886.72010254,0.00018620
5888.64890991,0.00027497
5890.57771728,0.00020066
5892.50652466,0.00016618
5894.43533203,0.00020653
5896.36413940,0.00020582
5898.29294678,0.00025121
5900.22175415,0.00019154
5902.15056152,0.00017831
5904.07936890,0.00022619
5906.00817627,0.00019331
5907.93698364,0.00019469
5909.86579102,0.00021166
5911.79459839,0.00018530
5913.72340576,0.00020720
5915.65221313,0.00017176
5917.58102051,0.00019563
5919.50982788,0.00030003
5921.43863525,0.00021347
5923.36744263,0.00016194
5925.29625000,0.00021430
5927.22505737,0.00023166
5929.15386475,0.00019193
5931.08267212,0.00020583
5933.01147949,0.00023064
5934.94028686,0.00015177
5936.86909424,0.00016474
5938.79790161,0.00016718
5940.72670898,0.00020408
5942.65551636,0.00022593
5944.58432373,0.00012505
5946.51313110,0.00012179
5948.44193848,0.00021555
5950.37074585,0.00027543
5952.29955322,0.00017621
5954.22836060,0.00016721
5956.15716797,0.00020519
5958.08597534,0.00016355
5960.01478271,0.00015960
5961.94359009,0.00012402
5963.87239746,0.00016299
5965.80120483,0.00019711
5967.73001221,0.00015832
5969.65881958,0.00012558
5971.58762695,0.00023331
5973.51643433,0.00027677
5975.44524170,0.00019016
5977.37404907,0.00023403
5979.30285645,0.00017328
5981.23166382,0.00015248
5983.16047119,0.00019428
5985.08927856,0.00020764
5987.01808594,0.00020680
5988.94689331,0.00013546
5990.87570068,0.00019221
5992.80450806,0.00017949
5994.73331543,0.00016136
5996.66212280,0.00017269
5998.59093018,0.00015125
6000.51973755,0.00014983
