399.26312622,0.00010251
401.19193359,0.00058812
403.12074097,0.00061282
405.04954834,0.00053868
406.97835571,0.00045449
408.90716309,0.00050466
410.83597046,0.00069229
412.76477783,-0.00010830
414.69358521,0.00039725
416.62239258,0.00110027
418.55119995,0.00043559
420.48000732,0.00056439
422.40881470,0.00042577
424.33762207,0.00019418
426.26642944,0.00050393
428.19523682,0.00063233
430.12404419,0.00030724
432.05285156,0.00042389
433.98165894,0.00075590
435.91046631,0.00022655
437.83927368,0.00039022
439.76808105,0.00036031
441.69688843,0.00005388
443.62569580,0.00062166
445.55450317,0.00084822
447.48331055,0.00050796
449.41211792,0.00039271
451.34092529,0.00068134
453.26973267,0.00017126
455.19854004,0.00000362
457.12734741,0.00035600
459.05615479,0.00025269
460.98496216,0.00055679
462.91376953,0.00055886
464.84257690,0.00033725
466.77138428,0.00047835
468.70019165,0.00035534
470.62899902,0.00003247
472.55780640,0.00037171
474.48661377,0.00013141
476.41542114,-0.00040010
478.34422852,0.00041871
480.27303589,0.00018930
482.20184326,-0.00027096
484.13065063,0.00016031
486.05945801,0.00022121
487.98826538,0.00051266
489.91707275,0.00072271
491.84588013,0.00032288
493.77468750,0.00015060
495.70349487,0.00029390
497.63230225,0.00041678
499.56110962,0.00038910
501.48991699,0.00012616
503.41872437,0.00021609
505.34753174,0.00013609
507.27633911,0.00029233
509.20514648,0.00037376
511.13395386,0.00020168
513.06276123,0.00048289
514.99156860,0.00007633
516.92037598,-0.00002673
518.84918335,0.00045408
520.77799072,0.00002971
522.70679810,-0.00009960
524.63560547,0.00031861
526.56441284,0.00024174
528.49322021,0.00030587
530.42202759,0.00028183
532.35083496,-0.00011617
534.27964233,0.00030501
536.20844971,0.00044257
538.13725708,0.00006502
540.06606445,0.00009595
541.99487183,0.00003255
543.92367920,0.00016687
545.85248657,0.00023491
547.78129395,0.00038004
549.71010132,0.00035288
551.63890869,0.00005781
553.56771606,0.00014246
555.49652344,0.00026395
557.42533081,0.00045600
559.35413818,0.00026111
561.28294556,0.00029399
563.21175293,0.00022565
565.14056030,0.00003664
567.06936768,0.00033603
568.99817505,-0.00011057
570.92698242,0.00025175
572.85578979,0.00051651
574.78459717,-0.00005266
576.71340454,0.00042425
578.64221191,0.00025106
580.57101929,0.00020545
582.49982666,0.00050571
584.42863403,0.00022638
586.35744141,0.00045700
588.28624878,0.00016852
590.21505615,-0.00001684
592.14386353,0.00015954
594.07267090,0.00003304
596.00147827,0.00018066
597.93028564,0.00011046
599.85909302,0.00030773
601.78790039,0.00029583
603.71670776,0.00001241
605.64551514,0.00026239
607.57432251,0.00023258
609.50312988,0.00012926
611.43193726,0.00016608
613.36074463,0.00013240
615.28955200,0.00002438
617.21835938,0.00002366
619.14716675,0.00021426
621.07597412,-0.00006235
623.00478149,-0.00008047
624.93358887,0.00035131
626.86239624,0.00008119
628.79120361,0.00000819
630.72001099,0.00000772
632.64881836,0.00032749
634.57762573,0.00067200
636.50643311,0.00039343
638.43524048,0.00096878
640.36404785,0.00074234
642.29285522,0.00067665
644.22166260,0.00095020
646.15046997,0.00086914
648.07927734,0.00139538
650.00808472,0.00121108
651.93689209,0.00122251
653.86569946,0.00131512
655.79450684,0.00148416
657.72331421,0.00143375
659.65212158,0.00119951
661.58092896,0.00161506
663.50973633,0.00161325
665.43854370,0.00202580
667.36735107,0.00186814
669.29615845,0.00182222
671.22496582,0.00225964
673.15377319,0.00183600
675.08258057,0.00204672
677.01138794,0.00233937
678.94019531,0.00248431
680.86900269,0.00245653
682.79781006,0.00226784
684.72661743,0.00217263
686.65542480,0.00218153
688.58423218,0.00239655
690.51303955,0.00236770
692.44184692,0.00284305
694.37065430,0.00298601
696.29946167,0.00314756
698.22826904,0.00403261
700.15707642,0.00425405
702.08588379,0.00400945
704.01469116,0.00371046
705.94349854,0.00335993
707.87230591,0.00290720
709.80111328,0.00225845
711.72992065,0.00163520
713.65872803,0.00113948
715.58753540,0.00045604
717.51634277,0.00042395
719.44515015,0.00036320
721.37395752,-0.00009117
723.30276489,0.00038065
725.23157227,0.00004588
727.16037964,-0.00010148
729.08918701,0.00016714
731.01799438,-0.00004474
732.94680176,0.00031646
734.87560913,0.00007874
736.80441650,0.00018047
738.73322388,-0.00001129
740.66203125,-0.00023274
742.59083862,0.00045456
744.51964600,0.00007305
746.44845337,0.00039952
748.37726074,0.00061536
750.30606812,-0.00007821
752.23487549,0.00028703
754.16368286,0.00032802
756.09249023,0.00018427
758.02129761,0.00042715
759.95010498,0.00042830
761.87891235,0.00049137
763.80771973,0.00053926
765.73652710,0.00032405
767.66533447,0.00022731
769.59414185,0.00024730
771.52294922,0.00013681
773.45175659,0.00053534
775.38056396,0.00061150
777.30937134,0.00045301
779.23817871,0.00037769
781.16698608,0.00021698
783.09579346,0.00048574
785.02460083,0.00053311
786.95340820,0.00050612
788.88221558,0.00039664
790.81102295,0.00031540
792.73983032,0.00023637
794.66863770,0.00051404
796.59744507,0.00091453
798.52625244,0.00070676
800.45505981,0.00100422
802.38386719,0.00073849
804.31267456,0.00035615
806.24148193,0.00062196
808.17028931,0.00038695
810.09909668,0.00047072
812.02790405,0.00061118
813.95671143,0.00041762
815.88551880,0.00026152
817.81432617,0.00046758
819.74313354,0.00061997
821.67194092,0.00041721
823.60074829,0.00055293
825.52955566,0.00071108
827.45836304,0.00065642
829.38717041,0.00058299
831.31597778,0.00098458
833.24478516,0.00125281
835.17359253,0.00130642
837.10239990,0.00157651
839.03120728,0.00112575
840.96001465,0.00117106
842.88882202,0.00134792
844.81762939,0.00089736
846.74643677,0.00106469
848.67524414,0.00094132
850.60405151,0.00101149
852.53285889,0.00116165
854.46166626,0.00079829
856.39047363,0.00093164
858.31928101,0.00076790
860.24808838,0.00069264
862.17689575,0.00065538
864.10570313,0.00042838
866.03451050,0.00055348
867.96331787,0.00031521
869.89212524,0.00041853
871.82093262,0.00050797
873.74973999,0.00034702
875.67854736,0.00059637
877.60735474,0.00071655
879.53616211,0.00078409
881.46496948,0.00064749
883.39377686,0.00059563
885.32258423,0.00052693
887.25139160,0.00025506
889.18019897,0.00044196
891.10900635,0.00043673
893.03781372,0.00039292
894.96662109,0.00049127
896.89542847,0.00038397
898.82423584,0.00068663
900.75304321,0.00068826
902.68185059,0.00041932
904.61065796,0.00054068
906.53946533,0.00062371
908.46827271,0.00074758
910.39708008,0.00054888
912.32588745,0.00045509
914.25469482,0.00075592
916.18350220,0.00081499
918.11230957,0.00109077
920.04111694,0.00126305
921.96992432,0.00109941
923.89873169,0.00110801
925.82753906,0.00136146
927.75634644,0.00152311
929.68515381,0.00151729
931.61396118,0.00172935
933.54276855,0.00160190
935.47157593,0.00163228
937.40038330,0.00196542
939.32919067,0.00185188
941.25799805,0.00196938
943.18680542,0.00200203
945.11561279,0.00194486
947.04442017,0.00204430
948.97322754,0.00204424
950.90203491,0.00209706
952.83084229,0.00191928
954.75964966,0.00200482
956.68845703,0.00205917
958.61726440,0.00192009
960.54607178,0.00215357
962.47487915,0.00179600
964.40368652,0.00165861
966.33249390,0.00215335
968.26130127,0.00202176
970.19010864,0.00220521
972.11891602,0.00254107
974.04772339,0.00258768
975.97653076,0.00292665
977.90533813,0.00306622
979.83414551,0.00331257
981.76295288,0.00346667
983.69176025,0.00376910
985.62056763,0.00445845
987.54937500,0.00476535
989.47818237,0.00529761
991.40698975,0.00571622
993.33579712,0.00625217
995.26460449,0.00696379
997.19341187,0.00719598
999.12221924,0.00786013
1001.05102661,0.00841002
1002.97983398,0.00887734
1004.90864136,0.00972827
1006.83744873,0.01034522
1008.76625610,0.01074228
1010.69506348,0.01121161
1012.62387085,0.01189686
1014.55267822,0.01238487
1016.48148560,0.01295975
1018.41029297,0.01369954
1020.33910034,0.01435354
1022.26790771,0.01489835
1024.19671509,0.01530205
1026.12552246,0.01593159
1028.05432983,0.01642869
1029.98313721,0.01681133
1031.91194458,0.01716998
1033.84075195,0.01743146
1035.76955933,0.01782085
1037.69836670,0.01811615
1039.62717407,0.01812896
1041.55598145,0.01775881
1043.48478882,0.01753269
1045.41359619,0.01756379
1047.34240356,0.01725250
1049.27121094,0.01683919
1051.20001831,0.01660572
1053.12882568,0.01625592
1055.05763306,0.01603750
1056.98644043,0.01575674
1058.91524780,0.01509042
1060.84405518,0.01476553
1062.77286255,0.01426919
1064.70166992,0.01365090
1066.63047729,0.01334911
1068.55928467,0.01270554
1070.48809204,0.01209137
1072.41689941,0.01152745
1074.34570679,0.01099813
1076.27451416,0.01058712
1078.20332153,0.01017432
1080.13212891,0.00980213
1082.06093628,0.00910653
1083.98974365,0.00854821
1085.91855103,0.00839110
1087.84735840,0.00795748
1089.77616577,0.00733564
1091.70497314,0.00710862
1093.63378052,0.00694937
1095.56258789,0.00662974
1097.49139526,0.00639438
1099.42020264,0.00625892
1101.34901001,0.00610569
1103.27781738,0.00590459
1105.20662476,0.00589087
1107.13543213,0.00563693
1109.06423950,0.00538700
1110.99304687,0.00555065
1112.92185425,0.00559651
1114.85066162,0.00547089
1116.77946899,0.00531218
1118.70827637,0.00540515
1120.63708374,0.00551972
1122.56589111,0.00545436
1124.49469849,0.00538264
1126.42350586,0.00550152
1128.35231323,0.00571545
1130.28112061,0.00580853
1132.20992798,0.00610572
1134.13873535,0.00611063
1136.06754272,0.00631079
1137.99635010,0.00692144
1139.92515747,0.00701983
1141.85396484,0.00734014
1143.78277222,0.00797413
1145.71157959,0.00842624
1147.64038696,0.00883609
1149.56919434,0.00930721
1151.49800171,0.00985031
1153.42680908,0.01040227
1155.35561646,0.01088971
1157.28442383,0.01117514
1159.21323120,0.01147672
1161.14203857,0.01193144
1163.07084595,0.01235361
1164.99965332,0.01267500
1166.92846069,0.01308811
1168.85726807,0.01369354
1170.78607544,0.01426841
1172.71488281,0.01451447
1174.64369019,0.01514054
1176.57249756,0.01579401
1178.50130493,0.01577783
1180.43011230,0.01683044
1182.35891968,0.01776687
1184.28772705,0.01804644
1186.21653442,0.01922629
1188.14534180,0.01989138
1190.07414917,0.02051142
1192.00295654,0.02162545
1193.93176392,0.02273559
1195.86057129,0.02374868
1197.78937866,0.02442977
1199.71818604,0.02548862
1201.64699341,0.02655207
1203.57580078,0.02766797
1205.50460815,0.02878343
1207.43341553,0.02965101
1209.36222290,0.03068040
1211.29103027,0.03163213
1213.21983765,0.03256355
1215.14864502,0.03329837
1217.07745239,0.03386355
1219.00625977,0.03440949
1220.93506714,0.03504483
1222.86387451,0.03553642
1224.79268188,0.03571618
1226.72148926,0.03599471
1228.65029663,0.03597656
1230.57910400,0.03606535
1232.50791138,0.03630587
1234.43671875,0.03611173
1236.36552612,0.03604196
1238.29433350,0.03594520
1240.22314087,0.03568660
1242.15194824,0.03574134
1244.08075562,0.03568394
1246.00956299,0.03540722
1247.93837036,0.03528270
1249.86717773,0.03492291
1251.79598511,0.03462377
1253.72479248,0.03436426
1255.65359985,0.03388214
1257.58240723,0.03357029
1259.51121460,0.03279248
1261.44002197,0.03224628
1263.36882935,0.03212887
1265.29763672,0.03138638
1267.22644409,0.03093470
1269.15525146,0.03050101
1271.08405884,0.02993274
1273.01286621,0.02983261
1274.94167358,0.02928347
1276.87048096,0.02860099
1278.79928833,0.02809705
1280.72809570,0.02742431
1282.65690308,0.02679255
1284.58571045,0.02631783
1286.51451782,0.02597794
1288.44332520,0.02537768
1290.37213257,0.02501862
1292.30093994,0.02486031
1294.22974731,0.02459151
1296.15855469,0.02454106
1298.08736206,0.02430431
1300.01616943,0.02433694
1301.94497681,0.02442644
1303.87378418,0.02462392
1305.80259155,0.02501743
1307.73139893,0.02495954
1309.66020630,0.02550827
1311.58901367,0.02602120
1313.51782104,0.02629810
1315.44662842,0.02703789
1317.37543579,0.02754610
1319.30424316,0.02827078
1321.23305054,0.02921537
1323.16185791,0.03005970
1325.09066528,0.03076444
1327.01947266,0.03156431
1328.94828003,0.03245778
1330.87708740,0.03317937
1332.80589478,0.03400139
1334.73470215,0.03462341
1336.66350952,0.03484683
1338.59231689,0.03445593
1340.52112427,0.03498004
1342.44993164,0.03638867
1344.37873901,0.03641373
1346.30754639,0.03641080
1348.23635376,0.03636013
1350.16516113,0.03598816
1352.09396851,0.03601796
1354.02277588,0.03554463
1355.95158325,0.03526602
1357.88039062,0.03496443
1359.80919800,0.03441087
1361.73800537,0.03289898
1363.66681274,0.03229421
1365.59562012,0.03398084
1367.52442749,0.03315480
1369.45323486,0.03260705
1371.38204224,0.03308175
1373.31084961,0.03153894
1375.23965698,0.03169943
1377.16846436,0.03221719
1379.09727173,0.03236561
1381.02607910,0.03235734
1382.95488647,0.03200050
1384.88369385,0.03210735
1386.81250122,0.03083009
1388.74130859,0.03120028
1390.67011597,0.03348929
1392.59892334,0.03270679
1394.52773071,0.03070850
1396.45653809,0.03215845
1398.38534546,0.03211898
1400.31415283,0.03173696
1402.24296021,0.03422365
1404.17176758,0.03249830
1406.10057495,0.03258622
1408.02938232,0.03379733
1409.95818970,0.03260822
1411.88699707,0.03315613
1413.81580444,0.03196044
1415.74461182,0.03249392
1417.67341919,0.02956151
1419.60222656,0.02663262
1421.53103394,0.03024075
1423.45984131,0.02923167
1425.38864868,0.02833531
1427.31745605,0.02893550
1429.24626343,0.02677000
1431.17507080,0.02570556
1433.10387817,0.02628745
1435.03268555,0.02392836
1436.96149292,0.02046530
1438.89030029,0.02312494
1440.81910767,0.02338486
1442.74791504,0.02207275
1444.67672241,0.02292823
1446.60552979,0.02090514
1448.53433716,0.02135543
1450.46314453,0.02186367
1452.39195190,0.02227983
1454.32075928,0.02300976
1456.24956665,0.01911004
1458.17837402,0.02022539
1460.10718140,0.02649548
1462.03598877,0.02792997
1463.96479614,0.02778492
1465.89360352,0.02899730
1467.82241089,0.03295679
1469.75121826,0.03505040
1471.68002563,0.03137490
1473.60883301,0.03328333
1475.53764038,0.03748272
1477.46644775,0.04019890
1479.39525513,0.04394570
1481.32406250,0.04445180
1483.25286987,0.04713384
1485.18167725,0.04837318
1487.11048462,0.04773512
1489.03929199,0.04751851
1490.96809937,0.04781956
1492.89690674,0.05500656
1494.82571411,0.05343407
1496.75452148,0.04850098
1498.68332886,0.05448001
1500.61213623,0.05609479
1502.54094360,0.06000466
1504.46975098,0.05624455
1506.39855835,0.04173354
1508.32736572,0.05095879
1510.25617310,0.05858161
1512.18498047,0.05668253
1514.11378784,0.06137513
1516.04259521,0.05528785
1517.97140259,0.05767730
1519.90020996,0.05542662
1521.82901733,0.04845258
1523.75782471,0.05848981
1525.68663208,0.05712300
1527.61543945,0.05720055
1529.54424683,0.06246790
1531.47305420,0.06008635
1533.40186157,0.05521144
1535.33066895,0.05826810
1537.25947632,0.06167952
1539.18828369,0.04448324
1541.11709106,0.04687442
1543.04589844,0.05518474
1544.97470581,0.05317363
1546.90351318,0.06205393
1548.83232056,0.05768862
1550.76112793,0.05959418
1552.68993530,0.05877201
1554.61874268,0.05391379
1556.54755005,0.05675706
1558.47635742,0.04056131
1560.40516479,0.04407477
1562.33397217,0.06060611
1564.26277954,0.05722916
1566.19158691,0.05869005
1568.12039429,0.05783632
1570.04920166,0.05133136
1571.97800903,0.05869953
1573.90681641,0.05873442
1575.83562378,0.04686334
1577.76443115,0.05279648
1579.69323853,0.05847678
1581.62204590,0.05610247
1583.55085327,0.05732959
1585.47966064,0.05612484
1587.40846802,0.05633809
1589.33727539,0.05536465
1591.26608276,0.05526134
1593.19489014,0.05495509
1595.12369751,0.05403954
1597.05250488,0.05443703
1598.98131226,0.05390771
1600.91011963,0.05401922
1602.83892700,0.05272689
1604.76773437,0.05344458
1606.69654175,0.05220763
1608.62534912,0.05210974
1610.55415649,0.05194410
1612.48296387,0.05221259
1614.41177124,0.05270188
1616.34057861,0.04326983
1618.26938599,0.04728715
1620.19819336,0.05424782
1622.12700073,0.04865386
1624.05580811,0.04914818
1625.98461548,0.05140057
1627.91342285,0.05169174
1629.84223022,0.05155033
1631.77103760,0.05547674
1633.69984497,0.05148387
1635.62865234,0.04344479
1637.55745972,0.05086971
1639.48626709,0.05606104
1641.41507446,0.05560669
1643.34388184,0.05761590
1645.27268921,0.05275260
1647.20149658,0.04744002
1649.13030396,0.05921574
1651.05911133,0.05615880
1652.98791870,0.03761328
1654.91672607,0.05154006
1656.84553345,0.06430326
1658.77434082,0.06241296
1660.70314819,0.06462120
1662.63195557,0.05983727
1664.56076294,0.06369967
1666.48957031,0.06866492
1668.41837769,0.06102265
1670.34718506,0.06032205
1672.27599243,0.06855615
1674.20479980,0.06378300
1676.13360718,0.06234113
1678.06241455,0.07172348
1679.99122192,0.06980588
1681.92002930,0.06977604
1683.84883667,0.05741983
1685.77764404,0.05790531
1687.70645142,0.07845817
1689.63525879,0.06887141
1691.56406616,0.07641990
1693.49287354,0.07748997
1695.42168091,0.05803766
1697.35048828,0.07173821
1699.27929565,0.06307332
1701.20810303,0.05817433
1703.13691040,0.07809310
1705.06571777,0.07181646
1706.99452515,0.07343674
1708.92333252,0.07903381
1710.85213989,0.07647587
1712.78094727,0.07821261
1714.70975464,0.07263801
1716.63856201,0.06584965
1718.56736938,0.06508290
1720.49617676,0.07691483
1722.42498413,0.07928909
1724.35379150,0.07410261
1726.28259888,0.08040480
1728.21140625,0.07437363
1730.14021362,0.07552900
1732.06902100,0.07308240
1733.99782837,0.05683190
1735.92663574,0.07032172
1737.85544312,0.07662605
1739.78425049,0.06871519
1741.71305786,0.07473087
1743.64186523,0.07547532
1745.57067261,0.07546081
1747.49947998,0.07614310
1749.42828735,0.07298687
1751.35709473,0.07012786
1753.28590210,0.07737532
1755.21470947,0.08027901
1757.14351685,0.07372965
1759.07232422,0.08074921
1761.00113159,0.07554770
1762.92993896,0.07350189
1764.85874634,0.08348036
1766.78755371,0.07514112
1768.71636108,0.07595139
1770.64516846,0.07506525
1772.57397583,0.06806788
1774.50278320,0.07567798
1776.43159058,0.07938054
1778.36039795,0.07831322
1780.28920532,0.07714343
1782.21801270,0.07769024
1784.14682007,0.07735773
1786.07562744,0.07589537
1788.00443481,0.07971870
1789.93324219,0.07738757
1791.86204956,0.07039948
1793.79085693,0.07332851
1795.71966431,0.07816568
1797.64847168,0.07690944
1799.57727905,0.07585202
1801.50608643,0.07467718
1803.43489380,0.07665366
1805.36370117,0.07831179
1807.29250854,0.07724721
1809.22131592,0.07716414
1811.15012329,0.07520249
1813.07893066,0.07735015
1815.00773804,0.07763028
1816.93654541,0.07679525
1818.86535278,0.07721268
1820.79416016,0.07683444
1822.72296753,0.07767858
1824.65177490,0.07284861
1826.58058228,0.07532893
1828.50938965,0.07494301
1830.43819702,0.07067540
1832.36700439,0.07653980
1834.29581177,0.07582351
1836.22461914,0.07585731
1838.15342651,0.07552409
1840.08223389,0.07599946
1842.01104126,0.07568020
1843.93984863,0.06760535
1845.86865601,0.07196182
1847.79746338,0.07527722
1849.72627075,0.07377136
1851.65507812,0.07559928
1853.58388550,0.07406586
1855.51269287,0.07477467
1857.44150024,0.07398093
1859.37030762,0.07361494
1861.29911499,0.07402271
1863.22792236,0.07305092
1865.15672974,0.07379390
1867.08553711,0.07120039
1869.01434448,0.06832801
1870.94315186,0.07101931
1872.87195923,0.07323805
1874.80076660,0.07189193
1876.72957397,0.07234351
1878.65838135,0.07203548
1880.58718872,0.07169193
1882.51599609,0.07200219
1884.44480347,0.07065040
1886.37361084,0.07162313
1888.30241821,0.06986906
1890.23122559,0.06868905
1892.16003296,0.07106796
1894.08884033,0.06989910
1896.01764771,0.06958012
1897.94645508,0.07023775
1899.87526245,0.06985742
1901.80406982,0.06974353
1903.73287720,0.06925835
1905.66168457,0.06945179
1907.59049194,0.06870759
1909.51929932,0.06842738
1911.44810669,0.06854975
1913.37691406,0.06851242
1915.30572144,0.06895605
1917.23452881,0.06598451
1919.16333618,0.06618246
1921.09214355,0.06815778
1923.02095093,0.06596053
1924.94975830,0.06744586
1926.87856567,0.06791589
1928.80737305,0.06695689
1930.73618042,0.06771709
1932.66498779,0.06677334
1934.59379517,0.06722584
1936.52260254,0.06658406
1938.45140991,0.06675178
1940.38021729,0.06658909
1942.30902466,0.06438705
1944.23783203,0.06552857
1946.16663940,0.06603914
1948.09544678,0.06592716
1950.02425415,0.06602350
1951.95306152,0.06559542
1953.88186890,0.06572200
1955.81067627,0.06524648
1957.73948364,0.06531982
1959.66829102,0.06515516
1961.59709839,0.06485946
1963.52590576,0.06497686
1965.45471313,0.06449391
1967.38352051,0.06389835
1969.31232788,0.06420989
1971.24113525,0.06444672
1973.16994263,0.06410947
1975.09875000,0.06411825
1977.02755737,0.06361151
1978.95636475,0.06374274
1980.88517212,0.06376769
1982.81397949,0.06337167
1984.74278687,0.06351018
1986.67159424,0.06292471
1988.60040161,0.06286784
1990.52920898,0.06228190
1992.45801636,0.06151647
1994.38682373,0.06212270
1996.31563110,0.06211970
1998.24443848,0.06190634
2000.17324585,0.06193481
2002.10205322,0.06159829
2004.03086060,0.06139253
2005.95966797,0.06120474
2007.88847534,0.06101424
2009.81728271,0.06100843
2011.74609009,0.06061383
2013.67489746,0.06040179
2015.60370483,0.05997267
2017.53251221,0.05950182
2019.46131958,0.05994745
2021.39012695,0.05963216
2023.31893433,0.05934349
2025.24774170,0.05936264
2027.17654907,0.05899271
2029.10535645,0.05892249
2031.03416382,0.05868625
2032.96297119,0.05861294
2034.89177856,0.05844026
2036.82058594,0.05818744
2038.74939331,0.05797525
2040.67820068,0.05763786
2042.60700806,0.05763990
2044.53581543,0.05755668
2046.46462280,0.05730966
2048.39343018,0.05708983
2050.32223755,0.05694837
2052.25104492,0.05671921
2054.17985229,0.05655202
2056.10865967,0.05649067
2058.03746704,0.05627062
2059.96627441,0.05610761
2061.89508179,0.05601072
2063.82388916,0.05569743
2065.75269653,0.05535474
2067.68150391,0.05551791
2069.61031128,0.05554274
2071.53911865,0.05534923
2073.46792603,0.05515942
2075.39673340,0.05499763
2077.32554077,0.05499668
2079.25434814,0.05465595
2081.18315552,0.05458724
2083.11196289,0.05449373
2085.04077026,0.05418818
2086.96957764,0.05413278
2088.89838501,0.05394989
2090.82719238,0.05391666
2092.75599976,0.05383711
2094.68480713,0.05361426
2096.61361450,0.05358290
2098.54242187,0.05362840
2100.47122925,0.05342393
2102.40003662,0.05322066
2104.32884399,0.05307120
2106.25765137,0.05289916
2108.18645874,0.05282685
2110.11526611,0.05266380
2112.04407349,0.05280203
2113.97288086,0.05258315
2115.90168823,0.05235948
2117.83049561,0.05259486
2119.75930298,0.05237494
2121.68811035,0.05221801
2123.61691772,0.05206566
2125.54572510,0.05197913
2127.47453247,0.05201047
2129.40333984,0.05187223
2131.33214722,0.05175065
2133.26095459,0.05168543
2135.18976196,0.05170682
2137.11856934,0.05162888
2139.04737671,0.05158098
2140.97618408,0.05139744
2142.90499146,0.05142238
2144.83379883,0.05140936
2146.76260620,0.05119549
2148.69141357,0.05130781
2150.62022095,0.05115679
2152.54902832,0.05115760
2154.47783569,0.05118942
2156.40664307,0.05092108
2158.33545044,0.05079510
2160.26425781,0.05080980
2162.19306519,0.05082877
2164.12187256,0.05064359
2166.05067993,0.05071699
2167.97948730,0.05073620
2169.90829468,0.05049299
2171.83710205,0.05048645
2173.76590942,0.05045364
2175.69471680,0.05030769
2177.62352417,0.05030650
2179.55233154,0.05026278
2181.48113892,0.05019169
2183.40994629,0.05019460
2185.33875366,0.04998466
2187.26756104,0.04998633
2189.19636841,0.04997561
2191.12517578,0.04984905
2193.05398315,0.04996097
2194.98279053,0.04998084
2196.91159790,0.04984908
2198.84040527,0.04961614
2200.76921265,0.04964661
2202.69802002,0.04954710
2204.62682739,0.04944953
2206.55563477,0.04945568
2208.48444214,0.04941321
2210.41324951,0.04961207
2212.34205688,0.04938993
2214.27086426,0.04934756
2216.19967163,0.04920522
2218.12847900,0.04897725
2220.05728638,0.04915988
2221.98609375,0.04903439
2223.91490112,0.04904480
2225.84370850,0.04888840
2227.77251587,0.04886434
2229.70132324,0.04890292
2231.63013062,0.04863508
2233.55893799,0.04861941
2235.48774536,0.04858539
2237.41655273,0.04849312
2239.34536011,0.04827034
2241.27416748,0.04822917
2243.20297485,0.04811086
2245.13178223,0.04799277
2247.06058960,0.04808687
2248.98939697,0.04798238
2250.91820435,0.04781523
2252.84701172,0.04758850
2254.77581909,0.04768813
2256.70462646,0.04762413
2258.63343384,0.04751647
2260.56224121,0.04742902
2262.49104858,0.04735019
2264.41985596,0.04758191
2266.34866333,0.04718327
2268.27747070,0.04710143
2270.20627808,0.04716010
2272.13508545,0.04694343
2274.06389282,0.04705209
2275.99270020,0.04695113
2277.92150757,0.04700363
2279.85031494,0.04693315
2281.77912231,0.04685950
2283.70792969,0.04690763
2285.63673706,0.04665056
2287.56554443,0.04645300
2289.49435181,0.04640630
2291.42315918,0.04637369
2293.35196655,0.04619268
2295.28077393,0.04609539
2297.20958130,0.04594506
2299.13838867,0.04570484
2301.06719604,0.04552480
2302.99600342,0.04531937
2304.92481079,0.04508416
2306.85361816,0.04465363
2308.78242554,0.04426252
2310.71123291,0.04396877
2312.64004028,0.04356121
2314.56884766,0.04302210
2316.49765503,0.04250273
2318.42646240,0.04189906
2320.35526978,0.04133288
2322.28407715,0.04082666
2324.21288452,0.04017722
2326.14169189,0.03967205
2328.07049927,0.03915679
2329.99930664,0.03873377
2331.92811401,0.03832806
2333.85692139,0.03809705
2335.78572876,0.03805680
2337.71453613,0.03787591
2339.64334351,0.03793887
2341.57215088,0.03803536
2343.50095825,0.03851483
2345.42976562,0.03925517
2347.35857300,0.04086410
2349.28738037,0.04238728
2351.21618774,0.04084392
2353.14499512,0.03866066
2355.07380249,0.03737999
2357.00260986,0.03602098
2358.93141724,0.03523391
2360.86022461,0.03489590
2362.78903198,0.03487426
2364.71783936,0.03501997
2366.64664673,0.03560289
2368.57545410,0.03630153
2370.50426147,0.03704942
2372.43306885,0.03825644
2374.36187622,0.03926825
2376.29068359,0.04036885
2378.21949097,0.04129373
2380.14829834,0.04185455
2382.07710571,0.04249136
2384.00591309,0.04278433
2385.93472046,0.04284425
2387.86352783,0.04288049
2389.79233521,0.04292435
2391.72114258,0.04287584
2393.64994995,0.04266808
2395.57875732,0.04264828
2397.50756470,0.04265843
2399.43637207,0.04246231
2401.36517944,0.04233679
2403.29398682,0.04233781
2405.22279419,0.04222708
2407.15160156,0.04215556
2409.08040894,0.04216746
2411.00921631,0.04198669
2412.93802368,0.04186282
2414.86683105,0.04184868
2416.79563843,0.04178222
2418.72444580,0.04180491
2420.65325317,0.04170288
2422.58206055,0.04147542
2424.51086792,0.04141081
2426.43967529,0.04141867
2428.36848267,0.04127366
2430.29729004,0.04119637
2432.22609741,0.04121310
2434.15490479,0.04106195
2436.08371216,0.04100682
2438.01251953,0.04095764
2439.94132690,0.04092828
2441.87013428,0.04079930
2443.79894165,0.04060180
2445.72774902,0.04071412
2447.65655640,0.04051789
2449.58536377,0.04038481
2451.51417114,0.04041998
2453.44297852,0.04022671
2455.37178589,0.04022981
2457.30059326,0.04015925
2459.22940063,0.04009967
2461.15820801,0.04000934
2463.08701538,0.03989978
2465.01582275,0.03992076
2466.94463013,0.03976630
2468.87343750,0.03964483
2470.80224487,0.03963595
2472.73105225,0.03966331
2474.65985962,0.03950761
2476.58866699,0.03934375
2478.51747437,0.03934733
2480.44628174,0.03924463
2482.37508911,0.03918109
2484.30389648,0.03913742
2486.23270386,0.03907437
2488.16151123,0.03896721
2490.09031860,0.03886269
2492.01912598,0.03885636
2493.94793335,0.03875531
2495.87674072,0.03862925
2497.80554810,0.03849770
2499.73435547,0.03839267
2501.66316284,0.03841291
2503.59197021,0.03822782
2505.52077759,0.03808692
2507.44958496,0.03815637
2509.37839233,0.03801330
2511.30719971,0.03797404
2513.23600708,0.03793218
2515.16481445,0.03787587
2517.09362183,0.03787126
2519.02242920,0.03771257
2520.95123657,0.03774263
2522.88004395,0.03756026
2524.80885132,0.03747184
2526.73765869,0.03742918
2528.66646606,0.03716476
2530.59527344,0.03727121
2532.52408081,0.03712930
2534.45288818,0.03701944
2536.38169556,0.03704069
2538.31050293,0.03689956
2540.23931030,0.03702613
2542.16811768,0.03691112
2544.09692505,0.03657408
2546.02573242,0.03663308
2547.95453979,0.03671182
2549.88334717,0.03638311
2551.81215454,0.03633381
2553.74096191,0.03630765
2555.66976929,0.03619881
2557.59857666,0.03631561
2559.52738403,0.03608838
2561.45619141,0.03604542
2563.38499878,0.03605179
2565.31380615,0.03590764
2567.24261353,0.03579786
2569.17142090,0.03559321
2571.10022827,0.03556108
2573.02903564,0.03550714
2574.95784302,0.03551836
2576.88665039,0.03542288
2578.81545776,0.03533155
2580.74426514,0.03527208
2582.67307251,0.03506769
2584.60187988,0.03496571
2586.53068726,0.03487777
2588.45949463,0.03497202
2590.38830200,0.03483719
2592.31710937,0.03464561
2594.24591675,0.03464883
2596.17472412,0.03449690
2598.10353149,0.03442091
2600.03233887,0.03438416
2601.96114624,0.03432155
2603.88995361,0.03424942
2605.81876099,0.03422874
2607.74756836,0.03402734
2609.67637573,0.03394661
2611.60518311,0.03394901
2613.53399048,0.03379801
2615.46279785,0.03386361
2617.39160522,0.03365505
2619.32041260,0.03354708
2621.24921997,0.03354236
2623.17802734,0.03340018
2625.10683472,0.03332416
2627.03564209,0.03315981
2628.96444946,0.03315107
2630.89325684,0.03300570
2632.82206421,0.03301508
2634.75087158,0.03298863
2636.67967895,0.03280529
2638.60848633,0.03284878
2640.53729370,0.03274801
2642.46610107,0.03260755
2644.39490845,0.03243823
2646.32371582,0.03243423
2648.25252319,0.03228991
2650.18133057,0.03215529
2652.11013794,0.03216124
2654.03894531,0.03192914
2655.96775269,0.03200015
2657.89656006,0.03202181
2659.82536743,0.03188850
2661.75417480,0.03165887
2663.68298218,0.03154037
2665.61178955,0.03160265
2667.54059692,0.03147226
2669.46940430,0.03143926
2671.39821167,0.03127471
2673.32701904,0.03125563
2675.25582642,0.03116805
2677.18463379,0.03099422
2679.11344116,0.03102894
2681.04224854,0.03078629
2682.97105591,0.03076707
2684.89986328,0.03073834
2686.82867065,0.03051955
2688.75747803,0.03046741
2690.68628540,0.03045341
2692.61509277,0.03039009
2694.54390015,0.03028971
2696.47270752,0.03026394
2698.40151489,0.03011053
2700.33032227,0.03000401
2702.25912964,0.02992982
2704.18793701,0.02983994
2706.11674438,0.02974492
2708.04555176,0.02958754
2709.97435913,0.02953162
2711.90316650,0.02939470
2713.83197388,0.02934687
2715.76078125,0.02932720
2717.68958862,0.02922052
2719.61839600,0.02906506
2721.54720337,0.02897550
2723.47601074,0.02901656
2725.40481812,0.02885910
2727.33362549,0.02875271
2729.26243286,0.02865051
2731.19124023,0.02854226
2733.12004761,0.02849567
2735.04885498,0.02835045
2736.97766235,0.02830746
2738.90646973,0.02825656
2740.83527710,0.02812898
2742.76408447,0.02797417
2744.69289185,0.02794855
2746.62169922,0.02796784
2748.55050659,0.02781912
2750.47931396,0.02761856
2752.40812134,0.02762357
2754.33692871,0.02767903
2756.26573608,0.02737965
2758.19454346,0.02726753
2760.12335083,0.02725426
2762.05215820,0.02711766
2763.98096558,0.02710095
2765.90977295,0.02690017
2767.83858032,0.02683092
2769.76738770,0.02681872
2771.69619507,0.02665702
2773.62500244,0.02653584
2775.55380981,0.02637656
2777.48261719,0.02631579
2779.41142456,0.02626069
2781.34023193,0.02611752
2783.26903931,0.02601994
2785.19784668,0.02597818
2787.12665405,0.02584913
2789.05546143,0.02569108
2790.98426880,0.02564310
2792.91307617,0.02557972
2794.84188354,0.02548369
2796.77069092,0.02538251
2798.69949829,0.02526375
2800.62830566,0.02517468
2802.55711304,0.02509307
2804.48592041,0.02495148
2806.41472778,0.02486431
2808.34353516,0.02478147
2810.27234253,0.02473122
2812.20114990,0.02469520
2814.12995728,0.02450974
2816.05876465,0.02449190
2817.98757202,0.02430851
2819.91637939,0.02411577
2821.84518677,0.02421561
2823.77399414,0.02391615
2825.70280151,0.02376604
2827.63160889,0.02381374
2829.56041626,0.02365094
2831.48922363,0.02357871
2833.41803101,0.02341108
2835.34683838,0.02338239
2837.27564575,0.02334322
2839.20445312,0.02312977
2841.13326050,0.02303367
2843.06206787,0.02292627
2844.99087524,0.02280977
2846.91968262,0.02255411
2848.84848999,0.02237414
2850.77729736,0.02228376
2852.70610474,0.02211299
2854.63491211,0.02216708
2856.56371948,0.02210997
2858.49252686,0.02194836
2860.42133423,0.02193400
2862.35014160,0.02190489
2864.27894897,0.02179368
2866.20775635,0.02155556
2868.13656372,0.02144478
2870.06537109,0.02142282
2871.99417847,0.02137623
2873.92298584,0.02125597
2875.85179321,0.02109597
2877.78060059,0.02106912
2879.70940796,0.02099932
2881.63821533,0.02094839
2883.56702270,0.02081455
2885.49583008,0.02070966
2887.42463745,0.02068567
2889.35344482,0.02052952
2891.28225220,0.02048177
2893.21105957,0.02039843
2895.13986694,0.02036223
2897.06867432,0.02018458
2898.99748169,0.01996195
2900.92628906,0.02002951
2902.85509644,0.01984897
2904.78390381,0.01974164
2906.71271118,0.01965999
2908.64151855,0.01946460
2910.57032593,0.01936550
2912.49913330,0.01913274
2914.42794067,0.01908486
2916.35674805,0.01899011
2918.28555542,0.01881252
2920.21436279,0.01879135
2922.14317017,0.01866639
2924.07197754,0.01858838
2926.00078491,0.01859703
2927.92959229,0.01848315
2929.85839966,0.01830242
2931.78720703,0.01828349
2933.71601440,0.01825802
2935.64482178,0.01822466
2937.57362915,0.01822408
2939.50243652,0.01810489
2941.43124390,0.01808367
2943.36005127,0.01800511
2945.28885864,0.01791610
2947.21766602,0.01793384
2949.14647339,0.01782012
2951.07528076,0.01769696
2953.00408813,0.01757276
2954.93289551,0.01745190
2956.86170288,0.01736514
2958.79051025,0.01730726
2960.71931763,0.01726933
2962.64812500,0.01704771
2964.57693237,0.01694608
2966.50573975,0.01703230
2968.43454712,0.01692970
2970.36335449,0.01689281
2972.29216187,0.01683837
2974.22096924,0.01677440
2976.14977661,0.01688415
2978.07858398,0.01675607
2980.00739136,0.01664561
2981.93619873,0.01664613
2983.86500610,0.01655573
2985.79381348,0.01647279
2987.72262085,0.01634192
2989.65142822,0.01629305
2991.58023560,0.01627811
2993.50904297,0.01623178
2995.43785034,0.01615388
2997.36665771,0.01614817
2999.29546509,0.01606419
3001.22427246,0.01585663
3003.15307983,0.01587746
3005.08188721,0.01581428
3007.01069458,0.01573920
3008.93950195,0.01572184
3010.86830933,0.01565871
3012.79711670,0.01559107
3014.72592407,0.01541204
3016.65473145,0.01542166
3018.58353882,0.01531871
3020.51234619,0.01515892
3022.44115356,0.01509723
3024.36996094,0.01497545
3026.29876831,0.01506985
3028.22757568,0.01497235
3030.15638306,0.01480118
3032.08519043,0.01480593
3034.01399780,0.01474763
3035.94280518,0.01473711
3037.87161255,0.01466283
3039.80041992,0.01458026
3041.72922729,0.01454776
3043.65803467,0.01445284
3045.58684204,0.01438868
3047.51564941,0.01433209
3049.44445679,0.01425790
3051.37326416,0.01427409
3053.30207153,0.01423010
3055.23087891,0.01413210
3057.15968628,0.01407235
3059.08849365,0.01397870
3061.01730103,0.01397357
3062.94610840,0.01386490
3064.87491577,0.01375640
3066.80372314,0.01378080
3068.73253052,0.01370354
3070.66133789,0.01365171
3072.59014526,0.01356152
3074.51895264,0.01348689
3076.44776001,0.01350330
3078.37656738,0.01348975
3080.30537476,0.01342472
3082.23418213,0.01334341
3084.16298950,0.01331855
3086.09179687,0.01324392
3088.02060425,0.01319950
3089.94941162,0.01317492
3091.87821899,0.01309816
3093.80702637,0.01301001
3095.73583374,0.01292450
3097.66464111,0.01294069
3099.59344849,0.01288510
3101.52225586,0.01274969
3103.45106323,0.01273802
3105.37987061,0.01270530
3107.30867798,0.01259050
3109.23748535,0.01262148
3111.16629272,0.01263504
3113.09510010,0.01255085
3115.02390747,0.01252410
3116.95271484,0.01235987
3118.88152222,0.01230962
3120.81032959,0.01238226
3122.73913696,0.01228985
3124.66794434,0.01231650
3126.59675171,0.01233215
3128.52555908,0.01214473
3130.45436645,0.01205211
3132.38317383,0.01204571
3134.31198120,0.01191363
3136.24078857,0.01188530
3138.16959595,0.01195570
3140.09840332,0.01189533
3142.02721069,0.01185490
3143.95601807,0.01177286
3145.88482544,0.01172116
3147.81363281,0.01172346
3149.74244019,0.01156983
3151.67124756,0.01154981
3153.60005493,0.01164300
3155.52886230,0.01159734
3157.45766968,0.01151453
3159.38647705,0.01140409
3161.31528442,0.01138100
3163.24409180,0.01137226
3165.17289917,0.01131363
3167.10170654,0.01134192
3169.03051392,0.01127919
3170.95932129,0.01134875
3172.88812866,0.01137234
3174.81693604,0.01111968
3176.74574341,0.01116753
3178.67455078,0.01121728
3180.60335815,0.01111842
3182.53216553,0.01111057
3184.46097290,0.01114063
3186.38978027,0.01121635
3188.31858765,0.01107793
3190.24739502,0.01103923
3192.17620239,0.01102060
3194.10500977,0.01094661
3196.03381714,0.01112763
3197.96262451,0.01094963
3199.89143188,0.01087607
3201.82023926,0.01106505
3203.74904663,0.01088237
3205.67785400,0.01098399
3207.60666138,0.01113732
3209.53546875,0.01102856
3211.46427612,0.01101953
3213.39308350,0.01097522
3215.32189087,0.01100453
3217.25069824,0.01092893
3219.17950562,0.01087793
3221.10831299,0.01104279
3223.03712036,0.01099301
3224.96592773,0.01093434
3226.89473511,0.01098006
3228.82354248,0.01092498
3230.75234985,0.01101397
3232.68115723,0.01109028
3234.60996460,0.01094315
3236.53877197,0.01102101
3238.46757935,0.01106110
3240.39638672,0.01091497
3242.32519409,0.01095341
3244.25400146,0.01095842
3246.18280884,0.01107213
3248.11161621,0.01112671
3250.04042358,0.01106475
3251.96923096,0.01116140
3253.89803833,0.01120390
3255.82684570,0.01117882
3257.75565308,0.01114846
3259.68446045,0.01126408
3261.61326782,0.01125087
3263.54207520,0.01124074
3265.47088257,0.01126664
3267.39968994,0.01119769
3269.32849731,0.01136968
3271.25730469,0.01130254
3273.18611206,0.01130110
3275.11491943,0.01134051
3277.04372681,0.01130153
3278.97253418,0.01143269
3280.90134155,0.01133780
3282.83014893,0.01142155
3284.75895630,0.01140784
3286.68776367,0.01139896
3288.61657104,0.01148016
3290.54537842,0.01136853
3292.47418579,0.01149629
3294.40299316,0.01152694
3296.33180054,0.01153948
3298.26060791,0.01153522
3300.18941528,0.01149708
3302.11822266,0.01156117
3304.04703003,0.01157467
3305.97583740,0.01156418
3307.90464478,0.01164471
3309.83345215,0.01180294
3311.76225952,0.01162464
3313.69106689,0.01163580
3315.61987427,0.01173174
3317.54868164,0.01167626
3319.47748901,0.01176877
3321.40629639,0.01167241
3323.33510376,0.01174513
3325.26391113,0.01183145
3327.19271851,0.01180673
3329.12152588,0.01180829
3331.05033325,0.01180335
3332.97914062,0.01193702
3334.90794800,0.01196084
3336.83675537,0.01191807
3338.76556274,0.01191530
3340.69437012,0.01189190
3342.62317749,0.01188689
3344.55198486,0.01207822
3346.48079224,0.01206955
3348.40959961,0.01201889
3350.33840698,0.01209457
3352.26721436,0.01201030
3354.19602173,0.01216737
3356.12482910,0.01216616
3358.05363647,0.01218949
3359.98244385,0.01220745
3361.91125122,0.01210873
3363.84005859,0.01224134
3365.76886597,0.01228347
3367.69767334,0.01246670
3369.62648071,0.01246689
3371.55528809,0.01244368
3373.48409546,0.01246151
3375.41290283,0.01251897
3377.34171020,0.01268183
3379.27051758,0.01253685
3381.19932495,0.01259174
3383.12813232,0.01264592
3385.05693970,0.01270288
3386.98574707,0.01269024
3388.91455444,0.01282056
3390.84336182,0.01295959
3392.77216919,0.01276830
3394.70097656,0.01304216
3396.62978394,0.01307497
3398.55859131,0.01306195
3400.48739868,0.01309487
3402.41620605,0.01306714
3404.34501343,0.01332814
3406.27382080,0.01332575
3408.20262817,0.01334457
3410.13143555,0.01334159
3412.06024292,0.01350083
3413.98905029,0.01356100
3415.91785767,0.01362134
3417.84666504,0.01374654
3419.77547241,0.01360630
3421.70427979,0.01377129
3423.63308716,0.01381635
3425.56189453,0.01389495
3427.49070190,0.01388934
3429.41950928,0.01393399
3431.34831665,0.01410431
3433.27712402,0.01407384
3435.20593140,0.01415091
3437.13473877,0.01410455
3439.06354614,0.01431232
3440.99235352,0.01429419
3442.92116089,0.01440601
3444.84996826,0.01450499
3446.77877563,0.01425559
3448.70758301,0.01464773
3450.63639038,0.01475466
3452.56519775,0.01479924
3454.49400513,0.01489222
3456.42281250,0.01485926
3458.35161987,0.01493682
3460.28042725,0.01493204
3462.20923462,0.01501092
3464.13804199,0.01499781
3466.06684937,0.01516290
3467.99565674,0.01512673
3469.92446411,0.01525580
3471.85327148,0.01546936
3473.78207886,0.01540568
3475.71088623,0.01552786
3477.63969360,0.01552672
3479.56850098,0.01558721
3481.49730835,0.01557463
3483.42611572,0.01575495
3485.35492310,0.01576400
3487.28373047,0.01572548
3489.21253784,0.01597531
3491.14134521,0.01595922
3493.07015259,0.01619643
3494.99895996,0.01620243
3496.92776733,0.01628008
3498.85657471,0.01636988
3500.78538208,0.01624467
3502.71418945,0.01630683
3504.64299683,0.01628636
3506.57180420,0.01663545
3508.50061157,0.01662214
3510.42941895,0.01653280
3512.35822632,0.01682732
3514.28703369,0.01692592
3516.21584106,0.01699247
3518.14464844,0.01703385
3520.07345581,0.01715481
3522.00226318,0.01708234
3523.93107056,0.01698681
3525.85987793,0.01711095
3527.78868530,0.01727840
3529.71749268,0.01732098
3531.64630005,0.01742459
3533.57510742,0.01760835
3535.50391479,0.01757516
3537.43272217,0.01764677
3539.36152954,0.01776689
3541.29033691,0.01792502
3543.21914429,0.01789131
3545.14795166,0.01751101
3547.07675903,0.01741755
3549.00556641,0.01801114
3550.93437378,0.01819409
3552.86318115,0.01790002
3554.79198853,0.01828663
3556.72079590,0.01847718
3558.64960327,0.01854810
3560.57841064,0.01835524
3562.50721802,0.01832869
3564.43602539,0.01854976
3566.36483276,0.01731902
3568.29364014,0.01708141
3570.22244751,0.01855297
3572.15125488,0.01907409
3574.08006226,0.01877810
3576.00886963,0.01893062
3577.93767700,0.01902634
3579.86648437,0.01895211
3581.79529175,0.01911674
3583.72409912,0.01919444
3585.65290649,0.01884606
3587.58171387,0.01757350
3589.51052124,0.01812688
3591.43932861,0.01963288
3593.36813599,0.01913109
3595.29694336,0.01888427
3597.22575073,0.01925945
3599.15455811,0.01949214
3601.08336548,0.01933062
3603.01217285,0.01945372
3604.94098022,0.01993830
3606.86978760,0.01948965
3608.79859497,0.01850331
3610.72740234,0.01898831
3612.65620972,0.01936051
3614.58501709,0.01883731
3616.51382446,0.02029877
3618.44263184,0.01881250
3620.37143921,0.01828309
3622.30024658,0.02057986
3624.22905395,0.02008753
3626.15786133,0.02108019
3628.08666870,0.01801945
3630.01547607,0.01670672
3631.94428345,0.02076960
3633.87309082,0.02026639
3635.80189819,0.02069967
3637.73070557,0.02112213
3639.65951294,0.02098021
3641.58832031,0.02122599
3643.51712769,0.02108598
3645.44593506,0.02131160
3647.37474243,0.01934007
3649.30354980,0.01811174
3651.23235718,0.01830255
3653.16116455,0.02154839
3655.08997192,0.02139300
3657.01877930,0.01943165
3658.94758667,0.02223721
3660.87639404,0.02184245
3662.80520142,0.02234180
3664.73400879,0.02228761
3666.66281616,0.02223347
3668.59162354,0.02172174
3670.52043091,0.01797585
3672.44923828,0.02158706
3674.37804565,0.02066581
3676.30685303,0.01753062
3678.23566040,0.02167334
3680.16446777,0.02216516
3682.09327515,0.02234002
3684.02208252,0.02291906
3685.95088989,0.02252864
3687.87969727,0.02038354
3689.80850464,0.01903965
3691.73731201,0.02158968
3693.66611938,0.02202384
3695.59492676,0.02263149
3697.52373413,0.02253719
3699.45254150,0.02218691
3701.38134888,0.02179766
3703.31015625,0.02110342
3705.23896362,0.02285476
3707.16777100,0.02177513
3709.09657837,0.02139204
3711.02538574,0.02011750
3712.95419312,0.01901055
3714.88300049,0.02186709
3716.81180786,0.02141926
3718.74061523,0.02170433
3720.66942261,0.02116427
3722.59822998,0.02052806
3724.52703735,0.02115731
3726.45584473,0.01971438
3728.38465210,0.02128572
3730.31345947,0.02087074
3732.24226685,0.01937440
3734.17107422,0.01891010
3736.09988159,0.01804989
3738.02868896,0.01901364
3739.95749634,0.02031216
3741.88630371,0.02112190
3743.81511108,0.01654018
3745.74391846,0.01578161
3747.67272583,0.02005478
3749.60153320,0.01730959
3751.53034058,0.01612075
3753.45914795,0.01833419
3755.38795532,0.01964829
3757.31676270,0.02016236
3759.24557007,0.01867676
3761.17437744,0.01945872
3763.10318481,0.02045672
3765.03199219,0.01908426
3766.96079956,0.01944984
3768.88960693,0.01915647
3770.81841431,0.01829981
3772.74722168,0.01970313
3774.67602905,0.01970429
3776.60483643,0.01964806
3778.53364380,0.01913783
3780.46245117,0.01846593
3782.39125854,0.01960912
3784.32006592,0.01914198
3786.24887329,0.01892672
3788.17768066,0.01930712
3790.10648804,0.01922688
3792.03529541,0.01903095
3793.96410278,0.01927285
3795.89291016,0.01817243
3797.82171753,0.01798028
3799.75052490,0.01879865
3801.67933228,0.01511807
3803.60813965,0.01752858
3805.53694702,0.01874776
3807.46575439,0.01556877
3809.39456177,0.01864781
3811.32336914,0.01814800
3813.25217651,0.01874866
3815.18098389,0.01695347
3817.10979126,0.01505207
3819.03859863,0.01870426
3820.96740601,0.01527765
3822.89621338,0.01607848
3824.82502075,0.01841527
3826.75382812,0.01671266
3828.68263550,0.01789455
3830.61144287,0.01720271
3832.54025024,0.01677061
3834.46905762,0.01706775
3836.39786499,0.01621511
3838.32667236,0.01473453
3840.25547974,0.01584025
3842.18428711,0.01691691
3844.11309448,0.01617362
3846.04190186,0.01732171
3847.97070923,0.01701044
3849.89951660,0.01720515
3851.82832397,0.01540853
3853.75713135,0.01171017
3855.68593872,0.01390899
3857.61474609,0.01704547
3859.54355347,0.01650253
3861.47236084,0.01635770
3863.40116821,0.01607461
3865.32997559,0.01494455
3867.25878296,0.01652126
3869.18759033,0.01511478
3871.11639770,0.01411767
3873.04520508,0.01663838
3874.97401245,0.01521793
3876.90281982,0.01637541
3878.83162720,0.01660259
3880.76043457,0.01435914
3882.68924194,0.01639135
3884.61804932,0.01521674
3886.54685669,0.01413447
3888.47566406,0.01629002
3890.40447144,0.01540078
3892.33327881,0.01461125
3894.26208618,0.01583027
3896.19089355,0.01605896
3898.11970093,0.01525063
3900.04850830,0.01445413
3901.97731567,0.01435222
3903.90612305,0.01418587
3905.83493042,0.01435526
3907.76373779,0.01558451
3909.69254517,0.01560090
3911.62135254,0.01541891
3913.55015991,0.01566644
3915.47896728,0.01518012
3917.40777466,0.01478980
3919.33658203,0.01472521
3921.26538940,0.01520860
3923.19419678,0.01514219
3925.12300415,0.01474728
3927.05181152,0.01498965
3928.98061890,0.01512161
3930.90942627,0.01458278
3932.83823364,0.01423085
3934.76704102,0.01483900
3936.69584839,0.01492684
3938.62465576,0.01489951
3940.55346313,0.01483646
3942.48227051,0.01436001
3944.41107788,0.01456844
3946.33988525,0.01468907
3948.26869263,0.01437087
3950.19750000,0.01433220
3952.12630737,0.01451141
3954.05511475,0.01447009
3955.98392212,0.01441036
3957.91272949,0.01435281
3959.84153687,0.01439219
3961.77034424,0.01427083
3963.69915161,0.01411354
3965.62795898,0.01434896
3967.55676636,0.01414780
3969.48557373,0.01408269
3971.41438110,0.01406089
3973.34318848,0.01401200
3975.27199585,0.01402371
3977.20080322,0.01384806
3979.12961060,0.01404363
3981.05841797,0.01391878
3982.98722534,0.01392604
3984.91603271,0.01391690
3986.84484009,0.01386069
3988.77364746,0.01386840
3990.70245483,0.01358878
3992.63126221,0.01372807
3994.56006958,0.01356511
3996.48887695,0.01355196
3998.41768433,0.01363158
4000.34649170,0.01355010
4002.27529907,0.01356175
4004.20410645,0.01336081
4006.13291382,0.01349287
4008.06172119,0.01341795
4009.99052856,0.01336748
4011.91933594,0.01333270
4013.84814331,0.01327825
4015.77695068,0.01329982
4017.70575806,0.01309727
4019.63456543,0.01320668
4021.56337280,0.01315832
4023.49218018,0.01309601
4025.42098755,0.01303215
4027.34979492,0.01292891
4029.27860229,0.01296648
4031.20740967,0.01297177
4033.13621704,0.01299978
4035.06502441,0.01286117
4036.99383179,0.01294971
4038.92263916,0.01288306
4040.85144653,0.01276748
4042.78025391,0.01279213
4044.70906128,0.01260959
4046.63786865,0.01265938
4048.56667603,0.01266604
4050.49548340,0.01254632
4052.42429077,0.01255784
4054.35309814,0.01259397
4056.28190552,0.01244686
4058.21071289,0.01239752
4060.13952026,0.01243366
4062.06832764,0.01233139
4063.99713501,0.01238799
4065.92594238,0.01237004
4067.85474976,0.01227194
4069.78355713,0.01226493
4071.71236450,0.01224319
4073.64117187,0.01212510
4075.56997925,0.01214367
4077.49878662,0.01213619
4079.42759399,0.01207038
4081.35640137,0.01216056
4083.28520874,0.01202155
4085.21401611,0.01203141
4087.14282349,0.01204176
4089.07163086,0.01194550
4091.00043823,0.01191815
4092.92924561,0.01188455
4094.85805298,0.01198119
4096.78686035,0.01183040
4098.71566772,0.01182434
4100.64447510,0.01179653
4102.57328247,0.01165046
4104.50208984,0.01169389
4106.43089722,0.01165215
4108.35970459,0.01167037
4110.28851196,0.01155540
4112.21731934,0.01149285
4114.14612671,0.01156757
4116.07493408,0.01153770
4118.00374145,0.01139965
4119.93254883,0.01136812
4121.86135620,0.01144632
4123.79016357,0.01135511
4125.71897095,0.01133932
4127.64777832,0.01128014
4129.57658569,0.01124196
4131.50539307,0.01126336
4133.43420044,0.01116372
4135.36300781,0.01111309
4137.29181519,0.01119336
4139.22062256,0.01118688
4141.14942993,0.01109190
4143.07823730,0.01109751
4145.00704468,0.01095347
4146.93585205,0.01104254
4148.86465942,0.01104568
4150.79346680,0.01086944
4152.72227417,0.01091660
4154.65108154,0.01080261
4156.57988892,0.01088103
4158.50869629,0.01086671
4160.43750366,0.01078300
4162.36631103,0.01073872
4164.29511841,0.01067135
4166.22392578,0.01071184
4168.15273315,0.01057969
4170.08154053,0.01067856
4172.01034790,0.01062570
4173.93915527,0.01055934
4175.86796265,0.01060322
4177.79677002,0.01050652
4179.72557739,0.01054710
4181.65438477,0.01038890
4183.58319214,0.01039105
4185.51199951,0.01047486
4187.44080688,0.01041020
4189.36961426,0.01033051
4191.29842163,0.01031250
4193.22722900,0.01037196
4195.15603638,0.01024353
4197.08484375,0.01021245
4199.01365112,0.01016159
4200.94245850,0.01013170
4202.87126587,0.01022630
4204.80007324,0.01017653
4206.72888062,0.01008250
4208.65768799,0.01002864
4210.58649536,0.00997087
4212.51530273,0.00999750
4214.44411011,0.01006040
4216.37291748,0.00992400
4218.30172485,0.00991029
4220.23053223,0.00992088
4222.15933960,0.00992100
4224.08814697,0.00996420
4226.01695435,0.00979960
4227.94576172,0.00979447
4229.87456909,0.00988106
4231.80337646,0.00978113
4233.73218384,0.00960957
4235.66099121,0.00969219
4237.58979858,0.00966673
4239.51860596,0.00954288
4241.44741333,0.00965940
4243.37622070,0.00957090
4245.30502808,0.00950540
4247.23383545,0.00950944
4249.16264282,0.00960679
4251.09145020,0.00954888
4253.02025757,0.00939635
4254.94906494,0.00948088
4256.87787231,0.00939456
4258.80667969,0.00944818
4260.73548706,0.00942247
4262.66429443,0.00934229
4264.59310181,0.00936080
4266.52190918,0.00931638
4268.45071655,0.00926154
4270.37952393,0.00911789
4272.30833130,0.00921908
4274.23713867,0.00922768
4276.16594604,0.00921494
4278.09475342,0.00917122
4280.02356079,0.00909188
4281.95236816,0.00918933
4283.88117554,0.00905061
4285.80998291,0.00899354
4287.73879028,0.00894381
4289.66759766,0.00889243
4291.59640503,0.00898857
4293.52521240,0.00898196
4295.45401978,0.00886832
4297.38282715,0.00891582
4299.31163452,0.00898457
4301.24044189,0.00881907
4303.16924927,0.00885123
4305.09805664,0.00878289
4307.02686401,0.00873061
4308.95567139,0.00874854
4310.88447876,0.00867462
4312.81328613,0.00875127
4314.74209351,0.00869824
4316.67090088,0.00870836
4318.59970825,0.00866384
4320.52851562,0.00861549
4322.45732300,0.00854568
4324.38613037,0.00853014
4326.31493774,0.00857722
4328.24374512,0.00842158
4330.17255249,0.00858800
4332.10135986,0.00854829
4334.03016724,0.00833932
4335.95897461,0.00840009
4337.88778198,0.00844178
4339.81658936,0.00838370
4341.74539673,0.00831476
4343.67420410,0.00833287
4345.60301147,0.00824802
4347.53181885,0.00832634
4349.46062622,0.00823728
4351.38943359,0.00820608
4353.31824097,0.00832203
4355.24704834,0.00818623
4357.17585571,0.00817425
4359.10466309,0.00807987
4361.03347046,0.00816479
4362.96227783,0.00811876
4364.89108520,0.00804132
4366.81989258,0.00813898
4368.74869995,0.00796283
4370.67750732,0.00798257
4372.60631470,0.00801718
4374.53512207,0.00803855
4376.46392944,0.00799047
4378.39273682,0.00793769
4380.32154419,0.00791270
4382.25035156,0.00783720
4384.17915894,0.00789181
4386.10796631,0.00780967
4388.03677368,0.00783546
4389.96558105,0.00779475
4391.89438843,0.00777384
4393.82319580,0.00772845
4395.75200317,0.00765678
4397.68081055,0.00773099
4399.60961792,0.00754510
4401.53842529,0.00763076
4403.46723267,0.00766507
4405.39604004,0.00757197
4407.32484741,0.00765759
4409.25365478,0.00760047
4411.18246216,0.00761428
4413.11126953,0.00759748
4415.04007690,0.00755529
4416.96888428,0.00750899
4418.89769165,0.00746565
4420.82649902,0.00744491
4422.75530640,0.00745065
4424.68411377,0.00738008
4426.61292114,0.00734494
4428.54172852,0.00741846
4430.47053589,0.00734443
4432.39934326,0.00735062
4434.32815063,0.00728101
4436.25695801,0.00734203
4438.18576538,0.00734286
4440.11457275,0.00718869
4442.04338013,0.00725930
4443.97218750,0.00713403
4445.90099487,0.00719064
4447.82980225,0.00721521
4449.75860962,0.00711066
4451.68741699,0.00714594
4453.61622437,0.00706469
4455.54503174,0.00704974
4457.47383911,0.00701989
4459.40264648,0.00704167
4461.33145386,0.00699667
4463.26026123,0.00703490
4465.18906860,0.00710138
4467.11787598,0.00694720
4469.04668335,0.00694262
4470.97549072,0.00692062
4472.90429810,0.00689113
4474.83310547,0.00691157
4476.76191284,0.00688576
4478.69072021,0.00690507
4480.61952759,0.00692601
4482.54833496,0.00686839
4484.47714233,0.00677502
4486.40594971,0.00670935
4488.33475708,0.00674391
4490.26356445,0.00676570
4492.19237183,0.00668720
4494.12117920,0.00673256
4496.04998657,0.00664896
4497.97879395,0.00661228
4499.90760132,0.00661687
4501.83640869,0.00661652
4503.76521606,0.00674291
4505.69402344,0.00656178
4507.62283081,0.00655228
4509.55163818,0.00655475
4511.48044556,0.00654504
4513.40925293,0.00659589
4515.33806030,0.00646255
4517.26686768,0.00651317
4519.19567505,0.00642893
4521.12448242,0.00648995
4523.05328979,0.00643247
4524.98209717,0.00635899
4526.91090454,0.00648471
4528.83971191,0.00633290
4530.76851929,0.00644014
4532.69732666,0.00641076
4534.62613403,0.00635208
4536.55494141,0.00635047
4538.48374878,0.00624492
4540.41255615,0.00630482
4542.34136353,0.00629662
4544.27017090,0.00636871
4546.19897827,0.00625545
4548.12778564,0.00623631
4550.05659302,0.00627379
4551.98540039,0.00617745
4553.91420776,0.00623452
4555.84301514,0.00611128
4557.77182251,0.00605600
4559.70062988,0.00611405
4561.62943726,0.00612737
4563.55824463,0.00608580
4565.48705200,0.00606531
4567.41585937,0.00603681
4569.34466675,0.00596179
4571.27347412,0.00602046
4573.20228149,0.00601092
4575.13108887,0.00599571
4577.05989624,0.00590641
4578.98870361,0.00585897
4580.91751099,0.00593116
4582.84631836,0.00589995
4584.77512573,0.00587506
4586.70393311,0.00583316
4588.63274048,0.00583154
4590.56154785,0.00583271
4592.49035522,0.00583456
4594.41916260,0.00582402
4596.34796997,0.00579270
4598.27677734,0.00577711
4600.20558472,0.00578702
4602.13439209,0.00575121
4604.06319946,0.00566699
4605.99200684,0.00575452
4607.92081421,0.00572425
4609.84962158,0.00571118
4611.77842895,0.00571213
4613.70723633,0.00564819
4615.63604370,0.00569831
4617.56485107,0.00561692
4619.49365845,0.00569441
4621.42246582,0.00561508
4623.35127319,0.00548641
4625.28008057,0.00566873
4627.20888794,0.00558894
4629.13769531,0.00548995
4631.06650269,0.00550809
4632.99531006,0.00548205
4634.92411743,0.00544765
4636.85292480,0.00543005
4638.78173218,0.00545638
4640.71053955,0.00542573
4642.63934692,0.00536612
4644.56815430,0.00538800
4646.49696167,0.00539790
4648.42576904,0.00532118
4650.35457642,0.00536784
4652.28338379,0.00534113
4654.21219116,0.00525621
4656.14099853,0.00530523
4658.06980591,0.00531568
4659.99861328,0.00534926
4661.92742065,0.00533281
4663.85622803,0.00521245
4665.78503540,0.00524443
4667.71384277,0.00532633
4669.64265015,0.00517602
4671.57145752,0.00521249
4673.50026489,0.00528745
4675.42907227,0.00515956
4677.35787964,0.00520063
4679.28668701,0.00512187
4681.21549438,0.00512071
4683.14430176,0.00516497
4685.07310913,0.00508422
4687.00191650,0.00506908
4688.93072388,0.00497069
4690.85953125,0.00503833
4692.78833862,0.00506918
4694.71714600,0.00501469
4696.64595337,0.00503177
4698.57476074,0.00498464
4700.50356812,0.00499449
4702.43237549,0.00497977
4704.36118286,0.00493247
4706.28999023,0.00498706
4708.21879761,0.00504252
4710.14760498,0.00492652
4712.07641235,0.00489372
4714.00521973,0.00494294
4715.93402710,0.00493358
4717.86283447,0.00486162
4719.79164185,0.00481671
4721.72044922,0.00493481
4723.64925659,0.00480507
4725.57806396,0.00480996
4727.50687134,0.00491762
4729.43567871,0.00477710
4731.36448608,0.00477793
4733.29329346,0.00470364
4735.22210083,0.00470776
4737.15090820,0.00473575
4739.07971558,0.00473484
4741.00852295,0.00477966
4742.93733032,0.00470226
4744.86613770,0.00477142
4746.79494507,0.00472682
4748.72375244,0.00461026
4750.65255981,0.00462157
4752.58136719,0.00462210
4754.51017456,0.00458684
4756.43898193,0.00455171
4758.36778931,0.00459175
4760.29659668,0.00451742
4762.22540405,0.00451114
4764.15421143,0.00456670
4766.08301880,0.00453886
4768.01182617,0.00454810
4769.94063354,0.00449611
4771.86944092,0.00451217
4773.79824829,0.00452346
4775.72705566,0.00446973
4777.65586304,0.00451160
4779.58467041,0.00447845
4781.51347778,0.00444040
4783.44228516,0.00446227
4785.37109253,0.00440301
4787.29989990,0.00441418
4789.22870728,0.00440238
4791.15751465,0.00433963
4793.08632202,0.00438396
4795.01512939,0.00439342
4796.94393677,0.00440501
4798.87274414,0.00437651
4800.80155151,0.00432458
4802.73035889,0.00430349
4804.65916626,0.00424158
4806.58797363,0.00430171
4808.51678101,0.00432453
4810.44558838,0.00423075
4812.37439575,0.00426498
4814.30320312,0.00433526
4816.23201050,0.00426185
4818.16081787,0.00416965
4820.08962524,0.00416412
4822.01843262,0.00415400
4823.94723999,0.00412772
4825.87604736,0.00416721
4827.80485474,0.00420267
4829.73366211,0.00411879
4831.66246948,0.00411276
4833.59127686,0.00412624
4835.52008423,0.00412933
4837.44889160,0.00416476
4839.37769897,0.00400984
4841.30650635,0.00399440
4843.23531372,0.00406982
4845.16412109,0.00402672
4847.09292847,0.00404153
4849.02173584,0.00402545
4850.95054321,0.00402356
4852.87935059,0.00399301
4854.80815796,0.00398880
4856.73696533,0.00401381
4858.66577270,0.00396538
4860.59458008,0.00398215
4862.52338745,0.00399838
4864.45219482,0.00395184
4866.38100220,0.00392455
4868.30980957,0.00392475
4870.23861694,0.00385203
4872.16742432,0.00384688
4874.09623169,0.00388022
4876.02503906,0.00378206
4877.95384644,0.00381362
4879.88265381,0.00384381
4881.81146118,0.00377390
4883.74026855,0.00381241
4885.66907593,0.00380738
4887.59788330,0.00377208
4889.52669067,0.00379891
4891.45549805,0.00380801
4893.38430542,0.00381122
4895.31311279,0.00376739
4897.24192017,0.00373284
4899.17072754,0.00379689
4901.09953491,0.00377031
4903.02834228,0.00369526
4904.95714966,0.00373796
4906.88595703,0.00371260
4908.81476440,0.00366058
4910.74357178,0.00367788
4912.67237915,0.00362011
4914.60118652,0.00365235
4916.52999390,0.00368260
4918.45880127,0.00358831
4920.38760864,0.00364440
4922.31641602,0.00368526
4924.24522339,0.00362396
4926.17403076,0.00357361
4928.10283813,0.00357435
4930.03164551,0.00358148
4931.96045288,0.00354111
4933.88926025,0.00355346
4935.81806763,0.00350236
4937.74687500,0.00357964
4939.67568237,0.00358246
4941.60448975,0.00341315
4943.53329712,0.00350625
4945.46210449,0.00349529
4947.39091187,0.00345038
4949.31971924,0.00348486
4951.24852661,0.00343846
4953.17733398,0.00342943
4955.10614136,0.00342764
4957.03494873,0.00346181
4958.96375610,0.00336091
4960.89256348,0.00336079
4962.82137085,0.00345598
4964.75017822,0.00338756
4966.67898560,0.00345233
4968.60779297,0.00350505
4970.53660034,0.00339868
4972.46540771,0.00333030
4974.39421509,0.00332910
4976.32302246,0.00332991
4978.25182983,0.00331279
4980.18063721,0.00325031
4982.10944458,0.00326744
4984.03825195,0.00330691
4985.96705933,0.00323895
4987.89586670,0.00330106
4989.82467407,0.00329725
4991.75348145,0.00318609
4993.68228882,0.00319301
4995.61109619,0.00318073
4997.53990356,0.00316661
4999.46871094,0.00323143
5001.39751831,0.00326107
5003.32632568,0.00319071
5005.25513306,0.00318503
5007.18394043,0.00317382
5009.11274780,0.00317341
5011.04155518,0.00323395
5012.97036255,0.00317101
5014.89916992,0.00306997
5016.82797729,0.00303699
5018.75678467,0.00310674
5020.68559204,0.00315742
5022.61439941,0.00317156
5024.54320679,0.00314014
5026.47201416,0.00304226
5028.40082153,0.00304684
5030.32962891,0.00310825
5032.25843628,0.00312359
5034.18724365,0.00303267
5036.11605103,0.00301259
5038.04485840,0.00305648
5039.97366577,0.00307847
5041.90247314,0.00304747
5043.83128052,0.00292847
5045.76008789,0.00298938
5047.68889526,0.00299427
5049.61770264,0.00291077
5051.54651001,0.00293624
5053.47531738,0.00294030
5055.40412476,0.00295344
5057.33293213,0.00298050
5059.26173950,0.00296526
5061.19054687,0.00285140
5063.11935425,0.00285075
5065.04816162,0.00291006
5066.97696899,0.00288925
5068.90577637,0.00286614
5070.83458374,0.00287162
5072.76339111,0.00293142
5074.69219849,0.00287797
5076.62100586,0.00284093
5078.54981323,0.00282016
5080.47862061,0.00282416
5082.40742798,0.00284226
5084.33623535,0.00279541
5086.26504272,0.00285472
5088.19385010,0.00280339
5090.12265747,0.00280087
5092.05146484,0.00285325
5093.98027222,0.00280677
5095.90907959,0.00280655
5097.83788696,0.00274038
5099.76669434,0.00273232
5101.69550171,0.00272328
5103.62430908,0.00272484
5105.55311645,0.00277872
5107.48192383,0.00272380
5109.41073120,0.00271368
5111.33953857,0.00274719
5113.26834595,0.00272582
5115.19715332,0.00271918
5117.12596069,0.00270292
5119.05476807,0.00267806
5120.98357544,0.00270155
5122.91238281,0.00267993
5124.84119019,0.00268832
5126.76999756,0.00265946
5128.69880493,0.00261000
5130.62761230,0.00263576
5132.55641968,0.00258190
5134.48522705,0.00265318
5136.41403442,0.00265162
5138.34284180,0.00258032
5140.27164917,0.00264424
5142.20045654,0.00258076
5144.12926392,0.00258876
5146.05807129,0.00264577
5147.98687866,0.00259033
5149.91568603,0.00258743
5151.84449341,0.00264843
5153.77330078,0.00256391
5155.70210815,0.00247805
5157.63091553,0.00251817
5159.55972290,0.00250716
5161.48853027,0.00253898
5163.41733765,0.00247564
5165.34614502,0.00247305
5167.27495239,0.00253001
5169.20375977,0.00247067
5171.13256714,0.00250058
5173.06137451,0.00244458
5174.99018188,0.00242875
5176.91898926,0.00246908
5178.84779663,0.00248323
5180.77660400,0.00251221
5182.70541138,0.00243052
5184.63421875,0.00241298
5186.56302612,0.00244983
5188.49183350,0.00243472
5190.42064087,0.00242535
5192.34944824,0.00240627
5194.27825562,0.00235796
5196.20706299,0.00241859
5198.13587036,0.00242957
5200.06467773,0.00239624
5201.99348511,0.00242129
5203.92229248,0.00233095
5205.85109985,0.00232297
5207.77990723,0.00224016
5209.70871460,0.00226406
5211.63752197,0.00236738
5213.56632935,0.00226681
5215.49513672,0.00232972
5217.42394409,0.00228801
5219.35275146,0.00226262
5221.28155884,0.00229561
5223.21036621,0.00229761
5225.13917358,0.00232731
5227.06798096,0.00221443
5228.99678833,0.00232071
5230.92559570,0.00232330
5232.85440308,0.00222768
5234.78321045,0.00230816
5236.71201782,0.00230101
5238.64082520,0.00223429
5240.56963257,0.00219802
5242.49843994,0.00225307
5244.42724731,0.00221206
5246.35605469,0.00224423
5248.28486206,0.00218707
5250.21366943,0.00211201
5252.14247681,0.00230445
5254.07128418,0.00218928
5256.00009155,0.00213510
5257.92889893,0.00224992
5259.85770630,0.00218135
5261.78651367,0.00220525
5263.71532104,0.00221208
5265.64412842,0.00214891
5267.57293579,0.00220770
5269.50174316,0.00227258
5271.43055054,0.00216770
5273.35935791,0.00213621
5275.28816528,0.00217306
5277.21697266,0.00219502
5279.14578003,0.00219482
5281.07458740,0.00212350
5283.00339478,0.00213665
5284.93220215,0.00210937
5286.86100952,0.00217161
5288.78981689,0.00219228
5290.71862427,0.00209219
5292.64743164,0.00213368
5294.57623901,0.00211937
5296.50504639,0.00213709
5298.43385376,0.00211517
5300.36266113,0.00209047
5302.29146851,0.00206796
5304.22027588,0.00196290
5306.14908325,0.00202963
5308.07789062,0.00203320
5310.00669800,0.00206423
5311.93550537,0.00211492
5313.86431274,0.00207805
5315.79312012,0.00208268
5317.72192749,0.00197868
5319.65073486,0.00198549
5321.57954224,0.00203971
5323.50834961,0.00207235
5325.43715698,0.00206716
5327.36596436,0.00195052
5329.29477173,0.00201596
5331.22357910,0.00202807
5333.15238647,0.00196384
5335.08119385,0.00201818
5337.01000122,0.00195046
5338.93880859,0.00185751
5340.86761597,0.00199647
5342.79642334,0.00208763
5344.72523071,0.00192277
5346.65403809,0.00188532
5348.58284546,0.00192917
5350.51165283,0.00193239
5352.44046020,0.00196388
5354.36926758,0.00189347
5356.29807495,0.00193617
5358.22688232,0.00199515
5360.15568970,0.00190227
5362.08449707,0.00188626
5364.01330444,0.00187265
5365.94211182,0.00185545
5367.87091919,0.00191295
5369.79972656,0.00189717
5371.72853394,0.00189258
5373.65734131,0.00191100
5375.58614868,0.00184160
5377.51495605,0.00186732
5379.44376343,0.00186966
5381.37257080,0.00183292
5383.30137817,0.00189453
5385.23018555,0.00188759
5387.15899292,0.00187572
5389.08780029,0.00184493
5391.01660767,0.00181841
5392.94541504,0.00178762
5394.87422241,0.00176883
5396.80302978,0.00187591
5398.73183716,0.00186483
5400.66064453,0.00182124
5402.58945190,0.00180762
5404.51825928,0.00179023
5406.44706665,0.00179125
5408.37587402,0.00172410
5410.30468140,0.00175265
5412.23348877,0.00176843
5414.16229614,0.00173943
5416.09110352,0.00172612
5418.01991089,0.00171477
5419.94871826,0.00176295
5421.87752563,0.00171529
5423.80633301,0.00172088
5425.73514038,0.00179306
5427.66394775,0.00172298
5429.59275513,0.00167864
5431.52156250,0.00173381
5433.45036987,0.00174859
5435.37917725,0.00170938
5437.30798462,0.00172304
5439.23679199,0.00170307
5441.16559936,0.00161556
5443.09440674,0.00164328
5445.02321411,0.00168332
5446.95202148,0.00166684
5448.88082886,0.00170009
5450.80963623,0.00165947
5452.73844360,0.00165966
5454.66725098,0.00170019
5456.59605835,0.00161605
5458.52486572,0.00165598
5460.45367310,0.00172299
5462.38248047,0.00167621
5464.31128784,0.00163547
5466.24009521,0.00162549
5468.16890259,0.00164953
5470.09770996,0.00164186
5472.02651733,0.00165689
5473.95532471,0.00162952
5475.88413208,0.00159120
5477.81293945,0.00161498
5479.74174683,0.00160746
5481.67055420,0.00162700
5483.59936157,0.00164128
5485.52816895,0.00158514
5487.45697632,0.00151323
5489.38578369,0.00158607
5491.31459106,0.00163494
5493.24339844,0.00155258
5495.17220581,0.00156658
5497.10101318,0.00155082
5499.02982056,0.00152721
5500.95862793,0.00155104
5502.88743530,0.00154202
5504.81624268,0.00156388
5506.74505005,0.00155324
5508.67385742,0.00151924
5510.60266479,0.00158276
5512.53147217,0.00161008
5514.46027954,0.00153356
5516.38908691,0.00151641
5518.31789429,0.00148086
5520.24670166,0.00153638
5522.17550903,0.00157471
5524.10431641,0.00151394
5526.03312378,0.00159256
5527.96193115,0.00152151
5529.89073853,0.00153555
5531.81954590,0.00157340
5533.74835327,0.00142892
5535.67716064,0.00149296
5537.60596802,0.00150909
5539.53477539,0.00151564
5541.46358276,0.00145133
5543.39239014,0.00138355
5545.32119751,0.00154043
5547.25000488,0.00147610
5549.17881226,0.00141615
5551.10761963,0.00148528
5553.03642700,0.00149410
5554.96523437,0.00145982
5556.89404175,0.00140812
5558.82284912,0.00145976
5560.75165649,0.00144871
5562.68046387,0.00141360
5564.60927124,0.00142817
5566.53807861,0.00141633
5568.46688599,0.00138950
5570.39569336,0.00140960
5572.32450073,0.00142919
5574.25330811,0.00138626
5576.18211548,0.00147614
5578.11092285,0.00145251
5580.03973022,0.00138254
5581.96853760,0.00144815
5583.89734497,0.00137169
5585.82615234,0.00138680
5587.75495972,0.00140096
5589.68376709,0.00137386
5591.61257446,0.00139696
5593.54138184,0.00133925
5595.47018921,0.00138658
5597.39899658,0.00135882
5599.32780395,0.00136098
5601.25661133,0.00141518
5603.18541870,0.00132852
5605.11422607,0.00134374
5607.04303345,0.00135942
5608.97184082,0.00134387
5610.90064819,0.00126927
5612.82945557,0.00128301
5614.75826294,0.00139710
5616.68707031,0.00132844
5618.61587769,0.00135916
5620.54468506,0.00135762
5622.47349243,0.00127730
5624.40229980,0.00129865
5626.33110718,0.00125035
5628.25991455,0.00124654
5630.18872192,0.00127791
5632.11752930,0.00128570
5634.04633667,0.00127514
5635.97514404,0.00126340
5637.90395142,0.00128784
5639.83275879,0.00127131
5641.76156616,0.00121774
5643.69037353,0.00119646
5645.61918091,0.00122851
5647.54798828,0.00122587
5649.47679565,0.00122548
5651.40560303,0.00124748
5653.33441040,0.00128217
5655.26321777,0.00122462
5657.19202515,0.00113466
5659.12083252,0.00127548
5661.04963989,0.00129670
5662.97844727,0.00117838
5664.90725464,0.00119024
5666.83606201,0.00122835
5668.76486938,0.00127593
5670.69367676,0.00125432
5672.62248413,0.00121252
5674.55129150,0.00121301
5676.48009888,0.00122881
5678.40890625,0.00117414
5680.33771362,0.00114896
5682.26652100,0.00120887
5684.19532837,0.00115956
5686.12413574,0.00116776
5688.05294311,0.00120512
5689.98175049,0.00121926
5691.91055786,0.00119581
5693.83936523,0.00113324
5695.76817261,0.00117842
5697.69697998,0.00117950
5699.62578735,0.00118419
5701.55459473,0.00112534
5703.48340210,0.00116030
5705.41220947,0.00125888
5707.34101685,0.00112482
5709.26982422,0.00115110
5711.19863159,0.00111436
5713.12743896,0.00103275
5715.05624634,0.00112862
5716.98505371,0.00111833
5718.91386108,0.00113252
5720.84266846,0.00108732
5722.77147583,0.00109974
5724.70028320,0.00116755
5726.62909058,0.00113771
5728.55789795,0.00115289
5730.48670532,0.00112883
5732.41551270,0.00111876
5734.34432007,0.00105978
5736.27312744,0.00104127
5738.20193481,0.00108720
5740.13074219,0.00107414
5742.05954956,0.00112195
5743.98835693,0.00109633
5745.91716431,0.00105159
5747.84597168,0.00108144
5749.77477905,0.00112739
5751.70358643,0.00108946
5753.63239380,0.00100446
5755.56120117,0.00103731
5757.49000854,0.00104869
5759.41881592,0.00108521
5761.34762329,0.00111873
5763.27643066,0.00101778
5765.20523804,0.00094717
5767.13404541,0.00103979
5769.06285278,0.00110959
5770.99166016,0.00101498
5772.92046753,0.00096798
5774.84927490,0.00096608
5776.77808228,0.00100197
5778.70688965,0.00099808
5780.63569702,0.00100456
5782.56450439,0.00110296
5784.49331177,0.00103542
5786.42211914,0.00104427
5788.35092651,0.00106286
5790.27973389,0.00097487
5792.20854126,0.00100697
5794.13734863,0.00098042
5796.06615601,0.00092220
5797.99496338,0.00092979
5799.92377075,0.00098742
5801.85257812,0.00098351
5803.78138550,0.00091055
5805.71019287,0.00091839
5807.63900024,0.00099445
5809.56780762,0.00100012
5811.49661499,0.00093623
5813.42542236,0.00097405
5815.35422974,0.00094009
5817.28303711,0.00096869
5819.21184448,0.00105060
5821.14065186,0.00094709
5823.06945923,0.00092833
5824.99826660,0.00089544
5826.92707397,0.00092385
5828.85588135,0.00099174
5830.78468872,0.00091194
5832.71349609,0.00092024
5834.64230347,0.00093315
5836.57111084,0.00095404
5838.49991821,0.00098560
5840.42872559,0.00093545
5842.35753296,0.00089770
5844.28634033,0.00090588
5846.21514770,0.00092427
5848.14395508,0.00087537
5850.07276245,0.00089089
5852.00156982,0.00097368
5853.93037720,0.00093353
5855.85918457,0.00090726
5857.78799194,0.00094108
5859.71679932,0.00093265
5861.64560669,0.00092030
5863.57441406,0.00087148
5865.50322144,0.00092531
5867.43202881,0.00095871
5869.36083618,0.00085403
5871.28964355,0.00090649
5873.21845093,0.00090084
5875.14725830,0.00086312
5877.07606567,0.00092694
5879.00487305,0.00089205
5880.93368042,0.00088178
5882.86248779,0.00086067
5884.79129517,0.00079215
5886.72010254,0.00079452
5888.64890991,0.00083733
5890.57771728,0.00081667
5892.50652466,0.00084255
5894.43533203,0.00087703
5896.36413940,0.00079852
5898.29294678,0.00081677
5900.22175415,0.00085203
5902.15056152,0.00084555
5904.07936890,0.00080254
5906.00817627,0.00077634
5907.93698364,0.00084511
5909.86579102,0.00084608
5911.79459839,0.00081302
5913.72340576,0.00079281
5915.65221313,0.00079122
5917.58102051,0.00077334
5919.50982788,0.00077950
5921.43863525,0.00078240
5923.36744263,0.00082861
5925.29625000,0.00088156
5927.22505737,0.00078674
5929.15386475,0.00084041
5931.08267212,0.00082463
5933.01147949,0.00073046
5934.94028686,0.00078764
5936.86909424,0.00081370
5938.79790161,0.00082558
5940.72670898,0.00079029
5942.65551636,0.00077664
5944.58432373,0.00075191
5946.51313110,0.00079049
5948.44193848,0.00074688
5950.37074585,0.00075234
5952.29955322,0.00086351
5954.22836060,0.00073218
5956.15716797,0.00081461
5958.08597534,0.00078572
5960.01478271,0.00071548
5961.94359009,0.00082381
5963.87239746,0.00074585
5965.80120483,0.00079990
5967.73001221,0.00080114
5969.65881958,0.00079437
5971.58762695,0.00072054
5973.51643433,0.00073994
5975.44524170,0.00079567
5977.37404907,0.00061090
5979.30285645,0.00072810
5981.23166382,0.00074620
5983.16047119,0.00075450
5985.08927856,0.00080444
5987.01808594,0.00073566
5988.94689331,0.00079628
5990.87570068,0.00074114
5992.80450806,0.00074888
5994.73331543,0.00067542
5996.66212280,0.00070640
5998.59093018,0.00076937
6000.51973755,0.00066943
