399.26312622,0.00111754
401.19193359,0.00142209
403.12074097,0.00105621
405.04954834,0.00116879
406.97835571,0.00141723
408.90716309,0.00145613
410.83597046,0.00170919
412.76477783,0.00165815
414.69358521,0.00162820
416.62239258,0.00155455
418.55119995,0.00095098
420.48000732,0.00126701
422.40881470,0.00197885
424.33762207,0.00141469
426.26642944,0.00161143
428.19523682,0.00238265
430.12404419,0.00186714
432.05285156,0.00161894
433.98165894,0.00189591
435.91046631,0.00175288
437.83927368,0.00180616
439.76808105,0.00211967
441.69688843,0.00203863
443.62569580,0.00143838
445.55450317,0.00114863
447.48331055,0.00160938
449.41211792,0.00147582
451.34092529,0.00101155
453.26973267,0.00133877
455.19854004,0.00122713
457.12734741,0.00087207
459.05615479,0.00112668
460.98496216,0.00086997
462.91376953,0.00062506
464.84257690,0.00071283
466.77138428,0.00048544
468.70019165,0.00088846
470.62899902,0.00104728
472.55780640,0.00048121
474.48661377,0.00052472
476.41542114,0.00096639
478.34422852,0.00070795
480.27303589,-0.00003627
482.20184326,0.00035503
484.13065063,0.00065912
486.05945801,0.00033238
487.98826538,0.00045940
489.91707275,0.00046439
491.84588013,0.00094006
493.77468750,0.00062108
495.70349487,0.00020522
497.63230225,0.00059271
499.56110962,0.00033523
501.48991699,0.00041045
503.41872437,0.00046834
505.34753174,0.00027195
507.27633911,0.00048112
509.20514648,0.00028879
511.13395386,0.00027529
513.06276123,0.00032613
514.99156860,0.00009868
516.92037598,0.00065806
518.84918335,0.00064817
520.77799072,0.00029696
522.70679810,0.00050367
524.63560547,0.00032869
526.56441284,0.00031953
528.49322021,0.00027187
530.42202759,0.00034080
532.35083496,0.00048649
534.27964233,0.00017560
536.20844971,0.00001028
538.13725708,0.00031707
540.06606445,0.00059485
541.99487183,0.00053806
543.92367920,0.00063056
545.85248657,0.00033748
547.78129395,0.00024520
549.71010132,0.00033502
551.63890869,0.00021552
553.56771606,0.00042817
555.49652344,0.00021251
557.42533081,0.00025688
559.35413818,0.00036113
561.28294556,0.00043559
563.21175293,0.00060451
565.14056030,0.00046354
567.06936768,0.00071083
568.99817505,0.00059635
570.92698242,0.00050734
572.85578979,0.00065312
574.78459717,0.00059163
576.71340454,0.00026678
578.64221191,-0.00002092
580.57101929,0.00038735
582.49982666,0.00044780
584.42863403,0.00019624
586.35744141,0.00013504
588.28624878,0.00060542
590.21505615,0.00074862
592.14386353,0.00033046
594.07267090,0.00059262
596.00147827,0.00055247
597.93028564,0.00049843
599.85909302,0.00059682
601.78790039,0.00045924
603.71670776,0.00015553
605.64551514,0.00018941
607.57432251,0.00062426
609.50312988,0.00027544
611.43193726,0.00038758
613.36074463,0.00062407
615.28955200,0.00035245
617.21835938,0.00050623
619.14716675,0.00043691
621.07597412,0.00009867
623.00478149,0.00024227
624.93358887,0.00039823
626.86239624,0.00005252
628.79120361,0.00014071
630.72001099,0.00042722
632.64881836,0.00094247
634.57762573,0.00080570
636.50643311,0.00108873
638.43524048,0.00170067
640.36404785,0.00138857
642.29285522,0.00171142
644.22166260,0.00179892
646.15046997,0.00181337
648.07927734,0.00207552
650.00808472,0.00241053
651.93689209,0.00265357
653.86569946,0.00240747
655.79450684,0.00257133
657.72331421,0.00282215
659.65212158,0.00289126
661.58092896,0.00276618
663.50973633,0.00303125
665.43854370,0.00322585
667.36735107,0.00300743
669.29615845,0.00347707
671.22496582,0.00392996
673.15377319,0.00405383
675.08258057,0.00391365
677.01138794,0.00414952
678.94019531,0.00423407
680.86900269,0.00397527
682.79781006,0.00455797
684.72661743,0.00444278
686.65542480,0.00406915
688.58423218,0.00415686
690.51303955,0.00421318
692.44184692,0.00456445
694.37065430,0.00487280
696.29946167,0.00548884
698.22826904,0.00630848
700.15707642,0.00694759
702.08588379,0.00685323
704.01469116,0.00643880
705.94349854,0.00590424
707.87230591,0.00478771
709.80111328,0.00382707
711.72992065,0.00259255
713.65872803,0.00155034
715.58753540,0.00095324
717.51634277,0.00062945
719.44515015,0.00055887
721.37395752,0.00022461
723.30276489,0.00030157
725.23157227,0.00004535
727.16037964,-0.00011992
729.08918701,0.00002619
731.01799438,-0.00006951
732.94680176,0.00016576
734.87560913,0.00026879
736.80441650,0.00041075
738.73322388,0.00029538
740.66203125,0.00041847
742.59083862,0.00041826
744.51964600,0.00010647
746.44845337,0.00054261
748.37726074,0.00062750
750.30606812,0.00031995
752.23487549,0.00047636
754.16368286,0.00029677
756.09249023,0.00032643
758.02129761,0.00060101
759.95010498,0.00028718
761.87891235,0.00025754
763.80771973,0.00046394
765.73652710,0.00044179
767.66533447,0.00021044
769.59414185,0.00036864
771.52294922,0.00031537
773.45175659,0.00049102
775.38056396,0.00049878
777.30937134,0.00025502
779.23817871,0.00062932
781.16698608,0.00042837
783.09579346,0.00031791
785.02460083,0.00045559
786.95340820,0.00047442
788.88221558,0.00037415
790.81102295,0.00034011
792.73983032,0.00068353
794.66863770,0.00030696
796.59744507,0.00021494
798.52625244,0.00100432
800.45505981,0.00073794
802.38386719,0.00076157
804.31267456,0.00103724
806.24148193,0.00048966
808.17028931,0.00054710
810.09909668,0.00034942
812.02790405,0.00029502
813.95671143,0.00052598
815.88551880,0.00039323
817.81432617,0.00058126
819.74313354,0.00061322
821.67194092,0.00046439
823.60074829,0.00013626
825.52955566,0.00047372
827.45836304,0.00074349
829.38717041,0.00073138
831.31597778,0.00126731
833.24478516,0.00120561
835.17359253,0.00149796
837.10239990,0.00176264
839.03120728,0.00185052
840.96001465,0.00203386
842.88882202,0.00162639
844.81762939,0.00152741
846.74643677,0.00143271
848.67524414,0.00130106
850.60405151,0.00116886
852.53285889,0.00123744
854.46166626,0.00106613
856.39047363,0.00085870
858.31928101,0.00113844
860.24808838,0.00065788
862.17689575,0.00057364
864.10570313,0.00071508
866.03451050,0.00040447
867.96331787,0.00044197
869.89212524,0.00052560
871.82093262,0.00057894
873.74973999,0.00058355
875.67854736,0.00069640
877.60735474,0.00073297
879.53616211,0.00058850
881.46496948,0.00022708
883.39377686,0.00035617
885.32258423,0.00071834
887.25139160,0.00046265
889.18019897,0.00053114
891.10900635,0.00038226
893.03781372,0.00035210
894.96662109,0.00064515
896.89542847,0.00039120
898.82423584,0.00058712
900.75304321,0.00067857
902.68185059,0.00063808
904.61065796,0.00088081
906.53946533,0.00059745
908.46827271,0.00061212
910.39708008,0.00096592
912.32588745,0.00089672
914.25469482,0.00097091
916.18350220,0.00110844
918.11230957,0.00101869
920.04111694,0.00113377
921.96992432,0.00144321
923.89873169,0.00143981
925.82753906,0.00144021
927.75634644,0.00210317
929.68515381,0.00214598
931.61396118,0.00200003
933.54276855,0.00242745
935.47157593,0.00246844
937.40038330,0.00295391
939.32919067,0.00286021
941.25799805,0.00271043
943.18680542,0.00331082
945.11561279,0.00287104
947.04442017,0.00283326
948.97322754,0.00314421
950.90203491,0.00295990
952.83084229,0.00295835
954.75964966,0.00281025
956.68845703,0.00267882
958.61726440,0.00281095
960.54607178,0.00293297
962.47487915,0.00294502
964.40368652,0.00307943
966.33249390,0.00296746
968.26130127,0.00307481
970.19010864,0.00323960
972.11891602,0.00315084
974.04772339,0.00360987
975.97653076,0.00402955
977.90533813,0.00429012
979.83414551,0.00434280
981.76295288,0.00481224
983.69176025,0.00579825
985.62056763,0.00629665
987.54937500,0.00676901
989.47818237,0.00752976
991.40698975,0.00856185
993.33579712,0.00914926
995.26460449,0.00990465
997.19341187,0.01095921
999.12221924,0.01171717
1001.05102661,0.01282422
1002.97983398,0.01346870
1004.90864136,0.01432295
1006.83744873,0.01547273
1008.76625610,0.01640424
1010.69506348,0.01745472
1012.62387085,0.01806787
1014.55267822,0.01927017
1016.48148560,0.02043844
1018.41029297,0.02107463
1020.33910034,0.02218475
1022.26790771,0.02314828
1024.19671509,0.02405923
1026.12552246,0.02499130
1028.05432983,0.02569523
1029.98313721,0.02638834
1031.91194458,0.02708071
1033.84075195,0.02768887
1035.76955933,0.02818554
1037.69836670,0.02853521
1039.62717407,0.02862343
1041.55598145,0.02856964
1043.48478882,0.02830959
1045.41359619,0.02807919
1047.34240356,0.02783283
1049.27121094,0.02722183
1051.20001831,0.02679766
1053.12882568,0.02633905
1055.05763306,0.02576921
1056.98644043,0.02537921
1058.91524780,0.02463163
1060.84405518,0.02400089
1062.77286255,0.02343444
1064.70166992,0.02251823
1066.63047729,0.02174477
1068.55928467,0.02088974
1070.48809204,0.01993512
1072.41689941,0.01892827
1074.34570679,0.01799401
1076.27451416,0.01729718
1078.20332153,0.01656460
1080.13212891,0.01582441
1082.06093628,0.01495620
1083.98974365,0.01424295
1085.91855103,0.01374002
1087.84735840,0.01313354
1089.77616577,0.01238599
1091.70497314,0.01173786
1093.63378052,0.01150448
1095.56258789,0.01112982
1097.49139526,0.01072592
1099.42020264,0.01030291
1101.34901001,0.00989695
1103.27781738,0.00996372
1105.20662476,0.00963145
1107.13543213,0.00941483
1109.06423950,0.00957003
1110.99304687,0.00932334
1112.92185425,0.00923576
1114.85066162,0.00920932
1116.77946899,0.00920793
1118.70827637,0.00910516
1120.63708374,0.00896628
1122.56589111,0.00912947
1124.49469849,0.00906445
1126.42350586,0.00937076
1128.35231323,0.00965522
1130.28112061,0.00961323
1132.20992798,0.01005784
1134.13873535,0.01029463
1136.06754272,0.01065803
1137.99635010,0.01127112
1139.92515747,0.01175420
1141.85396484,0.01247367
1143.78277222,0.01345205
1145.71157959,0.01461100
1147.64038696,0.01532291
1149.56919434,0.01606743
1151.49800171,0.01691491
1153.42680908,0.01762709
1155.35561646,0.01871958
1157.28442383,0.01939785
1159.21323120,0.01999774
1161.14203857,0.02079660
1163.07084595,0.02141565
1164.99965332,0.02246033
1166.92846069,0.02332458
1168.85726807,0.02384792
1170.78607544,0.02492333
1172.71488281,0.02588815
1174.64369019,0.02678089
1176.57249756,0.02808122
1178.50130493,0.02890288
1180.43011230,0.02998373
1182.35891968,0.03130281
1184.28772705,0.03245624
1186.21653442,0.03425808
1188.14534180,0.03575717
1190.07414917,0.03715942
1192.00295654,0.03899948
1193.93176392,0.04090565
1195.86057129,0.04287991
1197.78937866,0.04473203
1199.71818604,0.04678124
1201.64699341,0.04880421
1203.57580078,0.05073366
1205.50460815,0.05262516
1207.43341553,0.05445701
1209.36222290,0.05655480
1211.29103027,0.05839234
1213.21983765,0.05986594
1215.14864502,0.06147423
1217.07745239,0.06279364
1219.00625977,0.06384534
1220.93506714,0.06500696
1222.86387451,0.06559707
1224.79268188,0.06620660
1226.72148926,0.06697984
1228.65029663,0.06717937
1230.57910400,0.06745543
1232.50791138,0.06766862
1234.43671875,0.06776695
1236.36552612,0.06782529
1238.29433350,0.06776795
1240.22314087,0.06769178
1242.15194824,0.06739604
1244.08075562,0.06698304
1246.00956299,0.06662203
1247.93837036,0.06634729
1249.86717773,0.06561625
1251.79598511,0.06505603
1253.72479248,0.06462456
1255.65359985,0.06374022
1257.58240723,0.06292701
1259.51121460,0.06172624
1261.44002197,0.06088570
1263.36882935,0.06017543
1265.29763672,0.05918835
1267.22644409,0.05869949
1269.15525146,0.05768872
1271.08405884,0.05669005
1273.01286621,0.05607141
1274.94167358,0.05497561
1276.87048096,0.05378164
1278.79928833,0.05279204
1280.72809570,0.05192534
1282.65690308,0.05077355
1284.58571045,0.04967574
1286.51451782,0.04886527
1288.44332520,0.04789840
1290.37213257,0.04728549
1292.30093994,0.04700733
1294.22974731,0.04663746
1296.15855469,0.04633322
1298.08736206,0.04623748
1300.01616943,0.04633289
1301.94497681,0.04628571
1303.87378418,0.04672747
1305.80259155,0.04738295
1307.73139893,0.04779914
1309.66020630,0.04893071
1311.58901367,0.04962873
1313.51782104,0.05018089
1315.44662842,0.05156427
1317.37543579,0.05267224
1319.30424316,0.05414791
1321.23305054,0.05607651
1323.16185791,0.05763465
1325.09066528,0.05915793
1327.01947266,0.06086656
1328.94828003,0.06236286
1330.87708740,0.06394345
1332.80589478,0.06564255
1334.73470215,0.06673604
1336.66350952,0.06746768
1338.59231689,0.06722900
1340.52112427,0.06790927
1342.44993164,0.07041272
1344.37873901,0.07107565
1346.30754639,0.07084863
1348.23635376,0.07074676
1350.16516113,0.07039826
1352.09396851,0.07024959
1354.02277588,0.06930643
1355.95158325,0.06891838
1357.88039062,0.06839159
1359.80919800,0.06714572
1361.73800537,0.06464171
1363.66681274,0.06347193
1365.59562012,0.06616080
1367.52442749,0.06487019
1369.45323486,0.06404943
1371.38204224,0.06531794
1373.31084961,0.06211396
1375.23965698,0.06245539
1377.16846436,0.06407607
1379.09727173,0.06352715
1381.02607910,0.06347783
1382.95488647,0.06332533
1384.88369385,0.06340022
1386.81250122,0.06079650
1388.74130859,0.06135594
1390.67011597,0.06638789
1392.59892334,0.06502780
1394.52773071,0.06095235
1396.45653809,0.06401050
1398.38534546,0.06379884
1400.31415283,0.06311451
1402.24296021,0.06828752
1404.17176758,0.06473842
1406.10057495,0.06500364
1408.02938232,0.06758640
1409.95818970,0.06502292
1411.88699707,0.06639391
1413.81580444,0.06398954
1415.74461182,0.06514902
1417.67341919,0.05930113
1419.60222656,0.05279250
1421.53103394,0.06059159
1423.45984131,0.05885756
1425.38864868,0.05686736
1427.31745605,0.05775438
1429.24626343,0.05335861
1431.17507080,0.05167103
1433.10387817,0.05251759
1435.03268555,0.04838951
1436.96149292,0.04096394
1438.89030029,0.04588277
1440.81910767,0.04735495
1442.74791504,0.04388041
1444.67672241,0.04567658
1446.60552979,0.04210529
1448.53433716,0.04259589
1450.46314453,0.04399411
1452.39195190,0.04503508
1454.32075928,0.04684111
1456.24956665,0.03923530
1458.17837402,0.04043531
1460.10718140,0.05306823
1462.03598877,0.05705998
1463.96479614,0.05671835
1465.89360352,0.05891746
1467.82241089,0.06700838
1469.75121826,0.07242867
1471.68002563,0.06505392
1473.60883301,0.06818059
1475.53764038,0.07766100
1477.46644775,0.08324907
1479.39525513,0.09147435
1481.32406250,0.09295643
1483.25286987,0.09877113
1485.18167725,0.10228010
1487.11048462,0.10083254
1489.03929199,0.10102904
1490.96809937,0.10136805
1492.89690674,0.11716693
1494.82571411,0.11541337
1496.75452148,0.10406081
1498.68332886,0.11735864
1500.61213623,0.12106176
1502.54094360,0.12921047
1504.46975098,0.12370946
1506.39855835,0.09142856
1508.32736572,0.10927948
1510.25617310,0.12865795
1512.18498047,0.12451463
1514.11378784,0.13449600
1516.04259521,0.12224375
1517.97140259,0.12674917
1519.90020996,0.12351209
1521.82901733,0.10707916
1523.75782471,0.12942272
1525.68663208,0.12802042
1527.61543945,0.12709983
1529.54424683,0.13998839
1531.47305420,0.13510630
1533.40186157,0.12446602
1535.33066895,0.13056919
1537.25947632,0.14031418
1539.18828369,0.10254538
1541.11709106,0.10514300
1543.04589844,0.12625915
1544.97470581,0.12085771
1546.90351318,0.14190912
1548.83232056,0.13334593
1550.76112793,0.13636224
1552.68993530,0.13631222
1554.61874268,0.12379892
1556.54755005,0.13307610
1558.47635742,0.09594289
1560.40516479,0.10051353
1562.33397217,0.14219213
1564.26277954,0.13542826
1566.19158691,0.13834934
1568.12039429,0.13737941
1570.04920166,0.12182843
1571.97800903,0.13904148
1573.90681641,0.14168704
1575.83562378,0.11298490
1577.76443115,0.12598506
1579.69323853,0.14286402
1581.62204590,0.13644508
1583.55085327,0.13936457
1585.47966064,0.13745278
1587.40846802,0.13798440
1589.33727539,0.13691463
1591.26608276,0.13638410
1593.19489014,0.13652410
1595.12369751,0.13474753
1597.05250488,0.13618521
1598.98131226,0.13507569
1600.91011963,0.13547263
1602.83892700,0.13272369
1604.76773437,0.13447475
1606.69654175,0.13263939
1608.62534912,0.13179034
1610.55415649,0.13115922
1612.48296387,0.13141128
1614.41177124,0.13335012
1616.34057861,0.10963427
1618.26938599,0.11690153
1620.19819336,0.13574074
1622.12700073,0.12082160
1624.05580811,0.12062597
1625.98461548,0.12595937
1627.91342285,0.12529981
1629.84223022,0.12417266
1631.77103760,0.13170430
1633.69984497,0.12265245
1635.62865234,0.10148184
1637.55745972,0.11645904
1639.48626709,0.12839168
1641.41507446,0.12544215
1643.34388184,0.12867044
1645.27268921,0.11712718
1647.20149658,0.10312232
1649.13030396,0.12682088
1651.05911133,0.12236295
1652.98791870,0.07989883
1654.91672607,0.10573533
1656.84553345,0.13344887
1658.77434082,0.12773663
1660.70314819,0.13197598
1662.63195557,0.12096609
1664.56076294,0.12678342
1666.48957031,0.13682151
1668.41837769,0.12070630
1670.34718506,0.11719234
1672.27599243,0.13262129
1674.20479980,0.12404472
1676.13360718,0.11877848
1678.06241455,0.13634619
1679.99122192,0.13234720
1681.92002930,0.13136765
1683.84883667,0.10886849
1685.77764404,0.10611693
1687.70645142,0.14502148
1689.63525879,0.12764521
1691.56406616,0.13847160
1693.49287354,0.14345133
1695.42168091,0.10569560
1697.35048828,0.12881696
1699.27929565,0.11581481
1701.20810303,0.10323316
1703.13691040,0.13964340
1705.06571777,0.12966156
1706.99452515,0.12995321
1708.92333252,0.14136624
1710.85213989,0.13625887
1712.78094727,0.13881591
1714.70975464,0.12974283
1716.63856201,0.11697277
1718.56736938,0.11468402
1720.49617676,0.13514070
1722.42498413,0.14086436
1724.35379150,0.13084127
1726.28259888,0.14211209
1728.21140625,0.13208440
1730.14021362,0.13254631
1732.06902100,0.13038902
1733.99782837,0.10032548
1735.92663574,0.12253877
1737.85544312,0.13646770
1739.78425049,0.12155746
1741.71305786,0.13184559
1743.64186523,0.13424128
1745.57067261,0.13418245
1747.49947998,0.13559335
1749.42828735,0.13027039
1751.35709473,0.12472984
1753.28590210,0.13699314
1755.21470947,0.14406176
1757.14351685,0.13180326
1759.07232422,0.14387996
1761.00113159,0.13650474
1762.92993896,0.13093457
1764.85874634,0.14952824
1766.78755371,0.13574657
1768.71636108,0.13625380
1770.64516846,0.13612735
1772.57397583,0.12256062
1774.50278320,0.13574681
1776.43159058,0.14350130
1778.36039795,0.14172843
1780.28920532,0.14008316
1782.21801270,0.14101508
1784.14682007,0.14111210
1786.07562744,0.13817620
1788.00443481,0.14480808
1789.93324219,0.14206716
1791.86204956,0.12900975
1793.79085693,0.13362455
1795.71966431,0.14342132
1797.64847168,0.14157005
1799.57727905,0.13956279
1801.50608643,0.13749760
1803.43489380,0.14121372
1805.36370117,0.14456694
1807.29250854,0.14271688
1809.22131592,0.14301309
1811.15012329,0.13939801
1813.07893066,0.14337157
1815.00773804,0.14419177
1816.93654541,0.14246279
1818.86535278,0.14393426
1820.79416016,0.14317639
1822.72296753,0.14533317
1824.65177490,0.13652827
1826.58058228,0.14053217
1828.50938965,0.14128385
1830.43819702,0.13268191
1832.36700439,0.14361826
1834.29581177,0.14308321
1836.22461914,0.14275762
1838.15342651,0.14242700
1840.08223389,0.14295951
1842.01104126,0.14371008
1843.93984863,0.12818098
1845.86865601,0.13551760
1847.79746338,0.14319576
1849.72627075,0.14001006
1851.65507812,0.14398707
1853.58388550,0.14147004
1855.51269287,0.14255172
1857.44150024,0.14165181
1859.37030762,0.14090414
1861.29911499,0.14194828
1863.22792236,0.14032859
1865.15672974,0.14182907
1867.08553711,0.13748892
1869.01434448,0.13204210
1870.94315186,0.13658249
1872.87195923,0.14167623
1874.80076660,0.13978088
1876.72957397,0.14023431
1878.65838135,0.13981463
1880.58718872,0.13903235
1882.51599609,0.14034462
1884.44480347,0.13816036
1886.37361084,0.13987923
1888.30241821,0.13703987
1890.23122559,0.13445856
1892.16003296,0.13919964
1894.08884033,0.13714622
1896.01764771,0.13662976
1897.94645508,0.13826975
1899.87526245,0.13753548
1901.80406982,0.13788334
1903.73287720,0.13687390
1905.66168457,0.13751870
1907.59049194,0.13647914
1909.51929932,0.13537669
1911.44810669,0.13624901
1913.37691406,0.13648194
1915.30572144,0.13743997
1917.23452881,0.13186321
1919.16333618,0.13179459
1921.09214355,0.13663995
1923.02095093,0.13250679
1924.94975830,0.13476673
1926.87856567,0.13635910
1928.80737305,0.13468698
1930.73618042,0.13619225
1932.66498779,0.13433194
1934.59379517,0.13554308
1936.52260254,0.13471061
1938.45140991,0.13496697
1940.38021729,0.13517734
1942.30902466,0.13108262
1944.23783203,0.13327399
1946.16663940,0.13443503
1948.09544678,0.13414177
1950.02425415,0.13466370
1951.95306152,0.13424559
1953.88186890,0.13443609
1955.81067627,0.13379157
1957.73948364,0.13426784
1959.66829102,0.13390362
1961.59709839,0.13376528
1963.52590576,0.13413900
1965.45471313,0.13304001
1967.38352051,0.13193065
1969.31232788,0.13285632
1971.24113525,0.13381490
1973.16994263,0.13298827
1975.09875000,0.13331136
1977.02755737,0.13282621
1978.95636475,0.13284776
1980.88517212,0.13263053
1982.81397949,0.13204691
1984.74278687,0.13273495
1986.67159424,0.13152584
1988.60040161,0.13178155
1990.52920898,0.13093108
1992.45801636,0.12932357
1994.38682373,0.13101414
1996.31563110,0.13128062
1998.24443848,0.13070366
2000.17324585,0.13074785
2002.10205322,0.13035055
2004.03086060,0.13021940
2005.95966797,0.13001454
2007.88847534,0.12947986
2009.81728271,0.12950894
2011.74609009,0.12924132
2013.67489746,0.12899011
2015.60370483,0.12840725
2017.53251221,0.12727897
2019.46131958,0.12787113
2021.39012695,0.12793785
2023.31893433,0.12753904
2025.24774170,0.12742639
2027.17654907,0.12699783
2029.10535645,0.12683924
2031.03416382,0.12645444
2032.96297119,0.12653488
2034.89177856,0.12601490
2036.82058594,0.12580965
2038.74939331,0.12581870
2040.67820068,0.12505826
2042.60700806,0.12496780
2044.53581543,0.12488841
2046.46462280,0.12474783
2048.39343018,0.12438709
2050.32223755,0.12409990
2052.25104492,0.12390570
2054.17985229,0.12363029
2056.10865967,0.12354124
2058.03746704,0.12326191
2059.96627441,0.12295017
2061.89508179,0.12273097
2063.82388916,0.12227821
2065.75269653,0.12170906
2067.68150391,0.12210289
2069.61031128,0.12191471
2071.53911865,0.12146659
2073.46792603,0.12151264
2075.39673340,0.12106506
2077.32554077,0.12103088
2079.25434814,0.12070946
2081.18315552,0.12054487
2083.11196289,0.12031762
2085.04077026,0.12011417
2086.96957764,0.11994879
2088.89838501,0.11943775
2090.82719238,0.11953943
2092.75599976,0.11902916
2094.68480713,0.11902266
2096.61361450,0.11892955
2098.54242187,0.11852299
2100.47122925,0.11860024
2102.40003662,0.11812907
2104.32884399,0.11813964
2106.25765137,0.11781257
2108.18645874,0.11761135
2110.11526611,0.11769122
2112.04407349,0.11741687
2113.97288086,0.11714070
2115.90168823,0.11690836
2117.83049561,0.11695100
2119.75930298,0.11657410
2121.68811035,0.11660281
2123.61691772,0.11645533
2125.54572510,0.11617142
2127.47453247,0.11623716
2129.40333984,0.11585075
2131.33214722,0.11571200
2133.26095459,0.11568171
2135.18976196,0.11554086
2137.11856934,0.11529683
2139.04737671,0.11530522
2140.97618408,0.11514870
2142.90499146,0.11494020
2144.83379883,0.11488055
2146.76260620,0.11462606
2148.69141357,0.11474677
2150.62022095,0.11451335
2152.54902832,0.11423295
2154.47783569,0.11406508
2156.40664307,0.11405931
2158.33545044,0.11406393
2160.26425781,0.11377364
2162.19306519,0.11371446
2164.12187256,0.11348292
2166.05067993,0.11351946
2167.97948730,0.11332995
2169.90829468,0.11318806
2171.83710205,0.11322518
2173.76590942,0.11297049
2175.69471680,0.11289126
2177.62352417,0.11269686
2179.55233154,0.11276529
2181.48113892,0.11245757
2183.40994629,0.11229508
2185.33875366,0.11233580
2187.26756104,0.11206616
2189.19636841,0.11212298
2191.12517578,0.11185554
2193.05398315,0.11177024
2194.98279053,0.11169238
2196.91159790,0.11152212
2198.84040527,0.11148023
2200.76921265,0.11122900
2202.69802002,0.11113742
2204.62682739,0.11116028
2206.55563477,0.11111209
2208.48444214,0.11092012
2210.41324951,0.11085571
2212.34205688,0.11062977
2214.27086426,0.11051968
2216.19967163,0.11046399
2218.12847900,0.11021379
2220.05728638,0.11014164
2221.98609375,0.10995932
2223.91490112,0.10982948
2225.84370850,0.10966115
2227.77251587,0.10963559
2229.70132324,0.10949650
2231.63013062,0.10925630
2233.55893799,0.10914762
2235.48774536,0.10899378
2237.41655273,0.10885497
2239.34536011,0.10860471
2241.27416748,0.10869225
2243.20297485,0.10841492
2245.13178223,0.10821680
2247.06058960,0.10813487
2248.98939697,0.10786714
2250.91820435,0.10794356
2252.84701172,0.10757320
2254.77581909,0.10760652
2256.70462646,0.10743511
2258.63343384,0.10703558
2260.56224121,0.10706736
2262.49104858,0.10688242
2264.41985596,0.10676190
2266.34866333,0.10657628
2268.27747070,0.10669523
2270.20627808,0.10645458
2272.13508545,0.10635250
2274.06389282,0.10639034
2275.99270020,0.10600993
2277.92150757,0.10605083
2279.85031494,0.10585940
2281.77912231,0.10585302
2283.70792969,0.10571361
2285.63673706,0.10547876
2287.56554443,0.10545549
2289.49435181,0.10511027
2291.42315918,0.10489145
2293.35196655,0.10464099
2295.28077393,0.10440089
2297.20958130,0.10402122
2299.13838867,0.10377352
2301.06719604,0.10342871
2302.99600342,0.10287441
2304.92481079,0.10251545
2306.85361816,0.10197097
2308.78242554,0.10132214
2310.71123291,0.10045183
2312.64004028,0.09947386
2314.56884766,0.09848467
2316.49765503,0.09749560
2318.42646240,0.09619349
2320.35526978,0.09500971
2322.28407715,0.09384455
2324.21288452,0.09240266
2326.14169189,0.09159123
2328.07049927,0.09046641
2329.99930664,0.08927570
2331.92811401,0.08857608
2333.85692139,0.08817435
2335.78572876,0.08776507
2337.71453613,0.08754279
2339.64334351,0.08768767
2341.57215088,0.08782381
2343.50095825,0.08928663
2345.42976562,0.09084444
2347.35857300,0.09440145
2349.28738037,0.09776889
2351.21618774,0.09444305
2353.14499512,0.08980431
2355.07380249,0.08662406
2357.00260986,0.08378556
2358.93141724,0.08231354
2360.86022461,0.08148639
2362.78903198,0.08146901
2364.71783936,0.08175126
2366.64664673,0.08274584
2368.57545410,0.08442333
2370.50426147,0.08650105
2372.43306885,0.08898275
2374.36187622,0.09134831
2376.29068359,0.09358116
2378.21949097,0.09553362
2380.14829834,0.09718021
2382.07710571,0.09823047
2384.00591309,0.09900703
2385.93472046,0.09925427
2387.86352783,0.09924277
2389.79233521,0.09931131
2391.72114258,0.09914958
2393.64994995,0.09911890
2395.57875732,0.09884989
2397.50756470,0.09868693
2399.43637207,0.09869158
2401.36517944,0.09851159
2403.29398682,0.09828441
2405.22279419,0.09831132
2407.15160156,0.09824373
2409.08040894,0.09795292
2411.00921631,0.09801547
2412.93802368,0.09782721
2414.86683105,0.09774341
2416.79563843,0.09763686
2418.72444580,0.09747289
2420.65325317,0.09740882
2422.58206055,0.09709628
2424.51086792,0.09712417
2426.43967529,0.09696928
2428.36848267,0.09691240
2430.29729004,0.09681177
2432.22609741,0.09654342
2434.15490479,0.09653604
2436.08371216,0.09638368
2438.01251953,0.09632115
2439.94132690,0.09611052
2441.87013428,0.09599501
2443.79894165,0.09593375
2445.72774902,0.09582029
2447.65655640,0.09569368
2449.58536377,0.09563079
2451.51417114,0.09559842
2453.44297852,0.09521968
2455.37178589,0.09526092
2457.30059326,0.09519634
2459.22940063,0.09492347
2461.15820801,0.09480788
2463.08701538,0.09477138
2465.01582275,0.09480017
2466.94463013,0.09451330
2468.87343750,0.09445390
2470.80224487,0.09428452
2472.73105225,0.09416075
2474.65985962,0.09409554
2476.58866699,0.09387589
2478.51747437,0.09387328
2480.44628174,0.09374064
2482.37508911,0.09357940
2484.30389648,0.09333710
2486.23270386,0.09338588
2488.16151123,0.09334105
2490.09031860,0.09315471
2492.01912598,0.09316331
2493.94793335,0.09290436
2495.87674072,0.09280117
2497.80554810,0.09271693
2499.73435547,0.09271510
2501.66316284,0.09261477
2503.59197021,0.09239495
2505.52077759,0.09229499
2507.44958496,0.09216769
2509.37839233,0.09212082
2511.30719971,0.09190320
2513.23600708,0.09188076
2515.16481445,0.09176118
2517.09362183,0.09158815
2519.02242920,0.09153386
2520.95123657,0.09139310
2522.88004395,0.09140974
2524.80885132,0.09118780
2526.73765869,0.09106767
2528.66646606,0.09096096
2530.59527344,0.09089476
2532.52408081,0.09093909
2534.45288818,0.09059222
2536.38169556,0.09038207
2538.31050293,0.09035011
2540.23931030,0.09022158
2542.16811768,0.09012766
2544.09692505,0.09010318
2546.02573242,0.08995728
2547.95453979,0.08983503
2549.88334717,0.08972545
2551.81215454,0.08957647
2553.74096191,0.08946031
2555.66976929,0.08928436
2557.59857666,0.08928603
2559.52738403,0.08913977
2561.45619141,0.08902322
2563.38499878,0.08894262
2565.31380615,0.08880384
2567.24261353,0.08881736
2569.17142090,0.08859357
2571.10022827,0.08844851
2573.02903564,0.08831941
2574.95784302,0.08832002
2576.88665039,0.08833417
2578.81545776,0.08803821
2580.74426514,0.08784693
2582.67307251,0.08777943
2584.60187988,0.08787450
2586.53068726,0.08767146
2588.45949463,0.08746352
2590.38830200,0.08743624
2592.31710937,0.08720581
2594.24591675,0.08716597
2596.17472412,0.08701751
2598.10353149,0.08681948
2600.03233887,0.08683556
2601.96114624,0.08675805
2603.88995361,0.08664784
2605.81876099,0.08652721
2607.74756836,0.08631931
2609.67637573,0.08623759
2611.60518311,0.08615541
2613.53399048,0.08601783
2615.46279785,0.08599132
2617.39160522,0.08582515
2619.32041260,0.08571176
2621.24921997,0.08568433
2623.17802734,0.08550479
2625.10683472,0.08527946
2627.03564209,0.08523124
2628.96444946,0.08513258
2630.89325684,0.08493924
2632.82206421,0.08503307
2634.75087158,0.08495371
2636.67967895,0.08481029
2638.60848633,0.08458561
2640.53729370,0.08434495
2642.46610107,0.08438183
2644.39490845,0.08424199
2646.32371582,0.08415756
2648.25252319,0.08400588
2650.18133057,0.08398297
2652.11013794,0.08391088
2654.03894531,0.08358718
2655.96775269,0.08354602
2657.89656006,0.08351807
2659.82536743,0.08352706
2661.75417480,0.08324741
2663.68298218,0.08304802
2665.61178955,0.08308877
2667.54059692,0.08287518
2669.46940430,0.08273447
2671.39821167,0.08259171
2673.32701904,0.08253732
2675.25582642,0.08242369
2677.18463379,0.08230939
2679.11344116,0.08223557
2681.04224854,0.08209781
2682.97105591,0.08197949
2684.89986328,0.08185485
2686.82867065,0.08192049
2688.75747803,0.08171391
2690.68628540,0.08145905
2692.61509277,0.08143604
2694.54390015,0.08134121
2696.47270752,0.08116266
2698.40151489,0.08102576
2700.33032227,0.08101875
2702.25912964,0.08086351
2704.18793701,0.08077472
2706.11674438,0.08065715
2708.04555176,0.08045964
2709.97435913,0.08033130
2711.90316650,0.08032620
2713.83197388,0.08024895
2715.76078125,0.07990825
2717.68958862,0.07999562
2719.61839600,0.07992470
2721.54720337,0.07961996
2723.47601074,0.07956645
2725.40481812,0.07941955
2727.33362549,0.07940441
2729.26243286,0.07926488
2731.19124023,0.07905134
2733.12004761,0.07897802
2735.04885498,0.07889290
2736.97766235,0.07870637
2738.90646973,0.07855001
2740.83527710,0.07846737
2742.76408447,0.07828790
2744.69289185,0.07827771
2746.62169922,0.07822870
2748.55050659,0.07806732
2750.47931396,0.07784132
2752.40812134,0.07772403
2754.33692871,0.07779677
2756.26573608,0.07762241
2758.19454346,0.07746720
2760.12335083,0.07731610
2762.05215820,0.07715820
2763.98096558,0.07714054
2765.90977295,0.07698477
2767.83858032,0.07682936
2769.76738770,0.07679650
2771.69619507,0.07661547
2773.62500244,0.07639749
2775.55380981,0.07634711
2777.48261719,0.07618912
2779.41142456,0.07599083
2781.34023193,0.07587697
2783.26903931,0.07584216
2785.19784668,0.07571022
2787.12665405,0.07554226
2789.05546143,0.07547709
2790.98426880,0.07522067
2792.91307617,0.07511307
2794.84188354,0.07503076
2796.77069092,0.07489543
2798.69949829,0.07485266
2800.62830566,0.07461794
2802.55711304,0.07444791
2804.48592041,0.07437872
2806.41472778,0.07431374
2808.34353516,0.07413421
2810.27234253,0.07395710
2812.20114990,0.07379796
2814.12995728,0.07358396
2816.05876465,0.07354182
2817.98757202,0.07344915
2819.91637939,0.07326546
2821.84518677,0.07302975
2823.77399414,0.07287470
2825.70280151,0.07279539
2827.63160889,0.07266700
2829.56041626,0.07257853
2831.48922363,0.07244377
2833.41803101,0.07225670
2835.34683838,0.07208317
2837.27564575,0.07189952
2839.20445312,0.07160744
2841.13326050,0.07148590
2843.06206787,0.07127091
2844.99087524,0.07090935
2846.91968262,0.07056136
2848.84848999,0.07001932
2850.77729736,0.06988369
2852.70610474,0.06974902
2854.63491211,0.06959540
2856.56371948,0.06969912
2858.49252686,0.06955556
2860.42133423,0.06942265
2862.35014160,0.06932460
2864.27894897,0.06934294
2866.20775635,0.06927496
2868.13656372,0.06908971
2870.06537109,0.06890117
2871.99417847,0.06872660
2873.92298584,0.06870169
2875.85179321,0.06855115
2877.78060059,0.06851877
2879.70940796,0.06836949
2881.63821533,0.06823160
2883.56702270,0.06822797
2885.49583008,0.06798507
2887.42463745,0.06781995
2889.35344482,0.06771450
2891.28225220,0.06768145
2893.21105957,0.06748848
2895.13986694,0.06724739
2897.06867432,0.06710389
2898.99748169,0.06690889
2900.92628906,0.06679416
2902.85509644,0.06654981
2904.78390381,0.06628677
2906.71271118,0.06602921
2908.64151855,0.06589776
2910.57032593,0.06571817
2912.49913330,0.06532458
2914.42794067,0.06501277
2916.35674805,0.06464465
2918.28555542,0.06444053
2920.21436279,0.06437090
2922.14317017,0.06425194
2924.07197754,0.06408927
2926.00078491,0.06397818
2927.92959229,0.06402341
2929.85839966,0.06391099
2931.78720703,0.06379347
2933.71601440,0.06381716
2935.64482178,0.06374341
2937.57362915,0.06369003
2939.50243652,0.06374605
2941.43124390,0.06366315
2943.36005127,0.06355003
2945.28885864,0.06350765
2947.21766602,0.06344612
2949.14647339,0.06331541
2951.07528076,0.06315188
2953.00408813,0.06304230
2954.93289551,0.06271152
2956.86170288,0.06251504
2958.79051025,0.06242029
2960.71931763,0.06218275
2962.64812500,0.06206092
2964.57693237,0.06186545
2966.50573975,0.06181538
2968.43454712,0.06172580
2970.36335449,0.06163733
2972.29216187,0.06174295
2974.22096924,0.06179419
2976.14977661,0.06182064
2978.07858398,0.06169663
2980.00739136,0.06167559
2981.93619873,0.06161948
2983.86500610,0.06151302
2985.79381348,0.06157281
2987.72262085,0.06159955
2989.65142822,0.06143648
2991.58023560,0.06114872
2993.50904297,0.06098911
2995.43785034,0.06081791
2997.36665771,0.06079236
2999.29546509,0.06062337
3001.22427246,0.06042970
3003.15307983,0.06044593
3005.08188721,0.06018006
3007.01069458,0.06005473
3008.93950195,0.05996531
3010.86830933,0.05972099
3012.79711670,0.05941531
3014.72592407,0.05931224
3016.65473145,0.05928811
3018.58353882,0.05902045
3020.51234619,0.05900373
3022.44115356,0.05880940
3024.36996094,0.05858392
3026.29876831,0.05848137
3028.22757568,0.05827636
3030.15638306,0.05804864
3032.08519043,0.05778697
3034.01399780,0.05786576
3035.94280518,0.05769519
3037.87161255,0.05749443
3039.80041992,0.05735030
3041.72922729,0.05707729
3043.65803467,0.05711142
3045.58684204,0.05682364
3047.51564941,0.05663447
3049.44445679,0.05654074
3051.37326416,0.05628833
3053.30207153,0.05634312
3055.23087891,0.05608950
3057.15968628,0.05577627
3059.08849365,0.05571654
3061.01730103,0.05550080
3062.94610840,0.05532169
3064.87491577,0.05510655
3066.80372314,0.05488876
3068.73253052,0.05484001
3070.66133789,0.05468947
3072.59014526,0.05460759
3074.51895264,0.05451808
3076.44776001,0.05422679
3078.37656738,0.05397973
3080.30537476,0.05378295
3082.23418213,0.05364354
3084.16298950,0.05352902
3086.09179687,0.05339229
3088.02060425,0.05311710
3089.94941162,0.05292150
3091.87821899,0.05280504
3093.80702637,0.05253515
3095.73583374,0.05232894
3097.66464111,0.05218259
3099.59344849,0.05202121
3101.52225586,0.05169727
3103.45106323,0.05168566
3105.37987061,0.05163077
3107.30867798,0.05120342
3109.23748535,0.05109224
3111.16629272,0.05087381
3113.09510010,0.05070933
3115.02390747,0.05043408
3116.95271484,0.05013952
3118.88152222,0.05001224
3120.81032959,0.04967275
3122.73913696,0.04965390
3124.66794434,0.04942431
3126.59675171,0.04920120
3128.52555908,0.04913155
3130.45436645,0.04882381
3132.38317383,0.04856092
3134.31198120,0.04832729
3136.24078857,0.04824876
3138.16959595,0.04793396
3140.09840332,0.04771020
3142.02721069,0.04756927
3143.95601807,0.04735570
3145.88482544,0.04715613
3147.81363281,0.04679547
3149.74244019,0.04666664
3151.67124756,0.04639306
3153.60005493,0.04618160
3155.52886230,0.04600235
3157.45766968,0.04573740
3159.38647705,0.04560453
3161.31528442,0.04535488
3163.24409180,0.04518167
3165.17289917,0.04497461
3167.10170654,0.04476154
3169.03051392,0.04440095
3170.95932129,0.04421637
3172.88812866,0.04411342
3174.81693604,0.04382150
3176.74574341,0.04363561
3178.67455078,0.04341307
3180.60335815,0.04336756
3182.53216553,0.04303399
3184.46097290,0.04277797
3186.38978027,0.04261252
3188.31858765,0.04240227
3190.24739502,0.04236594
3192.17620239,0.04194331
3194.10500977,0.04192105
3196.03381714,0.04172592
3197.96262451,0.04137413
3199.89143188,0.04131912
3201.82023926,0.04107673
3203.74904663,0.04100527
3205.67785400,0.04071369
3207.60666138,0.04059318
3209.53546875,0.04054016
3211.46427612,0.04031577
3213.39308350,0.04008908
3215.32189087,0.03995136
3217.25069824,0.03996037
3219.17950562,0.03962712
3221.10831299,0.03960473
3223.03712036,0.03952175
3224.96592773,0.03925836
3226.89473511,0.03922613
3228.82354248,0.03905669
3230.75234985,0.03892988
3232.68115723,0.03874153
3234.60996460,0.03862427
3236.53877197,0.03857076
3238.46757935,0.03845175
3240.39638672,0.03826863
3242.32519409,0.03830994
3244.25400146,0.03826418
3246.18280884,0.03793262
3248.11161621,0.03793437
3250.04042358,0.03793052
3251.96923096,0.03794478
3253.89803833,0.03776041
3255.82684570,0.03757120
3257.75565308,0.03758899
3259.68446045,0.03743364
3261.61326782,0.03743446
3263.54207520,0.03733747
3265.47088257,0.03722984
3267.39968994,0.03720257
3269.32849731,0.03722204
3271.25730469,0.03704726
3273.18611206,0.03687678
3275.11491943,0.03695206
3277.04372681,0.03671670
3278.97253418,0.03674307
3280.90134155,0.03681461
3282.83014893,0.03670059
3284.75895630,0.03664377
3286.68776367,0.03659154
3288.61657104,0.03650196
3290.54537842,0.03627707
3292.47418579,0.03633588
3294.40299316,0.03630181
3296.33180054,0.03624837
3298.26060791,0.03615405
3300.18941528,0.03600506
3302.11822266,0.03599441
3304.04703003,0.03584708
3305.97583740,0.03586007
3307.90464478,0.03572128
3309.83345215,0.03570188
3311.76225952,0.03578477
3313.69106689,0.03561418
3315.61987427,0.03551528
3317.54868164,0.03550608
3319.47748901,0.03552878
3321.40629639,0.03540293
3323.33510376,0.03531696
3325.26391113,0.03514879
3327.19271851,0.03506317
3329.12152588,0.03502022
3331.05033325,0.03496488
3332.97914062,0.03498529
3334.90794800,0.03482853
3336.83675537,0.03486549
3338.76556274,0.03473761
3340.69437012,0.03464483
3342.62317749,0.03461654
3344.55198486,0.03451656
3346.48079224,0.03453778
3348.40959961,0.03435145
3350.33840698,0.03434088
3352.26721436,0.03428130
3354.19602173,0.03421105
3356.12482910,0.03412562
3358.05363647,0.03404877
3359.98244385,0.03408178
3361.91125122,0.03392383
3363.84005859,0.03391284
3365.76886597,0.03389029
3367.69767334,0.03381428
3369.62648071,0.03364800
3371.55528809,0.03367454
3373.48409546,0.03369693
3375.41290283,0.03363371
3377.34171020,0.03372269
3379.27051758,0.03360642
3381.19932495,0.03371900
3383.12813232,0.03354806
3385.05693970,0.03336165
3386.98574707,0.03340181
3388.91455444,0.03334491
3390.84336182,0.03329045
3392.77216919,0.03308725
3394.70097656,0.03322338
3396.62978394,0.03309951
3398.55859131,0.03307701
3400.48739868,0.03314343
3402.41620605,0.03307503
3404.34501343,0.03322022
3406.27382080,0.03307210
3408.20262817,0.03313671
3410.13143555,0.03305517
3412.06024292,0.03305244
3413.98905029,0.03309989
3415.91785767,0.03304171
3417.84666504,0.03310072
3419.77547241,0.03288737
3421.70427979,0.03295096
3423.63308716,0.03300557
3425.56189453,0.03305715
3427.49070190,0.03296712
3429.41950928,0.03301491
3431.34831665,0.03302127
3433.27712402,0.03289175
3435.20593140,0.03312340
3437.13473877,0.03282839
3439.06354614,0.03303562
3440.99235352,0.03306336
3442.92116089,0.03288848
3444.84996826,0.03311419
3446.77877563,0.03260217
3448.70758301,0.03277360
3450.63639038,0.03316825
3452.56519775,0.03310072
3454.49400513,0.03310321
3456.42281250,0.03313684
3458.35161987,0.03313555
3460.28042725,0.03307855
3462.20923462,0.03316589
3464.13804199,0.03313110
3466.06684937,0.03318672
3467.99565674,0.03311847
3469.92446411,0.03325020
3471.85327148,0.03336768
3473.78207886,0.03324063
3475.71088623,0.03332162
3477.63969360,0.03349398
3479.56850098,0.03360595
3481.49730835,0.03318740
3483.42611572,0.03333998
3485.35492310,0.03356984
3487.28373047,0.03342037
3489.21253784,0.03355190
3491.14134521,0.03361820
3493.07015259,0.03389420
3494.99895996,0.03377626
3496.92776733,0.03371197
3498.85657471,0.03385925
3500.78538208,0.03384772
3502.71418945,0.03345953
3504.64299683,0.03345281
3506.57180420,0.03423971
3508.50061157,0.03392678
3510.42941895,0.03379833
3512.35822632,0.03413882
3514.28703369,0.03421964
3516.21584106,0.03434078
3518.14464844,0.03426585
3520.07345581,0.03451136
3522.00226318,0.03413588
3523.93107056,0.03376265
3525.85987793,0.03397554
3527.78868530,0.03401300
3529.71749268,0.03422915
3531.64630005,0.03460327
3533.57510742,0.03471458
3535.50391479,0.03456907
3537.43272217,0.03458986
3539.36152954,0.03481530
3541.29033691,0.03500143
3543.21914429,0.03471194
3545.14795166,0.03408666
3547.07675903,0.03375736
3549.00556641,0.03470460
3550.93437378,0.03501425
3552.86318115,0.03430493
3554.79198853,0.03508779
3556.72079590,0.03520126
3558.64960327,0.03508343
3560.57841064,0.03507189
3562.50721802,0.03488322
3564.43602539,0.03522565
3566.36483276,0.03320412
3568.29364014,0.03239617
3570.22244751,0.03487014
3572.15125488,0.03578207
3574.08006226,0.03526823
3576.00886963,0.03554692
3577.93767700,0.03555521
3579.86648437,0.03544654
3581.79529175,0.03559729
3583.72409912,0.03572099
3585.65290649,0.03506469
3587.58171387,0.03245527
3589.51052124,0.03340857
3591.43932861,0.03614097
3593.36813599,0.03520343
3595.29694336,0.03472958
3597.22575073,0.03534438
3599.15455811,0.03571472
3601.08336548,0.03540063
3603.01217285,0.03565374
3604.94098022,0.03634555
3606.86978760,0.03534815
3608.79859497,0.03345116
3610.72740234,0.03402712
3612.65620972,0.03495974
3614.58501709,0.03403810
3616.51382446,0.03624114
3618.44263184,0.03389011
3620.37143921,0.03273674
3622.30024658,0.03664685
3624.22905395,0.03573716
3626.15786133,0.03734974
3628.08666870,0.03222220
3630.01547607,0.02935759
3631.94428345,0.03649767
3633.87309082,0.03576127
3635.80189819,0.03620813
3637.73070557,0.03700501
3639.65951294,0.03648704
3641.58832031,0.03700753
3643.51712769,0.03655779
3645.44593506,0.03689943
3647.37474243,0.03348416
3649.30354980,0.03091121
3651.23235718,0.03125883
3653.16116455,0.03660023
3655.08997192,0.03643846
3657.01877930,0.03286962
3658.94758667,0.03752407
3660.87639404,0.03692584
3662.80520142,0.03730561
3664.73400879,0.03732586
3666.66281616,0.03692293
3668.59162354,0.03617571
3670.52043091,0.02988036
3672.44923828,0.03563519
3674.37804565,0.03444013
3676.30685303,0.02862926
3678.23566040,0.03553865
3680.16446777,0.03645759
3682.09327515,0.03649181
3684.02208252,0.03761270
3685.95088989,0.03693030
3687.87969727,0.03357486
3689.80850464,0.03090414
3691.73731201,0.03504719
3693.66611938,0.03602264
3695.59492676,0.03680883
3697.52373413,0.03691538
3699.45254150,0.03643869
3701.38134888,0.03582840
3703.31015625,0.03451426
3705.23896362,0.03756091
3707.16777100,0.03595165
3709.09657837,0.03510613
3711.02538574,0.03329533
3712.95419312,0.03126932
3714.88300049,0.03623632
3716.81180786,0.03578490
3718.74061523,0.03602641
3720.66942261,0.03541157
3722.59822998,0.03420772
3724.52703735,0.03542352
3726.45584473,0.03302440
3728.38465210,0.03554141
3730.31345947,0.03527666
3732.24226685,0.03254765
3734.17107422,0.03184728
3736.09988159,0.03045080
3738.02868896,0.03201972
3739.95749634,0.03450330
3741.88630371,0.03607020
3743.81511108,0.02851055
3745.74391846,0.02689735
3747.67272583,0.03440008
3749.60153320,0.02999173
3751.53034058,0.02759086
3753.45914795,0.03140556
3755.38795532,0.03368456
3757.31676270,0.03502180
3759.24557007,0.03249934
3761.17437744,0.03345793
3763.10318481,0.03558006
3765.03199219,0.03332992
3766.96079956,0.03394607
3768.88960693,0.03358664
3770.81841431,0.03211242
3772.74722168,0.03463940
3774.67602905,0.03470871
3776.60483643,0.03467607
3778.53364380,0.03386627
3780.46245117,0.03266281
3782.39125854,0.03453869
3784.32006592,0.03384101
3786.24887329,0.03363938
3788.17768066,0.03427264
3790.10648804,0.03419650
3792.03529541,0.03385357
3793.96410278,0.03438269
3795.89291016,0.03264325
3797.82171753,0.03217473
3799.75052490,0.03380740
3801.67933228,0.02725053
3803.60813965,0.03136012
3805.53694702,0.03405389
3807.46575439,0.02813200
3809.39456177,0.03346111
3811.32336914,0.03295572
3813.25217651,0.03400880
3815.18098389,0.03105478
3817.10979126,0.02735727
3819.03859863,0.03396136
3820.96740601,0.02811762
3822.89621338,0.02923909
3824.82502075,0.03379816
3826.75382812,0.03092528
3828.68263550,0.03306290
3830.61144287,0.03179830
3832.54025024,0.03075346
3834.46905762,0.03138886
3836.39786499,0.02995747
3838.32667236,0.02723820
3840.25547974,0.02932214
3842.18428711,0.03150282
3844.11309448,0.03008683
3846.04190186,0.03244383
3847.97070923,0.03201465
3849.89951660,0.03196514
3851.82832397,0.02901495
3853.75713135,0.02221374
3855.68593872,0.02582192
3857.61474609,0.03194276
3859.54355347,0.03130183
3861.47236084,0.03090976
3863.40116821,0.03032440
3865.32997559,0.02828106
3867.25878296,0.03121650
3869.18759033,0.02889358
3871.11639770,0.02682605
3873.04520508,0.03135960
3874.97401245,0.02904252
3876.90281982,0.03117818
3878.83162720,0.03178587
3880.76043457,0.02752192
3882.68924194,0.03131957
3884.61804932,0.02942900
3886.54685669,0.02715546
3888.47566406,0.03129847
3890.40447144,0.02982536
3892.33327881,0.02814594
3894.26208618,0.03054607
3896.19089355,0.03115249
3898.11970093,0.02966974
3900.04850830,0.02813065
3901.97731567,0.02790236
3903.90612305,0.02770596
3905.83493042,0.02810739
3907.76373779,0.03045995
3909.69254517,0.03045240
3911.62135254,0.03011355
3913.55015991,0.03063920
3915.47896728,0.02966614
3917.40777466,0.02889532
3919.33658203,0.02874954
3921.26538940,0.02970199
3923.19419678,0.02957502
3925.12300415,0.02904299
3927.05181152,0.02952049
3928.98061890,0.02966438
3930.90942627,0.02910862
3932.83823364,0.02829929
3934.76704102,0.02936473
3936.69584839,0.02964167
3938.62465576,0.02943979
3940.55346313,0.02968066
3942.48227051,0.02859471
3944.41107788,0.02884408
3946.33988525,0.02928552
3948.26869263,0.02868020
3950.19750000,0.02863456
3952.12630737,0.02900243
3954.05511475,0.02908111
3955.98392212,0.02896639
3957.91272949,0.02894921
3959.84153687,0.02889258
3961.77034424,0.02866354
3963.69915161,0.02848538
3965.62795898,0.02879157
3967.55676636,0.02869387
3969.48557373,0.02858444
3971.41438110,0.02858298
3973.34318848,0.02843925
3975.27199585,0.02844758
3977.20080322,0.02830154
3979.12961060,0.02840341
3981.05841797,0.02821316
3982.98722534,0.02813904
3984.91603271,0.02816147
3986.84484009,0.02813298
3988.77364746,0.02814859
3990.70245483,0.02791000
3992.63126221,0.02804326
3994.56006958,0.02787003
3996.48887695,0.02783220
3998.41768433,0.02789386
4000.34649170,0.02776700
4002.27529907,0.02770657
4004.20410645,0.02759953
4006.13291382,0.02764533
4008.06172119,0.02737246
4009.99052856,0.02748438
4011.91933594,0.02749323
4013.84814331,0.02730455
4015.77695068,0.02732028
4017.70575806,0.02715767
4019.63456543,0.02717516
4021.56337280,0.02711143
4023.49218018,0.02718250
4025.42098755,0.02711741
4027.34979492,0.02701161
4029.27860229,0.02699399
4031.20740967,0.02698452
4033.13621704,0.02689598
4035.06502441,0.02672871
4036.99383179,0.02688235
4038.92263916,0.02671267
4040.85144653,0.02670874
4042.78025391,0.02661699
4044.70906128,0.02648075
4046.63786865,0.02654674
4048.56667603,0.02636435
4050.49548340,0.02643821
4052.42429077,0.02631233
4054.35309814,0.02630422
4056.28190552,0.02627739
4058.21071289,0.02621469
4060.13952026,0.02617205
4062.06832764,0.02599932
4063.99713501,0.02611946
4065.92594238,0.02600607
4067.85474976,0.02596779
4069.78355713,0.02591593
4071.71236450,0.02587142
4073.64117187,0.02577491
4075.56997925,0.02573962
4077.49878662,0.02580528
4079.42759399,0.02557865
4081.35640137,0.02555944
4083.28520874,0.02535830
4085.21401611,0.02543189
4087.14282349,0.02543428
4089.07163086,0.02529572
4091.00043823,0.02539751
4092.92924561,0.02523588
4094.85805298,0.02527619
4096.78686035,0.02516403
4098.71566772,0.02512373
4100.64447510,0.02503953
4102.57328247,0.02507004
4104.50208984,0.02503110
4106.43089722,0.02482367
4108.35970459,0.02500290
4110.28851196,0.02474631
4112.21731934,0.02474580
4114.14612671,0.02462193
4116.07493408,0.02457184
4118.00374145,0.02472279
4119.93254883,0.02439751
4121.86135620,0.02453392
4123.79016357,0.02449088
4125.71897095,0.02437131
4127.64777832,0.02434079
4129.57658569,0.02435570
4131.50539307,0.02429785
4133.43420044,0.02421433
4135.36300781,0.02427417
4137.29181519,0.02402514
4139.22062256,0.02415898
4141.14942993,0.02405204
4143.07823730,0.02396639
4145.00704468,0.02398981
4146.93585205,0.02381918
4148.86465942,0.02390852
4150.79346680,0.02377722
4152.72227417,0.02387871
4154.65108154,0.02370549
4156.57988892,0.02350783
4158.50869629,0.02355615
4160.43750366,0.02355537
4162.36631103,0.02358464
4164.29511841,0.02337710
4166.22392578,0.02346881
4168.15273315,0.02334603
4170.08154053,0.02329182
4172.01034790,0.02328529
4173.93915527,0.02315717
4175.86796265,0.02324926
4177.79677002,0.02306598
4179.72557739,0.02309056
4181.65438477,0.02299618
4183.58319214,0.02293216
4185.51199951,0.02298120
4187.44080688,0.02277165
4189.36961426,0.02280970
4191.29842163,0.02281744
4193.22722900,0.02274634
4195.15603638,0.02268954
4197.08484375,0.02261291
4199.01365112,0.02259312
4200.94245850,0.02254732
4202.87126587,0.02243382
4204.80007324,0.02243462
4206.72888062,0.02238339
4208.65768799,0.02229194
4210.58649536,0.02231044
4212.51530273,0.02218733
4214.44411011,0.02219007
4216.37291748,0.02217759
4218.30172485,0.02218017
4220.23053223,0.02213396
4222.15933960,0.02198037
4224.08814697,0.02195350
4226.01695435,0.02188170
4227.94576172,0.02189476
4229.87456909,0.02176856
4231.80337646,0.02181157
4233.73218384,0.02182773
4235.66099121,0.02167199
4237.58979858,0.02173153
4239.51860596,0.02162261
4241.44741333,0.02161400
4243.37622070,0.02152948
4245.30502808,0.02140210
4247.23383545,0.02143933
4249.16264282,0.02140357
4251.09145020,0.02137200
4253.02025757,0.02132819
4254.94906494,0.02127850
4256.87787231,0.02118219
4258.80667969,0.02112645
4260.73548706,0.02112805
4262.66429443,0.02123487
4264.59310181,0.02109829
4266.52190918,0.02097423
4268.45071655,0.02100101
4270.37952393,0.02082326
4272.30833130,0.02090419
4274.23713867,0.02091189
4276.16594604,0.02082680
4278.09475342,0.02078936
4280.02356079,0.02075562
4281.95236816,0.02064627
4283.88117554,0.02054663
4285.80998291,0.02064783
4287.73879028,0.02051133
4289.66759766,0.02055930
4291.59640503,0.02048240
4293.52521240,0.02039744
4295.45401978,0.02042131
4297.38282715,0.02025571
4299.31163452,0.02031713
4301.24044189,0.02015573
4303.16924927,0.02018683
4305.09805664,0.02018798
4307.02686401,0.02011429
4308.95567139,0.02009526
4310.88447876,0.01988570
4312.81328613,0.02005223
4314.74209351,0.01997919
4316.67090088,0.01984435
4318.59970825,0.01986125
4320.52851562,0.01984056
4322.45732300,0.01977099
4324.38613037,0.01966392
4326.31493774,0.01970466
4328.24374512,0.01964464
4330.17255249,0.01968786
4332.10135986,0.01961059
4334.03016724,0.01958508
4335.95897461,0.01953903
4337.88778198,0.01946644
4339.81658936,0.01949082
4341.74539673,0.01935039
4343.67420410,0.01937046
4345.60301147,0.01922256
4347.53181885,0.01922105
4349.46062622,0.01911403
4351.38943359,0.01902239
4353.31824097,0.01921668
4355.24704834,0.01907650
4357.17585571,0.01909456
4359.10466309,0.01896035
4361.03347046,0.01896113
4362.96227783,0.01904320
4364.89108520,0.01882934
4366.81989258,0.01881433
4368.74869995,0.01882054
4370.67750732,0.01876996
4372.60631470,0.01866859
4374.53512207,0.01873934
4376.46392944,0.01865189
4378.39273682,0.01856587
4380.32154419,0.01855687
4382.25035156,0.01852575
4384.17915894,0.01858362
4386.10796631,0.01839763
4388.03677368,0.01846399
4389.96558105,0.01837933
4391.89438843,0.01831521
4393.82319580,0.01839281
4395.75200317,0.01825480
4397.68081055,0.01830093
4399.60961792,0.01821584
4401.53842529,0.01819901
4403.46723267,0.01811922
4405.39604004,0.01810414
4407.32484741,0.01809349
4409.25365478,0.01793912
4411.18246216,0.01802992
4413.11126953,0.01795167
4415.04007690,0.01788489
4416.96888428,0.01782775
4418.89769165,0.01781495
4420.82649902,0.01779014
4422.75530640,0.01765226
4424.68411377,0.01764644
4426.61292114,0.01761331
4428.54172852,0.01759908
4430.47053589,0.01752643
4432.39934326,0.01752909
4434.32815063,0.01752235
4436.25695801,0.01747198
4438.18576538,0.01742480
4440.11457275,0.01735984
4442.04338013,0.01732478
4443.97218750,0.01725628
4445.90099487,0.01732547
4447.82980225,0.01723257
4449.75860962,0.01719386
4451.68741699,0.01718719
4453.61622437,0.01706919
4455.54503174,0.01708915
4457.47383911,0.01701494
4459.40264648,0.01698779
4461.33145386,0.01699971
4463.26026123,0.01699341
4465.18906860,0.01690792
4467.11787598,0.01689507
4469.04668335,0.01684003
4470.97549072,0.01674148
4472.90429810,0.01680774
4474.83310547,0.01668447
4476.76191284,0.01667354
4478.69072021,0.01660558
4480.61952759,0.01653268
4482.54833496,0.01658004
4484.47714233,0.01648466
4486.40594971,0.01648802
4488.33475708,0.01649099
4490.26356445,0.01643667
4492.19237183,0.01632516
4494.12117920,0.01637783
4496.04998657,0.01630404
4497.97879395,0.01619560
4499.90760132,0.01620983
4501.83640869,0.01610199
4503.76521606,0.01619618
4505.69402344,0.01614008
4507.62283081,0.01605646
4509.55163818,0.01601113
4511.48044556,0.01604101
4513.40925293,0.01604736
4515.33806030,0.01591125
4517.26686768,0.01596812
4519.19567505,0.01585315
4521.12448242,0.01588727
4523.05328979,0.01581282
4524.98209717,0.01576557
4526.91090454,0.01584031
4528.83971191,0.01564636
4530.76851929,0.01570793
4532.69732666,0.01565784
4534.62613403,0.01567743
4536.55494141,0.01558131
4538.48374878,0.01541916
4540.41255615,0.01551089
4542.34136353,0.01545651
4544.27017090,0.01545291
4546.19897827,0.01534080
4548.12778564,0.01539840
4550.05659302,0.01537841
4551.98540039,0.01527028
4553.91420776,0.01528421
4555.84301514,0.01517777
4557.77182251,0.01522006
4559.70062988,0.01512379
4561.62943726,0.01510992
4563.55824463,0.01512706
4565.48705200,0.01502982
4567.41585937,0.01500094
4569.34466675,0.01498865
4571.27347412,0.01498443
4573.20228149,0.01485889
4575.13108887,0.01488844
4577.05989624,0.01492576
4578.98870361,0.01485855
4580.91751099,0.01476664
4582.84631836,0.01479901
4584.77512573,0.01475989
4586.70393311,0.01457429
4588.63274048,0.01465800
4590.56154785,0.01459788
4592.49035522,0.01457975
4594.41916260,0.01460037
4596.34796997,0.01450449
4598.27677734,0.01448841
4600.20558472,0.01445144
4602.13439209,0.01448130
4604.06319946,0.01435453
4605.99200684,0.01432589
4607.92081421,0.01434080
4609.84962158,0.01422574
4611.77842895,0.01420890
4613.70723633,0.01420163
4615.63604370,0.01416516
4617.56485107,0.01412150
4619.49365845,0.01417734
4621.42246582,0.01413776
4623.35127319,0.01405102
4625.28008057,0.01398411
4627.20888794,0.01396658
4629.13769531,0.01396439
4631.06650269,0.01391221
4632.99531006,0.01396111
4634.92411743,0.01388313
4636.85292480,0.01385169
4638.78173218,0.01380521
4640.71053955,0.01372916
4642.63934692,0.01376010
4644.56815430,0.01374702
4646.49696167,0.01371373
4648.42576904,0.01361452
4650.35457642,0.01366745
4652.28338379,0.01361783
4654.21219116,0.01350350
4656.14099853,0.01346883
4658.06980591,0.01341002
4659.99861328,0.01345661
4661.92742065,0.01340705
4663.85622803,0.01343401
4665.78503540,0.01343636
4667.71384277,0.01334180
4669.64265015,0.01329674
4671.57145752,0.01329019
4673.50026489,0.01326382
4675.42907227,0.01322948
4677.35787964,0.01330539
4679.28668701,0.01321934
4681.21549438,0.01319444
4683.14430176,0.01314956
4685.07310913,0.01306986
4687.00191650,0.01312002
4688.93072388,0.01307915
4690.85953125,0.01306417
4692.78833862,0.01294957
4694.71714600,0.01295887
4696.64595337,0.01292939
4698.57476074,0.01284666
4700.50356812,0.01291950
4702.43237549,0.01285569
4704.36118286,0.01285034
4706.28999023,0.01278536
4708.21879761,0.01273238
4710.14760498,0.01271363
4712.07641235,0.01273100
4714.00521973,0.01273353
4715.93402710,0.01257348
4717.86283447,0.01262695
4719.79164185,0.01263440
4721.72044922,0.01262441
4723.64925659,0.01257745
4725.57806396,0.01240645
4727.50687134,0.01247296
4729.43567871,0.01247304
4731.36448608,0.01237483
4733.29329346,0.01235760
4735.22210083,0.01237072
4737.15090820,0.01238208
4739.07971558,0.01234047
4741.00852295,0.01228542
4742.93733032,0.01224971
4744.86613770,0.01223886
4746.79494507,0.01224130
4748.72375244,0.01219711
4750.65255981,0.01215519
4752.58136719,0.01213793
4754.51017456,0.01205506
4756.43898193,0.01207261
4758.36778931,0.01201646
4760.29659668,0.01194614
4762.22540405,0.01206276
4764.15421143,0.01198248
4766.08301880,0.01194010
4768.01182617,0.01196193
4769.94063354,0.01183250
4771.86944092,0.01178693
4773.79824829,0.01180117
4775.72705566,0.01181647
4777.65586304,0.01175921
4779.58467041,0.01171416
4781.51347778,0.01173813
4783.44228516,0.01169494
4785.37109253,0.01170025
4787.29989990,0.01166026
4789.22870728,0.01159591
4791.15751465,0.01167341
4793.08632202,0.01155381
4795.01512939,0.01148087
4796.94393677,0.01158529
4798.87274414,0.01150871
4800.80155151,0.01147143
4802.73035889,0.01142517
4804.65916626,0.01141617
4806.58797363,0.01140535
4808.51678101,0.01132367
4810.44558838,0.01134124
4812.37439575,0.01134151
4814.30320312,0.01139325
4816.23201050,0.01126015
4818.16081787,0.01117676
4820.08962524,0.01124057
4822.01843262,0.01114530
4823.94723999,0.01116449
4825.87604736,0.01107519
4827.80485474,0.01100878
4829.73366211,0.01107567
4831.66246948,0.01099945
4833.59127686,0.01100266
4835.52008423,0.01102557
4837.44889160,0.01093476
4839.37769897,0.01090841
4841.30650635,0.01091863
4843.23531372,0.01087427
4845.16412109,0.01090680
4847.09292847,0.01087108
4849.02173584,0.01080203
4850.95054321,0.01082101
4852.87935059,0.01078307
4854.80815796,0.01076041
4856.73696533,0.01075838
4858.66577270,0.01072946
4860.59458008,0.01067263
4862.52338745,0.01065484
4864.45219482,0.01062708
4866.38100220,0.01060211
4868.30980957,0.01058906
4870.23861694,0.01054712
4872.16742432,0.01049215
4874.09623169,0.01040669
4876.02503906,0.01047863
4877.95384644,0.01046975
4879.88265381,0.01045026
4881.81146118,0.01045854
4883.74026855,0.01031877
4885.66907593,0.01031604
4887.59788330,0.01031683
4889.52669067,0.01036022
4891.45549805,0.01031078
4893.38430542,0.01025185
4895.31311279,0.01031231
4897.24192017,0.01022602
4899.17072754,0.01020611
4901.09953491,0.01020099
4903.02834228,0.01015967
4904.95714966,0.01010192
4906.88595703,0.01013184
4908.81476440,0.01009469
4910.74357178,0.01004410
4912.67237915,0.01010978
4914.60118652,0.01000692
4916.52999390,0.01002629
4918.45880127,0.00997167
4920.38760864,0.00995055
4922.31641602,0.00993573
4924.24522339,0.00981678
4926.17403076,0.00989263
4928.10283813,0.00977044
4930.03164551,0.00979208
4931.96045288,0.00980163
4933.88926025,0.00969200
4935.81806763,0.00977939
4937.74687500,0.00976837
4939.67568237,0.00970247
4941.60448975,0.00962984
4943.53329712,0.00969675
4945.46210449,0.00966218
4947.39091187,0.00958936
4949.31971924,0.00961103
4951.24852661,0.00958038
4953.17733398,0.00956796
4955.10614136,0.00950343
4957.03494873,0.00955973
4958.96375610,0.00949926
4960.89256348,0.00942680
4962.82137085,0.00945888
4964.75017822,0.00939957
4966.67898560,0.00936129
4968.60779297,0.00933226
4970.53660034,0.00937686
4972.46540771,0.00931811
4974.39421509,0.00930542
4976.32302246,0.00933229
4978.25182983,0.00921861
4980.18063721,0.00917410
4982.10944458,0.00922838
4984.03825195,0.00921796
4985.96705933,0.00916659
4987.89586670,0.00922296
4989.82467407,0.00910483
4991.75348145,0.00908451
4993.68228882,0.00906053
4995.61109619,0.00896021
4997.53990356,0.00909637
4999.46871094,0.00898729
5001.39751831,0.00897083
5003.32632568,0.00900573
5005.25513306,0.00891339
5007.18394043,0.00890360
5009.11274780,0.00888101
5011.04155518,0.00893208
5012.97036255,0.00883738
5014.89916992,0.00887390
5016.82797729,0.00892022
5018.75678467,0.00879581
5020.68559204,0.00878212
5022.61439941,0.00875720
5024.54320679,0.00871755
5026.47201416,0.00865643
5028.40082153,0.00873253
5030.32962891,0.00874282
5032.25843628,0.00866704
5034.18724365,0.00866508
5036.11605103,0.00859842
5038.04485840,0.00862018
5039.97366577,0.00859409
5041.90247314,0.00853864
5043.83128052,0.00846280
5045.76008789,0.00843956
5047.68889526,0.00855874
5049.61770264,0.00850829
5051.54651001,0.00851609
5053.47531738,0.00848963
5055.40412476,0.00836665
5057.33293213,0.00848799
5059.26173950,0.00844285
5061.19054687,0.00828626
5063.11935425,0.00831586
5065.04816162,0.00834205
5066.97696899,0.00830997
5068.90577637,0.00823552
5070.83458374,0.00829779
5072.76339111,0.00827425
5074.69219849,0.00817168
5076.62100586,0.00820030
5078.54981323,0.00820035
5080.47862061,0.00821205
5082.40742798,0.00811404
5084.33623535,0.00813325
5086.26504272,0.00810251
5088.19385010,0.00799539
5090.12265747,0.00807528
5092.05146484,0.00796350
5093.98027222,0.00799909
5095.90907959,0.00798514
5097.83788696,0.00792296
5099.76669434,0.00805340
5101.69550171,0.00797086
5103.62430908,0.00796087
5105.55311645,0.00791578
5107.48192383,0.00784524
5109.41073120,0.00788070
5111.33953857,0.00784696
5113.26834595,0.00781009
5115.19715332,0.00784093
5117.12596069,0.00786293
5119.05476807,0.00779598
5120.98357544,0.00779834
5122.91238281,0.00777152
5124.84119019,0.00778167
5126.76999756,0.00770103
5128.69880493,0.00766496
5130.62761230,0.00775793
5132.55641968,0.00759823
5134.48522705,0.00760061
5136.41403442,0.00767896
5138.34284180,0.00765597
5140.27164917,0.00756708
5142.20045654,0.00750140
5144.12926392,0.00754583
5146.05807129,0.00751442
5147.98687866,0.00754917
5149.91568603,0.00749431
5151.84449341,0.00754514
5153.77330078,0.00759327
5155.70210815,0.00745863
5157.63091553,0.00738402
5159.55972290,0.00737228
5161.48853027,0.00745426
5163.41733765,0.00736831
5165.34614502,0.00736657
5167.27495239,0.00740187
5169.20375977,0.00733194
5171.13256714,0.00726527
5173.06137451,0.00722405
5174.99018188,0.00738988
5176.91898926,0.00734336
5178.84779663,0.00719517
5180.77660400,0.00723347
5182.70541138,0.00727989
5184.63421875,0.00710737
5186.56302612,0.00707112
5188.49183350,0.00720752
5190.42064087,0.00707831
5192.34944824,0.00710357
5194.27825562,0.00709263
5196.20706299,0.00709108
5198.13587036,0.00701825
5200.06467773,0.00691367
5201.99348511,0.00711665
5203.92229248,0.00702135
5205.85109985,0.00694146
5207.77990723,0.00687461
5209.70871460,0.00686159
5211.63752197,0.00700518
5213.56632935,0.00698552
5215.49513672,0.00700517
5217.42394409,0.00692103
5219.35275146,0.00685727
5221.28155884,0.00685313
5223.21036621,0.00691226
5225.13917358,0.00675914
5227.06798096,0.00668610
5228.99678833,0.00692595
5230.92559570,0.00680032
5232.85440308,0.00676293
5234.78321045,0.00675032
5236.71201782,0.00670912
5238.64082520,0.00676290
5240.56963257,0.00677524
5242.49843994,0.00681473
5244.42724731,0.00663651
5246.35605469,0.00663752
5248.28486206,0.00653158
5250.21366943,0.00644549
5252.14247681,0.00668964
5254.07128418,0.00658938
5256.00009155,0.00649758
5257.92889893,0.00663199
5259.85770630,0.00658295
5261.78651367,0.00644012
5263.71532104,0.00647401
5265.64412842,0.00647416
5267.57293579,0.00646734
5269.50174316,0.00655658
5271.43055054,0.00653830
5273.35935791,0.00649535
5275.28816528,0.00647396
5277.21697266,0.00650247
5279.14578003,0.00642257
5281.07458740,0.00641499
5283.00339478,0.00644761
5284.93220215,0.00629027
5286.86100952,0.00631645
5288.78981689,0.00633946
5290.71862427,0.00626971
5292.64743164,0.00634490
5294.57623901,0.00640196
5296.50504639,0.00632869
5298.43385376,0.00633236
5300.36266113,0.00631710
5302.29146851,0.00622759
5304.22027588,0.00628889
5306.14908325,0.00618324
5308.07789062,0.00610430
5310.00669800,0.00622743
5311.93550537,0.00624732
5313.86431274,0.00627172
5315.79312012,0.00623621
5317.72192749,0.00614685
5319.65073486,0.00615855
5321.57954224,0.00616574
5323.50834961,0.00614058
5325.43715698,0.00614873
5327.36596436,0.00600161
5329.29477173,0.00598692
5331.22357910,0.00613552
5333.15238647,0.00596428
5335.08119385,0.00595140
5337.01000122,0.00595448
5338.93880859,0.00574543
5340.86761597,0.00590114
5342.79642334,0.00593335
5344.72523071,0.00573481
5346.65403809,0.00582433
5348.58284546,0.00589001
5350.51165283,0.00588738
5352.44046020,0.00583192
5354.36926758,0.00575568
5356.29807495,0.00588720
5358.22688232,0.00588216
5360.15568970,0.00585319
5362.08449707,0.00581435
5364.01330444,0.00574191
5365.94211182,0.00578388
5367.87091919,0.00570317
5369.79972656,0.00578112
5371.72853394,0.00573509
5373.65734131,0.00568936
5375.58614868,0.00574599
5377.51495605,0.00552201
5379.44376343,0.00563777
5381.37257080,0.00574005
5383.30137817,0.00565434
5385.23018555,0.00564112
5387.15899292,0.00559476
5389.08780029,0.00565714
5391.01660767,0.00561315
5392.94541504,0.00554684
5394.87422241,0.00545441
5396.80302978,0.00548842
5398.73183716,0.00561320
5400.66064453,0.00552679
5402.58945190,0.00548672
5404.51825928,0.00551386
5406.44706665,0.00554627
5408.37587402,0.00543758
5410.30468140,0.00537864
5412.23348877,0.00542574
5414.16229614,0.00527100
5416.09110352,0.00531638
5418.01991089,0.00548278
5419.94871826,0.00537238
5421.87752563,0.00534274
5423.80633301,0.00542939
5425.73514038,0.00541051
5427.66394775,0.00532176
5429.59275513,0.00515210
5431.52156250,0.00521141
5433.45036987,0.00531076
5435.37917725,0.00518019
5437.30798462,0.00528173
5439.23679199,0.00535596
5441.16559936,0.00518799
5443.09440674,0.00518140
5445.02321411,0.00520888
5446.95202148,0.00512284
5448.88082886,0.00515994
5450.80963623,0.00519197
5452.73844360,0.00522988
5454.66725098,0.00523726
5456.59605835,0.00509158
5458.52486572,0.00517119
5460.45367310,0.00509684
5462.38248047,0.00502463
5464.31128784,0.00513167
5466.24009521,0.00500601
5468.16890259,0.00504830
5470.09770996,0.00503628
5472.02651733,0.00505526
5473.95532471,0.00503082
5475.88413208,0.00486734
5477.81293945,0.00503234
5479.74174683,0.00503238
5481.67055420,0.00497050
5483.59936157,0.00501573
5485.52816895,0.00499605
5487.45697632,0.00492835
5489.38578369,0.00488228
5491.31459106,0.00488845
5493.24339844,0.00479665
5495.17220581,0.00487758
5497.10101318,0.00488852
5499.02982056,0.00487299
5500.95862793,0.00495851
5502.88743530,0.00489748
5504.81624268,0.00491798
5506.74505005,0.00479642
5508.67385742,0.00471799
5510.60266479,0.00483483
5512.53147217,0.00478081
5514.46027954,0.00475360
5516.38908691,0.00475680
5518.31789429,0.00470210
5520.24670166,0.00476194
5522.17550903,0.00480823
5524.10431641,0.00475749
5526.03312378,0.00475688
5527.96193115,0.00476936
5529.89073853,0.00473740
5531.81954590,0.00470334
5533.74835327,0.00467883
5535.67716064,0.00461871
5537.60596802,0.00465328
5539.53477539,0.00468872
5541.46358276,0.00462878
5543.39239014,0.00465107
5545.32119751,0.00462576
5547.25000488,0.00463689
5549.17881226,0.00455143
5551.10761963,0.00453289
5553.03642700,0.00466257
5554.96523437,0.00453907
5556.89404175,0.00458365
5558.82284912,0.00453290
5560.75165649,0.00445972
5562.68046387,0.00462436
5564.60927124,0.00452095
5566.53807861,0.00453114
5568.46688599,0.00459548
5570.39569336,0.00446732
5572.32450073,0.00444506
5574.25330811,0.00451978
5576.18211548,0.00449340
5578.11092285,0.00447373
5580.03973022,0.00445493
5581.96853760,0.00435654
5583.89734497,0.00441335
5585.82615234,0.00440235
5587.75495972,0.00442536
5589.68376709,0.00440581
5591.61257446,0.00430414
5593.54138184,0.00445677
5595.47018921,0.00438895
5597.39899658,0.00428739
5599.32780395,0.00434848
5601.25661133,0.00429199
5603.18541870,0.00429645
5605.11422607,0.00435204
5607.04303345,0.00433475
5608.97184082,0.00428719
5610.90064819,0.00426000
5612.82945557,0.00425022
5614.75826294,0.00428155
5616.68707031,0.00423081
5618.61587769,0.00420302
5620.54468506,0.00421646
5622.47349243,0.00419265
5624.40229980,0.00420664
5626.33110718,0.00420864
5628.25991455,0.00427426
5630.18872192,0.00420035
5632.11752930,0.00414815
5634.04633667,0.00418288
5635.97514404,0.00414377
5637.90395142,0.00416660
5639.83275879,0.00407169
5641.76156616,0.00408756
5643.69037353,0.00412449
5645.61918091,0.00404450
5647.54798828,0.00407206
5649.47679565,0.00413031
5651.40560303,0.00414141
5653.33441040,0.00402807
5655.26321777,0.00404668
5657.19202515,0.00406245
5659.12083252,0.00399560
5661.04963989,0.00403079
5662.97844727,0.00399972
5664.90725464,0.00398112
5666.83606201,0.00398285
5668.76486938,0.00397796
5670.69367676,0.00395438
5672.62248413,0.00396657
5674.55129150,0.00401621
5676.48009888,0.00398407
5678.40890625,0.00391324
5680.33771362,0.00386954
5682.26652100,0.00390164
5684.19532837,0.00385564
5686.12413574,0.00384854
5688.05294311,0.00389251
5689.98175049,0.00379838
5691.91055786,0.00382719
5693.83936523,0.00389325
5695.76817261,0.00379857
5697.69697998,0.00377879
5699.62578735,0.00381488
5701.55459473,0.00380092
5703.48340210,0.00381569
5705.41220947,0.00377732
5707.34101685,0.00376756
5709.26982422,0.00377205
5711.19863159,0.00376596
5713.12743896,0.00383063
5715.05624634,0.00376620
5716.98505371,0.00369657
5718.91386108,0.00367285
5720.84266846,0.00370513
5722.77147583,0.00376184
5724.70028320,0.00372472
5726.62909058,0.00373433
5728.55789795,0.00365052
5730.48670532,0.00362968
5732.41551270,0.00368536
5734.34432007,0.00365452
5736.27312744,0.00362319
5738.20193481,0.00356356
5740.13074219,0.00361524
5742.05954956,0.00361689
5743.98835693,0.00361320
5745.91716431,0.00362813
5747.84597168,0.00351928
5749.77477905,0.00355452
5751.70358643,0.00355369
5753.63239380,0.00352119
5755.56120117,0.00357754
5757.49000854,0.00350162
5759.41881592,0.00349796
5761.34762329,0.00355276
5763.27643066,0.00350279
5765.20523804,0.00347883
5767.13404541,0.00345737
5769.06285278,0.00347668
5770.99166016,0.00344650
5772.92046753,0.00343465
5774.84927490,0.00351489
5776.77808228,0.00342152
5778.70688965,0.00347423
5780.63569702,0.00353674
5782.56450439,0.00338816
5784.49331177,0.00335398
5786.42211914,0.00332804
5788.35092651,0.00341439
5790.27973389,0.00342637
5792.20854126,0.00332742
5794.13734863,0.00333716
5796.06615601,0.00330636
5797.99496338,0.00337502
5799.92377075,0.00337536
5801.85257812,0.00330582
5803.78138550,0.00331040
5805.71019287,0.00328525
5807.63900024,0.00331565
5809.56780762,0.00329242
5811.49661499,0.00325136
5813.42542236,0.00331639
5815.35422974,0.00331583
5817.28303711,0.00327765
5819.21184448,0.00332314
5821.14065186,0.00321033
5823.06945923,0.00309075
5824.99826660,0.00318417
5826.92707397,0.00318467
5828.85588135,0.00317423
5830.78468872,0.00320161
5832.71349609,0.00315015
5834.64230347,0.00316836
5836.57111084,0.00321180
5838.49991821,0.00308983
5840.42872559,0.00305290
5842.35753296,0.00315495
5844.28634033,0.00304687
5846.21514770,0.00307772
5848.14395508,0.00313475
5850.07276245,0.00300491
5852.00156982,0.00307188
5853.93037720,0.00305739
5855.85918457,0.00300028
5857.78799194,0.00302921
5859.71679932,0.00306027
5861.64560669,0.00312668
5863.57441406,0.00304169
5865.50322144,0.00302672
5867.43202881,0.00304488
5869.36083618,0.00297618
5871.28964355,0.00301141
5873.21845093,0.00298904
5875.14725830,0.00292168
5877.07606567,0.00290418
5879.00487305,0.00293855
5880.93368042,0.00301788
5882.86248779,0.00297213
5884.79129517,0.00288464
5886.72010254,0.00294205
5888.64890991,0.00298064
5890.57771728,0.00290132
5892.50652466,0.00292153
5894.43533203,0.00293659
5896.36413940,0.00286413
5898.29294678,0.00293994
5900.22175415,0.00292420
5902.15056152,0.00281796
5904.07936890,0.00289072
5906.00817627,0.00290800
5907.93698364,0.00287743
5909.86579102,0.00291421
5911.79459839,0.00290823
5913.72340576,0.00282298
5915.65221313,0.00277938
5917.58102051,0.00283911
5919.50982788,0.00279410
5921.43863525,0.00276390
5923.36744263,0.00283841
5925.29625000,0.00280064
5927.22505737,0.00279929
5929.15386475,0.00278579
5931.08267212,0.00267806
5933.01147949,0.00279309
5934.94028686,0.00286401
5936.86909424,0.00272418
5938.79790161,0.00276826
5940.72670898,0.00276996
5942.65551636,0.00268433
5944.58432373,0.00276810
5946.51313110,0.00276324
5948.44193848,0.00271462
5950.37074585,0.00271057
5952.29955322,0.00267399
5954.22836060,0.00268649
5956.15716797,0.00265935
5958.08597534,0.00263519
5960.01478271,0.00263635
5961.94359009,0.00264120
5963.87239746,0.00270474
5965.80120483,0.00269933
5967.73001221,0.00270114
5969.65881958,0.00269785
5971.58762695,0.00263934
5973.51643433,0.00261369
5975.44524170,0.00258067
5977.37404907,0.00262649
5979.30285645,0.00258899
5981.23166382,0.00256607
5983.16047119,0.00266472
5985.08927856,0.00258023
5987.01808594,0.00256569
5988.94689331,0.00260250
5990.87570068,0.00257011
5992.80450806,0.00256975
5994.73331543,0.00251816
5996.66212280,0.00255256
5998.59093018,0.00255650
6000.51973755,0.00249820
