399.26312622,0.00150289
401.19193359,0.00121066
403.12074097,0.00126945
405.04954834,0.00100492
406.97835571,0.00082361
408.90716309,0.00133727
410.83597046,0.00151292
412.76477783,0.00121586
414.69358521,0.00154816
416.62239258,0.00149848
418.55119995,0.00127163
420.48000732,0.00146024
422.40881470,0.00092387
424.33762207,0.00140289
426.26642944,0.00201668
428.19523682,0.00158584
430.12404419,0.00157183
432.05285156,0.00158507
433.98165894,0.00181936
435.91046631,0.00172439
437.83927368,0.00131939
439.76808105,0.00153413
441.69688843,0.00117129
443.62569580,0.00127138
445.55450317,0.00189188
447.48331055,0.00093832
449.41211792,0.00109785
451.34092529,0.00155382
453.26973267,0.00045581
455.19854004,0.00107571
457.12734741,0.00138205
459.05615479,0.00088565
460.98496216,0.00092468
462.91376953,0.00073014
464.84257690,0.00128020
466.77138428,0.00089762
468.70019165,0.00042395
470.62899902,0.00069099
472.55780640,0.00074729
474.48661377,0.00098610
476.41542114,0.00046838
478.34422852,0.00020611
480.27303589,0.00033737
482.20184326,0.00056949
484.13065063,0.00065305
486.05945801,0.00040639
487.98826538,0.00067748
489.91707275,0.00032318
491.84588013,0.00042958
493.77468750,0.00095660
495.70349487,0.00031537
497.63230225,0.00033780
499.56110962,0.00081320
501.48991699,0.00033720
503.41872437,-0.00007188
505.34753174,0.00056948
507.27633911,0.00068769
509.20514648,0.00010898
511.13395386,0.00030085
513.06276123,0.00014701
514.99156860,0.00056449
516.92037598,0.00092833
518.84918335,0.00048242
520.77799072,0.00072885
522.70679810,0.00037731
524.63560547,0.00043663
526.56441284,0.00059105
528.49322021,0.00038770
530.42202759,0.00066026
532.35083496,0.00024518
534.27964233,0.00057050
536.20844971,0.00069358
538.13725708,0.00015721
540.06606445,0.00066054
541.99487183,0.00049514
543.92367920,0.00001600
545.85248657,0.00065592
547.78129395,0.00079386
549.71010132,0.00030891
551.63890869,0.00056710
553.56771606,0.00049515
555.49652344,0.00028355
557.42533081,0.00042844
559.35413818,0.00027198
561.28294556,0.00058669
563.21175293,0.00084010
565.14056030,0.00045418
567.06936768,0.00009651
568.99817505,0.00013917
570.92698242,0.00014601
572.85578979,0.00031714
574.78459717,0.00062323
576.71340454,0.00012077
578.64221191,0.00007670
580.57101929,0.00015466
582.49982666,0.00008712
584.42863403,0.00070660
586.35744141,0.00021122
588.28624878,-0.00013317
590.21505615,0.00069954
592.14386353,0.00046551
594.07267090,0.00016827
596.00147827,0.00031787
597.93028564,0.00004793
599.85909302,-0.00005934
601.78790039,0.00008135
603.71670776,0.00040272
605.64551514,0.00046652
607.57432251,0.00012675
609.50312988,0.00032936
611.43193726,0.00031241
613.36074463,0.00039418
615.28955200,0.00014462
617.21835938,0.00002659
619.14716675,0.00026254
621.07597412,0.00000936
623.00478149,-0.00010255
624.93358887,0.00005464
626.86239624,-0.00008677
628.79120361,0.00004982
630.72001099,0.00053626
632.64881836,0.00076580
634.57762573,0.00120159
636.50643311,0.00149026
638.43524048,0.00149764
640.36404785,0.00157586
642.29285522,0.00166822
644.22166260,0.00228259
646.15046997,0.00244459
648.07927734,0.00211596
650.00808472,0.00253998
651.93689209,0.00248632
653.86569946,0.00231205
655.79450684,0.00293182
657.72331421,0.00293925
659.65212158,0.00299193
661.58092896,0.00335826
663.50973633,0.00312643
665.43854370,0.00293296
667.36735107,0.00284221
669.29615845,0.00329984
671.22496582,0.00378870
673.15377319,0.00363362
675.08258057,0.00400613
677.01138794,0.00413871
678.94019531,0.00428197
680.86900269,0.00487150
682.79781006,0.00449625
684.72661743,0.00428998
686.65542480,0.00444006
688.58423218,0.00432351
690.51303955,0.00472161
692.44184692,0.00510358
694.37065430,0.00535116
696.29946167,0.00609136
698.22826904,0.00695975
700.15707642,0.00716368
702.08588379,0.00719045
704.01469116,0.00703926
705.94349854,0.00607460
707.87230591,0.00516952
709.80111328,0.00413635
711.72992065,0.00298886
713.65872803,0.00187331
715.58753540,0.00084295
717.51634277,0.00064184
719.44515015,0.00037775
721.37395752,0.00021898
723.30276489,0.00015711
725.23157227,-0.00006489
727.16037964,0.00003873
729.08918701,-0.00009413
731.01799438,-0.00001409
732.94680176,0.00023270
734.87560913,0.00035458
736.80441650,0.00047035
738.73322388,0.00048227
740.66203125,0.00032610
742.59083862,0.00007564
744.51964600,0.00011261
746.44845337,0.00018679
748.37726074,0.00022040
750.30606812,0.00037100
752.23487549,0.00044894
754.16368286,0.00028992
756.09249023,0.00023619
758.02129761,0.00045379
759.95010498,0.00017429
761.87891235,0.00001792
763.80771973,0.00054766
765.73652710,0.00045564
767.66533447,0.00029411
769.59414185,0.00027914
771.52294922,0.00026238
773.45175659,0.00066301
775.38056396,0.00050621
777.30937134,0.00034067
779.23817871,0.00082066
781.16698608,0.00059983
783.09579346,0.00055581
785.02460083,0.00074380
786.95340820,0.00026623
788.88221558,0.00044838
790.81102295,0.00054958
792.73983032,0.00036613
794.66863770,0.00055059
796.59744507,0.00085431
798.52625244,0.00129013
800.45505981,0.00142806
802.38386719,0.00143630
804.31267456,0.00112700
806.24148193,0.00102162
808.17028931,0.00082627
810.09909668,0.00040596
812.02790405,0.00061696
813.95671143,0.00061893
815.88551880,0.00065725
817.81432617,0.00059423
819.74313354,0.00063310
821.67194092,0.00065227
823.60074829,0.00032911
825.52955566,0.00078026
827.45836304,0.00096855
829.38717041,0.00105523
831.31597778,0.00141752
833.24478516,0.00182498
835.17359253,0.00221342
837.10239990,0.00201177
839.03120728,0.00214650
840.96001465,0.00201676
842.88882202,0.00184340
844.81762939,0.00191792
846.74643677,0.00147508
848.67524414,0.00146908
850.60405151,0.00145176
852.53285889,0.00119481
854.46166626,0.00130729
856.39047363,0.00120956
858.31928101,0.00088570
860.24808838,0.00105194
862.17689575,0.00084990
864.10570313,0.00040117
866.03451050,0.00075098
867.96331787,0.00064803
869.89212524,0.00040433
871.82093262,0.00045062
873.74973999,0.00036168
875.67854736,0.00050439
877.60735474,0.00043465
879.53616211,0.00065888
881.46496948,0.00071790
883.39377686,0.00017461
885.32258423,0.00045509
887.25139160,0.00066991
889.18019897,0.00052265
891.10900635,0.00075914
893.03781372,0.00044730
894.96662109,0.00048199
896.89542847,0.00076612
898.82423584,0.00050009
900.75304321,0.00072520
902.68185059,0.00081051
904.61065796,0.00056722
906.53946533,0.00067259
908.46827271,0.00092132
910.39708008,0.00080242
912.32588745,0.00085211
914.25469482,0.00137129
916.18350220,0.00135883
918.11230957,0.00140304
920.04111694,0.00156499
921.96992432,0.00178938
923.89873169,0.00214969
925.82753906,0.00233802
927.75634644,0.00268546
929.68515381,0.00280271
931.61396118,0.00308373
933.54276855,0.00329276
935.47157593,0.00343800
937.40038330,0.00365442
939.32919067,0.00384192
941.25799805,0.00418127
943.18680542,0.00389313
945.11561279,0.00383770
947.04442017,0.00387832
948.97322754,0.00390615
950.90203491,0.00399985
952.83084229,0.00372724
954.75964966,0.00376001
956.68845703,0.00349287
958.61726440,0.00362011
960.54607178,0.00403521
962.47487915,0.00405092
964.40368652,0.00403349
966.33249390,0.00396567
968.26130127,0.00404095
970.19010864,0.00406791
972.11891602,0.00466077
974.04772339,0.00501717
975.97653076,0.00518487
977.90533813,0.00565527
979.83414551,0.00599210
981.76295288,0.00690969
983.69176025,0.00754104
985.62056763,0.00824619
987.54937500,0.00930716
989.47818237,0.01028634
991.40698975,0.01162547
993.33579712,0.01291757
995.26460449,0.01388365
997.19341187,0.01468049
999.12221924,0.01614960
1001.05102661,0.01738872
1002.97983398,0.01828550
1004.90864136,0.01978669
1006.83744873,0.02102265
1008.76625610,0.02224620
1010.69506348,0.02351245
1012.62387085,0.02472249
1014.55267822,0.02614945
1016.48148560,0.02744178
1018.41029297,0.02877340
1020.33910034,0.03034079
1022.26790771,0.03163614
1024.19671509,0.03269079
1026.12552246,0.03392743
1028.05432983,0.03504429
1029.98313721,0.03612114
1031.91194458,0.03682847
1033.84075195,0.03747143
1035.76955933,0.03857484
1037.69836670,0.03890380
1039.62717407,0.03881612
1041.55598145,0.03898810
1043.48478882,0.03864640
1045.41359619,0.03819148
1047.34240356,0.03798703
1049.27121094,0.03738950
1051.20001831,0.03652580
1053.12882568,0.03585804
1055.05763306,0.03516095
1056.98644043,0.03426526
1058.91524780,0.03357286
1060.84405518,0.03270073
1062.77286255,0.03153044
1064.70166992,0.03063485
1066.63047729,0.02935967
1068.55928467,0.02823383
1070.48809204,0.02715354
1072.41689941,0.02558773
1074.34570679,0.02464845
1076.27451416,0.02349350
1078.20332153,0.02213210
1080.13212891,0.02135447
1082.06093628,0.02036395
1083.98974365,0.01918025
1085.91855103,0.01838631
1087.84735840,0.01745300
1089.77616577,0.01662415
1091.70497314,0.01629744
1093.63378052,0.01542129
1095.56258789,0.01491022
1097.49139526,0.01446111
1099.42020264,0.01391963
1101.34901001,0.01375213
1103.27781738,0.01316244
1105.20662476,0.01314920
1107.13543213,0.01264492
1109.06423950,0.01239871
1110.99304687,0.01261224
1112.92185425,0.01212617
1114.85066162,0.01222622
1116.77946899,0.01196936
1118.70827637,0.01213863
1120.63708374,0.01230845
1122.56589111,0.01213647
1124.49469849,0.01247529
1126.42350586,0.01244209
1128.35231323,0.01288960
1130.28112061,0.01311173
1132.20992798,0.01337586
1134.13873535,0.01395406
1136.06754272,0.01433807
1137.99635010,0.01514020
1139.92515747,0.01603258
1141.85396484,0.01721333
1143.78277222,0.01820672
1145.71157959,0.01928604
1147.64038696,0.02068822
1149.56919434,0.02172597
1151.49800171,0.02262683
1153.42680908,0.02385832
1155.35561646,0.02514394
1157.28442383,0.02606045
1159.21323120,0.02711956
1161.14203857,0.02806624
1163.07084595,0.02914589
1164.99965332,0.03020466
1166.92846069,0.03099528
1168.85726807,0.03232797
1170.78607544,0.03362029
1172.71488281,0.03473550
1174.64369019,0.03627332
1176.57249756,0.03775541
1178.50130493,0.03883941
1180.43011230,0.04044234
1182.35891968,0.04216232
1184.28772705,0.04397966
1186.21653442,0.04611718
1188.14534180,0.04788838
1190.07414917,0.05038091
1192.00295654,0.05285663
1193.93176392,0.05502678
1195.86057129,0.05770691
1197.78937866,0.06037938
1199.71818604,0.06297959
1201.64699341,0.06555896
1203.57580078,0.06852084
1205.50460815,0.07110342
1207.43341553,0.07347336
1209.36222290,0.07612628
1211.29103027,0.07839656
1213.21983765,0.08053150
1215.14864502,0.08254266
1217.07745239,0.08425362
1219.00625977,0.08575255
1220.93506714,0.08723637
1222.86387451,0.08826323
1224.79268188,0.08889738
1226.72148926,0.08947712
1228.65029663,0.09023159
1230.57910400,0.09076199
1232.50791138,0.09066471
1234.43671875,0.09091608
1236.36552612,0.09072216
1238.29433350,0.09053230
1240.22314087,0.09061003
1242.15194824,0.09007439
1244.08075562,0.08974296
1246.00956299,0.08917876
1247.93837036,0.08865074
1249.86717773,0.08809241
1251.79598511,0.08717082
1253.72479248,0.08639945
1255.65359985,0.08563289
1257.58240723,0.08457524
1259.51121460,0.08292145
1261.44002197,0.08152339
1263.36882935,0.08060654
1265.29763672,0.07957901
1267.22644409,0.07847530
1269.15525146,0.07768412
1271.08405884,0.07656005
1273.01286621,0.07498500
1274.94167358,0.07383351
1276.87048096,0.07236253
1278.79928833,0.07089244
1280.72809570,0.06963892
1282.65690308,0.06810296
1284.58571045,0.06673259
1286.51451782,0.06551309
1288.44332520,0.06434387
1290.37213257,0.06341382
1292.30093994,0.06281923
1294.22974731,0.06223767
1296.15855469,0.06193835
1298.08736206,0.06188000
1300.01616943,0.06183499
1301.94497681,0.06220961
1303.87378418,0.06303895
1305.80259155,0.06359865
1307.73139893,0.06406791
1309.66020630,0.06545660
1311.58901367,0.06643461
1313.51782104,0.06732933
1315.44662842,0.06922925
1317.37543579,0.07082567
1319.30424316,0.07235313
1321.23305054,0.07474346
1323.16185791,0.07732920
1325.09066528,0.07933129
1327.01947266,0.08161920
1328.94828003,0.08383676
1330.87708740,0.08591060
1332.80589478,0.08788030
1334.73470215,0.08927448
1336.66350952,0.09053551
1338.59231689,0.08982858
1340.52112427,0.09084472
1342.44993164,0.09455249
1344.37873901,0.09498006
1346.30754639,0.09481792
1348.23635376,0.09484753
1350.16516113,0.09415993
1352.09396851,0.09401807
1354.02277588,0.09251343
1355.95158325,0.09177746
1357.88039062,0.09141529
1359.80919800,0.08990116
1361.73800537,0.08625039
1363.66681274,0.08484354
1365.59562012,0.08885518
1367.52442749,0.08701628
1369.45323486,0.08594586
1371.38204224,0.08744448
1373.31084961,0.08267909
1375.23965698,0.08335635
1377.16846436,0.08562528
1379.09727173,0.08516286
1381.02607910,0.08528433
1382.95488647,0.08478367
1384.88369385,0.08487456
1386.81250122,0.08123583
1388.74130859,0.08237954
1390.67011597,0.08888413
1392.59892334,0.08651806
1394.52773071,0.08153962
1396.45653809,0.08522403
1398.38534546,0.08505574
1400.31415283,0.08474328
1402.24296021,0.09135106
1404.17176758,0.08643087
1406.10057495,0.08663704
1408.02938232,0.09009200
1409.95818970,0.08664498
1411.88699707,0.08863557
1413.81580444,0.08568741
1415.74461182,0.08682200
1417.67341919,0.07893786
1419.60222656,0.07045729
1421.53103394,0.08058517
1423.45984131,0.07842980
1425.38864868,0.07594522
1427.31745605,0.07684448
1429.24626343,0.07118341
1431.17507080,0.06907987
1433.10387817,0.06990457
1435.03268555,0.06392600
1436.96149292,0.05422790
1438.89030029,0.06122248
1440.81910767,0.06267764
1442.74791504,0.05813440
1444.67672241,0.06087376
1446.60552979,0.05601687
1448.53433716,0.05685382
1450.46314453,0.05854100
1452.39195190,0.05971298
1454.32075928,0.06186625
1456.24956665,0.05148542
1458.17837402,0.05381876
1460.10718140,0.07092034
1462.03598877,0.07558478
1463.96479614,0.07526354
1465.89360352,0.07847984
1467.82241089,0.08902660
1469.75121826,0.09580061
1471.68002563,0.08603728
1473.60883301,0.09056091
1475.53764038,0.10301726
1477.46644775,0.11071108
1479.39525513,0.12156516
1481.32406250,0.12326846
1483.25286987,0.13089660
1485.18167725,0.13520782
1487.11048462,0.13325290
1489.03929199,0.13307318
1490.96809937,0.13378622
1492.89690674,0.15470660
1494.82571411,0.15156111
1496.75452148,0.13685213
1498.68332886,0.15437785
1500.61213623,0.15925373
1502.54094360,0.17015216
1504.46975098,0.16146326
1506.39855835,0.11904681
1508.32736572,0.14399719
1510.25617310,0.16847456
1512.18498047,0.16292636
1514.11378784,0.17620350
1516.04259521,0.15956329
1517.97140259,0.16580461
1519.90020996,0.16033980
1521.82901733,0.13971595
1523.75782471,0.16937584
1525.68663208,0.16632147
1527.61543945,0.16599761
1529.54424683,0.18234837
1531.47305420,0.17551214
1533.40186157,0.16150989
1535.33066895,0.17011976
1537.25947632,0.18199399
1539.18828369,0.13196626
1541.11709106,0.13710517
1543.04589844,0.16341606
1544.97470581,0.15668020
1546.90351318,0.18372627
1548.83232056,0.17179906
1550.76112793,0.17683412
1552.68993530,0.17555700
1554.61874268,0.15977663
1556.54755005,0.17038605
1558.47635742,0.12194216
1560.40516479,0.13020927
1562.33397217,0.18236177
1564.26277954,0.17271399
1566.19158691,0.17676604
1568.12039429,0.17494410
1570.04920166,0.15536764
1571.97800903,0.17762284
1573.90681641,0.17941149
1575.83562378,0.14281508
1577.76443115,0.15999697
1579.69323853,0.17972404
1581.62204590,0.17155866
1583.55085327,0.17507711
1585.47966064,0.17180461
1587.40846802,0.17236051
1589.33727539,0.17030746
1591.26608276,0.16918106
1593.19489014,0.16857186
1595.12369751,0.16567716
1597.05250488,0.16697246
1598.98131226,0.16494820
1600.91011963,0.16462766
1602.83892700,0.16065480
1604.76773437,0.16220213
1606.69654175,0.15874127
1608.62534912,0.15697709
1610.55415649,0.15576449
1612.48296387,0.15537839
1614.41177124,0.15633398
1616.34057861,0.12772080
1618.26938599,0.13666025
1620.19819336,0.15749958
1622.12700073,0.13910800
1624.05580811,0.13881333
1625.98461548,0.14486748
1627.91342285,0.14345366
1629.84223022,0.14179760
1631.77103760,0.15061367
1633.69984497,0.13917109
1635.62865234,0.11559455
1637.55745972,0.13360831
1639.48626709,0.14664909
1641.41507446,0.14366531
1643.34388184,0.14772661
1645.27268921,0.13428745
1647.20149658,0.11902590
1649.13030396,0.14757085
1651.05911133,0.14083546
1652.98791870,0.09250511
1654.91672607,0.12499183
1656.84553345,0.15673494
1658.77434082,0.15095541
1660.70314819,0.15618022
1662.63195557,0.14346878
1664.56076294,0.15181378
1666.48957031,0.16398309
1668.41837769,0.14500450
1670.34718506,0.14202394
1672.27599243,0.16137546
1674.20479980,0.15037632
1676.13360718,0.14537348
1678.06241455,0.16753122
1679.99122192,0.16288601
1681.92002930,0.16235229
1683.84883667,0.13394955
1685.77764404,0.13294482
1687.70645142,0.18160459
1689.63525879,0.15963291
1691.56406616,0.17548004
1693.49287354,0.18017378
1695.42168091,0.13340785
1697.35048828,0.16425562
1699.27929565,0.14642498
1701.20810303,0.13246876
1703.13691040,0.17961366
1705.06571777,0.16627750
1706.99452515,0.16802983
1708.92333252,0.18266687
1710.85213989,0.17625245
1712.78094727,0.17985046
1714.70975464,0.16816139
1716.63856201,0.15192144
1718.56736938,0.14969350
1720.49617676,0.17707556
1722.42498413,0.18409941
1724.35379150,0.17186558
1726.28259888,0.18651557
1728.21140625,0.17309964
1730.14021362,0.17494836
1732.06902100,0.17101274
1733.99782837,0.13204813
1735.92663574,0.16246745
1737.85544312,0.17979929
1739.78425049,0.16083050
1741.71305786,0.17471111
1743.64186523,0.17754298
1745.57067261,0.17803454
1747.49947998,0.17991091
1749.42828735,0.17246538
1751.35709473,0.16561237
1753.28590210,0.18272761
1755.21470947,0.19111386
1757.14351685,0.17503700
1759.07232422,0.19189890
1761.00113159,0.18125245
1762.92993896,0.17496204
1764.85874634,0.19956195
1766.78755371,0.18039611
1768.71636108,0.18212464
1770.64516846,0.18136986
1772.57397583,0.16346386
1774.50278320,0.18173435
1776.43159058,0.19169988
1778.36039795,0.18923658
1780.28920532,0.18706641
1782.21801270,0.18839902
1784.14682007,0.18822953
1786.07562744,0.18483675
1788.00443481,0.19397622
1789.93324219,0.18949379
1791.86204956,0.17232385
1793.79085693,0.17912045
1795.71966431,0.19201365
1797.64847168,0.18941431
1799.57727905,0.18658873
1801.50608643,0.18386595
1803.43489380,0.18947214
1805.36370117,0.19357707
1807.29250854,0.19080226
1809.22131592,0.19147873
1811.15012329,0.18675804
1813.07893066,0.19223773
1815.00773804,0.19312811
1816.93654541,0.19099423
1818.86535278,0.19267514
1820.79416016,0.19187418
1822.72296753,0.19466862
1824.65177490,0.18241376
1826.58058228,0.18861029
1828.50938965,0.18897253
1830.43819702,0.17767414
1832.36700439,0.19280282
1834.29581177,0.19149864
1836.22461914,0.19120514
1838.15342651,0.19049464
1840.08223389,0.19159263
1842.01104126,0.19202261
1843.93984863,0.17114532
1845.86865601,0.18190318
1847.79746338,0.19162007
1849.72627075,0.18754089
1851.65507812,0.19283336
1853.58388550,0.18915212
1855.51269287,0.19092628
1857.44150024,0.18963620
1859.37030762,0.18857431
1861.29911499,0.18989870
1863.22792236,0.18758756
1865.15672974,0.18968117
1867.08553711,0.18365166
1869.01434448,0.17619036
1870.94315186,0.18283983
1872.87195923,0.18937182
1874.80076660,0.18645439
1876.72957397,0.18732119
1878.65838135,0.18668014
1880.58718872,0.18580940
1882.51599609,0.18740211
1884.44480347,0.18434405
1886.37361084,0.18684798
1888.30241821,0.18295673
1890.23122559,0.17929080
1892.16003296,0.18569788
1894.08884033,0.18317394
1896.01764771,0.18221371
1897.94645508,0.18426913
1899.87526245,0.18331146
1901.80406982,0.18378514
1903.73287720,0.18258926
1905.66168457,0.18328452
1907.59049194,0.18172446
1909.51929932,0.18047026
1911.44810669,0.18146083
1913.37691406,0.18153149
1915.30572144,0.18295708
1917.23452881,0.17529744
1919.16333618,0.17534411
1921.09214355,0.18169618
1923.02095093,0.17617130
1924.94975830,0.17952698
1926.87856567,0.18127368
1928.80737305,0.17915943
1930.73618042,0.18096879
1932.66498779,0.17853755
1934.59379517,0.18039486
1936.52260254,0.17890860
1938.45140991,0.17940605
1940.38021729,0.17947970
1942.30902466,0.17391914
1944.23783203,0.17674789
1946.16663940,0.17836404
1948.09544678,0.17816228
1950.02425415,0.17850626
1951.95306152,0.17799321
1953.88186890,0.17818722
1955.81067627,0.17725472
1957.73948364,0.17779179
1959.66829102,0.17738745
1961.59709839,0.17702658
1963.52590576,0.17732784
1965.45471313,0.17639749
1967.38352051,0.17464609
1969.31232788,0.17569542
1971.24113525,0.17693669
1973.16994263,0.17563522
1975.09875000,0.17620488
1977.02755737,0.17542765
1978.95636475,0.17544386
1980.88517212,0.17527470
1982.81397949,0.17448831
1984.74278687,0.17501771
1986.67159424,0.17348409
1988.60040161,0.17387974
1990.52920898,0.17239088
1992.45801636,0.17046016
1994.38682373,0.17256863
1996.31563110,0.17283511
1998.24443848,0.17195801
2000.17324585,0.17185155
2002.10205322,0.17160439
2004.03086060,0.17125461
2005.95966797,0.17089051
2007.88847534,0.17019913
2009.81728271,0.17001337
2011.74609009,0.16963461
2013.67489746,0.16928494
2015.60370483,0.16831651
2017.53251221,0.16679594
2019.46131958,0.16759899
2021.39012695,0.16744839
2023.31893433,0.16694820
2025.24774170,0.16683865
2027.17654907,0.16608223
2029.10535645,0.16596387
2031.03416382,0.16538566
2032.96297119,0.16524240
2034.89177856,0.16468874
2036.82058594,0.16434950
2038.74939331,0.16411144
2040.67820068,0.16300052
2042.60700806,0.16272300
2044.53581543,0.16268221
2046.46462280,0.16242719
2048.39343018,0.16193399
2050.32223755,0.16159713
2052.25104492,0.16114381
2054.17985229,0.16085416
2056.10865967,0.16053493
2058.03746704,0.15996009
2059.96627441,0.15972310
2061.89508179,0.15942654
2063.82388916,0.15881342
2065.75269653,0.15794107
2067.68150391,0.15834391
2069.61031128,0.15812659
2071.53911865,0.15747927
2073.46792603,0.15750143
2075.39673340,0.15685830
2077.32554077,0.15680104
2079.25434814,0.15626965
2081.18315552,0.15599079
2083.11196289,0.15584622
2085.04077026,0.15531895
2086.96957764,0.15511030
2088.89838501,0.15450937
2090.82719238,0.15440778
2092.75599976,0.15410016
2094.68480713,0.15385336
2096.61361450,0.15358019
2098.54242187,0.15335730
2100.47122925,0.15314755
2102.40003662,0.15259990
2104.32884399,0.15256643
2106.25765137,0.15209104
2108.18645874,0.15183005
2110.11526611,0.15162778
2112.04407349,0.15137821
2113.97288086,0.15113913
2115.90168823,0.15082482
2117.83049561,0.15067658
2119.75930298,0.15019883
2121.68811035,0.15018642
2123.61691772,0.14981887
2125.54572510,0.14969845
2127.47453247,0.14960316
2129.40333984,0.14913587
2131.33214722,0.14912832
2133.26095459,0.14878392
2135.18976196,0.14871871
2137.11856934,0.14846027
2139.04737671,0.14814743
2140.97618408,0.14804411
2142.90499146,0.14794026
2144.83379883,0.14772680
2146.76260620,0.14743426
2148.69141357,0.14737576
2150.62022095,0.14699969
2152.54902832,0.14707032
2154.47783569,0.14680263
2156.40664307,0.14654095
2158.33545044,0.14658430
2160.26425781,0.14623562
2162.19306519,0.14606708
2164.12187256,0.14577153
2166.05067993,0.14590900
2167.97948730,0.14572971
2169.90829468,0.14539462
2171.83710205,0.14522502
2173.76590942,0.14500608
2175.69471680,0.14499435
2177.62352417,0.14481232
2179.55233154,0.14484374
2181.48113892,0.14445262
2183.40994629,0.14440753
2185.33875366,0.14438361
2187.26756104,0.14396520
2189.19636841,0.14387369
2191.12517578,0.14366658
2193.05398315,0.14366832
2194.98279053,0.14344350
2196.91159790,0.14332876
2198.84040527,0.14308986
2200.76921265,0.14294377
2202.69802002,0.14298701
2204.62682739,0.14267355
2206.55563477,0.14260368
2208.48444214,0.14232615
2210.41324951,0.14221221
2212.34205688,0.14200535
2214.27086426,0.14200322
2216.19967163,0.14199445
2218.12847900,0.14157805
2220.05728638,0.14162225
2221.98609375,0.14135121
2223.91490112,0.14115971
2225.84370850,0.14107972
2227.77251587,0.14090143
2229.70132324,0.14066787
2231.63013062,0.14040005
2233.55893799,0.14021191
2235.48774536,0.13993615
2237.41655273,0.13987398
2239.34536011,0.13955703
2241.27416748,0.13945869
2243.20297485,0.13929355
2245.13178223,0.13902292
2247.06058960,0.13878727
2248.98939697,0.13840532
2250.91820435,0.13854229
2252.84701172,0.13840163
2254.77581909,0.13822559
2256.70462646,0.13800111
2258.63343384,0.13771471
2260.56224121,0.13761425
2262.49104858,0.13739949
2264.41985596,0.13718686
2266.34866333,0.13689375
2268.27747070,0.13697961
2270.20627808,0.13675869
2272.13508545,0.13643534
2274.06389282,0.13641319
2275.99270020,0.13633752
2277.92150757,0.13622142
2279.85031494,0.13603631
2281.77912231,0.13608658
2283.70792969,0.13585053
2285.63673706,0.13558161
2287.56554443,0.13523653
2289.49435181,0.13497299
2291.42315918,0.13481024
2293.35196655,0.13432854
2295.28077393,0.13402091
2297.20958130,0.13348405
2299.13838867,0.13302284
2301.06719604,0.13268757
2302.99600342,0.13222909
2304.92481079,0.13152130
2306.85361816,0.13058817
2308.78242554,0.12966751
2310.71123291,0.12866144
2312.64004028,0.12749174
2314.56884766,0.12600356
2316.49765503,0.12468666
2318.42646240,0.12288830
2320.35526978,0.12121621
2322.28407715,0.11974739
2324.21288452,0.11804518
2326.14169189,0.11683127
2328.07049927,0.11526800
2329.99930664,0.11398976
2331.92811401,0.11304680
2333.85692139,0.11257911
2335.78572876,0.11211391
2337.71453613,0.11175897
2339.64334351,0.11184560
2341.57215088,0.11203092
2343.50095825,0.11396603
2345.42976562,0.11592811
2347.35857300,0.12084065
2349.28738037,0.12512791
2351.21618774,0.12060643
2353.14499512,0.11450900
2355.07380249,0.11014397
2357.00260986,0.10669041
2358.93141724,0.10482620
2360.86022461,0.10344705
2362.78903198,0.10335058
2364.71783936,0.10388194
2366.64664673,0.10530783
2368.57545410,0.10750620
2370.50426147,0.11021483
2372.43306885,0.11327679
2374.36187622,0.11652409
2376.29068359,0.11978488
2378.21949097,0.12226960
2380.14829834,0.12446470
2382.07710571,0.12582427
2384.00591309,0.12666027
2385.93472046,0.12712792
2387.86352783,0.12707832
2389.79233521,0.12710699
2391.72114258,0.12697694
2393.64994995,0.12683699
2395.57875732,0.12665695
2397.50756470,0.12655184
2399.43637207,0.12640983
2401.36517944,0.12617248
2403.29398682,0.12597281
2405.22279419,0.12588961
2407.15160156,0.12568517
2409.08040894,0.12548766
2411.00921631,0.12543380
2412.93802368,0.12509158
2414.86683105,0.12512574
2416.79563843,0.12490588
2418.72444580,0.12463467
2420.65325317,0.12469721
2422.58206055,0.12438003
2424.51086792,0.12429430
2426.43967529,0.12415202
2428.36848267,0.12394080
2430.29729004,0.12374955
2432.22609741,0.12360792
2434.15490479,0.12340142
2436.08371216,0.12326267
2438.01251953,0.12334426
2439.94132690,0.12305675
2441.87013428,0.12293296
2443.79894165,0.12270986
2445.72774902,0.12253150
2447.65655640,0.12240016
2449.58536377,0.12213473
2451.51417114,0.12206203
2453.44297852,0.12183624
2455.37178589,0.12179825
2457.30059326,0.12153541
2459.22940063,0.12137878
2461.15820801,0.12133975
2463.08701538,0.12106329
2465.01582275,0.12098272
2466.94463013,0.12077221
2468.87343750,0.12066885
2470.80224487,0.12048924
2472.73105225,0.12027968
2474.65985962,0.12010972
2476.58866699,0.11996451
2478.51747437,0.11988302
2480.44628174,0.11970205
2482.37508911,0.11964240
2484.30389648,0.11934263
2486.23270386,0.11914575
2488.16151123,0.11908253
2490.09031860,0.11888762
2492.01912598,0.11874851
2493.94793335,0.11864007
2495.87674072,0.11847804
2497.80554810,0.11823452
2499.73435547,0.11812620
2501.66316284,0.11791307
2503.59197021,0.11773269
2505.52077759,0.11756338
2507.44958496,0.11749896
2509.37839233,0.11738233
2511.30719971,0.11710829
2513.23600708,0.11710313
2515.16481445,0.11687283
2517.09362183,0.11681680
2519.02242920,0.11662702
2520.95123657,0.11627643
2522.88004395,0.11629681
2524.80885132,0.11608092
2526.73765869,0.11596818
2528.66646606,0.11579238
2530.59527344,0.11562032
2532.52408081,0.11558919
2534.45288818,0.11531806
2536.38169556,0.11514927
2538.31050293,0.11508083
2540.23931030,0.11483882
2542.16811768,0.11464496
2544.09692505,0.11465190
2546.02573242,0.11443285
2547.95453979,0.11420412
2549.88334717,0.11406190
2551.81215454,0.11392041
2553.74096191,0.11386015
2555.66976929,0.11366851
2557.59857666,0.11344793
2559.52738403,0.11332965
2561.45619141,0.11324141
2563.38499878,0.11304494
2565.31380615,0.11298810
2567.24261353,0.11265674
2569.17142090,0.11240800
2571.10022827,0.11252529
2573.02903564,0.11225181
2574.95784302,0.11215308
2576.88665039,0.11196491
2578.81545776,0.11174832
2580.74426514,0.11166843
2582.67307251,0.11145982
2584.60187988,0.11136585
2586.53068726,0.11115014
2588.45949463,0.11105288
2590.38830200,0.11079654
2592.31710937,0.11068202
2594.24591675,0.11065528
2596.17472412,0.11035612
2598.10353149,0.11022659
2600.03233887,0.11004496
2601.96114624,0.10997356
2603.88995361,0.10976519
2605.81876099,0.10947913
2607.74756836,0.10940148
2609.67637573,0.10935520
2611.60518311,0.10912015
2613.53399048,0.10888731
2615.46279785,0.10885084
2617.39160522,0.10862942
2619.32041260,0.10863036
2621.24921997,0.10840926
2623.17802734,0.10815626
2625.10683472,0.10806547
2627.03564209,0.10773553
2628.96444946,0.10764912
2630.89325684,0.10741428
2632.82206421,0.10743932
2634.75087158,0.10729991
2636.67967895,0.10685483
2638.60848633,0.10678445
2640.53729370,0.10663062
2642.46610107,0.10657412
2644.39490845,0.10633339
2646.32371582,0.10610655
2648.25252319,0.10604198
2650.18133057,0.10594022
2652.11013794,0.10577162
2654.03894531,0.10550522
2655.96775269,0.10549305
2657.89656006,0.10529701
2659.82536743,0.10511057
2661.75417480,0.10500047
2663.68298218,0.10473309
2665.61178955,0.10455157
2667.54059692,0.10440782
2669.46940430,0.10421934
2671.39821167,0.10401803
2673.32701904,0.10402130
2675.25582642,0.10385707
2677.18463379,0.10360546
2679.11344116,0.10341761
2681.04224854,0.10319559
2682.97105591,0.10317184
2684.89986328,0.10298094
2686.82867065,0.10268007
2688.75747803,0.10260132
2690.68628540,0.10256912
2692.61509277,0.10235772
2694.54390015,0.10216200
2696.47270752,0.10211468
2698.40151489,0.10192716
2700.33032227,0.10162860
2702.25912964,0.10151087
2704.18793701,0.10133678
2706.11674438,0.10107312
2708.04555176,0.10104323
2709.97435913,0.10082750
2711.90316650,0.10064382
2713.83197388,0.10047160
2715.76078125,0.10018622
2717.68958862,0.10017426
2719.61839600,0.09996273
2721.54720337,0.09977196
2723.47601074,0.09962648
2725.40481812,0.09945189
2727.33362549,0.09930160
2729.26243286,0.09904549
2731.19124023,0.09889179
2733.12004761,0.09866310
2735.04885498,0.09862512
2736.97766235,0.09845375
2738.90646973,0.09817658
2740.83527710,0.09810136
2742.76408447,0.09786739
2744.69289185,0.09771681
2746.62169922,0.09755481
2748.55050659,0.09737626
2750.47931396,0.09718592
2752.40812134,0.09701572
2754.33692871,0.09683642
2756.26573608,0.09663589
2758.19454346,0.09649937
2760.12335083,0.09619720
2762.05215820,0.09606646
2763.98096558,0.09588791
2765.90977295,0.09567712
2767.83858032,0.09561832
2769.76738770,0.09537786
2771.69619507,0.09522454
2773.62500244,0.09504425
2775.55380981,0.09471869
2777.48261719,0.09455039
2779.41142456,0.09445581
2781.34023193,0.09417623
2783.26903931,0.09392981
2785.19784668,0.09379251
2787.12665405,0.09370898
2789.05546143,0.09356099
2790.98426880,0.09320791
2792.91307617,0.09306099
2794.84188354,0.09282788
2796.77069092,0.09252760
2798.69949829,0.09248936
2800.62830566,0.09224146
2802.55711304,0.09192112
2804.48592041,0.09182461
2806.41472778,0.09161052
2808.34353516,0.09137773
2810.27234253,0.09134963
2812.20114990,0.09106268
2814.12995728,0.09079513
2816.05876465,0.09056425
2817.98757202,0.09029232
2819.91637939,0.09021430
2821.84518677,0.08985448
2823.77399414,0.08966625
2825.70280151,0.08957708
2827.63160889,0.08934536
2829.56041626,0.08917469
2831.48922363,0.08884771
2833.41803101,0.08862121
2835.34683838,0.08845487
2837.27564575,0.08821101
2839.20445312,0.08781134
2841.13326050,0.08752443
2843.06206787,0.08716176
2844.99087524,0.08665472
2846.91968262,0.08632717
2848.84848999,0.08573149
2850.77729736,0.08534935
2852.70610474,0.08531362
2854.63491211,0.08524881
2856.56371948,0.08500661
2858.49252686,0.08476838
2860.42133423,0.08477044
2862.35014160,0.08453925
2864.27894897,0.08437911
2866.20775635,0.08416960
2868.13656372,0.08396451
2870.06537109,0.08387846
2871.99417847,0.08348329
2873.92298584,0.08334360
2875.85179321,0.08331656
2877.78060059,0.08305635
2879.70940796,0.08280095
2881.63821533,0.08264665
2883.56702270,0.08254583
2885.49583008,0.08233157
2887.42463745,0.08200437
2889.35344482,0.08180082
2891.28225220,0.08163543
2893.21105957,0.08126262
2895.13986694,0.08106428
2897.06867432,0.08082459
2898.99748169,0.08051033
2900.92628906,0.08039635
2902.85509644,0.08002639
2904.78390381,0.07961677
2906.71271118,0.07939380
2908.64151855,0.07903299
2910.57032593,0.07859866
2912.49913330,0.07830916
2914.42794067,0.07790600
2916.35674805,0.07740641
2918.28555542,0.07706276
2920.21436279,0.07681422
2922.14317017,0.07656394
2924.07197754,0.07624871
2926.00078491,0.07606744
2927.92959229,0.07592668
2929.85839966,0.07580743
2931.78720703,0.07565257
2933.71601440,0.07550809
2935.64482178,0.07547110
2937.57362915,0.07525901
2939.50243652,0.07516821
2941.43124390,0.07510407
2943.36005127,0.07499599
2945.28885864,0.07482003
2947.21766602,0.07450621
2949.14647339,0.07425298
2951.07528076,0.07396764
2953.00408813,0.07379217
2954.93289551,0.07345645
2956.86170288,0.07311337
2958.79051025,0.07273816
2960.71931763,0.07236239
2962.64812500,0.07220516
2964.57693237,0.07176036
2966.50573975,0.07160775
2968.43454712,0.07163024
2970.36335449,0.07152385
2972.29216187,0.07149552
2974.22096924,0.07130201
2976.14977661,0.07109690
2978.07858398,0.07096689
2980.00739136,0.07091032
2981.93619873,0.07065799
2983.86500610,0.07055851
2985.79381348,0.07047062
2987.72262085,0.07012929
2989.65142822,0.06995456
2991.58023560,0.06960557
2993.50904297,0.06930640
2995.43785034,0.06910527
2997.36665771,0.06884424
2999.29546509,0.06853219
3001.22427246,0.06822004
3003.15307983,0.06801124
3005.08188721,0.06766419
3007.01069458,0.06741641
3008.93950195,0.06708974
3010.86830933,0.06668288
3012.79711670,0.06633455
3014.72592407,0.06597922
3016.65473145,0.06577760
3018.58353882,0.06553112
3020.51234619,0.06521928
3022.44115356,0.06488988
3024.36996094,0.06452772
3026.29876831,0.06414421
3028.22757568,0.06392623
3030.15638306,0.06356025
3032.08519043,0.06304552
3034.01399780,0.06277964
3035.94280518,0.06253855
3037.87161255,0.06238965
3039.80041992,0.06197935
3041.72922729,0.06158842
3043.65803467,0.06132327
3045.58684204,0.06087448
3047.51564941,0.06064440
3049.44445679,0.06022197
3051.37326416,0.05988749
3053.30207153,0.05967537
3055.23087891,0.05921241
3057.15968628,0.05885845
3059.08849365,0.05857991
3061.01730103,0.05827866
3062.94610840,0.05788330
3064.87491577,0.05751313
3066.80372314,0.05710413
3068.73253052,0.05685224
3070.66133789,0.05667450
3072.59014526,0.05620874
3074.51895264,0.05588123
3076.44776001,0.05563258
3078.37656738,0.05517311
3080.30537476,0.05467038
3082.23418213,0.05436384
3084.16298950,0.05405211
3086.09179687,0.05376701
3088.02060425,0.05351130
3089.94941162,0.05309163
3091.87821899,0.05284917
3093.80702637,0.05243575
3095.73583374,0.05190766
3097.66464111,0.05164183
3099.59344849,0.05130211
3101.52225586,0.05092407
3103.45106323,0.05060908
3105.37987061,0.05029821
3107.30867798,0.04989749
3109.23748535,0.04945865
3111.16629272,0.04911941
3113.09510010,0.04877485
3115.02390747,0.04830730
3116.95271484,0.04788819
3118.88152222,0.04755458
3120.81032959,0.04725120
3122.73913696,0.04693066
3124.66794434,0.04648311
3126.59675171,0.04614276
3128.52555908,0.04586450
3130.45436645,0.04557787
3132.38317383,0.04517420
3134.31198120,0.04470896
3136.24078857,0.04444786
3138.16959595,0.04407256
3140.09840332,0.04365502
3142.02721069,0.04335848
3143.95601807,0.04304482
3145.88482544,0.04268112
3147.81363281,0.04243606
3149.74244019,0.04208168
3151.67124756,0.04155203
3153.60005493,0.04129034
3155.52886230,0.04100020
3157.45766968,0.04069533
3159.38647705,0.04031883
3161.31528442,0.03995427
3163.24409180,0.03976754
3165.17289917,0.03941850
3167.10170654,0.03903097
3169.03051392,0.03872065
3170.95932129,0.03858735
3172.88812866,0.03816649
3174.81693604,0.03781570
3176.74574341,0.03757940
3178.67455078,0.03714963
3180.60335815,0.03716213
3182.53216553,0.03683142
3184.46097290,0.03644986
3186.38978027,0.03632260
3188.31858765,0.03607154
3190.24739502,0.03580676
3192.17620239,0.03540932
3194.10500977,0.03531963
3196.03381714,0.03501723
3197.96262451,0.03469758
3199.89143188,0.03462145
3201.82023926,0.03447359
3203.74904663,0.03426485
3205.67785400,0.03395157
3207.60666138,0.03389569
3209.53546875,0.03367013
3211.46427612,0.03352567
3213.39308350,0.03331768
3215.32189087,0.03304671
3217.25069824,0.03309640
3219.17950562,0.03278567
3221.10831299,0.03263273
3223.03712036,0.03259438
3224.96592773,0.03234832
3226.89473511,0.03221913
3228.82354248,0.03220320
3230.75234985,0.03208765
3232.68115723,0.03194709
3234.60996460,0.03182315
3236.53877197,0.03166158
3238.46757935,0.03173894
3240.39638672,0.03148325
3242.32519409,0.03144509
3244.25400146,0.03144660
3246.18280884,0.03115162
3248.11161621,0.03132255
3250.04042358,0.03118226
3251.96923096,0.03113372
3253.89803833,0.03099822
3255.82684570,0.03078667
3257.75565308,0.03095244
3259.68446045,0.03083090
3261.61326782,0.03085049
3263.54207520,0.03080653
3265.47088257,0.03074560
3267.39968994,0.03071564
3269.32849731,0.03062352
3271.25730469,0.03056822
3273.18611206,0.03044240
3275.11491943,0.03040801
3277.04372681,0.03029795
3278.97253418,0.03042627
3280.90134155,0.03044883
3282.83014893,0.03032423
3284.75895630,0.03028966
3286.68776367,0.03023024
3288.61657104,0.03023516
3290.54537842,0.03008266
3292.47418579,0.03006199
3294.40299316,0.03002066
3296.33180054,0.03003165
3298.26060791,0.03001564
3300.18941528,0.02992640
3302.11822266,0.02998709
3304.04703003,0.02987055
3305.97583740,0.02985508
3307.90464478,0.02974884
3309.83345215,0.02969718
3311.76225952,0.02975205
3313.69106689,0.02961886
3315.61987427,0.02964999
3317.54868164,0.02970354
3319.47748901,0.02961733
3321.40629639,0.02953685
3323.33510376,0.02950986
3325.26391113,0.02942459
3327.19271851,0.02941934
3329.12152588,0.02936957
3331.05033325,0.02938102
3332.97914062,0.02937415
3334.90794800,0.02918669
3336.83675537,0.02918476
3338.76556274,0.02914168
3340.69437012,0.02916958
3342.62317749,0.02910553
3344.55198486,0.02910967
3346.48079224,0.02912912
3348.40959961,0.02902615
3350.33840698,0.02910838
3352.26721436,0.02897232
3354.19602173,0.02904913
3356.12482910,0.02892309
3358.05363647,0.02884219
3359.98244385,0.02900115
3361.91125122,0.02881148
3363.84005859,0.02890741
3365.76886597,0.02885354
3367.69767334,0.02876746
3369.62648071,0.02875333
3371.55528809,0.02879111
3373.48409546,0.02882449
3375.41290283,0.02874831
3377.34171020,0.02892398
3379.27051758,0.02891636
3381.19932495,0.02894847
3383.12813232,0.02890168
3385.05693970,0.02888842
3386.98574707,0.02883012
3388.91455444,0.02876909
3390.84336182,0.02890368
3392.77216919,0.02886968
3394.70097656,0.02907876
3396.62978394,0.02901293
3398.55859131,0.02905395
3400.48739868,0.02913768
3402.41620605,0.02902200
3404.34501343,0.02917926
3406.27382080,0.02928527
3408.20262817,0.02946942
3410.13143555,0.02938967
3412.06024292,0.02947790
3413.98905029,0.02947797
3415.91785767,0.02952202
3417.84666504,0.02967610
3419.77547241,0.02939553
3421.70427979,0.02951816
3423.63308716,0.02965698
3425.56189453,0.02991587
3427.49070190,0.02993528
3429.41950928,0.02986737
3431.34831665,0.03001879
3433.27712402,0.03001995
3435.20593140,0.03021118
3437.13473877,0.03011432
3439.06354614,0.03029170
3440.99235352,0.03026748
3442.92116089,0.03035770
3444.84996826,0.03059690
3446.77877563,0.03022253
3448.70758301,0.03048613
3450.63639038,0.03079123
3452.56519775,0.03086941
3454.49400513,0.03091110
3456.42281250,0.03099804
3458.35161987,0.03109007
3460.28042725,0.03107770
3462.20923462,0.03120795
3464.13804199,0.03134994
3466.06684937,0.03156855
3467.99565674,0.03137733
3469.92446411,0.03157306
3471.85327148,0.03179513
3473.78207886,0.03172567
3475.71088623,0.03188808
3477.63969360,0.03200125
3479.56850098,0.03216182
3481.49730835,0.03185017
3483.42611572,0.03204411
3485.35492310,0.03236195
3487.28373047,0.03236520
3489.21253784,0.03256285
3491.14134521,0.03270853
3493.07015259,0.03285817
3494.99895996,0.03273135
3496.92776733,0.03297663
3498.85657471,0.03305629
3500.78538208,0.03314320
3502.71418945,0.03289231
3504.64299683,0.03289876
3506.57180420,0.03381477
3508.50061157,0.03339010
3510.42941895,0.03334507
3512.35822632,0.03385033
3514.28703369,0.03403174
3516.21584106,0.03419327
3518.14464844,0.03407636
3520.07345581,0.03434622
3522.00226318,0.03411596
3523.93107056,0.03396811
3525.85987793,0.03417602
3527.78868530,0.03425796
3529.71749268,0.03441875
3531.64630005,0.03487822
3533.57510742,0.03526567
3535.50391479,0.03500154
3537.43272217,0.03503975
3539.36152954,0.03542241
3541.29033691,0.03565644
3543.21914429,0.03541574
3545.14795166,0.03485982
3547.07675903,0.03449542
3549.00556641,0.03555433
3550.93437378,0.03607962
3552.86318115,0.03530366
3554.79198853,0.03617657
3556.72079590,0.03643037
3558.64960327,0.03635478
3560.57841064,0.03625801
3562.50721802,0.03616151
3564.43602539,0.03657822
3566.36483276,0.03432978
3568.29364014,0.03373140
3570.22244751,0.03627014
3572.15125488,0.03732015
3574.08006226,0.03706855
3576.00886963,0.03726150
3577.93767700,0.03737770
3579.86648437,0.03727776
3581.79529175,0.03740903
3583.72409912,0.03759547
3585.65290649,0.03705108
3587.58171387,0.03441555
3589.51052124,0.03535361
3591.43932861,0.03823876
3593.36813599,0.03724921
3595.29694336,0.03689747
3597.22575073,0.03763834
3599.15455811,0.03798673
3601.08336548,0.03764166
3603.01217285,0.03808414
3604.94098022,0.03902816
3606.86978760,0.03783420
3608.79859497,0.03583432
3610.72740234,0.03673296
3612.65620972,0.03763679
3614.58501709,0.03649867
3616.51382446,0.03912286
3618.44263184,0.03657233
3620.37143921,0.03535940
3622.30024658,0.03970667
3624.22905395,0.03870788
3626.15786133,0.04065450
3628.08666870,0.03496125
3630.01547607,0.03197577
3631.94428345,0.03980863
3633.87309082,0.03886672
3635.80189819,0.03962462
3637.73070557,0.04053894
3639.65951294,0.04007343
3641.58832031,0.04057501
3643.51712769,0.04008763
3645.44593506,0.04064836
3647.37474243,0.03689467
3649.30354980,0.03414616
3651.23235718,0.03463256
3653.16116455,0.04077774
3655.08997192,0.04050928
3657.01877930,0.03659080
3658.94758667,0.04182914
3660.87639404,0.04114649
3662.80520142,0.04178820
3664.73400879,0.04173131
3666.66281616,0.04143553
3668.59162354,0.04051282
3670.52043091,0.03350546
3672.44923828,0.04014172
3674.37804565,0.03856080
3676.30685303,0.03237734
3678.23566040,0.04027615
3680.16446777,0.04121950
3682.09327515,0.04128187
3684.02208252,0.04257670
3685.95088989,0.04198441
3687.87969727,0.03807503
3689.80850464,0.03519723
3691.73731201,0.03994800
3693.66611938,0.04104101
3695.59492676,0.04202148
3697.52373413,0.04200229
3699.45254150,0.04163731
3701.38134888,0.04078039
3703.31015625,0.03916292
3705.23896362,0.04288160
3707.16777100,0.04094101
3709.09657837,0.04009696
3711.02538574,0.03794469
3712.95419312,0.03558666
3714.88300049,0.04153413
3716.81180786,0.04088394
3718.74061523,0.04123219
3720.66942261,0.04053398
3722.59822998,0.03905691
3724.52703735,0.04043096
3726.45584473,0.03771657
3728.38465210,0.04073234
3730.31345947,0.04018816
3732.24226685,0.03722874
3734.17107422,0.03641906
3736.09988159,0.03461219
3738.02868896,0.03658158
3739.95749634,0.03931668
3741.88630371,0.04129684
3743.81511108,0.03255922
3745.74391846,0.03064999
3747.67272583,0.03927285
3749.60153320,0.03399138
3751.53034058,0.03156263
3753.45914795,0.03588233
3755.38795532,0.03836071
3757.31676270,0.03994064
3759.24557007,0.03714032
3761.17437744,0.03836734
3763.10318481,0.04051308
3765.03199219,0.03798750
3766.96079956,0.03875466
3768.88960693,0.03832389
3770.81841431,0.03666189
3772.74722168,0.03945205
3774.67602905,0.03965303
3776.60483643,0.03959601
3778.53364380,0.03853424
3780.46245117,0.03724429
3782.39125854,0.03944885
3784.32006592,0.03850479
3786.24887329,0.03835476
3788.17768066,0.03902841
3790.10648804,0.03880717
3792.03529541,0.03864788
3793.96410278,0.03912876
3795.89291016,0.03695487
3797.82171753,0.03649740
3799.75052490,0.03836513
3801.67933228,0.03089501
3803.60813965,0.03566552
3805.53694702,0.03860801
3807.46575439,0.03188078
3809.39456177,0.03818213
3811.32336914,0.03744882
3813.25217651,0.03874270
3815.18098389,0.03527631
3817.10979126,0.03098224
3819.03859863,0.03870820
3820.96740601,0.03169291
3822.89621338,0.03310413
3824.82502075,0.03848239
3826.75382812,0.03495979
3828.68263550,0.03746123
3830.61144287,0.03612711
3832.54025024,0.03491349
3834.46905762,0.03557203
3836.39786499,0.03396120
3838.32667236,0.03080485
3840.25547974,0.03319399
3842.18428711,0.03570776
3844.11309448,0.03399305
3846.04190186,0.03663562
3847.97070923,0.03622256
3849.89951660,0.03631550
3851.82832397,0.03282490
3853.75713135,0.02495320
3855.68593872,0.02923301
3857.61474609,0.03637959
3859.54355347,0.03546844
3861.47236084,0.03485891
3863.40116821,0.03426545
3865.32997559,0.03195006
3867.25878296,0.03540482
3869.18759033,0.03260236
3871.11639770,0.03020351
3873.04520508,0.03551212
3874.97401245,0.03276038
3876.90281982,0.03513233
3878.83162720,0.03574859
3880.76043457,0.03093388
3882.68924194,0.03522897
3884.61804932,0.03314273
3886.54685669,0.03067503
3888.47566406,0.03527422
3890.40447144,0.03356920
3892.33327881,0.03161824
3894.26208618,0.03443067
3896.19089355,0.03507476
3898.11970093,0.03343946
3900.04850830,0.03185315
3901.97731567,0.03135296
3903.90612305,0.03100664
3905.83493042,0.03142224
3907.76373779,0.03413736
3909.69254517,0.03427740
3911.62135254,0.03393088
3913.55015991,0.03447732
3915.47896728,0.03328986
3917.40777466,0.03247248
3919.33658203,0.03226963
3921.26538940,0.03332619
3923.19419678,0.03323326
3925.12300415,0.03259533
3927.05181152,0.03313618
3928.98061890,0.03342091
3930.90942627,0.03292004
3932.83823364,0.03181452
3934.76704102,0.03293619
3936.69584839,0.03330979
3938.62465576,0.03289669
3940.55346313,0.03322421
3942.48227051,0.03208560
3944.41107788,0.03230320
3946.33988525,0.03283483
3948.26869263,0.03201825
3950.19750000,0.03201505
3952.12630737,0.03251721
3954.05511475,0.03247681
3955.98392212,0.03235841
3957.91272949,0.03225636
3959.84153687,0.03218669
3961.77034424,0.03202446
3963.69915161,0.03193836
3965.62795898,0.03227373
3967.55676636,0.03192490
3969.48557373,0.03183311
3971.41438110,0.03185179
3973.34318848,0.03171850
3975.27199585,0.03169255
3977.20080322,0.03148697
3979.12961060,0.03180813
3981.05841797,0.03147270
3982.98722534,0.03141654
3984.91603271,0.03149816
3986.84484009,0.03128760
3988.77364746,0.03140101
3990.70245483,0.03110209
3992.63126221,0.03110252
3994.56006958,0.03097884
3996.48887695,0.03098923
3998.41768433,0.03087778
4000.34649170,0.03078520
4002.27529907,0.03091069
4004.20410645,0.03070642
4006.13291382,0.03080644
4008.06172119,0.03052797
4009.99052856,0.03044719
4011.91933594,0.03051807
4013.84814331,0.03047747
4015.77695068,0.03042322
4017.70575806,0.03030280
4019.63456543,0.03024501
4021.56337280,0.03004006
4023.49218018,0.03014297
4025.42098755,0.02987518
4027.34979492,0.02995526
4029.27860229,0.02997189
4031.20740967,0.02974961
4033.13621704,0.02984175
4035.06502441,0.02954180
4036.99383179,0.02967102
4038.92263916,0.02959226
4040.85144653,0.02961703
4042.78025391,0.02957386
4044.70906128,0.02930295
4046.63786865,0.02938622
4048.56667603,0.02926080
4050.49548340,0.02929263
4052.42429077,0.02907889
4054.35309814,0.02904394
4056.28190552,0.02897543
4058.21071289,0.02890804
4060.13952026,0.02893616
4062.06832764,0.02880033
4063.99713501,0.02885327
4065.92594238,0.02855530
4067.85474976,0.02859997
4069.78355713,0.02853538
4071.71236450,0.02849867
4073.64117187,0.02849315
4075.56997925,0.02830049
4077.49878662,0.02842207
4079.42759399,0.02818599
4081.35640137,0.02821878
4083.28520874,0.02808364
4085.21401611,0.02798238
4087.14282349,0.02799841
4089.07163086,0.02784636
4091.00043823,0.02789730
4092.92924561,0.02776371
4094.85805298,0.02782423
4096.78686035,0.02763774
4098.71566772,0.02760484
4100.64447510,0.02760090
4102.57328247,0.02751579
4104.50208984,0.02749348
4106.43089722,0.02726312
4108.35970459,0.02733564
4110.28851196,0.02716154
4112.21731934,0.02719699
4114.14612671,0.02712031
4116.07493408,0.02699536
4118.00374145,0.02703721
4119.93254883,0.02689487
4121.86135620,0.02694714
4123.79016357,0.02671944
4125.71897095,0.02683681
4127.64777832,0.02676608
4129.57658569,0.02658940
4131.50539307,0.02665180
4133.43420044,0.02647939
4135.36300781,0.02649778
4137.29181519,0.02639046
4139.22062256,0.02644745
4141.14942993,0.02633722
4143.07823730,0.02619379
4145.00704468,0.02615958
4146.93585205,0.02609671
4148.86465942,0.02608992
4150.79346680,0.02595500
4152.72227417,0.02601225
4154.65108154,0.02585490
4156.57988892,0.02588850
4158.50869629,0.02573578
4160.43750366,0.02556755
4162.36631103,0.02571906
4164.29511841,0.02556712
4166.22392578,0.02552833
4168.15273315,0.02533298
4170.08154053,0.02546347
4172.01034790,0.02547315
4173.93915527,0.02527121
4175.86796265,0.02527532
4177.79677002,0.02509051
4179.72557739,0.02516230
4181.65438477,0.02509520
4183.58319214,0.02503309
4185.51199951,0.02494482
4187.44080688,0.02490237
4189.36961426,0.02486446
4191.29842163,0.02468370
4193.22722900,0.02475789
4195.15603638,0.02465886
4197.08484375,0.02460151
4199.01365112,0.02452538
4200.94245850,0.02451316
4202.87126587,0.02449649
4204.80007324,0.02436742
4206.72888062,0.02435027
4208.65768799,0.02427969
4210.58649536,0.02423301
4212.51530273,0.02409247
4214.44411011,0.02411494
4216.37291748,0.02401272
4218.30172485,0.02397462
4220.23053223,0.02393945
4222.15933960,0.02378254
4224.08814697,0.02389186
4226.01695435,0.02370606
4227.94576172,0.02376538
4229.87456909,0.02378628
4231.80337646,0.02360018
4233.73218384,0.02361135
4235.66099121,0.02353333
4237.58979858,0.02348942
4239.51860596,0.02337847
4241.44741333,0.02339482
4243.37622070,0.02332339
4245.30502808,0.02324560
4247.23383545,0.02317355
4249.16264282,0.02306399
4251.09145020,0.02306385
4253.02025757,0.02304693
4254.94906494,0.02308024
4256.87787231,0.02293051
4258.80667969,0.02293331
4260.73548706,0.02283939
4262.66429443,0.02271607
4264.59310181,0.02273541
4266.52190918,0.02266636
4268.45071655,0.02264085
4270.37952393,0.02248681
4272.30833130,0.02254937
4274.23713867,0.02243937
4276.16594604,0.02235800
4278.09475342,0.02236214
4280.02356079,0.02225591
4281.95236816,0.02235289
4283.88117554,0.02218762
4285.80998291,0.02215236
4287.73879028,0.02212090
4289.66759766,0.02203989
4291.59640503,0.02194916
4293.52521240,0.02187542
4295.45401978,0.02190613
4297.38282715,0.02177031
4299.31163452,0.02185709
4301.24044189,0.02172424
4303.16924927,0.02159873
4305.09805664,0.02160422
4307.02686401,0.02159078
4308.95567139,0.02159108
4310.88447876,0.02143652
4312.81328613,0.02147162
4314.74209351,0.02137045
4316.67090088,0.02140982
4318.59970825,0.02130182
4320.52851562,0.02116337
4322.45732300,0.02124600
4324.38613037,0.02104929
4326.31493774,0.02105896
4328.24374512,0.02098334
4330.17255249,0.02098052
4332.10135986,0.02096274
4334.03016724,0.02084249
4335.95897461,0.02088755
4337.88778198,0.02077998
4339.81658936,0.02072900
4341.74539673,0.02066868
4343.67420410,0.02070693
4345.60301147,0.02057487
4347.53181885,0.02048223
4349.46062622,0.02055867
4351.38943359,0.02039335
4353.31824097,0.02040689
4355.24704834,0.02035815
4357.17585571,0.02027582
4359.10466309,0.02028868
4361.03347046,0.02023132
4362.96227783,0.02017736
4364.89108520,0.02008295
4366.81989258,0.02007807
4368.74869995,0.02009909
4370.67750732,0.01999721
4372.60631470,0.01995962
4374.53512207,0.01993199
4376.46392944,0.01974197
4378.39273682,0.01974789
4380.32154419,0.01976200
4382.25035156,0.01971088
4384.17915894,0.01960719
4386.10796631,0.01944560
4388.03677368,0.01956994
4389.96558105,0.01956416
4391.89438843,0.01946636
4393.82319580,0.01940465
4395.75200317,0.01942304
4397.68081055,0.01936468
4399.60961792,0.01924133
4401.53842529,0.01928700
4403.46723267,0.01912523
4405.39604004,0.01914733
4407.32484741,0.01908599
4409.25365478,0.01897407
4411.18246216,0.01903943
4413.11126953,0.01897029
4415.04007690,0.01897907
4416.96888428,0.01880671
4418.89769165,0.01880818
4420.82649902,0.01881938
4422.75530640,0.01872100
4424.68411377,0.01870828
4426.61292114,0.01858320
4428.54172852,0.01863416
4430.47053589,0.01855427
4432.39934326,0.01846606
4434.32815063,0.01846198
4436.25695801,0.01836481
4438.18576538,0.01829994
4440.11457275,0.01829720
4442.04338013,0.01830091
4443.97218750,0.01820305
4445.90099487,0.01817638
4447.82980225,0.01815600
4449.75860962,0.01815584
4451.68741699,0.01806711
4453.61622437,0.01797764
4455.54503174,0.01796325
4457.47383911,0.01786246
4459.40264648,0.01782112
4461.33145386,0.01777611
4463.26026123,0.01778372
4465.18906860,0.01780320
4467.11787598,0.01776854
4469.04668335,0.01761705
4470.97549072,0.01760023
4472.90429810,0.01760232
4474.83310547,0.01747251
4476.76191284,0.01749461
4478.69072021,0.01738843
4480.61952759,0.01743052
4482.54833496,0.01732647
4484.47714233,0.01719589
4486.40594971,0.01731718
4488.33475708,0.01721774
4490.26356445,0.01719905
4492.19237183,0.01711911
4494.12117920,0.01711938
4496.04998657,0.01703457
4497.97879395,0.01694514
4499.90760132,0.01699080
4501.83640869,0.01690705
4503.76521606,0.01695441
4505.69402344,0.01680472
4507.62283081,0.01682859
4509.55163818,0.01682849
4511.48044556,0.01664419
4513.40925293,0.01666069
4515.33806030,0.01668398
4517.26686768,0.01668642
4519.19567505,0.01653393
4521.12448242,0.01653599
4523.05328979,0.01642104
4524.98209717,0.01639571
4526.91090454,0.01644116
4528.83971191,0.01625662
4530.76851929,0.01630916
4532.69732666,0.01626717
4534.62613403,0.01625019
4536.55494141,0.01618223
4538.48374878,0.01614181
4540.41255615,0.01611450
4542.34136353,0.01602827
4544.27017090,0.01606696
4546.19897827,0.01593384
4548.12778564,0.01596722
4550.05659302,0.01590712
4551.98540039,0.01586996
4553.91420776,0.01583543
4555.84301514,0.01573896
4557.77182251,0.01584677
4559.70062988,0.01572580
4561.62943726,0.01571519
4563.55824463,0.01562578
4565.48705200,0.01560302
4567.41585937,0.01564447
4569.34466675,0.01548509
4571.27347412,0.01550528
4573.20228149,0.01542739
4575.13108887,0.01542216
4577.05989624,0.01537146
4578.98870361,0.01530878
4580.91751099,0.01532489
4582.84631836,0.01523724
4584.77512573,0.01525442
4586.70393311,0.01521153
4588.63274048,0.01514840
4590.56154785,0.01510241
4592.49035522,0.01503676
4594.41916260,0.01495122
4596.34796997,0.01495589
4598.27677734,0.01497557
4600.20558472,0.01492285
4602.13439209,0.01485774
4604.06319946,0.01477452
4605.99200684,0.01481489
4607.92081421,0.01472124
4609.84962158,0.01469332
4611.77842895,0.01468133
4613.70723633,0.01459581
4615.63604370,0.01465727
4617.56485107,0.01456519
4619.49365845,0.01452780
4621.42246582,0.01449023
4623.35127319,0.01446010
4625.28008057,0.01445687
4627.20888794,0.01434390
4629.13769531,0.01433852
4631.06650269,0.01433220
4632.99531006,0.01429364
4634.92411743,0.01422086
4636.85292480,0.01417641
4638.78173218,0.01410197
4640.71053955,0.01410360
4642.63934692,0.01413096
4644.56815430,0.01399317
4646.49696167,0.01402838
4648.42576904,0.01402327
4650.35457642,0.01398798
4652.28338379,0.01402000
4654.21219116,0.01389464
4656.14099853,0.01384458
4658.06980591,0.01383718
4659.99861328,0.01378788
4661.92742065,0.01374227
4663.85622803,0.01365429
4665.78503540,0.01364076
4667.71384277,0.01361661
4669.64265015,0.01352507
4671.57145752,0.01357002
4673.50026489,0.01361246
4675.42907227,0.01354060
4677.35787964,0.01343295
4679.28668701,0.01341018
4681.21549438,0.01342430
4683.14430176,0.01332869
4685.07310913,0.01330342
4687.00191650,0.01326295
4688.93072388,0.01324158
4690.85953125,0.01323519
4692.78833862,0.01318332
4694.71714600,0.01319143
4696.64595337,0.01310887
4698.57476074,0.01312415
4700.50356812,0.01317083
4702.43237549,0.01306963
4704.36118286,0.01297666
4706.28999023,0.01297685
4708.21879761,0.01299203
4710.14760498,0.01294196
4712.07641235,0.01288603
4714.00521973,0.01287020
4715.93402710,0.01288641
4717.86283447,0.01275373
4719.79164185,0.01273447
4721.72044922,0.01270569
4723.64925659,0.01263025
4725.57806396,0.01271199
4727.50687134,0.01260509
4729.43567871,0.01264683
4731.36448608,0.01263214
4733.29329346,0.01256434
4735.22210083,0.01258959
4737.15090820,0.01245272
4739.07971558,0.01247656
4741.00852295,0.01245880
4742.93733032,0.01242847
4744.86613770,0.01234821
4746.79494507,0.01232686
4748.72375244,0.01233940
4750.65255981,0.01220891
4752.58136719,0.01221401
4754.51017456,0.01212367
4756.43898193,0.01213645
4758.36778931,0.01211347
4760.29659668,0.01208487
4762.22540405,0.01214602
4764.15421143,0.01203522
4766.08301880,0.01200426
4768.01182617,0.01194983
4769.94063354,0.01194912
4771.86944092,0.01189480
4773.79824829,0.01190469
4775.72705566,0.01192125
4777.65586304,0.01179817
4779.58467041,0.01182375
4781.51347778,0.01173878
4783.44228516,0.01173204
4785.37109253,0.01173816
4787.29989990,0.01170550
4789.22870728,0.01168974
4791.15751465,0.01160528
4793.08632202,0.01160902
4795.01512939,0.01151579
4796.94393677,0.01150898
4798.87274414,0.01155571
4800.80155151,0.01149091
4802.73035889,0.01143241
4804.65916626,0.01139080
4806.58797363,0.01133727
4808.51678101,0.01139320
4810.44558838,0.01142023
4812.37439575,0.01132684
4814.30320312,0.01134238
4816.23201050,0.01118697
4818.16081787,0.01120416
4820.08962524,0.01123333
4822.01843262,0.01111966
4823.94723999,0.01117358
4825.87604736,0.01101831
4827.80485474,0.01106345
4829.73366211,0.01103887
4831.66246948,0.01097252
4833.59127686,0.01100339
4835.52008423,0.01086894
4837.44889160,0.01099074
4839.37769897,0.01091842
4841.30650635,0.01087714
4843.23531372,0.01091481
4845.16412109,0.01077806
4847.09292847,0.01077309
4849.02173584,0.01073316
4850.95054321,0.01074190
4852.87935059,0.01073909
4854.80815796,0.01066848
4856.73696533,0.01056460
4858.66577270,0.01057401
4860.59458008,0.01056791
4862.52338745,0.01049200
4864.45219482,0.01053481
4866.38100220,0.01045322
4868.30980957,0.01045319
4870.23861694,0.01046984
4872.16742432,0.01046531
4874.09623169,0.01047669
4876.02503906,0.01037088
4877.95384644,0.01035262
4879.88265381,0.01028056
4881.81146118,0.01022330
4883.74026855,0.01022825
4885.66907593,0.01019610
4887.59788330,0.01017870
4889.52669067,0.01017024
4891.45549805,0.01016116
4893.38430542,0.01012134
4895.31311279,0.01011700
4897.24192017,0.01007998
4899.17072754,0.01000944
4901.09953491,0.00997177
4903.02834228,0.00999560
4904.95714966,0.01002208
4906.88595703,0.00994889
4908.81476440,0.00989386
4910.74357178,0.00988229
4912.67237915,0.00986990
4914.60118652,0.00990153
4916.52999390,0.00987529
4918.45880127,0.00974872
4920.38760864,0.00972482
4922.31641602,0.00973559
4924.24522339,0.00973444
4926.17403076,0.00975143
4928.10283813,0.00968535
4930.03164551,0.00962633
4931.96045288,0.00961177
4933.88926025,0.00963201
4935.81806763,0.00961566
4937.74687500,0.00960811
4939.67568237,0.00955407
4941.60448975,0.00941980
4943.53329712,0.00941957
4945.46210449,0.00944888
4947.39091187,0.00943552
4949.31971924,0.00941427
4951.24852661,0.00943873
4953.17733398,0.00939075
4955.10614136,0.00930902
4957.03494873,0.00933144
4958.96375610,0.00926063
4960.89256348,0.00920283
4962.82137085,0.00917592
4964.75017822,0.00916240
4966.67898560,0.00918491
4968.60779297,0.00913657
4970.53660034,0.00907992
4972.46540771,0.00910211
4974.39421509,0.00911800
4976.32302246,0.00903901
4978.25182983,0.00897587
4980.18063721,0.00896620
4982.10944458,0.00906318
4984.03825195,0.00894896
4985.96705933,0.00883259
4987.89586670,0.00898669
4989.82467407,0.00889985
4991.75348145,0.00887049
4993.68228882,0.00883165
4995.61109619,0.00870064
4997.53990356,0.00880340
4999.46871094,0.00884573
5001.39751831,0.00875594
5003.32632568,0.00866869
5005.25513306,0.00866734
5007.18394043,0.00865186
5009.11274780,0.00863951
5011.04155518,0.00855604
5012.97036255,0.00854734
5014.89916992,0.00861350
5016.82797729,0.00851448
5018.75678467,0.00853988
5020.68559204,0.00848207
5022.61439941,0.00847208
5024.54320679,0.00851522
5026.47201416,0.00840329
5028.40082153,0.00840360
5030.32962891,0.00838801
5032.25843628,0.00839579
5034.18724365,0.00834238
5036.11605103,0.00826032
5038.04485840,0.00825943
5039.97366577,0.00832594
5041.90247314,0.00832349
5043.83128052,0.00818088
5045.76008789,0.00818763
5047.68889526,0.00822444
5049.61770264,0.00826873
5051.54651001,0.00819076
5053.47531738,0.00809309
5055.40412476,0.00813829
5057.33293213,0.00812341
5059.26173950,0.00806643
5061.19054687,0.00800936
5063.11935425,0.00805893
5065.04816162,0.00798419
5066.97696899,0.00798764
5068.90577637,0.00794607
5070.83458374,0.00778873
5072.76339111,0.00793202
5074.69219849,0.00786389
5076.62100586,0.00779667
5078.54981323,0.00785006
5080.47862061,0.00783321
5082.40742798,0.00785833
5084.33623535,0.00778232
5086.26504272,0.00774605
5088.19385010,0.00773442
5090.12265747,0.00773613
5092.05146484,0.00766026
5093.98027222,0.00762194
5095.90907959,0.00759866
5097.83788696,0.00755639
5099.76669434,0.00762801
5101.69550171,0.00752042
5103.62430908,0.00747313
5105.55311645,0.00755898
5107.48192383,0.00759260
5109.41073120,0.00752959
5111.33953857,0.00749206
5113.26834595,0.00755757
5115.19715332,0.00746288
5117.12596069,0.00739064
5119.05476807,0.00739183
5120.98357544,0.00743371
5122.91238281,0.00739165
5124.84119019,0.00732900
5126.76999756,0.00742796
5128.69880493,0.00732840
5130.62761230,0.00724777
5132.55641968,0.00726441
5134.48522705,0.00717312
5136.41403442,0.00723549
5138.34284180,0.00731308
5140.27164917,0.00718091
5142.20045654,0.00710058
5144.12926392,0.00711048
5146.05807129,0.00709782
5147.98687866,0.00712831
5149.91568603,0.00708304
5151.84449341,0.00706742
5153.77330078,0.00707058
5155.70210815,0.00695824
5157.63091553,0.00696762
5159.55972290,0.00702335
5161.48853027,0.00696239
5163.41733765,0.00694702
5165.34614502,0.00699012
5167.27495239,0.00694791
5169.20375977,0.00690021
5171.13256714,0.00687595
5173.06137451,0.00684895
5174.99018188,0.00683703
5176.91898926,0.00682332
5178.84779663,0.00682143
5180.77660400,0.00677135
5182.70541138,0.00672396
5184.63421875,0.00670335
5186.56302612,0.00669256
5188.49183350,0.00670861
5190.42064087,0.00675211
5192.34944824,0.00671486
5194.27825562,0.00663865
5196.20706299,0.00666697
5198.13587036,0.00662702
5200.06467773,0.00662120
5201.99348511,0.00662072
5203.92229248,0.00654601
5205.85109985,0.00644677
5207.77990723,0.00635974
5209.70871460,0.00648390
5211.63752197,0.00652335
5213.56632935,0.00646209
5215.49513672,0.00645194
5217.42394409,0.00645771
5219.35275146,0.00643383
5221.28155884,0.00643204
5223.21036621,0.00652313
5225.13917358,0.00631892
5227.06798096,0.00624896
5228.99678833,0.00637976
5230.92559570,0.00627644
5232.85440308,0.00628695
5234.78321045,0.00633138
5236.71201782,0.00633343
5238.64082520,0.00632411
5240.56963257,0.00632126
5242.49843994,0.00626410
5244.42724731,0.00614455
5246.35605469,0.00619275
5248.28486206,0.00607648
5250.21366943,0.00601686
5252.14247681,0.00620665
5254.07128418,0.00605178
5256.00009155,0.00600013
5257.92889893,0.00619839
5259.85770630,0.00613789
5261.78651367,0.00610364
5263.71532104,0.00597800
5265.64412842,0.00597027
5267.57293579,0.00614569
5269.50174316,0.00600400
5271.43055054,0.00600106
5273.35935791,0.00603524
5275.28816528,0.00598476
5277.21697266,0.00599775
5279.14578003,0.00591538
5281.07458740,0.00593391
5283.00339478,0.00591152
5284.93220215,0.00580851
5286.86100952,0.00584013
5288.78981689,0.00588376
5290.71862427,0.00573855
5292.64743164,0.00580701
5294.57623901,0.00591998
5296.50504639,0.00577912
5298.43385376,0.00587099
5300.36266113,0.00585211
5302.29146851,0.00576470
5304.22027588,0.00576398
5306.14908325,0.00568535
5308.07789062,0.00565233
5310.00669800,0.00565372
5311.93550537,0.00573263
5313.86431274,0.00568566
5315.79312012,0.00568674
5317.72192749,0.00565385
5319.65073486,0.00565003
5321.57954224,0.00570753
5323.50834961,0.00556684
5325.43715698,0.00557929
5327.36596436,0.00550352
5329.29477173,0.00548332
5331.22357910,0.00557402
5333.15238647,0.00550309
5335.08119385,0.00549933
5337.01000122,0.00545910
5338.93880859,0.00536982
5340.86761597,0.00545123
5342.79642334,0.00549556
5344.72523071,0.00525945
5346.65403809,0.00536668
5348.58284546,0.00545460
5350.51165283,0.00538589
5352.44046020,0.00542055
5354.36926758,0.00517598
5356.29807495,0.00534807
5358.22688232,0.00540658
5360.15568970,0.00530300
5362.08449707,0.00538876
5364.01330444,0.00522430
5365.94211182,0.00528413
5367.87091919,0.00524205
5369.79972656,0.00524911
5371.72853394,0.00529071
5373.65734131,0.00518422
5375.58614868,0.00518787
5377.51495605,0.00506655
5379.44376343,0.00511233
5381.37257080,0.00520119
5383.30137817,0.00517518
5385.23018555,0.00509791
5387.15899292,0.00508550
5389.08780029,0.00510510
5391.01660767,0.00507256
5392.94541504,0.00503996
5394.87422241,0.00491496
5396.80302978,0.00500237
5398.73183716,0.00501636
5400.66064453,0.00499893
5402.58945190,0.00500032
5404.51825928,0.00484483
5406.44706665,0.00496076
5408.37587402,0.00498364
5410.30468140,0.00486707
5412.23348877,0.00482930
5414.16229614,0.00476266
5416.09110352,0.00484339
5418.01991089,0.00495213
5419.94871826,0.00484716
5421.87752563,0.00478229
5423.80633301,0.00486121
5425.73514038,0.00489073
5427.66394775,0.00482782
5429.59275513,0.00464290
5431.52156250,0.00476333
5433.45036987,0.00481212
5435.37917725,0.00457963
5437.30798462,0.00471754
5439.23679199,0.00472745
5441.16559936,0.00462219
5443.09440674,0.00470715
5445.02321411,0.00462810
5446.95202148,0.00458312
5448.88082886,0.00470453
5450.80963623,0.00466813
5452.73844360,0.00464239
5454.66725098,0.00468158
5456.59605835,0.00460837
5458.52486572,0.00460063
5460.45367310,0.00448655
5462.38248047,0.00453292
5464.31128784,0.00456595
5466.24009521,0.00447149
5468.16890259,0.00454100
5470.09770996,0.00444297
5472.02651733,0.00457309
5473.95532471,0.00451446
5475.88413208,0.00432273
5477.81293945,0.00445035
5479.74174683,0.00443525
5481.67055420,0.00449110
5483.59936157,0.00445838
5485.52816895,0.00449326
5487.45697632,0.00445191
5489.38578369,0.00433050
5491.31459106,0.00439827
5493.24339844,0.00430304
5495.17220581,0.00439418
5497.10101318,0.00438886
5499.02982056,0.00430887
5500.95862793,0.00436528
5502.88743530,0.00430513
5504.81624268,0.00430036
5506.74505005,0.00423568
5508.67385742,0.00426808
5510.60266479,0.00431708
5512.53147217,0.00427664
5514.46027954,0.00429824
5516.38908691,0.00422456
5518.31789429,0.00416450
5520.24670166,0.00419165
5522.17550903,0.00416643
5524.10431641,0.00419114
5526.03312378,0.00422977
5527.96193115,0.00414145
5529.89073853,0.00416294
5531.81954590,0.00416499
5533.74835327,0.00409571
5535.67716064,0.00413773
5537.60596802,0.00416530
5539.53477539,0.00413389
5541.46358276,0.00408806
5543.39239014,0.00412569
5545.32119751,0.00405848
5547.25000488,0.00402755
5549.17881226,0.00409303
5551.10761963,0.00403095
5553.03642700,0.00406286
5554.96523437,0.00405469
5556.89404175,0.00400227
5558.82284912,0.00400639
5560.75165649,0.00396459
5562.68046387,0.00396769
5564.60927124,0.00404632
5566.53807861,0.00403965
5568.46688599,0.00391285
5570.39569336,0.00393898
5572.32450073,0.00398855
5574.25330811,0.00393450
5576.18211548,0.00393115
5578.11092285,0.00392575
5580.03973022,0.00393480
5581.96853760,0.00395629
5583.89734497,0.00387292
5585.82615234,0.00384892
5587.75495972,0.00389600
5589.68376709,0.00383801
5591.61257446,0.00389109
5593.54138184,0.00389539
5595.47018921,0.00383200
5597.39899658,0.00388832
5599.32780395,0.00386253
5601.25661133,0.00379446
5603.18541870,0.00372301
5605.11422607,0.00376012
5607.04303345,0.00379232
5608.97184082,0.00378383
5610.90064819,0.00376875
5612.82945557,0.00367539
5614.75826294,0.00371588
5616.68707031,0.00367154
5618.61587769,0.00361896
5620.54468506,0.00367403
5622.47349243,0.00367694
5624.40229980,0.00364142
5626.33110718,0.00357885
5628.25991455,0.00360594
5630.18872192,0.00360127
5632.11752930,0.00366621
5634.04633667,0.00371442
5635.97514404,0.00362553
5637.90395142,0.00361354
5639.83275879,0.00356505
5641.76156616,0.00353930
5643.69037353,0.00355428
5645.61918091,0.00350136
5647.54798828,0.00352072
5649.47679565,0.00358195
5651.40560303,0.00350911
5653.33441040,0.00353314
5655.26321777,0.00357078
5657.19202515,0.00343307
5659.12083252,0.00347674
5661.04963989,0.00352368
5662.97844727,0.00343186
5664.90725464,0.00344714
5666.83606201,0.00349138
5668.76486938,0.00341286
5670.69367676,0.00339878
5672.62248413,0.00341595
5674.55129150,0.00336273
5676.48009888,0.00343652
5678.40890625,0.00334884
5680.33771362,0.00333785
5682.26652100,0.00345738
5684.19532837,0.00337277
5686.12413574,0.00335668
5688.05294311,0.00328949
5689.98175049,0.00328839
5691.91055786,0.00334629
5693.83936523,0.00330823
5695.76817261,0.00327374
5697.69697998,0.00325771
5699.62578735,0.00331119
5701.55459473,0.00326240
5703.48340210,0.00325711
5705.41220947,0.00329170
5707.34101685,0.00319502
5709.26982422,0.00313652
5711.19863159,0.00322963
5713.12743896,0.00323298
5715.05624634,0.00314808
5716.98505371,0.00321051
5718.91386108,0.00315980
5720.84266846,0.00314480
5722.77147583,0.00318442
5724.70028320,0.00315664
5726.62909058,0.00312996
5728.55789795,0.00307854
5730.48670532,0.00312771
5732.41551270,0.00311261
5734.34432007,0.00317782
5736.27312744,0.00316474
5738.20193481,0.00304697
5740.13074219,0.00304945
5742.05954956,0.00299792
5743.98835693,0.00306656
5745.91716431,0.00305512
5747.84597168,0.00303333
5749.77477905,0.00301403
5751.70358643,0.00291072
5753.63239380,0.00297974
5755.56120117,0.00303295
5757.49000854,0.00307217
5759.41881592,0.00302863
5761.34762329,0.00296839
5763.27643066,0.00293656
5765.20523804,0.00293019
5767.13404541,0.00299977
5769.06285278,0.00293893
5770.99166016,0.00291261
5772.92046753,0.00288458
5774.84927490,0.00288678
5776.77808228,0.00292330
5778.70688965,0.00287064
5780.63569702,0.00290092
5782.56450439,0.00285444
5784.49331177,0.00280852
5786.42211914,0.00287508
5788.35092651,0.00282282
5790.27973389,0.00276716
5792.20854126,0.00279851
5794.13734863,0.00276854
5796.06615601,0.00280368
5797.99496338,0.00283348
5799.92377075,0.00274820
5801.85257812,0.00277735
5803.78138550,0.00275605
5805.71019287,0.00272694
5807.63900024,0.00282298
5809.56780762,0.00275592
5811.49661499,0.00270631
5813.42542236,0.00278344
5815.35422974,0.00274199
5817.28303711,0.00276936
5819.21184448,0.00280199
5821.14065186,0.00268712
5823.06945923,0.00269094
5824.99826660,0.00267333
5826.92707397,0.00263380
5828.85588135,0.00266809
5830.78468872,0.00269128
5832.71349609,0.00270991
5834.64230347,0.00265769
5836.57111084,0.00265862
5838.49991821,0.00262171
5840.42872559,0.00263674
5842.35753296,0.00267518
5844.28634033,0.00256297
5846.21514770,0.00258296
5848.14395508,0.00262815
5850.07276245,0.00261325
5852.00156982,0.00256302
5853.93037720,0.00257363
5855.85918457,0.00260973
5857.78799194,0.00253247
5859.71679932,0.00251984
5861.64560669,0.00251773
5863.57441406,0.00254173
5865.50322144,0.00253139
5867.43202881,0.00250002
5869.36083618,0.00250758
5871.28964355,0.00254045
5873.21845093,0.00256330
5875.14725830,0.00244100
5877.07606567,0.00244622
5879.00487305,0.00246690
5880.93368042,0.00245696
5882.86248779,0.00248861
5884.79129517,0.00244721
5886.72010254,0.00246114
5888.64890991,0.00239896
5890.57771728,0.00241052
5892.50652466,0.00244314
5894.43533203,0.00237243
5896.36413940,0.00237218
5898.29294678,0.00236384
5900.22175415,0.00241388
5902.15056152,0.00244520
5904.07936890,0.00237678
5906.00817627,0.00232732
5907.93698364,0.00234373
5909.86579102,0.00233742
5911.79459839,0.00231912
5913.72340576,0.00232604
5915.65221313,0.00228203
5917.58102051,0.00229601
5919.50982788,0.00232347
5921.43863525,0.00230926
5923.36744263,0.00229909
5925.29625000,0.00228851
5927.22505737,0.00226427
5929.15386475,0.00223899
5931.08267212,0.00224499
5933.01147949,0.00223662
5934.94028686,0.00225422
5936.86909424,0.00225554
5938.79790161,0.00225812
5940.72670898,0.00225757
5942.65551636,0.00218959
5944.58432373,0.00215025
5946.51313110,0.00219261
5948.44193848,0.00219696
5950.37074585,0.00215067
5952.29955322,0.00223888
5954.22836060,0.00220592
5956.15716797,0.00214366
5958.08597534,0.00216459
5960.01478271,0.00210487
5961.94359009,0.00220883
5963.87239746,0.00219348
5965.80120483,0.00212935
5967.73001221,0.00212466
5969.65881958,0.00206799
5971.58762695,0.00216036
5973.51643433,0.00213469
5975.44524170,0.00211210
5977.37404907,0.00212341
5979.30285645,0.00211562
5981.23166382,0.00218321
5983.16047119,0.00212914
5985.08927856,0.00211715
5987.01808594,0.00211428
5988.94689331,0.00204349
5990.87570068,0.00202058
5992.80450806,0.00203555
5994.73331543,0.00204614
5996.66212280,0.00205083
5998.59093018,0.00207804
6000.51973755,0.00206886
