399.26312622,0.00047113
401.19193359,0.00068409
403.12074097,0.00037531
405.04954834,0.00024727
406.97835571,0.00038438
408.90716309,0.00027004
410.83597046,0.00076112
412.76477783,0.00063262
414.69358521,0.00028684
416.62239258,0.00044718
418.55119995,0.00058457
420.48000732,0.00042344
422.40881470,0.00053106
424.33762207,0.00080564
426.26642944,0.00035688
428.19523682,0.00058819
430.12404419,0.00044748
432.05285156,0.00028509
433.98165894,0.00035173
435.91046631,-0.00020116
437.83927368,0.00040458
439.76808105,0.00067520
441.69688843,0.00067067
443.62569580,0.00069252
445.55450317,0.00032907
447.48331055,0.00042658
449.41211792,0.00016743
451.34092529,0.00004097
453.26973267,0.00030684
455.19854004,0.00058732
457.12734741,0.00053184
459.05615479,0.00051396
460.98496216,0.00053264
462.91376953,0.00037262
464.84257690,0.00055442
466.77138428,0.00061142
468.70019165,0.00057220
470.62899902,-0.00002858
472.55780640,-0.00005270
474.48661377,0.00043386
476.41542114,0.00022629
478.34422852,0.00032653
480.27303589,0.00003426
482.20184326,0.00006080
484.13065063,0.00036170
486.05945801,0.00003768
487.98826538,0.00019303
489.91707275,0.00014439
491.84588013,-0.00007903
493.77468750,0.00011832
495.70349487,0.00006253
497.63230225,-0.00002594
499.56110962,0.00001122
501.48991699,0.00013697
503.41872437,0.00042556
505.34753174,0.00013629
507.27633911,-0.00010336
509.20514648,0.00007993
511.13395386,-0.00023811
513.06276123,-0.00022395
514.99156860,0.00001812
516.92037598,0.00008798
518.84918335,0.00015691
520.77799072,0.00007986
522.70679810,0.00012129
524.63560547,0.00033132
526.56441284,0.00006969
528.49322021,-0.00000764
530.42202759,0.00017371
532.35083496,-0.00013532
534.27964233,0.00036110
536.20844971,0.00039166
538.13725708,-0.00013276
540.06606445,0.00006038
541.99487183,0.00012918
543.92367920,0.00013479
545.85248657,0.00028626
547.78129395,0.00054071
549.71010132,0.00039338
551.63890869,0.00041371
553.56771606,0.00043599
555.49652344,0.00001673
557.42533081,0.00029035
559.35413818,0.00058435
561.28294556,0.00043222
563.21175293,0.00011215
565.14056030,0.00009612
567.06936768,0.00016322
568.99817505,0.00003961
570.92698242,0.00011407
572.85578979,0.00029850
574.78459717,0.00027595
576.71340454,-0.00021784
578.64221191,0.00019977
580.57101929,0.00049434
582.49982666,-0.00015076
584.42863403,-0.00002301
586.35744141,0.00020025
588.28624878,-0.00005152
590.21505615,-0.00011665
592.14386353,0.00012677
594.07267090,-0.00033933
596.00147827,-0.00014006
597.93028564,0.00029743
599.85909302,-0.00000110
601.78790039,0.00032158
603.71670776,0.00033195
605.64551514,0.00045554
607.57432251,0.00021619
609.50312988,0.00017155
611.43193726,0.00054678
613.36074463,0.00004023
615.28955200,0.00016319
617.21835938,0.00026260
619.14716675,0.00026446
621.07597412,0.00030120
623.00478149,-0.00003553
624.93358887,0.00008698
626.86239624,0.00023423
628.79120361,0.00014283
630.72001099,0.00005607
632.64881836,0.00036942
634.57762573,0.00055389
636.50643311,0.00049136
638.43524048,0.00071155
640.36404785,0.00079799
642.29285522,0.00086418
644.22166260,0.00058911
646.15046997,0.00052832
648.07927734,0.00089985
650.00808472,0.00071571
651.93689209,0.00094257
653.86569946,0.00121817
655.79450684,0.00096675
657.72331421,0.00096995
659.65212158,0.00100786
661.58092896,0.00106497
663.50973633,0.00115847
665.43854370,0.00140181
667.36735107,0.00139421
669.29615845,0.00130674
671.22496582,0.00160081
673.15377319,0.00140409
675.08258057,0.00131298
677.01138794,0.00161305
678.94019531,0.00164537
680.86900269,0.00160850
682.79781006,0.00154987
684.72661743,0.00169892
686.65542480,0.00164005
688.58423218,0.00125895
690.51303955,0.00158903
692.44184692,0.00203396
694.37065430,0.00201286
696.29946167,0.00230586
698.22826904,0.00257606
700.15707642,0.00270888
702.08588379,0.00255382
704.01469116,0.00215063
705.94349854,0.00233054
707.87230591,0.00203626
709.80111328,0.00139383
711.72992065,0.00108006
713.65872803,0.00064776
715.58753540,0.00068233
717.51634277,0.00055633
719.44515015,0.00011681
721.37395752,0.00023218
723.30276489,0.00039259
725.23157227,0.00036816
727.16037964,0.00026309
729.08918701,0.00005426
731.01799438,0.00003336
732.94680176,0.00004320
734.87560913,0.00024689
736.80441650,0.00026071
738.73322388,0.00007689
740.66203125,0.00034653
742.59083862,0.00015202
744.51964600,0.00015796
746.44845337,0.00038679
748.37726074,0.00024908
750.30606812,0.00019277
752.23487549,0.00025929
754.16368286,0.00037973
756.09249023,0.00015288
758.02129761,0.00025365
759.95010498,0.00044283
761.87891235,0.00024479
763.80771973,0.00032215
765.73652710,0.00025351
767.66533447,0.00037677
769.59414185,0.00068981
771.52294922,0.00034781
773.45175659,0.00026818
775.38056396,0.00040460
777.30937134,0.00013037
779.23817871,0.00027142
781.16698608,0.00052745
783.09579346,0.00039595
785.02460083,0.00043223
786.95340820,0.00037813
788.88221558,0.00029166
790.81102295,0.00040579
792.73983032,0.00034527
794.66863770,0.00048653
796.59744507,0.00057521
798.52625244,0.00046318
800.45505981,0.00054168
802.38386719,0.00046602
804.31267456,0.00042232
806.24148193,0.00037287
808.17028931,0.00029418
810.09909668,0.00045251
812.02790405,0.00050324
813.95671143,0.00035756
815.88551880,0.00021385
817.81432617,0.00013340
819.74313354,0.00023272
821.67194092,0.00039873
823.60074829,0.00029469
825.52955566,0.00039349
827.45836304,0.00063412
829.38717041,0.00052292
831.31597778,0.00057057
833.24478516,0.00086924
835.17359253,0.00099071
837.10239990,0.00083113
839.03120728,0.00086336
840.96001465,0.00085076
842.88882202,0.00061770
844.81762939,0.00066301
846.74643677,0.00070013
848.67524414,0.00067072
850.60405151,0.00046087
852.53285889,0.00035544
854.46166626,0.00062395
856.39047363,0.00043499
858.31928101,0.00000181
860.24808838,0.00037995
862.17689575,0.00071557
864.10570313,0.00008077
866.03451050,0.00009162
867.96331787,0.00053019
869.89212524,0.00034911
871.82093262,0.00043579
873.74973999,0.00048802
875.67854736,0.00036549
877.60735474,0.00045669
879.53616211,0.00040374
881.46496948,0.00040319
883.39377686,0.00052424
885.32258423,0.00048703
887.25139160,0.00042029
889.18019897,0.00040390
891.10900635,0.00051530
893.03781372,0.00068987
894.96662109,0.00050094
896.89542847,0.00041018
898.82423584,0.00043459
900.75304321,0.00025302
902.68185059,0.00038173
904.61065796,0.00047628
906.53946533,0.00046147
908.46827271,0.00028966
910.39708008,0.00027152
912.32588745,0.00066785
914.25469482,0.00049928
916.18350220,0.00044976
918.11230957,0.00063677
920.04111694,0.00066414
921.96992432,0.00078735
923.89873169,0.00066935
925.82753906,0.00069595
927.75634644,0.00085775
929.68515381,0.00075547
931.61396118,0.00079012
933.54276855,0.00121406
935.47157593,0.00098853
937.40038330,0.00062126
939.32919067,0.00113289
941.25799805,0.00133142
943.18680542,0.00125378
945.11561279,0.00111763
947.04442017,0.00104374
948.97322754,0.00146540
950.90203491,0.00144692
952.83084229,0.00111333
954.75964966,0.00108046
956.68845703,0.00126286
958.61726440,0.00143221
960.54607178,0.00106689
962.47487915,0.00080956
964.40368652,0.00108875
966.33249390,0.00129458
968.26130127,0.00133463
970.19010864,0.00119168
972.11891602,0.00147344
974.04772339,0.00152369
975.97653076,0.00124726
977.90533813,0.00171714
979.83414551,0.00157450
981.76295288,0.00158046
983.69176025,0.00194606
985.62056763,0.00197788
987.54937500,0.00256571
989.47818237,0.00258641
991.40698975,0.00266044
993.33579712,0.00300958
995.26460449,0.00316568
997.19341187,0.00357863
999.12221924,0.00368366
1001.05102661,0.00393182
1002.97983398,0.00432030
1004.90864136,0.00461790
1006.83744873,0.00479522
1008.76625610,0.00500760
1010.69506348,0.00528450
1012.62387085,0.00559012
1014.55267822,0.00590148
1016.48148560,0.00601818
1018.41029297,0.00640403
1020.33910034,0.00651695
1022.26790771,0.00689145
1024.19671509,0.00728703
1026.12552246,0.00717681
1028.05432983,0.00763642
1029.98313721,0.00793806
1031.91194458,0.00796988
1033.84075195,0.00814552
1035.76955933,0.00836852
1037.69836670,0.00812397
1039.62717407,0.00820022
1041.55598145,0.00868456
1043.48478882,0.00824262
1045.41359619,0.00810951
1047.34240356,0.00804064
1049.27121094,0.00783761
1051.20001831,0.00777049
1053.12882568,0.00764800
1055.05763306,0.00755872
1056.98644043,0.00713135
1058.91524780,0.00717499
1060.84405518,0.00693413
1062.77286255,0.00670205
1064.70166992,0.00663252
1066.63047729,0.00629280
1068.55928467,0.00625167
1070.48809204,0.00568221
1072.41689941,0.00538303
1074.34570679,0.00531307
1076.27451416,0.00514077
1078.20332153,0.00481097
1080.13212891,0.00451583
1082.06093628,0.00470581
1083.98974365,0.00436316
1085.91855103,0.00412708
1087.84735840,0.00384640
1089.77616577,0.00382050
1091.70497314,0.00374633
1093.63378052,0.00322324
1095.56258789,0.00345065
1097.49139526,0.00324707
1099.42020264,0.00304129
1101.34901001,0.00309648
1103.27781738,0.00318812
1105.20662476,0.00310871
1107.13543213,0.00267606
1109.06423950,0.00294138
1110.99304687,0.00282913
1112.92185425,0.00290850
1114.85066162,0.00301393
1116.77946899,0.00265283
1118.70827637,0.00293276
1120.63708374,0.00298548
1122.56589111,0.00296046
1124.49469849,0.00291071
1126.42350586,0.00288447
1128.35231323,0.00305917
1130.28112061,0.00317287
1132.20992798,0.00332994
1134.13873535,0.00318704
1136.06754272,0.00327847
1137.99635010,0.00359841
1139.92515747,0.00366507
1141.85396484,0.00378202
1143.78277222,0.00418049
1145.71157959,0.00442400
1147.64038696,0.00443209
1149.56919434,0.00470829
1151.49800171,0.00501697
1153.42680908,0.00525415
1155.35561646,0.00528689
1157.28442383,0.00541504
1159.21323120,0.00576564
1161.14203857,0.00594022
1163.07084595,0.00629111
1164.99965332,0.00634040
1166.92846069,0.00636803
1168.85726807,0.00697121
1170.78607544,0.00706527
1172.71488281,0.00709386
1174.64369019,0.00771158
1176.57249756,0.00790748
1178.50130493,0.00799320
1180.43011230,0.00847805
1182.35891968,0.00876518
1184.28772705,0.00909935
1186.21653442,0.00964443
1188.14534180,0.00996470
1190.07414917,0.01019623
1192.00295654,0.01066169
1193.93176392,0.01133098
1195.86057129,0.01183935
1197.78937866,0.01223785
1199.71818604,0.01280966
1201.64699341,0.01324510
1203.57580078,0.01372923
1205.50460815,0.01429322
1207.43341553,0.01463887
1209.36222290,0.01525770
1211.29103027,0.01574494
1213.21983765,0.01603164
1215.14864502,0.01645998
1217.07745239,0.01673535
1219.00625977,0.01723382
1220.93506714,0.01743192
1222.86387451,0.01726221
1224.79268188,0.01747454
1226.72148926,0.01777680
1228.65029663,0.01782558
1230.57910400,0.01777298
1232.50791138,0.01789076
1234.43671875,0.01787057
1236.36552612,0.01796939
1238.29433350,0.01788891
1240.22314087,0.01754540
1242.15194824,0.01764115
1244.08075562,0.01764963
1246.00956299,0.01784080
1247.93837036,0.01763188
1249.86717773,0.01727901
1251.79598511,0.01754261
1253.72479248,0.01708209
1255.65359985,0.01683360
1257.58240723,0.01683671
1259.51121460,0.01632208
1261.44002197,0.01605866
1263.36882935,0.01588501
1265.29763672,0.01585365
1267.22644409,0.01569017
1269.15525146,0.01535920
1271.08405884,0.01525125
1273.01286621,0.01513678
1274.94167358,0.01486406
1276.87048096,0.01456386
1278.79928833,0.01423560
1280.72809570,0.01384393
1282.65690308,0.01367481
1284.58571045,0.01337232
1286.51451782,0.01302301
1288.44332520,0.01289814
1290.37213257,0.01271451
1292.30093994,0.01258372
1294.22974731,0.01255067
1296.15855469,0.01264653
1298.08736206,0.01263880
1300.01616943,0.01255420
1301.94497681,0.01246468
1303.87378418,0.01249557
1305.80259155,0.01270921
1307.73139893,0.01286017
1309.66020630,0.01328547
1311.58901367,0.01335825
1313.51782104,0.01332900
1315.44662842,0.01383865
1317.37543579,0.01408033
1319.30424316,0.01451094
1321.23305054,0.01505213
1323.16185791,0.01534216
1325.09066528,0.01584723
1327.01947266,0.01629846
1328.94828003,0.01667964
1330.87708740,0.01707641
1332.80589478,0.01754227
1334.73470215,0.01781892
1336.66350952,0.01770722
1338.59231689,0.01779974
1340.52112427,0.01810167
1342.44993164,0.01848153
1344.37873901,0.01884457
1346.30754639,0.01889906
1348.23635376,0.01876446
1350.16516113,0.01867108
1352.09396851,0.01860810
1354.02277588,0.01830885
1355.95158325,0.01809985
1357.88039062,0.01804378
1359.80919800,0.01775758
1361.73800537,0.01712742
1363.66681274,0.01686856
1365.59562012,0.01749753
1367.52442749,0.01723208
1369.45323486,0.01688565
1371.38204224,0.01720325
1373.31084961,0.01655395
1375.23965698,0.01653399
1377.16846436,0.01698365
1379.09727173,0.01685814
1381.02607910,0.01669461
1382.95488647,0.01667413
1384.88369385,0.01677649
1386.81250122,0.01598052
1388.74130859,0.01613062
1390.67011597,0.01752064
1392.59892334,0.01705164
1394.52773071,0.01631855
1396.45653809,0.01706316
1398.38534546,0.01665230
1400.31415283,0.01674002
1402.24296021,0.01780648
1404.17176758,0.01681515
1406.10057495,0.01720208
1408.02938232,0.01765053
1409.95818970,0.01710951
1411.88699707,0.01751899
1413.81580444,0.01678757
1415.74461182,0.01699851
1417.67341919,0.01534953
1419.60222656,0.01397864
1421.53103394,0.01593477
1423.45984131,0.01542800
1425.38864868,0.01520520
1427.31745605,0.01535795
1429.24626343,0.01430281
1431.17507080,0.01378420
1433.10387817,0.01398988
1435.03268555,0.01316882
1436.96149292,0.01096345
1438.89030029,0.01233014
1440.81910767,0.01285325
1442.74791504,0.01172091
1444.67672241,0.01232089
1446.60552979,0.01148166
1448.53433716,0.01170933
1450.46314453,0.01195552
1452.39195190,0.01199890
1454.32075928,0.01250901
1456.24956665,0.01053584
1458.17837402,0.01103973
1460.10718140,0.01435258
1462.03598877,0.01519019
1463.96479614,0.01489112
1465.89360352,0.01553117
1467.82241089,0.01756937
1469.75121826,0.01853384
1471.68002563,0.01697858
1473.60883301,0.01786403
1475.53764038,0.01994952
1477.46644775,0.02145271
1479.39525513,0.02340555
1481.32406250,0.02373140
1483.25286987,0.02508207
1485.18167725,0.02577704
1487.11048462,0.02537911
1489.03929199,0.02537439
1490.96809937,0.02556945
1492.89690674,0.02944718
1494.82571411,0.02879516
1496.75452148,0.02604839
1498.68332886,0.02917946
1500.61213623,0.02989106
1502.54094360,0.03202471
1504.46975098,0.03017478
1506.39855835,0.02248012
1508.32736572,0.02739588
1510.25617310,0.03150482
1512.18498047,0.03053996
1514.11378784,0.03288047
1516.04259521,0.02984042
1517.97140259,0.03112008
1519.90020996,0.02991686
1521.82901733,0.02642234
1523.75782471,0.03177381
1525.68663208,0.03118445
1527.61543945,0.03121524
1529.54424683,0.03394021
1531.47305420,0.03259686
1533.40186157,0.03011834
1535.33066895,0.03198001
1537.25947632,0.03380664
1539.18828369,0.02456255
1541.11709106,0.02599044
1543.04589844,0.03058575
1544.97470581,0.02945714
1546.90351318,0.03447279
1548.83232056,0.03210410
1550.76112793,0.03318752
1552.68993530,0.03278890
1554.61874268,0.03006379
1556.54755005,0.03187146
1558.47635742,0.02275132
1560.40516479,0.02496519
1562.33397217,0.03455383
1564.26277954,0.03261330
1566.19158691,0.03355741
1568.12039429,0.03292023
1570.04920166,0.02935932
1571.97800903,0.03386413
1573.90681641,0.03396092
1575.83562378,0.02715460
1577.76443115,0.03067290
1579.69323853,0.03392924
1581.62204590,0.03249605
1583.55085327,0.03367458
1585.47966064,0.03305377
1587.40846802,0.03322101
1589.33727539,0.03304596
1591.26608276,0.03307585
1593.19489014,0.03290550
1595.12369751,0.03263028
1597.05250488,0.03308384
1598.98131226,0.03262939
1600.91011963,0.03284553
1602.83892700,0.03228965
1604.76773437,0.03292140
1606.69654175,0.03229282
1608.62534912,0.03223719
1610.55415649,0.03233451
1612.48296387,0.03242432
1614.41177124,0.03287028
1616.34057861,0.02714849
1618.26938599,0.02959863
1620.19819336,0.03403572
1622.12700073,0.03046674
1624.05580811,0.03087556
1625.98461548,0.03224791
1627.91342285,0.03249593
1629.84223022,0.03235338
1631.77103760,0.03450390
1633.69984497,0.03214306
1635.62865234,0.02703697
1637.55745972,0.03148429
1639.48626709,0.03457928
1641.41507446,0.03402957
1643.34388184,0.03499763
1645.27268921,0.03185225
1647.20149658,0.02864303
1649.13030396,0.03548680
1651.05911133,0.03323183
1652.98791870,0.02214944
1654.91672607,0.03034959
1656.84553345,0.03731538
1658.77434082,0.03599825
1660.70314819,0.03705890
1662.63195557,0.03389847
1664.56076294,0.03613359
1666.48957031,0.03866546
1668.41837769,0.03396003
1670.34718506,0.03319279
1672.27599243,0.03743864
1674.20479980,0.03471212
1676.13360718,0.03366803
1678.06241455,0.03847208
1679.99122192,0.03711392
1681.92002930,0.03670864
1683.84883667,0.03011225
1685.77764404,0.03025808
1687.70645142,0.04040132
1689.63525879,0.03524043
1691.56406616,0.03877296
1693.49287354,0.03904978
1695.42168091,0.02915069
1697.35048828,0.03546827
1699.27929565,0.03119795
1701.20810303,0.02859752
1703.13691040,0.03810415
1705.06571777,0.03487263
1706.99452515,0.03527406
1708.92333252,0.03810079
1710.85213989,0.03650558
1712.78094727,0.03707177
1714.70975464,0.03428892
1716.63856201,0.03096075
1718.56736938,0.03065835
1720.49617676,0.03580058
1722.42498413,0.03694260
1724.35379150,0.03448620
1726.28259888,0.03726838
1728.21140625,0.03439797
1730.14021362,0.03467230
1732.06902100,0.03360567
1733.99782837,0.02611800
1735.92663574,0.03223882
1737.85544312,0.03509926
1739.78425049,0.03136504
1741.71305786,0.03397636
1743.64186523,0.03431408
1745.57067261,0.03434502
1747.49947998,0.03461032
1749.42828735,0.03312206
1751.35709473,0.03177242
1753.28590210,0.03492048
1755.21470947,0.03622657
1757.14351685,0.03340085
1759.07232422,0.03634143
1761.00113159,0.03417269
1762.92993896,0.03337201
1764.85874634,0.03759734
1766.78755371,0.03390275
1768.71636108,0.03416655
1770.64516846,0.03383751
1772.57397583,0.03056694
1774.50278320,0.03401690
1776.43159058,0.03581923
1778.36039795,0.03520434
1780.28920532,0.03499922
1782.21801270,0.03505635
1784.14682007,0.03488331
1786.07562744,0.03437275
1788.00443481,0.03584500
1789.93324219,0.03487041
1791.86204956,0.03164059
1793.79085693,0.03303726
1795.71966431,0.03535735
1797.64847168,0.03478992
1799.57727905,0.03433596
1801.50608643,0.03372329
1803.43489380,0.03453333
1805.36370117,0.03526901
1807.29250854,0.03490123
1809.22131592,0.03486540
1811.15012329,0.03407397
1813.07893066,0.03505431
1815.00773804,0.03508741
1816.93654541,0.03481261
1818.86535278,0.03490972
1820.79416016,0.03450759
1822.72296753,0.03498229
1824.65177490,0.03298057
1826.58058228,0.03411081
1828.50938965,0.03419796
1830.43819702,0.03217103
1832.36700439,0.03461656
1834.29581177,0.03458460
1836.22461914,0.03452192
1838.15342651,0.03417432
1840.08223389,0.03434488
1842.01104126,0.03426937
1843.93984863,0.03071913
1845.86865601,0.03271329
1847.79746338,0.03427472
1849.72627075,0.03353184
1851.65507812,0.03436758
1853.58388550,0.03373448
1855.51269287,0.03423536
1857.44150024,0.03394228
1859.37030762,0.03372627
1861.29911499,0.03399824
1863.22792236,0.03340340
1865.15672974,0.03384115
1867.08553711,0.03291255
1869.01434448,0.03142984
1870.94315186,0.03259798
1872.87195923,0.03372584
1874.80076660,0.03301932
1876.72957397,0.03325127
1878.65838135,0.03318868
1880.58718872,0.03292532
1882.51599609,0.03327132
1884.44480347,0.03270777
1886.37361084,0.03306398
1888.30241821,0.03240226
1890.23122559,0.03169321
1892.16003296,0.03281841
1894.08884033,0.03243732
1896.01764771,0.03220970
1897.94645508,0.03252521
1899.87526245,0.03238518
1901.80406982,0.03244517
1903.73287720,0.03216773
1905.66168457,0.03227124
1907.59049194,0.03196277
1909.51929932,0.03172577
1911.44810669,0.03194408
1913.37691406,0.03193225
1915.30572144,0.03223605
1917.23452881,0.03090378
1919.16333618,0.03083809
1921.09214355,0.03203022
1923.02095093,0.03100402
1924.94975830,0.03156565
1926.87856567,0.03189640
1928.80737305,0.03136744
1930.73618042,0.03171407
1932.66498779,0.03128091
1934.59379517,0.03145176
1936.52260254,0.03132826
1938.45140991,0.03146602
1940.38021729,0.03131120
1942.30902466,0.03049746
1944.23783203,0.03103434
1946.16663940,0.03118168
1948.09544678,0.03121057
1950.02425415,0.03126713
1951.95306152,0.03116468
1953.88186890,0.03101128
1955.81067627,0.03086386
1957.73948364,0.03109662
1959.66829102,0.03089009
1961.59709839,0.03090476
1963.52590576,0.03091831
1965.45471313,0.03077435
1967.38352051,0.03053512
1969.31232788,0.03065785
1971.24113525,0.03089899
1973.16994263,0.03054529
1975.09875000,0.03069142
1977.02755737,0.03049948
1978.95636475,0.03042272
1980.88517212,0.03048806
1982.81397949,0.03032012
1984.74278687,0.03043501
1986.67159424,0.03008873
1988.60040161,0.03020056
1990.52920898,0.02995528
1992.45801636,0.02951013
1994.38682373,0.03002678
1996.31563110,0.03008008
1998.24443848,0.02984870
2000.17324585,0.02994257
2002.10205322,0.02989763
2004.03086060,0.02975725
2005.95966797,0.02971595
2007.88847534,0.02956355
2009.81728271,0.02955243
2011.74609009,0.02947630
2013.67489746,0.02929017
2015.60370483,0.02916819
2017.53251221,0.02898048
2019.46131958,0.02911172
2021.39012695,0.02906192
2023.31893433,0.02892376
2025.24774170,0.02895775
2027.17654907,0.02888425
2029.10535645,0.02867502
2031.03416382,0.02863964
2032.96297119,0.02876706
2034.89177856,0.02848420
2036.82058594,0.02845277
2038.74939331,0.02844695
2040.67820068,0.02828539
2042.60700806,0.02819133
2044.53581543,0.02810823
2046.46462280,0.02824456
2048.39343018,0.02811581
2050.32223755,0.02815648
2052.25104492,0.02809346
2054.17985229,0.02794588
2056.10865967,0.02800090
2058.03746704,0.02781158
2059.96627441,0.02780996
2061.89508179,0.02772060
2063.82388916,0.02742684
2065.75269653,0.02729633
2067.68150391,0.02748341
2069.61031128,0.02745097
2071.53911865,0.02726845
2073.46792603,0.02726694
2075.39673340,0.02722576
2077.32554077,0.02734754
2079.25434814,0.02714051
2081.18315552,0.02713912
2083.11196289,0.02714203
2085.04077026,0.02680930
2086.96957764,0.02684061
2088.89838501,0.02671907
2090.82719238,0.02676553
2092.75599976,0.02685970
2094.68480713,0.02665889
2096.61361450,0.02658859
2098.54242187,0.02668550
2100.47122925,0.02663724
2102.40003662,0.02640356
2104.32884399,0.02640485
2106.25765137,0.02639440
2108.18645874,0.02621124
2110.11526611,0.02614282
2112.04407349,0.02629128
2113.97288086,0.02616965
2115.90168823,0.02613416
2117.83049561,0.02621358
2119.75930298,0.02607256
2121.68811035,0.02612999
2123.61691772,0.02586017
2125.54572510,0.02587166
2127.47453247,0.02589338
2129.40333984,0.02574663
2131.33214722,0.02595929
2133.26095459,0.02578284
2135.18976196,0.02577937
2137.11856934,0.02555112
2139.04737671,0.02552188
2140.97618408,0.02579702
2142.90499146,0.02549995
2144.83379883,0.02557660
2146.76260620,0.02553746
2148.69141357,0.02540347
2150.62022095,0.02547778
2152.54902832,0.02534261
2154.47783569,0.02528832
2156.40664307,0.02524616
2158.33545044,0.02514461
2160.26425781,0.02517970
2162.19306519,0.02524834
2164.12187256,0.02518691
2166.05067993,0.02521052
2167.97948730,0.02512604
2169.90829468,0.02510807
2171.83710205,0.02500876
2173.76590942,0.02482252
2175.69471680,0.02495907
2177.62352417,0.02491234
2179.55233154,0.02488276
2181.48113892,0.02486103
2183.40994629,0.02485507
2185.33875366,0.02476811
2187.26756104,0.02468833
2189.19636841,0.02481197
2191.12517578,0.02468635
2193.05398315,0.02474866
2194.98279053,0.02458916
2196.91159790,0.02450481
2198.84040527,0.02456889
2200.76921265,0.02430432
2202.69802002,0.02446637
2204.62682739,0.02449152
2206.55563477,0.02439883
2208.48444214,0.02440467
2210.41324951,0.02436231
2212.34205688,0.02435695
2214.27086426,0.02433147
2216.19967163,0.02434432
2218.12847900,0.02411562
2220.05728638,0.02408574
2221.98609375,0.02412120
2223.91490112,0.02408089
2225.84370850,0.02404585
2227.77251587,0.02388917
2229.70132324,0.02397530
2231.63013062,0.02398835
2233.55893799,0.02385060
2235.48774536,0.02371277
2237.41655273,0.02375115
2239.34536011,0.02380710
2241.27416748,0.02369808
2243.20297485,0.02369365
2245.13178223,0.02358562
2247.06058960,0.02356755
2248.98939697,0.02359622
2250.91820435,0.02346365
2252.84701172,0.02336890
2254.77581909,0.02334838
2256.70462646,0.02330096
2258.63343384,0.02322573
2260.56224121,0.02333710
2262.49104858,0.02328261
2264.41985596,0.02305851
2266.34866333,0.02301962
2268.27747070,0.02298924
2270.20627808,0.02301084
2272.13508545,0.02300994
2274.06389282,0.02293188
2275.99270020,0.02292302
2277.92150757,0.02283881
2279.85031494,0.02285554
2281.77912231,0.02285901
2283.70792969,0.02268146
2285.63673706,0.02277890
2287.56554443,0.02279413
2289.49435181,0.02263921
2291.42315918,0.02261510
2293.35196655,0.02251668
2295.28077393,0.02245979
2297.20958130,0.02238688
2299.13838867,0.02224135
2301.06719604,0.02208642
2302.99600342,0.02205196
2304.92481079,0.02192763
2306.85361816,0.02165624
2308.78242554,0.02159160
2310.71123291,0.02136990
2312.64004028,0.02112733
2314.56884766,0.02093687
2316.49765503,0.02058992
2318.42646240,0.02033976
2320.35526978,0.02004128
2322.28407715,0.01975876
2324.21288452,0.01957595
2326.14169189,0.01921822
2328.07049927,0.01888930
2329.99930664,0.01878846
2331.92811401,0.01854473
2333.85692139,0.01837372
2335.78572876,0.01836097
2337.71453613,0.01823769
2339.64334351,0.01819378
2341.57215088,0.01827751
2343.50095825,0.01856397
2345.42976562,0.01892564
2347.35857300,0.01985529
2349.28738037,0.02064764
2351.21618774,0.01981660
2353.14499512,0.01865282
2355.07380249,0.01798492
2357.00260986,0.01739423
2358.93141724,0.01698112
2360.86022461,0.01678310
2362.78903198,0.01676288
2364.71783936,0.01684835
2366.64664673,0.01699972
2368.57545410,0.01734529
2370.50426147,0.01796194
2372.43306885,0.01846114
2374.36187622,0.01895114
2376.29068359,0.01945710
2378.21949097,0.01999086
2380.14829834,0.02046999
2382.07710571,0.02058046
2384.00591309,0.02078419
2385.93472046,0.02081262
2387.86352783,0.02083638
2389.79233521,0.02093250
2391.72114258,0.02084233
2393.64994995,0.02090374
2395.57875732,0.02077010
2397.50756470,0.02067703
2399.43637207,0.02055678
2401.36517944,0.02049218
2403.29398682,0.02053542
2405.22279419,0.02042295
2407.15160156,0.02060421
2409.08040894,0.02055876
2411.00921631,0.02043371
2412.93802368,0.02043974
2414.86683105,0.02032396
2416.79563843,0.02035071
2418.72444580,0.02030542
2420.65325317,0.02032848
2422.58206055,0.02030361
2424.51086792,0.02009838
2426.43967529,0.02004304
2428.36848267,0.02005801
2430.29729004,0.02006549
2432.22609741,0.02008255
2434.15490479,0.02006063
2436.08371216,0.02002764
2438.01251953,0.01997541
2439.94132690,0.01990926
2441.87013428,0.01987303
2443.79894165,0.01985043
2445.72774902,0.01984205
2447.65655640,0.01972827
2449.58536377,0.01976338
2451.51417114,0.01983210
2453.44297852,0.01969939
2455.37178589,0.01966030
2457.30059326,0.01954221
2459.22940063,0.01953553
2461.15820801,0.01955681
2463.08701538,0.01950059
2465.01582275,0.01946607
2466.94463013,0.01935098
2468.87343750,0.01948435
2470.80224487,0.01948784
2472.73105225,0.01935253
2474.65985962,0.01930072
2476.58866699,0.01932360
2478.51747437,0.01934282
2480.44628174,0.01918614
2482.37508911,0.01921127
2484.30389648,0.01911223
2486.23270386,0.01903083
2488.16151123,0.01906662
2490.09031860,0.01898587
2492.01912598,0.01903108
2493.94793335,0.01900467
2495.87674072,0.01893485
2497.80554810,0.01888148
2499.73435547,0.01899143
2501.66316284,0.01895731
2503.59197021,0.01877013
2505.52077759,0.01882038
2507.44958496,0.01876211
2509.37839233,0.01871426
2511.30719971,0.01861488
2513.23600708,0.01858115
2515.16481445,0.01865102
2517.09362183,0.01861707
2519.02242920,0.01863806
2520.95123657,0.01852655
2522.88004395,0.01850371
2524.80885132,0.01852320
2526.73765869,0.01852809
2528.66646606,0.01849126
2530.59527344,0.01826936
2532.52408081,0.01831780
2534.45288818,0.01830332
2536.38169556,0.01820746
2538.31050293,0.01830167
2540.23931030,0.01816956
2542.16811768,0.01817825
2544.09692505,0.01820944
2546.02573242,0.01800715
2547.95453979,0.01809441
2549.88334717,0.01802762
2551.81215454,0.01793724
2553.74096191,0.01805691
2555.66976929,0.01790936
2557.59857666,0.01791270
2559.52738403,0.01783528
2561.45619141,0.01772943
2563.38499878,0.01786008
2565.31380615,0.01775443
2567.24261353,0.01768318
2569.17142090,0.01761341
2571.10022827,0.01756257
2573.02903564,0.01764388
2574.95784302,0.01765431
2576.88665039,0.01759548
2578.81545776,0.01753055
2580.74426514,0.01755440
2582.67307251,0.01742373
2584.60187988,0.01741132
2586.53068726,0.01752507
2588.45949463,0.01739397
2590.38830200,0.01731368
2592.31710937,0.01730494
2594.24591675,0.01733302
2596.17472412,0.01737977
2598.10353149,0.01736873
2600.03233887,0.01723339
2601.96114624,0.01713549
2603.88995361,0.01721418
2605.81876099,0.01715746
2607.74756836,0.01710553
2609.67637573,0.01702758
2611.60518311,0.01692098
2613.53399048,0.01694923
2615.46279785,0.01689289
2617.39160522,0.01690137
2619.32041260,0.01688065
2621.24921997,0.01685658
2623.17802734,0.01688181
2625.10683472,0.01673743
2627.03564209,0.01672914
2628.96444946,0.01675522
2630.89325684,0.01669296
2632.82206421,0.01667039
2634.75087158,0.01665716
2636.67967895,0.01660789
2638.60848633,0.01652480
2640.53729370,0.01657875
2642.46610107,0.01651751
2644.39490845,0.01649311
2646.32371582,0.01651039
2648.25252319,0.01633113
2650.18133057,0.01635991
2652.11013794,0.01635166
2654.03894531,0.01630620
2655.96775269,0.01631797
2657.89656006,0.01624181
2659.82536743,0.01618063
2661.75417480,0.01607877
2663.68298218,0.01618998
2665.61178955,0.01622621
2667.54059692,0.01610195
2669.46940430,0.01612370
2671.39821167,0.01604893
2673.32701904,0.01592711
2675.25582642,0.01593855
2677.18463379,0.01598955
2679.11344116,0.01591698
2681.04224854,0.01587248
2682.97105591,0.01580687
2684.89986328,0.01570270
2686.82867065,0.01577932
2688.75747803,0.01577229
2690.68628540,0.01565647
2692.61509277,0.01564558
2694.54390015,0.01560641
2696.47270752,0.01559388
2698.40151489,0.01563955
2700.33032227,0.01548626
2702.25912964,0.01554467
2704.18793701,0.01559711
2706.11674438,0.01543220
2708.04555176,0.01550477
2709.97435913,0.01533653
2711.90316650,0.01531235
2713.83197388,0.01538535
2715.76078125,0.01530725
2717.68958862,0.01532229
2719.61839600,0.01517133
2721.54720337,0.01527037
2723.47601074,0.01518093
2725.40481812,0.01516334
2727.33362549,0.01517130
2729.26243286,0.01489773
2731.19124023,0.01509558
2733.12004761,0.01501648
2735.04885498,0.01497775
2736.97766235,0.01503633
2738.90646973,0.01488626
2740.83527710,0.01493785
2742.76408447,0.01483100
2744.69289185,0.01489874
2746.62169922,0.01487518
2748.55050659,0.01466363
2750.47931396,0.01461994
2752.40812134,0.01467607
2754.33692871,0.01474538
2756.26573608,0.01463591
2758.19454346,0.01452704
2760.12335083,0.01454552
2762.05215820,0.01461685
2763.98096558,0.01451069
2765.90977295,0.01448454
2767.83858032,0.01441256
2769.76738770,0.01430511
2771.69619507,0.01437480
2773.62500244,0.01429767
2775.55380981,0.01433054
2777.48261719,0.01423057
2779.41142456,0.01419179
2781.34023193,0.01417852
2783.26903931,0.01405155
2785.19784668,0.01412378
2787.12665405,0.01406181
2789.05546143,0.01412519
2790.98426880,0.01401411
2792.91307617,0.01390124
2794.84188354,0.01390786
2796.77069092,0.01382098
2798.69949829,0.01392824
2800.62830566,0.01381196
2802.55711304,0.01381738
2804.48592041,0.01381721
2806.41472778,0.01372897
2808.34353516,0.01376624
2810.27234253,0.01371637
2812.20114990,0.01364260
2814.12995728,0.01342998
2816.05876465,0.01353825
2817.98757202,0.01363717
2819.91637939,0.01351467
2821.84518677,0.01350121
2823.77399414,0.01342986
2825.70280151,0.01341018
2827.63160889,0.01332596
2829.56041626,0.01328250
2831.48922363,0.01333991
2833.41803101,0.01332811
2835.34683838,0.01320326
2837.27564575,0.01315973
2839.20445312,0.01316875
2841.13326050,0.01305464
2843.06206787,0.01297374
2844.99087524,0.01292493
2846.91968262,0.01291309
2848.84848999,0.01280090
2850.77729736,0.01271338
2852.70610474,0.01264623
2854.63491211,0.01271533
2856.56371948,0.01271671
2858.49252686,0.01247036
2860.42133423,0.01263873
2862.35014160,0.01259283
2864.27894897,0.01246240
2866.20775635,0.01255775
2868.13656372,0.01250195
2870.06537109,0.01249741
2871.99417847,0.01234685
2873.92298584,0.01238487
2875.85179321,0.01237230
2877.78060059,0.01224262
2879.70940796,0.01226703
2881.63821533,0.01224959
2883.56702270,0.01221974
2885.49583008,0.01223023
2887.42463745,0.01232032
2889.35344482,0.01209563
2891.28225220,0.01207332
2893.21105957,0.01207782
2895.13986694,0.01194663
2897.06867432,0.01203479
2898.99748169,0.01188114
2900.92628906,0.01194703
2902.85509644,0.01186576
2904.78390381,0.01175157
2906.71271118,0.01177300
2908.64151855,0.01162200
2910.57032593,0.01166396
2912.49913330,0.01154150
2914.42794067,0.01156297
2916.35674805,0.01149539
2918.28555542,0.01139728
2920.21436279,0.01137970
2922.14317017,0.01120394
2924.07197754,0.01134790
2926.00078491,0.01130834
2927.92959229,0.01135722
2929.85839966,0.01135020
2931.78720703,0.01114212
2933.71601440,0.01126340
2935.64482178,0.01124411
2937.57362915,0.01123854
2939.50243652,0.01120459
2941.43124390,0.01113452
2943.36005127,0.01116794
2945.28885864,0.01112846
2947.21766602,0.01112518
2949.14647339,0.01107358
2951.07528076,0.01101808
2953.00408813,0.01104354
2954.93289551,0.01104808
2956.86170288,0.01096909
2958.79051025,0.01088569
2960.71931763,0.01081298
2962.64812500,0.01083772
2964.57693237,0.01083294
2966.50573975,0.01074289
2968.43454712,0.01079654
2970.36335449,0.01082618
2972.29216187,0.01076438
2974.22096924,0.01063270
2976.14977661,0.01069655
2978.07858398,0.01080638
2980.00739136,0.01069158
2981.93619873,0.01069471
2983.86500610,0.01072010
2985.79381348,0.01072861
2987.72262085,0.01065633
2989.65142822,0.01056484
2991.58023560,0.01058273
2993.50904297,0.01052241
2995.43785034,0.01044025
2997.36665771,0.01049191
2999.29546509,0.01057759
3001.22427246,0.01042467
3003.15307983,0.01040053
3005.08188721,0.01043002
3007.01069458,0.01031305
3008.93950195,0.01031645
3010.86830933,0.01023489
3012.79711670,0.01020383
3014.72592407,0.01018551
3016.65473145,0.01014083
3018.58353882,0.01010829
3020.51234619,0.01008355
3022.44115356,0.01012155
3024.36996094,0.01000505
3026.29876831,0.01004838
3028.22757568,0.01003238
3030.15638306,0.00989776
3032.08519043,0.00992097
3034.01399780,0.00980296
3035.94280518,0.00985625
3037.87161255,0.00990237
3039.80041992,0.00977611
3041.72922729,0.00977393
3043.65803467,0.00968299
3045.58684204,0.00969208
3047.51564941,0.00970909
3049.44445679,0.00955937
3051.37326416,0.00962914
3053.30207153,0.00967917
3055.23087891,0.00950209
3057.15968628,0.00941425
3059.08849365,0.00939993
3061.01730103,0.00943495
3062.94610840,0.00951396
3064.87491577,0.00943374
3066.80372314,0.00936492
3068.73253052,0.00936253
3070.66133789,0.00930103
3072.59014526,0.00936238
3074.51895264,0.00929553
3076.44776001,0.00918401
3078.37656738,0.00925735
3080.30537476,0.00913180
3082.23418213,0.00908043
3084.16298950,0.00915341
3086.09179687,0.00911480
3088.02060425,0.00907715
3089.94941162,0.00905483
3091.87821899,0.00910401
3093.80702637,0.00900907
3095.73583374,0.00890725
3097.66464111,0.00893508
3099.59344849,0.00895817
3101.52225586,0.00892906
3103.45106323,0.00878581
3105.37987061,0.00868224
3107.30867798,0.00863874
3109.23748535,0.00874271
3111.16629272,0.00880026
3113.09510010,0.00875087
3115.02390747,0.00866021
3116.95271484,0.00857587
3118.88152222,0.00871042
3120.81032959,0.00860884
3122.73913696,0.00855947
3124.66794434,0.00865654
3126.59675171,0.00849593
3128.52555908,0.00841321
3130.45436645,0.00836772
3132.38317383,0.00841133
3134.31198120,0.00844851
3136.24078857,0.00835168
3138.16959595,0.00834633
3140.09840332,0.00838703
3142.02721069,0.00830160
3143.95601807,0.00823285
3145.88482544,0.00825649
3147.81363281,0.00823242
3149.74244019,0.00834898
3151.67124756,0.00826099
3153.60005493,0.00811974
3155.52886230,0.00816814
3157.45766968,0.00807500
3159.38647705,0.00814220
3161.31528442,0.00815739
3163.24409180,0.00801372
3165.17289917,0.00791771
3167.10170654,0.00801366
3169.03051392,0.00807527
3170.95932129,0.00796188
3172.88812866,0.00805585
3174.81693604,0.00794568
3176.74574341,0.00792773
3178.67455078,0.00797842
3180.60335815,0.00782134
3182.53216553,0.00791762
3184.46097290,0.00784687
3186.38978027,0.00783921
3188.31858765,0.00791464
3190.24739502,0.00779737
3192.17620239,0.00786223
3194.10500977,0.00784260
3196.03381714,0.00776611
3197.96262451,0.00778598
3199.89143188,0.00776015
3201.82023926,0.00782740
3203.74904663,0.00781910
3205.67785400,0.00766767
3207.60666138,0.00775130
3209.53546875,0.00785347
3211.46427612,0.00777056
3213.39308350,0.00774149
3215.32189087,0.00768333
3217.25069824,0.00763263
3219.17950562,0.00771981
3221.10831299,0.00772801
3223.03712036,0.00764695
3224.96592773,0.00769502
3226.89473511,0.00771191
3228.82354248,0.00771465
3230.75234985,0.00770430
3232.68115723,0.00770044
3234.60996460,0.00778600
3236.53877197,0.00772386
3238.46757935,0.00777404
3240.39638672,0.00772146
3242.32519409,0.00768244
3244.25400146,0.00779897
3246.18280884,0.00766200
3248.11161621,0.00784347
3250.04042358,0.00790564
3251.96923096,0.00774579
3253.89803833,0.00779183
3255.82684570,0.00775688
3257.75565308,0.00786316
3259.68446045,0.00786451
3261.61326782,0.00782267
3263.54207520,0.00780089
3265.47088257,0.00774515
3267.39968994,0.00786116
3269.32849731,0.00788499
3271.25730469,0.00784063
3273.18611206,0.00782462
3275.11491943,0.00786513
3277.04372681,0.00788862
3278.97253418,0.00786821
3280.90134155,0.00778213
3282.83014893,0.00780960
3284.75895630,0.00798865
3286.68776367,0.00788818
3288.61657104,0.00783966
3290.54537842,0.00790792
3292.47418579,0.00789217
3294.40299316,0.00797825
3296.33180054,0.00802708
3298.26060791,0.00793915
3300.18941528,0.00784628
3302.11822266,0.00787412
3304.04703003,0.00791756
3305.97583740,0.00792943
3307.90464478,0.00794378
3309.83345215,0.00799577
3311.76225952,0.00799538
3313.69106689,0.00796743
3315.61987427,0.00807394
3317.54868164,0.00808947
3319.47748901,0.00800970
3321.40629639,0.00801269
3323.33510376,0.00806120
3325.26391113,0.00801521
3327.19271851,0.00800268
3329.12152588,0.00805073
3331.05033325,0.00802001
3332.97914062,0.00811115
3334.90794800,0.00816465
3336.83675537,0.00808387
3338.76556274,0.00808668
3340.69437012,0.00816706
3342.62317749,0.00814871
3344.55198486,0.00816141
3346.48079224,0.00823717
3348.40959961,0.00816371
3350.33840698,0.00815700
3352.26721436,0.00810083
3354.19602173,0.00815423
3356.12482910,0.00826875
3358.05363647,0.00816311
3359.98244385,0.00822632
3361.91125122,0.00824035
3363.84005859,0.00823662
3365.76886597,0.00828469
3367.69767334,0.00828626
3369.62648071,0.00837102
3371.55528809,0.00838235
3373.48409546,0.00840492
3375.41290283,0.00839640
3377.34171020,0.00841209
3379.27051758,0.00844401
3381.19932495,0.00842844
3383.12813232,0.00850231
3385.05693970,0.00850775
3386.98574707,0.00851582
3388.91455444,0.00861876
3390.84336182,0.00855404
3392.77216919,0.00840524
3394.70097656,0.00849999
3396.62978394,0.00859412
3398.55859131,0.00858514
3400.48739868,0.00861689
3402.41620605,0.00863257
3404.34501343,0.00863290
3406.27382080,0.00859151
3408.20262817,0.00866111
3410.13143555,0.00876296
3412.06024292,0.00876866
3413.98905029,0.00872563
3415.91785767,0.00873119
3417.84666504,0.00884575
3419.77547241,0.00886128
3421.70427979,0.00877773
3423.63308716,0.00878362
3425.56189453,0.00893101
3427.49070190,0.00896355
3429.41950928,0.00893870
3431.34831665,0.00892726
3433.27712402,0.00892077
3435.20593140,0.00897769
3437.13473877,0.00895444
3439.06354614,0.00906970
3440.99235352,0.00902981
3442.92116089,0.00900542
3444.84996826,0.00906482
3446.77877563,0.00883736
3448.70758301,0.00896905
3450.63639038,0.00911202
3452.56519775,0.00908409
3454.49400513,0.00915205
3456.42281250,0.00910089
3458.35161987,0.00912065
3460.28042725,0.00913455
3462.20923462,0.00913380
3464.13804199,0.00918518
3466.06684937,0.00919176
3467.99565674,0.00911808
3469.92446411,0.00915932
3471.85327148,0.00926861
3473.78207886,0.00929063
3475.71088623,0.00928203
3477.63969360,0.00926720
3479.56850098,0.00928790
3481.49730835,0.00918713
3483.42611572,0.00929310
3485.35492310,0.00939782
3487.28373047,0.00929287
3489.21253784,0.00933980
3491.14134521,0.00932640
3493.07015259,0.00937798
3494.99895996,0.00937262
3496.92776733,0.00930504
3498.85657471,0.00935140
3500.78538208,0.00940732
3502.71418945,0.00928607
3504.64299683,0.00919279
3506.57180420,0.00947746
3508.50061157,0.00940174
3510.42941895,0.00929336
3512.35822632,0.00940325
3514.28703369,0.00942990
3516.21584106,0.00953297
3518.14464844,0.00939326
3520.07345581,0.00943581
3522.00226318,0.00939431
3523.93107056,0.00928458
3525.85987793,0.00945321
3527.78868530,0.00938026
3529.71749268,0.00941037
3531.64630005,0.00942833
3533.57510742,0.00942509
3535.50391479,0.00948227
3537.43272217,0.00939380
3539.36152954,0.00950831
3541.29033691,0.00954832
3543.21914429,0.00939946
3545.14795166,0.00917578
3547.07675903,0.00914076
3549.00556641,0.00953690
3550.93437378,0.00949873
3552.86318115,0.00929838
3554.79198853,0.00953276
3556.72079590,0.00951201
3558.64960327,0.00940564
3560.57841064,0.00932514
3562.50721802,0.00933004
3564.43602539,0.00936521
3566.36483276,0.00876803
3568.29364014,0.00856431
3570.22244751,0.00917112
3572.15125488,0.00938536
3574.08006226,0.00931599
3576.00886963,0.00940392
3577.93767700,0.00939742
3579.86648437,0.00935973
3581.79529175,0.00925759
3583.72409912,0.00923583
3585.65290649,0.00908582
3587.58171387,0.00847478
3589.51052124,0.00874467
3591.43932861,0.00941426
3593.36813599,0.00919037
3595.29694336,0.00901446
3597.22575073,0.00920935
3599.15455811,0.00922048
3601.08336548,0.00898545
3603.01217285,0.00915186
3604.94098022,0.00936474
3606.86978760,0.00900506
3608.79859497,0.00850849
3610.72740234,0.00867806
3612.65620972,0.00883874
3614.58501709,0.00862753
3616.51382446,0.00912584
3618.44263184,0.00849415
3620.37143921,0.00827258
3622.30024658,0.00913063
3624.22905395,0.00898943
3626.15786133,0.00933148
3628.08666870,0.00796004
3630.01547607,0.00734164
3631.94428345,0.00892169
3633.87309082,0.00885027
3635.80189819,0.00897244
3637.73070557,0.00909730
3639.65951294,0.00909127
3641.58832031,0.00899188
3643.51712769,0.00890807
3645.44593506,0.00901273
3647.37474243,0.00809349
3649.30354980,0.00753819
3651.23235718,0.00760816
3653.16116455,0.00889579
3655.08997192,0.00870225
3657.01877930,0.00793563
3658.94758667,0.00901228
3660.87639404,0.00865739
3662.80520142,0.00884971
3664.73400879,0.00881684
3666.66281616,0.00874932
3668.59162354,0.00846391
3670.52043091,0.00702157
3672.44923828,0.00838526
3674.37804565,0.00778963
3676.30685303,0.00663586
3678.23566040,0.00821331
3680.16446777,0.00827190
3682.09327515,0.00832446
3684.02208252,0.00853669
3685.95088989,0.00840032
3687.87969727,0.00749364
3689.80850464,0.00699317
3691.73731201,0.00790677
3693.66611938,0.00801746
3695.59492676,0.00830035
3697.52373413,0.00826395
3699.45254150,0.00813241
3701.38134888,0.00789000
3703.31015625,0.00764517
3705.23896362,0.00826050
3707.16777100,0.00780197
3709.09657837,0.00774054
3711.02538574,0.00723485
3712.95419312,0.00680752
3714.88300049,0.00791247
3716.81180786,0.00781343
3718.74061523,0.00780476
3720.66942261,0.00755994
3722.59822998,0.00740924
3724.52703735,0.00755079
3726.45584473,0.00705468
3728.38465210,0.00762702
3730.31345947,0.00739908
3732.24226685,0.00692179
3734.17107422,0.00673571
3736.09988159,0.00631985
3738.02868896,0.00670815
3739.95749634,0.00720799
3741.88630371,0.00749224
3743.81511108,0.00594827
3745.74391846,0.00566044
3747.67272583,0.00715419
3749.60153320,0.00615436
3751.53034058,0.00578619
3753.45914795,0.00668767
3755.38795532,0.00705455
3757.31676270,0.00722222
3759.24557007,0.00671520
3761.17437744,0.00696233
3763.10318481,0.00731530
3765.03199219,0.00685827
3766.96079956,0.00706008
3768.88960693,0.00690815
3770.81841431,0.00661936
3772.74722168,0.00708202
3774.67602905,0.00708452
3776.60483643,0.00714402
3778.53364380,0.00686200
3780.46245117,0.00663712
3782.39125854,0.00700476
3784.32006592,0.00684603
3786.24887329,0.00689226
3788.17768066,0.00691418
3790.10648804,0.00686354
3792.03529541,0.00684071
3793.96410278,0.00692144
3795.89291016,0.00655199
3797.82171753,0.00641547
3799.75052490,0.00673640
3801.67933228,0.00548664
3803.60813965,0.00625021
3805.53694702,0.00674146
3807.46575439,0.00568548
3809.39456177,0.00669786
3811.32336914,0.00661690
3813.25217651,0.00685946
3815.18098389,0.00614256
3817.10979126,0.00553549
3819.03859863,0.00680378
3820.96740601,0.00554968
3822.89621338,0.00584754
3824.82502075,0.00673164
3826.75382812,0.00614492
3828.68263550,0.00641670
3830.61144287,0.00622614
3832.54025024,0.00614762
3834.46905762,0.00617757
3836.39786499,0.00585099
3838.32667236,0.00527283
3840.25547974,0.00573100
3842.18428711,0.00621921
3844.11309448,0.00597353
3846.04190186,0.00632056
3847.97070923,0.00617551
3849.89951660,0.00635330
3851.82832397,0.00563551
3853.75713135,0.00419106
3855.68593872,0.00506487
3857.61474609,0.00622224
3859.54355347,0.00594468
3861.47236084,0.00594796
3863.40116821,0.00592590
3865.32997559,0.00541466
3867.25878296,0.00599915
3869.18759033,0.00556757
3871.11639770,0.00520108
3873.04520508,0.00609973
3874.97401245,0.00557993
3876.90281982,0.00604433
3878.83162720,0.00610500
3880.76043457,0.00533488
3882.68924194,0.00604715
3884.61804932,0.00552669
3886.54685669,0.00519840
3888.47566406,0.00599260
3890.40447144,0.00569174
3892.33327881,0.00536201
3894.26208618,0.00583587
3896.19089355,0.00603682
3898.11970093,0.00562012
3900.04850830,0.00527876
3901.97731567,0.00526820
3903.90612305,0.00528514
3905.83493042,0.00540496
3907.76373779,0.00572808
3909.69254517,0.00572453
3911.62135254,0.00567004
3913.55015991,0.00575411
3915.47896728,0.00563956
3917.40777466,0.00546051
3919.33658203,0.00544133
3921.26538940,0.00562652
3923.19419678,0.00554421
3925.12300415,0.00551207
3927.05181152,0.00553844
3928.98061890,0.00552650
3930.90942627,0.00557235
3932.83823364,0.00536558
3934.76704102,0.00552954
3936.69584839,0.00558355
3938.62465576,0.00550162
3940.55346313,0.00559612
3942.48227051,0.00531067
3944.41107788,0.00535107
3946.33988525,0.00548976
3948.26869263,0.00532639
3950.19750000,0.00529991
3952.12630737,0.00539387
3954.05511475,0.00545148
3955.98392212,0.00538963
3957.91272949,0.00544154
3959.84153687,0.00538284
3961.77034424,0.00528763
3963.69915161,0.00543143
3965.62795898,0.00536864
3967.55676636,0.00527479
3969.48557373,0.00526196
3971.41438110,0.00521932
3973.34318848,0.00536483
3975.27199585,0.00534685
3977.20080322,0.00524640
3979.12961060,0.00523861
3981.05841797,0.00514567
3982.98722534,0.00514664
3984.91603271,0.00513754
3986.84484009,0.00515637
3988.77364746,0.00517809
3990.70245483,0.00515747
3992.63126221,0.00516744
3994.56006958,0.00508289
3996.48887695,0.00508530
3998.41768433,0.00508552
4000.34649170,0.00505066
4002.27529907,0.00511977
4004.20410645,0.00510803
4006.13291382,0.00504479
4008.06172119,0.00503081
4009.99052856,0.00495536
4011.91933594,0.00499923
4013.84814331,0.00504573
4015.77695068,0.00486354
4017.70575806,0.00493698
4019.63456543,0.00501358
4021.56337280,0.00496281
4023.49218018,0.00495002
4025.42098755,0.00485008
4027.34979492,0.00491979
4029.27860229,0.00487335
4031.20740967,0.00482821
4033.13621704,0.00487222
4035.06502441,0.00486935
4036.99383179,0.00487852
4038.92263916,0.00477381
4040.85144653,0.00480417
4042.78025391,0.00483463
4044.70906128,0.00482932
4046.63786865,0.00473693
4048.56667603,0.00469009
4050.49548340,0.00473988
4052.42429077,0.00466286
4054.35309814,0.00472249
4056.28190552,0.00467991
4058.21071289,0.00471501
4060.13952026,0.00472398
4062.06832764,0.00463312
4063.99713501,0.00473884
4065.92594238,0.00463205
4067.85474976,0.00460019
4069.78355713,0.00465023
4071.71236450,0.00461604
4073.64117187,0.00459890
4075.56997925,0.00460105
4077.49878662,0.00466062
4079.42759399,0.00459658
4081.35640137,0.00456960
4083.28520874,0.00456745
4085.21401611,0.00447322
4087.14282349,0.00445882
4089.07163086,0.00456888
4091.00043823,0.00450136
4092.92924561,0.00445381
4094.85805298,0.00449041
4096.78686035,0.00435447
4098.71566772,0.00444523
4100.64447510,0.00446322
4102.57328247,0.00442032
4104.50208984,0.00446490
4106.43089722,0.00439731
4108.35970459,0.00443938
4110.28851196,0.00437743
4112.21731934,0.00434189
4114.14612671,0.00436342
4116.07493408,0.00435374
4118.00374145,0.00432837
4119.93254883,0.00427689
4121.86135620,0.00430168
4123.79016357,0.00425049
4125.71897095,0.00428253
4127.64777832,0.00431777
4129.57658569,0.00430561
4131.50539307,0.00425872
4133.43420044,0.00420692
4135.36300781,0.00426997
4137.29181519,0.00422883
4139.22062256,0.00421610
4141.14942993,0.00421153
4143.07823730,0.00418767
4145.00704468,0.00413589
4146.93585205,0.00407707
4148.86465942,0.00418582
4150.79346680,0.00418951
4152.72227417,0.00410382
4154.65108154,0.00408034
4156.57988892,0.00408860
4158.50869629,0.00409430
4160.43750366,0.00407885
4162.36631103,0.00410668
4164.29511841,0.00410985
4166.22392578,0.00400368
4168.15273315,0.00399842
4170.08154053,0.00408188
4172.01034790,0.00399617
4173.93915527,0.00400440
4175.86796265,0.00403148
4177.79677002,0.00399199
4179.72557739,0.00400431
4181.65438477,0.00392705
4183.58319214,0.00396269
4185.51199951,0.00397992
4187.44080688,0.00395727
4189.36961426,0.00397218
4191.29842163,0.00386490
4193.22722900,0.00388592
4195.15603638,0.00394601
4197.08484375,0.00388986
4199.01365112,0.00391230
4200.94245850,0.00389132
4202.87126587,0.00381972
4204.80007324,0.00388262
4206.72888062,0.00388642
4208.65768799,0.00386051
4210.58649536,0.00385621
4212.51530273,0.00380155
4214.44411011,0.00374548
4216.37291748,0.00370010
4218.30172485,0.00379345
4220.23053223,0.00377127
4222.15933960,0.00374562
4224.08814697,0.00378523
4226.01695435,0.00372615
4227.94576172,0.00378771
4229.87456909,0.00371402
4231.80337646,0.00371325
4233.73218384,0.00371420
4235.66099121,0.00358028
4237.58979858,0.00370826
4239.51860596,0.00370236
4241.44741333,0.00363843
4243.37622070,0.00367841
4245.30502808,0.00364753
4247.23383545,0.00365771
4249.16264282,0.00367208
4251.09145020,0.00363980
4253.02025757,0.00360608
4254.94906494,0.00364202
4256.87787231,0.00357831
4258.80667969,0.00352568
4260.73548706,0.00358703
4262.66429443,0.00355783
4264.59310181,0.00352565
4266.52190918,0.00347908
4268.45071655,0.00346017
4270.37952393,0.00346413
4272.30833130,0.00345067
4274.23713867,0.00351855
4276.16594604,0.00345590
4278.09475342,0.00342179
4280.02356079,0.00348133
4281.95236816,0.00338473
4283.88117554,0.00341094
4285.80998291,0.00341163
4287.73879028,0.00334330
4289.66759766,0.00339723
4291.59640503,0.00336958
4293.52521240,0.00339194
4295.45401978,0.00339939
4297.38282715,0.00341672
4299.31163452,0.00340244
4301.24044189,0.00334282
4303.16924927,0.00342913
4305.09805664,0.00332161
4307.02686401,0.00330748
4308.95567139,0.00339393
4310.88447876,0.00329826
4312.81328613,0.00331085
4314.74209351,0.00331185
4316.67090088,0.00332406
4318.59970825,0.00330444
4320.52851562,0.00322962
4322.45732300,0.00323958
4324.38613037,0.00320528
4326.31493774,0.00320902
4328.24374512,0.00325976
4330.17255249,0.00326201
4332.10135986,0.00324587
4334.03016724,0.00318560
4335.95897461,0.00318600
4337.88778198,0.00322080
4339.81658936,0.00318145
4341.74539673,0.00324092
4343.67420410,0.00319673
4345.60301147,0.00309769
4347.53181885,0.00312532
4349.46062622,0.00313845
4351.38943359,0.00323583
4353.31824097,0.00314619
4355.24704834,0.00307103
4357.17585571,0.00309025
4359.10466309,0.00304536
4361.03347046,0.00311193
4362.96227783,0.00306481
4364.89108520,0.00313605
4366.81989258,0.00309401
4368.74869995,0.00302038
4370.67750732,0.00312193
4372.60631470,0.00298005
4374.53512207,0.00297614
4376.46392944,0.00305328
4378.39273682,0.00309649
4380.32154419,0.00299542
4382.25035156,0.00290537
4384.17915894,0.00303286
4386.10796631,0.00299606
4388.03677368,0.00300652
4389.96558105,0.00291777
4391.89438843,0.00295439
4393.82319580,0.00307629
4395.75200317,0.00294884
4397.68081055,0.00294807
4399.60961792,0.00287799
4401.53842529,0.00293494
4403.46723267,0.00292602
4405.39604004,0.00281865
4407.32484741,0.00296818
4409.25365478,0.00289155
4411.18246216,0.00283048
4413.11126953,0.00286556
4415.04007690,0.00284629
4416.96888428,0.00284787
4418.89769165,0.00279947
4420.82649902,0.00285915
4422.75530640,0.00283754
4424.68411377,0.00278384
4426.61292114,0.00280829
4428.54172852,0.00281202
4430.47053589,0.00286040
4432.39934326,0.00282048
4434.32815063,0.00279772
4436.25695801,0.00281456
4438.18576538,0.00277138
4440.11457275,0.00275093
4442.04338013,0.00275897
4443.97218750,0.00279582
4445.90099487,0.00273829
4447.82980225,0.00275121
4449.75860962,0.00275470
4451.68741699,0.00265023
4453.61622437,0.00275132
4455.54503174,0.00269255
4457.47383911,0.00258129
4459.40264648,0.00273566
4461.33145386,0.00276583
4463.26026123,0.00266490
4465.18906860,0.00262610
4467.11787598,0.00266188
4469.04668335,0.00267099
4470.97549072,0.00268347
4472.90429810,0.00266653
4474.83310547,0.00264125
4476.76191284,0.00266453
4478.69072021,0.00263747
4480.61952759,0.00262130
4482.54833496,0.00255302
4484.47714233,0.00259449
4486.40594971,0.00265710
4488.33475708,0.00258236
4490.26356445,0.00258515
4492.19237183,0.00254862
4494.12117920,0.00253317
4496.04998657,0.00253347
4497.97879395,0.00254171
4499.90760132,0.00262700
4501.83640869,0.00259461
4503.76521606,0.00250207
4505.69402344,0.00251384
4507.62283081,0.00250862
4509.55163818,0.00244728
4511.48044556,0.00250837
4513.40925293,0.00249286
4515.33806030,0.00247734
4517.26686768,0.00250945
4519.19567505,0.00243607
4521.12448242,0.00248204
4523.05328979,0.00245327
4524.98209717,0.00242846
4526.91090454,0.00244343
4528.83971191,0.00239138
4530.76851929,0.00246565
4532.69732666,0.00242646
4534.62613403,0.00236539
4536.55494141,0.00241564
4538.48374878,0.00243498
4540.41255615,0.00240478
4542.34136353,0.00238690
4544.27017090,0.00245268
4546.19897827,0.00238949
4548.12778564,0.00229364
4550.05659302,0.00234608
4551.98540039,0.00238788
4553.91420776,0.00239039
4555.84301514,0.00231448
4557.77182251,0.00226534
4559.70062988,0.00232824
4561.62943726,0.00231903
4563.55824463,0.00233447
4565.48705200,0.00234809
4567.41585937,0.00232759
4569.34466675,0.00233289
4571.27347412,0.00226683
4573.20228149,0.00229139
4575.13108887,0.00226100
4577.05989624,0.00224601
4578.98870361,0.00230711
4580.91751099,0.00217570
4582.84631836,0.00215579
4584.77512573,0.00222231
4586.70393311,0.00221099
4588.63274048,0.00220865
4590.56154785,0.00220173
4592.49035522,0.00216196
4594.41916260,0.00218263
4596.34796997,0.00218979
4598.27677734,0.00211186
4600.20558472,0.00224208
4602.13439209,0.00225353
4604.06319946,0.00213239
4605.99200684,0.00215355
4607.92081421,0.00220049
4609.84962158,0.00223004
4611.77842895,0.00219145
4613.70723633,0.00226066
4615.63604370,0.00217412
4617.56485107,0.00208576
4619.49365845,0.00212030
4621.42246582,0.00209583
4623.35127319,0.00213569
4625.28008057,0.00206174
4627.20888794,0.00214639
4629.13769531,0.00211431
4631.06650269,0.00207207
4632.99531006,0.00218768
4634.92411743,0.00203328
4636.85292480,0.00205031
4638.78173218,0.00205714
4640.71053955,0.00205208
4642.63934692,0.00209488
4644.56815430,0.00205041
4646.49696167,0.00207195
4648.42576904,0.00202936
4650.35457642,0.00200806
4652.28338379,0.00195180
4654.21219116,0.00202931
4656.14099853,0.00203094
4658.06980591,0.00196019
4659.99861328,0.00203173
4661.92742065,0.00198435
4663.85622803,0.00199655
4665.78503540,0.00197721
4667.71384277,0.00199430
4669.64265015,0.00195738
4671.57145752,0.00194207
4673.50026489,0.00202451
4675.42907227,0.00193788
4677.35787964,0.00202165
4679.28668701,0.00201291
4681.21549438,0.00193194
4683.14430176,0.00192803
4685.07310913,0.00193085
4687.00191650,0.00197294
4688.93072388,0.00187013
4690.85953125,0.00194312
4692.78833862,0.00193463
4694.71714600,0.00186804
4696.64595337,0.00195397
4698.57476074,0.00187244
4700.50356812,0.00190132
4702.43237549,0.00195506
4704.36118286,0.00185790
4706.28999023,0.00187211
4708.21879761,0.00195757
4710.14760498,0.00190842
4712.07641235,0.00185546
4714.00521973,0.00188180
4715.93402710,0.00189412
4717.86283447,0.00187185
4719.79164185,0.00181250
4721.72044922,0.00184612
4723.64925659,0.00182506
4725.57806396,0.00181192
4727.50687134,0.00187661
4729.43567871,0.00185801
4731.36448608,0.00186991
4733.29329346,0.00182737
4735.22210083,0.00185779
4737.15090820,0.00187750
4739.07971558,0.00175815
4741.00852295,0.00180618
4742.93733032,0.00183364
4744.86613770,0.00175444
4746.79494507,0.00171022
4748.72375244,0.00172702
4750.65255981,0.00179567
4752.58136719,0.00179222
4754.51017456,0.00177848
4756.43898193,0.00176092
4758.36778931,0.00174940
4760.29659668,0.00178542
4762.22540405,0.00174622
4764.15421143,0.00171505
4766.08301880,0.00173813
4768.01182617,0.00174711
4769.94063354,0.00173927
4771.86944092,0.00170737
4773.79824829,0.00170592
4775.72705566,0.00167075
4777.65586304,0.00166492
4779.58467041,0.00172284
4781.51347778,0.00167810
4783.44228516,0.00162374
4785.37109253,0.00165626
4787.29989990,0.00169167
4789.22870728,0.00167981
4791.15751465,0.00169755
4793.08632202,0.00163747
4795.01512939,0.00154960
4796.94393677,0.00163851
4798.87274414,0.00162829
4800.80155151,0.00154819
4802.73035889,0.00157515
4804.65916626,0.00163913
4806.58797363,0.00165916
4808.51678101,0.00160181
4810.44558838,0.00161814
4812.37439575,0.00159890
4814.30320312,0.00158959
4816.23201050,0.00164398
4818.16081787,0.00165975
4820.08962524,0.00167419
4822.01843262,0.00158519
4823.94723999,0.00159743
4825.87604736,0.00161245
4827.80485474,0.00151655
4829.73366211,0.00158335
4831.66246948,0.00156813
4833.59127686,0.00153160
4835.52008423,0.00157720
4837.44889160,0.00155164
4839.37769897,0.00159190
4841.30650635,0.00159841
4843.23531372,0.00154594
4845.16412109,0.00149721
4847.09292847,0.00151258
4849.02173584,0.00160861
4850.95054321,0.00157276
4852.87935059,0.00147765
4854.80815796,0.00144113
4856.73696533,0.00151472
4858.66577270,0.00155550
4860.59458008,0.00145943
4862.52338745,0.00146682
4864.45219482,0.00151577
4866.38100220,0.00151541
4868.30980957,0.00145178
4870.23861694,0.00144387
4872.16742432,0.00147168
4874.09623169,0.00139410
4876.02503906,0.00142366
4877.95384644,0.00141416
4879.88265381,0.00141400
4881.81146118,0.00146336
4883.74026855,0.00138605
4885.66907593,0.00142643
4887.59788330,0.00147293
4889.52669067,0.00144545
4891.45549805,0.00145422
4893.38430542,0.00142831
4895.31311279,0.00134645
4897.24192017,0.00138637
4899.17072754,0.00148843
4901.09953491,0.00137642
4903.02834228,0.00135356
4904.95714966,0.00140610
4906.88595703,0.00136968
4908.81476440,0.00138246
4910.74357178,0.00140422
4912.67237915,0.00147702
4914.60118652,0.00138176
4916.52999390,0.00127449
4918.45880127,0.00139889
4920.38760864,0.00140983
4922.31641602,0.00139280
4924.24522339,0.00140537
4926.17403076,0.00137958
4928.10283813,0.00139600
4930.03164551,0.00131530
4931.96045288,0.00133532
4933.88926025,0.00138838
4935.81806763,0.00128120
4937.74687500,0.00130165
4939.67568237,0.00129577
4941.60448975,0.00130663
4943.53329712,0.00135550
4945.46210449,0.00128702
4947.39091187,0.00135437
4949.31971924,0.00136873
4951.24852661,0.00127085
4953.17733398,0.00123058
4955.10614136,0.00129792
4957.03494873,0.00133050
4958.96375610,0.00124178
4960.89256348,0.00127942
4962.82137085,0.00129511
4964.75017822,0.00127600
4966.67898560,0.00123766
4968.60779297,0.00128961
4970.53660034,0.00138081
4972.46540771,0.00122535
4974.39421509,0.00121121
4976.32302246,0.00126287
4978.25182983,0.00125118
4980.18063721,0.00124880
4982.10944458,0.00123567
4984.03825195,0.00125580
4985.96705933,0.00123288
4987.89586670,0.00127509
4989.82467407,0.00117613
4991.75348145,0.00118375
4993.68228882,0.00129295
4995.61109619,0.00120718
4997.53990356,0.00126130
4999.46871094,0.00127918
5001.39751831,0.00124794
5003.32632568,0.00121504
5005.25513306,0.00125579
5007.18394043,0.00129755
5009.11274780,0.00116398
5011.04155518,0.00119723
5012.97036255,0.00118348
5014.89916992,0.00121053
5016.82797729,0.00125986
5018.75678467,0.00113131
5020.68559204,0.00117407
5022.61439941,0.00119064
5024.54320679,0.00120910
5026.47201416,0.00126499
5028.40082153,0.00119777
5030.32962891,0.00112366
5032.25843628,0.00107283
5034.18724365,0.00114266
5036.11605103,0.00115781
5038.04485840,0.00108448
5039.97366577,0.00113121
5041.90247314,0.00119410
5043.83128052,0.00117197
5045.76008789,0.00113504
5047.68889526,0.00113985
5049.61770264,0.00111224
5051.54651001,0.00112954
5053.47531738,0.00115941
5055.40412476,0.00110378
5057.33293213,0.00114386
5059.26173950,0.00114238
5061.19054687,0.00109789
5063.11935425,0.00115955
5065.04816162,0.00114541
5066.97696899,0.00112209
5068.90577637,0.00108889
5070.83458374,0.00107339
5072.76339111,0.00109928
5074.69219849,0.00104413
5076.62100586,0.00106428
5078.54981323,0.00105682
5080.47862061,0.00106085
5082.40742798,0.00110663
5084.33623535,0.00105234
5086.26504272,0.00110281
5088.19385010,0.00109824
5090.12265747,0.00102184
5092.05146484,0.00103245
5093.98027222,0.00103084
5095.90907959,0.00102517
5097.83788696,0.00103121
5099.76669434,0.00108967
5101.69550171,0.00105350
5103.62430908,0.00100374
5105.55311645,0.00104925
5107.48192383,0.00101702
5109.41073120,0.00104228
5111.33953857,0.00108972
5113.26834595,0.00104902
5115.19715332,0.00101837
5117.12596069,0.00105216
5119.05476807,0.00108350
5120.98357544,0.00102929
5122.91238281,0.00101319
5124.84119019,0.00101007
5126.76999756,0.00100471
5128.69880493,0.00102216
5130.62761230,0.00100570
5132.55641968,0.00102416
5134.48522705,0.00100641
5136.41403442,0.00094220
5138.34284180,0.00094798
5140.27164917,0.00102035
5142.20045654,0.00099142
5144.12926392,0.00088923
5146.05807129,0.00095261
5147.98687866,0.00101738
5149.91568603,0.00095142
5151.84449341,0.00091380
5153.77330078,0.00099147
5155.70210815,0.00095977
5157.63091553,0.00085737
5159.55972290,0.00099696
5161.48853027,0.00101621
5163.41733765,0.00096027
5165.34614502,0.00101015
5167.27495239,0.00091034
5169.20375977,0.00085419
5171.13256714,0.00089774
5173.06137451,0.00095907
5174.99018188,0.00090371
5176.91898926,0.00087076
5178.84779663,0.00093291
5180.77660400,0.00086261
5182.70541138,0.00093557
5184.63421875,0.00099173
5186.56302612,0.00090310
5188.49183350,0.00088418
5190.42064087,0.00089669
5192.34944824,0.00092387
5194.27825562,0.00089708
5196.20706299,0.00091047
5198.13587036,0.00088232
5200.06467773,0.00088077
5201.99348511,0.00093432
5203.92229248,0.00081971
5205.85109985,0.00080741
5207.77990723,0.00088909
5209.70871460,0.00087661
5211.63752197,0.00086911
5213.56632935,0.00086136
5215.49513672,0.00085261
5217.42394409,0.00084185
5219.35275146,0.00079786
5221.28155884,0.00086563
5223.21036621,0.00089306
5225.13917358,0.00077133
5227.06798096,0.00086374
5228.99678833,0.00086549
5230.92559570,0.00076490
5232.85440308,0.00087618
5234.78321045,0.00085172
5236.71201782,0.00079696
5238.64082520,0.00081027
5240.56963257,0.00082212
5242.49843994,0.00083429
5244.42724731,0.00081896
5246.35605469,0.00085291
5248.28486206,0.00083094
5250.21366943,0.00082737
5252.14247681,0.00084054
5254.07128418,0.00081418
5256.00009155,0.00083585
5257.92889893,0.00085473
5259.85770630,0.00081854
5261.78651367,0.00078040
5263.71532104,0.00082146
5265.64412842,0.00082960
5267.57293579,0.00078649
5269.50174316,0.00076090
5271.43055054,0.00072781
5273.35935791,0.00072864
5275.28816528,0.00077931
5277.21697266,0.00079488
5279.14578003,0.00076346
5281.07458740,0.00073864
5283.00339478,0.00069362
5284.93220215,0.00072722
5286.86100952,0.00078158
5288.78981689,0.00077936
5290.71862427,0.00078069
5292.64743164,0.00073802
5294.57623901,0.00077555
5296.50504639,0.00082099
5298.43385376,0.00076058
5300.36266113,0.00072211
5302.29146851,0.00071414
5304.22027588,0.00072500
5306.14908325,0.00075139
5308.07789062,0.00073552
5310.00669800,0.00073221
5311.93550537,0.00078325
5313.86431274,0.00075302
5315.79312012,0.00073006
5317.72192749,0.00074637
5319.65073486,0.00073796
5321.57954224,0.00075732
5323.50834961,0.00075716
5325.43715698,0.00075395
5327.36596436,0.00072031
5329.29477173,0.00077196
5331.22357910,0.00079348
5333.15238647,0.00071655
5335.08119385,0.00076967
5337.01000122,0.00075647
5338.93880859,0.00070349
5340.86761597,0.00069922
5342.79642334,0.00071169
5344.72523071,0.00068098
5346.65403809,0.00066341
5348.58284546,0.00074657
5350.51165283,0.00072547
5352.44046020,0.00080208
5354.36926758,0.00073117
5356.29807495,0.00061032
5358.22688232,0.00081841
5360.15568970,0.00073075
5362.08449707,0.00066486
5364.01330444,0.00076491
5365.94211182,0.00065062
5367.87091919,0.00071514
5369.79972656,0.00073349
5371.72853394,0.00065083
5373.65734131,0.00069766
5375.58614868,0.00064395
5377.51495605,0.00063856
5379.44376343,0.00065690
5381.37257080,0.00066574
5383.30137817,0.00071950
5385.23018555,0.00064625
5387.15899292,0.00065261
5389.08780029,0.00061843
5391.01660767,0.00058927
5392.94541504,0.00062353
5394.87422241,0.00053223
5396.80302978,0.00068111
5398.73183716,0.00071608
5400.66064453,0.00063039
5402.58945190,0.00065017
5404.51825928,0.00058959
5406.44706665,0.00070491
5408.37587402,0.00058876
5410.30468140,0.00049188
5412.23348877,0.00064384
5414.16229614,0.00057968
5416.09110352,0.00057301
5418.01991089,0.00058590
5419.94871826,0.00060386
5421.87752563,0.00058685
5423.80633301,0.00054931
5425.73514038,0.00065849
5427.66394775,0.00066467
5429.59275513,0.00062810
5431.52156250,0.00064721
5433.45036987,0.00069432
5435.37917725,0.00064305
5437.30798462,0.00056045
5439.23679199,0.00060097
5441.16559936,0.00061489
5443.09440674,0.00061696
5445.02321411,0.00058311
5446.95202148,0.00057114
5448.88082886,0.00058184
5450.80963623,0.00059926
5452.73844360,0.00064507
5454.66725098,0.00056770
5456.59605835,0.00057712
5458.52486572,0.00064132
5460.45367310,0.00059842
5462.38248047,0.00056580
5464.31128784,0.00051314
5466.24009521,0.00058105
5468.16890259,0.00064398
5470.09770996,0.00058748
5472.02651733,0.00060759
5473.95532471,0.00054392
5475.88413208,0.00050536
5477.81293945,0.00054422
5479.74174683,0.00057363
5481.67055420,0.00064328
5483.59936157,0.00057383
5485.52816895,0.00061604
5487.45697632,0.00061487
5489.38578369,0.00044414
5491.31459106,0.00051875
5493.24339844,0.00056539
5495.17220581,0.00055845
5497.10101318,0.00060985
5499.02982056,0.00061259
5500.95862793,0.00054449
5502.88743530,0.00048100
5504.81624268,0.00055828
5506.74505005,0.00058296
5508.67385742,0.00055345
5510.60266479,0.00049915
5512.53147217,0.00052775
5514.46027954,0.00055249
5516.38908691,0.00050628
5518.31789429,0.00063240
5520.24670166,0.00060139
5522.17550903,0.00047833
5524.10431641,0.00046568
5526.03312378,0.00054096
5527.96193115,0.00063364
5529.89073853,0.00058907
5531.81954590,0.00058522
5533.74835327,0.00053454
5535.67716064,0.00055591
5537.60596802,0.00061591
5539.53477539,0.00054351
5541.46358276,0.00048749
5543.39239014,0.00046603
5545.32119751,0.00054051
5547.25000488,0.00049562
5549.17881226,0.00044233
5551.10761963,0.00049663
5553.03642700,0.00045767
5554.96523437,0.00042533
5556.89404175,0.00047086
5558.82284912,0.00051434
5560.75165649,0.00047894
5562.68046387,0.00050790
5564.60927124,0.00047925
5566.53807861,0.00044315
5568.46688599,0.00050233
5570.39569336,0.00046722
5572.32450073,0.00047442
5574.25330811,0.00051829
5576.18211548,0.00055833
5578.11092285,0.00045938
5580.03973022,0.00038344
5581.96853760,0.00045872
5583.89734497,0.00044388
5585.82615234,0.00051504
5587.75495972,0.00052922
5589.68376709,0.00044943
5591.61257446,0.00046790
5593.54138184,0.00053332
5595.47018921,0.00051979
5597.39899658,0.00046591
5599.32780395,0.00052894
5601.25661133,0.00051372
5603.18541870,0.00048976
5605.11422607,0.00045634
5607.04303345,0.00046945
5608.97184082,0.00052308
5610.90064819,0.00042969
5612.82945557,0.00044690
5614.75826294,0.00043396
5616.68707031,0.00041312
5618.61587769,0.00041759
5620.54468506,0.00043215
5622.47349243,0.00051971
5624.40229980,0.00042629
5626.33110718,0.00043321
5628.25991455,0.00047598
5630.18872192,0.00043199
5632.11752930,0.00045733
5634.04633667,0.00041822
5635.97514404,0.00039551
5637.90395142,0.00045539
5639.83275879,0.00049819
5641.76156616,0.00037467
5643.69037353,0.00037589
5645.61918091,0.00048995
5647.54798828,0.00043014
5649.47679565,0.00045117
5651.40560303,0.00045149
5653.33441040,0.00035975
5655.26321777,0.00038525
5657.19202515,0.00051679
5659.12083252,0.00053954
5661.04963989,0.00045465
5662.97844727,0.00040511
5664.90725464,0.00032777
5666.83606201,0.00040820
5668.76486938,0.00051386
5670.69367676,0.00046847
5672.62248413,0.00043214
5674.55129150,0.00039191
5676.48009888,0.00043181
5678.40890625,0.00045849
5680.33771362,0.00045547
5682.26652100,0.00043948
5684.19532837,0.00042140
5686.12413574,0.00048799
5688.05294311,0.00040146
5689.98175049,0.00041125
5691.91055786,0.00044284
5693.83936523,0.00031239
5695.76817261,0.00042872
5697.69697998,0.00044064
5699.62578735,0.00039692
5701.55459473,0.00044517
5703.48340210,0.00035855
5705.41220947,0.00042017
5707.34101685,0.00043350
5709.26982422,0.00038747
5711.19863159,0.00040596
5713.12743896,0.00037363
5715.05624634,0.00037043
5716.98505371,0.00035213
5718.91386108,0.00040092
5720.84266846,0.00041716
5722.77147583,0.00034636
5724.70028320,0.00034650
5726.62909058,0.00041430
5728.55789795,0.00041547
5730.48670532,0.00037923
5732.41551270,0.00042797
5734.34432007,0.00039976
5736.27312744,0.00041988
5738.20193481,0.00042547
5740.13074219,0.00038143
5742.05954956,0.00043960
5743.98835693,0.00037105
5745.91716431,0.00038768
5747.84597168,0.00043299
5749.77477905,0.00035134
5751.70358643,0.00034755
5753.63239380,0.00039028
5755.56120117,0.00045177
5757.49000854,0.00039094
5759.41881592,0.00029238
5761.34762329,0.00031693
5763.27643066,0.00042860
5765.20523804,0.00044241
5767.13404541,0.00034676
5769.06285278,0.00041967
5770.99166016,0.00040545
5772.92046753,0.00031316
5774.84927490,0.00035298
5776.77808228,0.00030560
5778.70688965,0.00034377
5780.63569702,0.00036729
5782.56450439,0.00030671
5784.49331177,0.00041244
5786.42211914,0.00032793
5788.35092651,0.00030059
5790.27973389,0.00044678
5792.20854126,0.00034836
5794.13734863,0.00036930
5796.06615601,0.00036947
5797.99496338,0.00029405
5799.92377075,0.00037272
5801.85257812,0.00036682
5803.78138550,0.00034311
5805.71019287,0.00033952
5807.63900024,0.00036166
5809.56780762,0.00032734
5811.49661499,0.00034707
5813.42542236,0.00037157
5815.35422974,0.00026487
5817.28303711,0.00026643
5819.21184448,0.00023080
5821.14065186,0.00029355
5823.06945923,0.00033911
5824.99826660,0.00030716
5826.92707397,0.00037657
5828.85588135,0.00030648
5830.78468872,0.00036965
5832.71349609,0.00041954
5834.64230347,0.00035640
5836.57111084,0.00038402
5838.49991821,0.00033471
5840.42872559,0.00029591
5842.35753296,0.00028783
5844.28634033,0.00033747
5846.21514770,0.00036007
5848.14395508,0.00031845
5850.07276245,0.00033489
5852.00156982,0.00031681
5853.93037720,0.00032388
5855.85918457,0.00035612
5857.78799194,0.00027239
5859.71679932,0.00029146
5861.64560669,0.00034377
5863.57441406,0.00025280
5865.50322144,0.00032763
5867.43202881,0.00033842
5869.36083618,0.00031157
5871.28964355,0.00034509
5873.21845093,0.00025214
5875.14725830,0.00033039
5877.07606567,0.00028964
5879.00487305,0.00021262
5880.93368042,0.00029714
5882.86248779,0.00029573
5884.79129517,0.00031857
5886.72010254,0.00031405
5888.64890991,0.00029603
5890.57771728,0.00022669
5892.50652466,0.00028711
5894.43533203,0.00036881
5896.36413940,0.00030584
5898.29294678,0.00035976
5900.22175415,0.00030165
5902.15056152,0.00023686
5904.07936890,0.00028187
5906.00817627,0.00027381
5907.93698364,0.00024935
5909.86579102,0.00026459
5911.79459839,0.00028325
5913.72340576,0.00026748
5915.65221313,0.00029033
5917.58102051,0.00025043
5919.50982788,0.00026837
5921.43863525,0.00029619
5923.36744263,0.00026261
5925.29625000,0.00028408
5927.22505737,0.00026975
5929.15386475,0.00026453
5931.08267212,0.00025984
5933.01147949,0.00029384
5934.94028686,0.00025998
5936.86909424,0.00021104
5938.79790161,0.00028308
5940.72670898,0.00030700
5942.65551636,0.00025227
5944.58432373,0.00022859
5946.51313110,0.00031831
5948.44193848,0.00022370
5950.37074585,0.00018101
5952.29955322,0.00029863
5954.22836060,0.00023051
5956.15716797,0.00027369
5958.08597534,0.00027451
5960.01478271,0.00021827
5961.94359009,0.00028091
5963.87239746,0.00027950
5965.80120483,0.00029071
5967.73001221,0.00024790
5969.65881958,0.00021454
5971.58762695,0.00028702
5973.51643433,0.00025233
5975.44524170,0.00020111
5977.37404907,0.00026351
5979.30285645,0.00022444
5981.23166382,0.00025874
5983.16047119,0.00033690
5985.08927856,0.00023126
5987.01808594,0.00022679
5988.94689331,0.00022421
5990.87570068,0.00020319
5992.80450806,0.00026537
5994.73331543,0.00028287
5996.66212280,0.00025084
5998.59093018,0.00018642
6000.51973755,0.00021830
