399.26312622,0.00027902
401.19193359,-0.00007908
403.12074097,0.00020408
405.04954834,-0.00001106
406.97835571,0.00006660
408.90716309,0.00031048
410.83597046,0.00018762
412.76477783,0.00010828
414.69358521,-0.00019072
416.62239258,0.00021403
418.55119995,-0.00001257
420.48000732,0.00002479
422.40881470,0.00038826
424.33762207,-0.00004230
426.26642944,0.00009104
428.19523682,0.00010874
430.12404419,0.00014643
432.05285156,0.00026588
433.98165894,0.00016522
435.91046631,0.00033754
437.83927368,0.00040297
439.76808105,0.00042483
441.69688843,0.00027308
443.62569580,0.00016175
445.55450317,0.00051970
447.48331055,0.00009345
449.41211792,-0.00012672
451.34092529,0.00026883
453.26973267,-0.00011055
455.19854004,0.00010911
457.12734741,0.00045590
459.05615479,0.00026086
460.98496216,0.00025055
462.91376953,0.00026363
464.84257690,0.00025143
466.77138428,-0.00005098
468.70019165,0.00019690
470.62899902,0.00041368
472.55780640,-0.00001545
474.48661377,0.00002864
476.41542114,0.00028379
478.34422852,0.00015464
480.27303589,0.00005064
482.20184326,0.00022419
484.13065063,0.00018778
486.05945801,0.00025605
487.98826538,0.00023745
489.91707275,0.00033145
491.84588013,0.00038330
493.77468750,-0.00007103
495.70349487,0.00015550
497.63230225,0.00024775
499.56110962,0.00004134
501.48991699,0.00031883
503.41872437,0.00017043
505.34753174,-0.00012761
507.27633911,0.00012488
509.20514648,0.00027921
511.13395386,0.00019416
513.06276123,0.00044623
514.99156860,0.00034518
516.92037598,0.00005852
518.84918335,0.00003531
520.77799072,0.00017506
522.70679810,0.00019829
524.63560547,0.00022298
526.56441284,0.00038013
528.49322021,-0.00006047
530.42202759,0.00013713
532.35083496,0.00038113
534.27964233,-0.00021733
536.20844971,0.00022339
538.13725708,0.00043942
540.06606445,-0.00003395
541.99487183,0.00007417
543.92367920,0.00023713
545.85248657,0.00041312
547.78129395,0.00033786
549.71010132,-0.00010538
551.63890869,-0.00008191
553.56771606,0.00005343
555.49652344,-0.00021767
557.42533081,0.00032728
559.35413818,0.00079151
561.28294556,0.00027282
563.21175293,0.00026682
565.14056030,0.00022440
567.06936768,0.00004106
568.99817505,0.00010662
570.92698242,0.00001019
572.85578979,0.00001618
574.78459717,-0.00006172
576.71340454,0.00019282
578.64221191,0.00037518
580.57101929,-0.00012490
582.49982666,0.00004446
584.42863403,0.00026525
586.35744141,-0.00001765
588.28624878,0.00017714
590.21505615,0.00008934
592.14386353,0.00002320
594.07267090,0.00008804
596.00147827,0.00011172
597.93028564,0.00018284
599.85909302,0.00006498
601.78790039,0.00026297
603.71670776,0.00002579
605.64551514,-0.00005154
607.57432251,0.00018500
609.50312988,0.00024202
611.43193726,0.00015875
613.36074463,-0.00016109
615.28955200,0.00024381
617.21835938,0.00019909
619.14716675,0.00003805
621.07597412,0.00031046
623.00478149,0.00002161
624.93358887,-0.00011044
626.86239624,0.00002153
628.79120361,0.00019397
630.72001099,0.00013039
632.64881836,0.00009772
634.57762573,0.00027281
636.50643311,0.00022758
638.43524048,0.00008589
640.36404785,0.00012090
642.29285522,0.00008966
644.22166260,0.00034393
646.15046997,0.00045353
648.07927734,0.00030287
650.00808472,0.00071552
651.93689209,0.00051826
653.86569946,0.00011221
655.79450684,0.00033482
657.72331421,0.00052853
659.65212158,0.00058579
661.58092896,0.00034800
663.50973633,0.00028849
665.43854370,0.00058235
667.36735107,0.00069673
669.29615845,0.00036516
671.22496582,0.00037943
673.15377319,0.00076543
675.08258057,0.00053063
677.01138794,0.00049522
678.94019531,0.00069978
680.86900269,0.00060866
682.79781006,0.00069671
684.72661743,0.00065730
686.65542480,0.00047321
688.58423218,0.00064479
690.51303955,0.00070043
692.44184692,0.00051592
694.37065430,0.00065855
696.29946167,0.00059933
698.22826904,0.00073955
700.15707642,0.00108828
702.08588379,0.00071680
704.01469116,0.00087619
705.94349854,0.00101431
707.87230591,0.00041984
709.80111328,0.00044744
711.72992065,0.00061026
713.65872803,0.00038364
715.58753540,0.00013347
717.51634277,0.00016087
719.44515015,0.00028875
721.37395752,0.00025073
723.30276489,0.00022681
725.23157227,0.00022586
727.16037964,0.00018139
729.08918701,0.00020201
731.01799438,0.00026599
732.94680176,0.00032447
734.87560913,0.00040145
736.80441650,-0.00002833
738.73322388,0.00000401
740.66203125,0.00035998
742.59083862,0.00015612
744.51964600,0.00037593
746.44845337,0.00014631
748.37726074,0.00004205
750.30606812,0.00031467
752.23487549,0.00014827
754.16368286,0.00044413
756.09249023,0.00035354
758.02129761,0.00010565
759.95010498,0.00029074
761.87891235,0.00042528
763.80771973,0.00034471
765.73652710,0.00012566
767.66533447,0.00024269
769.59414185,0.00020823
771.52294922,0.00013592
773.45175659,0.00017215
775.38056396,0.00007208
777.30937134,0.00006111
779.23817871,0.00016900
781.16698608,0.00011888
783.09579346,0.00012316
785.02460083,0.00034590
786.95340820,0.00020081
788.88221558,0.00024039
790.81102295,0.00026737
792.73983032,0.00005487
794.66863770,0.00024442
796.59744507,0.00033321
798.52625244,0.00042160
800.45505981,0.00041497
802.38386719,0.00020891
804.31267456,0.00013704
806.24148193,0.00014933
808.17028931,0.00019738
810.09909668,0.00025422
812.02790405,0.00024857
813.95671143,0.00012362
815.88551880,0.00041536
817.81432617,0.00045197
819.74313354,0.00001206
821.67194092,0.00029039
823.60074829,0.00051706
825.52955566,0.00032734
827.45836304,0.00033813
829.38717041,0.00040862
831.31597778,0.00038741
833.24478516,0.00018457
835.17359253,0.00029976
837.10239990,0.00042767
839.03120728,0.00026552
840.96001465,0.00038309
842.88882202,0.00026752
844.81762939,0.00016989
846.74643677,0.00037249
848.67524414,0.00033075
850.60405151,0.00037548
852.53285889,0.00041653
854.46166626,0.00051974
856.39047363,0.00047011
858.31928101,0.00019690
860.24808838,0.00030519
862.17689575,0.00033298
864.10570313,0.00031568
866.03451050,0.00020661
867.96331787,0.00014200
869.89212524,0.00022523
871.82093262,0.00022869
873.74973999,0.00044901
875.67854736,0.00022584
877.60735474,0.00010889
879.53616211,0.00040907
881.46496948,0.00046001
883.39377686,0.00045972
885.32258423,0.00034091
887.25139160,0.00026363
889.18019897,0.00012865
891.10900635,0.00024624
893.03781372,0.00048090
894.96662109,0.00040227
896.89542847,0.00047995
898.82423584,0.00050487
900.75304321,0.00048113
902.68185059,0.00038978
904.61065796,0.00023189
906.53946533,0.00023004
908.46827271,0.00042597
910.39708008,0.00040336
912.32588745,0.00025100
914.25469482,0.00051281
916.18350220,0.00028773
918.11230957,0.00030396
920.04111694,0.00058576
921.96992432,0.00024495
923.89873169,0.00040997
925.82753906,0.00046771
927.75634644,0.00022561
929.68515381,0.00034551
931.61396118,0.00054791
933.54276855,0.00058337
935.47157593,0.00043976
937.40038330,0.00055798
939.32919067,0.00059855
941.25799805,0.00050666
943.18680542,0.00046661
945.11561279,0.00048587
947.04442017,0.00059959
948.97322754,0.00052479
950.90203491,0.00056390
952.83084229,0.00060373
954.75964966,0.00054737
956.68845703,0.00057362
958.61726440,0.00049228
960.54607178,0.00051821
962.47487915,0.00071074
964.40368652,0.00071683
966.33249390,0.00069916
968.26130127,0.00086316
970.19010864,0.00069914
972.11891602,0.00060749
974.04772339,0.00074525
975.97653076,0.00048881
977.90533813,0.00056508
979.83414551,0.00095189
981.76295288,0.00085759
983.69176025,0.00061929
985.62056763,0.00070139
987.54937500,0.00090474
989.47818237,0.00106205
991.40698975,0.00122046
993.33579712,0.00123388
995.26460449,0.00129845
997.19341187,0.00119231
999.12221924,0.00110298
1001.05102661,0.00150582
1002.97983398,0.00171632
1004.90864136,0.00169374
1006.83744873,0.00162821
1008.76625610,0.00176864
1010.69506348,0.00188915
1012.62387085,0.00171698
1014.55267822,0.00207972
1016.48148560,0.00229735
1018.41029297,0.00224676
1020.33910034,0.00229603
1022.26790771,0.00223578
1024.19671509,0.00258156
1026.12552246,0.00247106
1028.05432983,0.00232837
1029.98313721,0.00280995
1031.91194458,0.00284920
1033.84075195,0.00285108
1035.76955933,0.00285534
1037.69836670,0.00273457
1039.62717407,0.00288530
1041.55598145,0.00300011
1043.48478882,0.00293304
1045.41359619,0.00285409
1047.34240356,0.00290156
1049.27121094,0.00283885
1051.20001831,0.00281651
1053.12882568,0.00278143
1055.05763306,0.00258127
1056.98644043,0.00268000
1058.91524780,0.00261350
1060.84405518,0.00239448
1062.77286255,0.00252559
1064.70166992,0.00234912
1066.63047729,0.00216561
1068.55928467,0.00247616
1070.48809204,0.00237435
1072.41689941,0.00207184
1074.34570679,0.00195782
1076.27451416,0.00175589
1078.20332153,0.00186098
1080.13212891,0.00178722
1082.06093628,0.00153796
1083.98974365,0.00172878
1085.91855103,0.00176727
1087.84735840,0.00146589
1089.77616577,0.00142532
1091.70497314,0.00165178
1093.63378052,0.00151218
1095.56258789,0.00137227
1097.49139526,0.00140112
1099.42020264,0.00137873
1101.34901001,0.00142682
1103.27781738,0.00129200
1105.20662476,0.00138947
1107.13543213,0.00129671
1109.06423950,0.00102640
1110.99304687,0.00127482
1112.92185425,0.00138354
1114.85066162,0.00144126
1116.77946899,0.00143341
1118.70827637,0.00131893
1120.63708374,0.00134721
1122.56589111,0.00136827
1124.49469849,0.00136986
1126.42350586,0.00134501
1128.35231323,0.00144469
1130.28112061,0.00136797
1132.20992798,0.00139010
1134.13873535,0.00145228
1136.06754272,0.00132499
1137.99635010,0.00161026
1139.92515747,0.00168500
1141.85396484,0.00172951
1143.78277222,0.00191813
1145.71157959,0.00159299
1147.64038696,0.00169212
1149.56919434,0.00210040
1151.49800171,0.00209067
1153.42680908,0.00225318
1155.35561646,0.00220249
1157.28442383,0.00195757
1159.21323120,0.00224657
1161.14203857,0.00233075
1163.07084595,0.00218759
1164.99965332,0.00230458
1166.92846069,0.00250491
1168.85726807,0.00256444
1170.78607544,0.00250374
1172.71488281,0.00272884
1174.64369019,0.00280985
1176.57249756,0.00286431
1178.50130493,0.00303378
1180.43011230,0.00309740
1182.35891968,0.00336283
1184.28772705,0.00339816
1186.21653442,0.00348689
1188.14534180,0.00363803
1190.07414917,0.00376860
1192.00295654,0.00417007
1193.93176392,0.00415308
1195.86057129,0.00418733
1197.78937866,0.00464993
1199.71818604,0.00486027
1201.64699341,0.00473373
1203.57580078,0.00490371
1205.50460815,0.00524789
1207.43341553,0.00523431
1209.36222290,0.00543867
1211.29103027,0.00561459
1213.21983765,0.00567577
1215.14864502,0.00592210
1217.07745239,0.00600010
1219.00625977,0.00608481
1220.93506714,0.00596466
1222.86387451,0.00601218
1224.79268188,0.00625242
1226.72148926,0.00613511
1228.65029663,0.00630420
1230.57910400,0.00636125
1232.50791138,0.00623590
1234.43671875,0.00635052
1236.36552612,0.00626174
1238.29433350,0.00628716
1240.22314087,0.00629380
1242.15194824,0.00623904
1244.08075562,0.00636580
1246.00956299,0.00637650
1247.93837036,0.00630826
1249.86717773,0.00623888
1251.79598511,0.00623751
1253.72479248,0.00605429
1255.65359985,0.00606468
1257.58240723,0.00610608
1259.51121460,0.00574535
1261.44002197,0.00588472
1263.36882935,0.00592958
1265.29763672,0.00573811
1267.22644409,0.00569150
1269.15525146,0.00548076
1271.08405884,0.00556153
1273.01286621,0.00549248
1274.94167358,0.00524545
1276.87048096,0.00515017
1278.79928833,0.00518375
1280.72809570,0.00524832
1282.65690308,0.00505265
1284.58571045,0.00494941
1286.51451782,0.00491695
1288.44332520,0.00485570
1290.37213257,0.00465070
1292.30093994,0.00456919
1294.22974731,0.00460203
1296.15855469,0.00449859
1298.08736206,0.00469023
1300.01616943,0.00461381
1301.94497681,0.00464185
1303.87378418,0.00482486
1305.80259155,0.00469864
1307.73139893,0.00488854
1309.66020630,0.00481793
1311.58901367,0.00484953
1313.51782104,0.00514783
1315.44662842,0.00514752
1317.37543579,0.00524306
1319.30424316,0.00529060
1321.23305054,0.00547999
1323.16185791,0.00570320
1325.09066528,0.00584943
1327.01947266,0.00604693
1328.94828003,0.00612314
1330.87708740,0.00623472
1332.80589478,0.00631000
1334.73470215,0.00656662
1336.66350952,0.00659257
1338.59231689,0.00636028
1340.52112427,0.00661721
1342.44993164,0.00676147
1344.37873901,0.00677352
1346.30754639,0.00684303
1348.23635376,0.00673393
1350.16516113,0.00676240
1352.09396851,0.00665889
1354.02277588,0.00651662
1355.95158325,0.00657787
1357.88039062,0.00651367
1359.80919800,0.00643883
1361.73800537,0.00624842
1363.66681274,0.00623972
1365.59562012,0.00641005
1367.52442749,0.00607616
1369.45323486,0.00609129
1371.38204224,0.00631215
1373.31084961,0.00596094
1375.23965698,0.00582121
1377.16846436,0.00599322
1379.09727173,0.00610076
1381.02607910,0.00603732
1382.95488647,0.00610362
1384.88369385,0.00598626
1386.81250122,0.00569205
1388.74130859,0.00606914
1390.67011597,0.00639998
1392.59892334,0.00619528
1394.52773071,0.00587030
1396.45653809,0.00608910
1398.38534546,0.00614754
1400.31415283,0.00597177
1402.24296021,0.00649682
1404.17176758,0.00614748
1406.10057495,0.00608549
1408.02938232,0.00661564
1409.95818970,0.00632115
1411.88699707,0.00631428
1413.81580444,0.00617277
1415.74461182,0.00622979
1417.67341919,0.00572439
1419.60222656,0.00521400
1421.53103394,0.00606723
1423.45984131,0.00583667
1425.38864868,0.00540741
1427.31745605,0.00556081
1429.24626343,0.00516193
1431.17507080,0.00491714
1433.10387817,0.00525547
1435.03268555,0.00499742
1436.96149292,0.00425347
1438.89030029,0.00484053
1440.81910767,0.00489527
1442.74791504,0.00442890
1444.67672241,0.00467477
1446.60552979,0.00439775
1448.53433716,0.00445259
1450.46314453,0.00447717
1452.39195190,0.00457106
1454.32075928,0.00472277
1456.24956665,0.00397094
1458.17837402,0.00430877
1460.10718140,0.00531252
1462.03598877,0.00546067
1463.96479614,0.00555368
1465.89360352,0.00569228
1467.82241089,0.00631935
1469.75121826,0.00691173
1471.68002563,0.00648017
1473.60883301,0.00650927
1475.53764038,0.00717845
1477.46644775,0.00782107
1479.39525513,0.00838051
1481.32406250,0.00853493
1483.25286987,0.00901946
1485.18167725,0.00928827
1487.11048462,0.00910198
1489.03929199,0.00905901
1490.96809937,0.00936866
1492.89690674,0.01045456
1494.82571411,0.01006915
1496.75452148,0.00927287
1498.68332886,0.01031489
1500.61213623,0.01070117
1502.54094360,0.01148059
1504.46975098,0.01072904
1506.39855835,0.00805869
1508.32736572,0.00986145
1510.25617310,0.01134065
1512.18498047,0.01103923
1514.11378784,0.01161308
1516.04259521,0.01044170
1517.97140259,0.01129396
1519.90020996,0.01065924
1521.82901733,0.00927937
1523.75782471,0.01132982
1525.68663208,0.01099242
1527.61543945,0.01113165
1529.54424683,0.01209855
1531.47305420,0.01157280
1533.40186157,0.01073954
1535.33066895,0.01134304
1537.25947632,0.01202878
1539.18828369,0.00888789
1541.11709106,0.00943328
1543.04589844,0.01095307
1544.97470581,0.01045983
1546.90351318,0.01220012
1548.83232056,0.01157896
1550.76112793,0.01189477
1552.68993530,0.01155728
1554.61874268,0.01070994
1556.54755005,0.01137096
1558.47635742,0.00837396
1560.40516479,0.00916385
1562.33397217,0.01229591
1564.26277954,0.01161992
1566.19158691,0.01193392
1568.12039429,0.01165739
1570.04920166,0.01057295
1571.97800903,0.01221311
1573.90681641,0.01201407
1575.83562378,0.00977184
1577.76443115,0.01117175
1579.69323853,0.01229185
1581.62204590,0.01171650
1583.55085327,0.01199791
1585.47966064,0.01187366
1587.40846802,0.01185729
1589.33727539,0.01175970
1591.26608276,0.01174521
1593.19489014,0.01183094
1595.12369751,0.01187941
1597.05250488,0.01184948
1598.98131226,0.01187973
1600.91011963,0.01195665
1602.83892700,0.01156923
1604.76773437,0.01174167
1606.69654175,0.01163693
1608.62534912,0.01165785
1610.55415649,0.01147018
1612.48296387,0.01169141
1614.41177124,0.01189830
1616.34057861,0.00990152
1618.26938599,0.01076513
1620.19819336,0.01215324
1622.12700073,0.01103425
1624.05580811,0.01117734
1625.98461548,0.01161981
1627.91342285,0.01171005
1629.84223022,0.01169728
1631.77103760,0.01243503
1633.69984497,0.01151530
1635.62865234,0.00974192
1637.55745972,0.01129528
1639.48626709,0.01236642
1641.41507446,0.01218249
1643.34388184,0.01259711
1645.27268921,0.01132570
1647.20149658,0.01015565
1649.13030396,0.01267849
1651.05911133,0.01192957
1652.98791870,0.00815985
1654.91672607,0.01093529
1656.84553345,0.01336944
1658.77434082,0.01292692
1660.70314819,0.01341335
1662.63195557,0.01229001
1664.56076294,0.01281887
1666.48957031,0.01370107
1668.41837769,0.01204262
1670.34718506,0.01203806
1672.27599243,0.01352816
1674.20479980,0.01237082
1676.13360718,0.01211109
1678.06241455,0.01374154
1679.99122192,0.01339117
1681.92002930,0.01332461
1683.84883667,0.01087834
1685.77764404,0.01092874
1687.70645142,0.01453050
1689.63525879,0.01269409
1691.56406616,0.01393983
1693.49287354,0.01402147
1695.42168091,0.01052919
1697.35048828,0.01286306
1699.27929565,0.01135348
1701.20810303,0.01046288
1703.13691040,0.01372399
1705.06571777,0.01248663
1706.99452515,0.01269790
1708.92333252,0.01382568
1710.85213989,0.01332894
1712.78094727,0.01332054
1714.70975464,0.01246883
1716.63856201,0.01136010
1718.56736938,0.01115975
1720.49617676,0.01300809
1722.42498413,0.01325824
1724.35379150,0.01242389
1726.28259888,0.01349065
1728.21140625,0.01267969
1730.14021362,0.01277228
1732.06902100,0.01213298
1733.99782837,0.00957665
1735.92663574,0.01186529
1737.85544312,0.01271296
1739.78425049,0.01129377
1741.71305786,0.01250198
1743.64186523,0.01252909
1745.57067261,0.01233987
1747.49947998,0.01253537
1749.42828735,0.01205665
1751.35709473,0.01162936
1753.28590210,0.01269044
1755.21470947,0.01323779
1757.14351685,0.01212710
1759.07232422,0.01309771
1761.00113159,0.01244710
1762.92993896,0.01201605
1764.85874634,0.01347973
1766.78755371,0.01224187
1768.71636108,0.01240483
1770.64516846,0.01221182
1772.57397583,0.01114171
1774.50278320,0.01245308
1776.43159058,0.01296643
1778.36039795,0.01275800
1780.28920532,0.01257181
1782.21801270,0.01271440
1784.14682007,0.01276527
1786.07562744,0.01244476
1788.00443481,0.01294288
1789.93324219,0.01263766
1791.86204956,0.01157568
1793.79085693,0.01208195
1795.71966431,0.01293895
1797.64847168,0.01273205
1799.57727905,0.01254994
1801.50608643,0.01226171
1803.43489380,0.01254201
1805.36370117,0.01289458
1807.29250854,0.01262210
1809.22131592,0.01252156
1811.15012329,0.01235113
1813.07893066,0.01281589
1815.00773804,0.01272102
1816.93654541,0.01257085
1818.86535278,0.01276920
1820.79416016,0.01268264
1822.72296753,0.01277326
1824.65177490,0.01201335
1826.58058228,0.01243459
1828.50938965,0.01231113
1830.43819702,0.01171142
1832.36700439,0.01268111
1834.29581177,0.01241675
1836.22461914,0.01248624
1838.15342651,0.01247227
1840.08223389,0.01249645
1842.01104126,0.01248740
1843.93984863,0.01125407
1845.86865601,0.01189142
1847.79746338,0.01239067
1849.72627075,0.01220837
1851.65507812,0.01255265
1853.58388550,0.01233404
1855.51269287,0.01239597
1857.44150024,0.01232733
1859.37030762,0.01224648
1861.29911499,0.01234435
1863.22792236,0.01229848
1865.15672974,0.01232201
1867.08553711,0.01197341
1869.01434448,0.01156423
1870.94315186,0.01196793
1872.87195923,0.01232412
1874.80076660,0.01202725
1876.72957397,0.01205946
1878.65838135,0.01207320
1880.58718872,0.01201607
1882.51599609,0.01196839
1884.44480347,0.01182722
1886.37361084,0.01201266
1888.30241821,0.01176593
1890.23122559,0.01152497
1892.16003296,0.01179839
1894.08884033,0.01179210
1896.01764771,0.01174172
1897.94645508,0.01179433
1899.87526245,0.01179115
1901.80406982,0.01184862
1903.73287720,0.01181757
1905.66168457,0.01184431
1907.59049194,0.01177949
1909.51929932,0.01160333
1911.44810669,0.01158914
1913.37691406,0.01171592
1915.30572144,0.01181646
1917.23452881,0.01124653
1919.16333618,0.01122349
1921.09214355,0.01160796
1923.02095093,0.01131363
1924.94975830,0.01158150
1926.87856567,0.01162367
1928.80737305,0.01158977
1930.73618042,0.01160465
1932.66498779,0.01141638
1934.59379517,0.01178238
1936.52260254,0.01147609
1938.45140991,0.01134535
1940.38021729,0.01144173
1942.30902466,0.01128202
1944.23783203,0.01146564
1946.16663940,0.01131350
1948.09544678,0.01140159
1950.02425415,0.01139997
1951.95306152,0.01133861
1953.88186890,0.01144792
1955.81067627,0.01129771
1957.73948364,0.01150947
1959.66829102,0.01156339
1961.59709839,0.01130127
1963.52590576,0.01121789
1965.45471313,0.01123846
1967.38352051,0.01125902
1969.31232788,0.01124185
1971.24113525,0.01119524
1973.16994263,0.01127300
1975.09875000,0.01133843
1977.02755737,0.01119648
1978.95636475,0.01118810
1980.88517212,0.01112306
1982.81397949,0.01112233
1984.74278687,0.01117973
1986.67159424,0.01114106
1988.60040161,0.01114995
1990.52920898,0.01092230
1992.45801636,0.01088851
1994.38682373,0.01097679
1996.31563110,0.01095186
1998.24443848,0.01098073
2000.17324585,0.01097295
2002.10205322,0.01095409
2004.03086060,0.01082766
2005.95966797,0.01090697
2007.88847534,0.01097712
2009.81728271,0.01082103
2011.74609009,0.01076303
2013.67489746,0.01072054
2015.60370483,0.01069135
2017.53251221,0.01060760
2019.46131958,0.01057784
2021.39012695,0.01064117
2023.31893433,0.01058912
2025.24774170,0.01052665
2027.17654907,0.01056613
2029.10535645,0.01059084
2031.03416382,0.01052427
2032.96297119,0.01056554
2034.89177856,0.01052930
2036.82058594,0.01039038
2038.74939331,0.01055181
2040.67820068,0.01050728
2042.60700806,0.01029493
2044.53581543,0.01040829
2046.46462280,0.01035111
2048.39343018,0.01025223
2050.32223755,0.01028743
2052.25104492,0.01031646
2054.17985229,0.01029429
2056.10865967,0.01019152
2058.03746704,0.01028002
2059.96627441,0.01027495
2061.89508179,0.01033774
2063.82388916,0.01036188
2065.75269653,0.01006054
2067.68150391,0.00997378
2069.61031128,0.01002605
2071.53911865,0.01012817
2073.46792603,0.01006220
2075.39673340,0.01001829
2077.32554077,0.01012535
2079.25434814,0.00998975
2081.18315552,0.00998638
2083.11196289,0.01003690
2085.04077026,0.00998977
2086.96957764,0.00993806
2088.89838501,0.00987637
2090.82719238,0.00988376
2092.75599976,0.00993015
2094.68480713,0.00990759
2096.61361450,0.00983458
2098.54242187,0.00981086
2100.47122925,0.00967361
2102.40003662,0.00973256
2104.32884399,0.00983502
2106.25765137,0.00975735
2108.18645874,0.00979384
2110.11526611,0.00982759
2112.04407349,0.00980013
2113.97288086,0.00963836
2115.90168823,0.00966098
2117.83049561,0.00967203
2119.75930298,0.00955438
2121.68811035,0.00961387
2123.61691772,0.00962318
2125.54572510,0.00970803
2127.47453247,0.00964604
2129.40333984,0.00955573
2131.33214722,0.00957800
2133.26095459,0.00955493
2135.18976196,0.00958636
2137.11856934,0.00943573
2139.04737671,0.00941578
2140.97618408,0.00957466
2142.90499146,0.00949045
2144.83379883,0.00937089
2146.76260620,0.00948858
2148.69141357,0.00952032
2150.62022095,0.00949700
2152.54902832,0.00945044
2154.47783569,0.00932648
2156.40664307,0.00954544
2158.33545044,0.00950962
2160.26425781,0.00932268
2162.19306519,0.00939295
2164.12187256,0.00939247
2166.05067993,0.00938128
2167.97948730,0.00927473
2169.90829468,0.00935591
2171.83710205,0.00933118
2173.76590942,0.00927269
2175.69471680,0.00938754
2177.62352417,0.00927465
2179.55233154,0.00930045
2181.48113892,0.00923999
2183.40994629,0.00915153
2185.33875366,0.00926540
2187.26756104,0.00925326
2189.19636841,0.00918036
2191.12517578,0.00918277
2193.05398315,0.00924064
2194.98279053,0.00918204
2196.91159790,0.00916821
2198.84040527,0.00922894
2200.76921265,0.00914766
2202.69802002,0.00902426
2204.62682739,0.00906956
2206.55563477,0.00903575
2208.48444214,0.00895968
2210.41324951,0.00909118
2212.34205688,0.00906977
2214.27086426,0.00911791
2216.19967163,0.00909908
2218.12847900,0.00897948
2220.05728638,0.00907341
2221.98609375,0.00891948
2223.91490112,0.00889903
2225.84370850,0.00902935
2227.77251587,0.00884561
2229.70132324,0.00880564
2231.63013062,0.00890865
2233.55893799,0.00884135
2235.48774536,0.00890438
2237.41655273,0.00892497
2239.34536011,0.00872797
2241.27416748,0.00880980
2243.20297485,0.00880906
2245.13178223,0.00869206
2247.06058960,0.00875966
2248.98939697,0.00870132
2250.91820435,0.00870707
2252.84701172,0.00872146
2254.77581909,0.00864941
2256.70462646,0.00865097
2258.63343384,0.00861436
2260.56224121,0.00863031
2262.49104858,0.00864009
2264.41985596,0.00859419
2266.34866333,0.00869497
2268.27747070,0.00863177
2270.20627808,0.00856445
2272.13508545,0.00872258
2274.06389282,0.00862361
2275.99270020,0.00852660
2277.92150757,0.00843726
2279.85031494,0.00841450
2281.77912231,0.00854943
2283.70792969,0.00845797
2285.63673706,0.00852113
2287.56554443,0.00856044
2289.49435181,0.00850931
2291.42315918,0.00847609
2293.35196655,0.00834857
2295.28077393,0.00838490
2297.20958130,0.00834681
2299.13838867,0.00829889
2301.06719604,0.00828614
2302.99600342,0.00826104
2304.92481079,0.00819972
2306.85361816,0.00807613
2308.78242554,0.00810265
2310.71123291,0.00800645
2312.64004028,0.00790001
2314.56884766,0.00790306
2316.49765503,0.00773130
2318.42646240,0.00763552
2320.35526978,0.00761192
2322.28407715,0.00736545
2324.21288452,0.00732851
2326.14169189,0.00732618
2328.07049927,0.00712251
2329.99930664,0.00712668
2331.92811401,0.00692108
2333.85692139,0.00688149
2335.78572876,0.00702406
2337.71453613,0.00689085
2339.64334351,0.00689321
2341.57215088,0.00690039
2343.50095825,0.00708832
2345.42976562,0.00719558
2347.35857300,0.00734259
2349.28738037,0.00761652
2351.21618774,0.00736667
2353.14499512,0.00707368
2355.07380249,0.00672985
2357.00260986,0.00648502
2358.93141724,0.00643667
2360.86022461,0.00630921
2362.78903198,0.00630477
2364.71783936,0.00626773
2366.64664673,0.00644465
2368.57545410,0.00667936
2370.50426147,0.00672510
2372.43306885,0.00692283
2374.36187622,0.00723374
2376.29068359,0.00738858
2378.21949097,0.00744703
2380.14829834,0.00767777
2382.07710571,0.00781698
2384.00591309,0.00780634
2385.93472046,0.00783572
2387.86352783,0.00786520
2389.79233521,0.00790472
2391.72114258,0.00785445
2393.64994995,0.00771866
2395.57875732,0.00766922
2397.50756470,0.00768855
2399.43637207,0.00773216
2401.36517944,0.00779056
2403.29398682,0.00771909
2405.22279419,0.00768098
2407.15160156,0.00760879
2409.08040894,0.00753665
2411.00921631,0.00767754
2412.93802368,0.00771954
2414.86683105,0.00772104
2416.79563843,0.00766484
2418.72444580,0.00762459
2420.65325317,0.00760261
2422.58206055,0.00752480
2424.51086792,0.00761846
2426.43967529,0.00758865
2428.36848267,0.00756348
2430.29729004,0.00752918
2432.22609741,0.00746847
2434.15490479,0.00751601
2436.08371216,0.00744263
2438.01251953,0.00748025
2439.94132690,0.00742219
2441.87013428,0.00744170
2443.79894165,0.00757175
2445.72774902,0.00735847
2447.65655640,0.00738539
2449.58536377,0.00751775
2451.51417114,0.00744227
2453.44297852,0.00744797
2455.37178589,0.00732533
2457.30059326,0.00728490
2459.22940063,0.00734551
2461.15820801,0.00725897
2463.08701538,0.00732375
2465.01582275,0.00725953
2466.94463013,0.00721024
2468.87343750,0.00736039
2470.80224487,0.00723817
2472.73105225,0.00718886
2474.65985962,0.00720419
2476.58866699,0.00719823
2478.51747437,0.00720463
2480.44628174,0.00716425
2482.37508911,0.00721962
2484.30389648,0.00719151
2486.23270386,0.00723979
2488.16151123,0.00709299
2490.09031860,0.00703421
2492.01912598,0.00726366
2493.94793335,0.00716880
2495.87674072,0.00713331
2497.80554810,0.00709036
2499.73435547,0.00702769
2501.66316284,0.00702181
2503.59197021,0.00705355
2505.52077759,0.00717364
2507.44958496,0.00709706
2509.37839233,0.00711317
2511.30719971,0.00705063
2513.23600708,0.00705899
2515.16481445,0.00704414
2517.09362183,0.00684712
2519.02242920,0.00701470
2520.95123657,0.00698710
2522.88004395,0.00686157
2524.80885132,0.00689753
2526.73765869,0.00683486
2528.66646606,0.00684956
2530.59527344,0.00691313
2532.52408081,0.00692330
2534.45288818,0.00687833
2536.38169556,0.00697483
2538.31050293,0.00695795
2540.23931030,0.00683834
2542.16811768,0.00687083
2544.09692505,0.00687615
2546.02573242,0.00677690
2547.95453979,0.00670123
2549.88334717,0.00677119
2551.81215454,0.00666009
2553.74096191,0.00664249
2555.66976929,0.00674715
2557.59857666,0.00671716
2559.52738403,0.00679678
2561.45619141,0.00678424
2563.38499878,0.00677432
2565.31380615,0.00671243
2567.24261353,0.00667369
2569.17142090,0.00666275
2571.10022827,0.00656766
2573.02903564,0.00665514
2574.95784302,0.00660437
2576.88665039,0.00656635
2578.81545776,0.00661267
2580.74426514,0.00662205
2582.67307251,0.00663383
2584.60187988,0.00656208
2586.53068726,0.00656325
2588.45949463,0.00652957
2590.38830200,0.00655489
2592.31710937,0.00659569
2594.24591675,0.00660602
2596.17472412,0.00651381
2598.10353149,0.00642650
2600.03233887,0.00649795
2601.96114624,0.00643872
2603.88995361,0.00657632
2605.81876099,0.00655565
2607.74756836,0.00638195
2609.67637573,0.00642266
2611.60518311,0.00637897
2613.53399048,0.00647251
2615.46279785,0.00642285
2617.39160522,0.00640328
2619.32041260,0.00644122
2621.24921997,0.00626692
2623.17802734,0.00631911
2625.10683472,0.00639179
2627.03564209,0.00633327
2628.96444946,0.00626073
2630.89325684,0.00625465
2632.82206421,0.00624977
2634.75087158,0.00627563
2636.67967895,0.00631777
2638.60848633,0.00625668
2640.53729370,0.00629616
2642.46610107,0.00624324
2644.39490845,0.00616414
2646.32371582,0.00620836
2648.25252319,0.00626786
2650.18133057,0.00624480
2652.11013794,0.00610006
2654.03894531,0.00604779
2655.96775269,0.00605242
2657.89656006,0.00612412
2659.82536743,0.00614100
2661.75417480,0.00606572
2663.68298218,0.00604054
2665.61178955,0.00607716
2667.54059692,0.00611563
2669.46940430,0.00603985
2671.39821167,0.00604417
2673.32701904,0.00601093
2675.25582642,0.00596260
2677.18463379,0.00600990
2679.11344116,0.00590958
2681.04224854,0.00590462
2682.97105591,0.00608792
2684.89986328,0.00604087
2686.82867065,0.00592844
2688.75747803,0.00603605
2690.68628540,0.00593539
2692.61509277,0.00587714
2694.54390015,0.00597727
2696.47270752,0.00592631
2698.40151489,0.00596726
2700.33032227,0.00599226
2702.25912964,0.00595353
2704.18793701,0.00579579
2706.11674438,0.00581325
2708.04555176,0.00590430
2709.97435913,0.00573561
2711.90316650,0.00578262
2713.83197388,0.00574917
2715.76078125,0.00567616
2717.68958862,0.00572954
2719.61839600,0.00575705
2721.54720337,0.00580898
2723.47601074,0.00575168
2725.40481812,0.00574128
2727.33362549,0.00565252
2729.26243286,0.00568097
2731.19124023,0.00576428
2733.12004761,0.00567747
2735.04885498,0.00569503
2736.97766235,0.00564554
2738.90646973,0.00564870
2740.83527710,0.00564136
2742.76408447,0.00553909
2744.69289185,0.00564675
2746.62169922,0.00569325
2748.55050659,0.00553874
2750.47931396,0.00557366
2752.40812134,0.00557366
2754.33692871,0.00546285
2756.26573608,0.00559963
2758.19454346,0.00554678
2760.12335083,0.00545409
2762.05215820,0.00547741
2763.98096558,0.00544506
2765.90977295,0.00552623
2767.83858032,0.00543373
2769.76738770,0.00543231
2771.69619507,0.00547430
2773.62500244,0.00535691
2775.55380981,0.00539531
2777.48261719,0.00536416
2779.41142456,0.00531765
2781.34023193,0.00539183
2783.26903931,0.00533879
2785.19784668,0.00527275
2787.12665405,0.00537276
2789.05546143,0.00532058
2790.98426880,0.00525020
2792.91307617,0.00531989
2794.84188354,0.00520324
2796.77069092,0.00517172
2798.69949829,0.00526457
2800.62830566,0.00521903
2802.55711304,0.00522170
2804.48592041,0.00522270
2806.41472778,0.00513686
2808.34353516,0.00520833
2810.27234253,0.00516137
2812.20114990,0.00511627
2814.12995728,0.00527011
2816.05876465,0.00509672
2817.98757202,0.00510805
2819.91637939,0.00519770
2821.84518677,0.00508581
2823.77399414,0.00513670
2825.70280151,0.00500053
2827.63160889,0.00500095
2829.56041626,0.00505424
2831.48922363,0.00502788
2833.41803101,0.00504022
2835.34683838,0.00494820
2837.27564575,0.00506341
2839.20445312,0.00504907
2841.13326050,0.00492894
2843.06206787,0.00500241
2844.99087524,0.00502554
2846.91968262,0.00487215
2848.84848999,0.00483287
2850.77729736,0.00488530
2852.70610474,0.00474324
2854.63491211,0.00478368
2856.56371948,0.00476539
2858.49252686,0.00478238
2860.42133423,0.00486033
2862.35014160,0.00462881
2864.27894897,0.00468868
2866.20775635,0.00474011
2868.13656372,0.00469911
2870.06537109,0.00472965
2871.99417847,0.00461669
2873.92298584,0.00471273
2875.85179321,0.00469931
2877.78060059,0.00458607
2879.70940796,0.00463417
2881.63821533,0.00466125
2883.56702270,0.00468013
2885.49583008,0.00454957
2887.42463745,0.00454497
2889.35344482,0.00464472
2891.28225220,0.00451612
2893.21105957,0.00456916
2895.13986694,0.00466227
2897.06867432,0.00454198
2898.99748169,0.00452199
2900.92628906,0.00459664
2902.85509644,0.00458604
2904.78390381,0.00445727
2906.71271118,0.00446661
2908.64151855,0.00447916
2910.57032593,0.00439375
2912.49913330,0.00437049
2914.42794067,0.00431051
2916.35674805,0.00434553
2918.28555542,0.00426199
2920.21436279,0.00419784
2922.14317017,0.00432590
2924.07197754,0.00430621
2926.00078491,0.00428528
2927.92959229,0.00421532
2929.85839966,0.00418802
2931.78720703,0.00426907
2933.71601440,0.00432818
2935.64482178,0.00430387
2937.57362915,0.00417931
2939.50243652,0.00423915
2941.43124390,0.00422013
2943.36005127,0.00416978
2945.28885864,0.00430722
2947.21766602,0.00429379
2949.14647339,0.00424854
2951.07528076,0.00425868
2953.00408813,0.00417015
2954.93289551,0.00412362
2956.86170288,0.00420947
2958.79051025,0.00420463
2960.71931763,0.00414781
2962.64812500,0.00414087
2964.57693237,0.00405021
2966.50573975,0.00399259
2968.43454712,0.00401164
2970.36335449,0.00399154
2972.29216187,0.00400550
2974.22096924,0.00403379
2976.14977661,0.00399378
2978.07858398,0.00407174
2980.00739136,0.00413316
2981.93619873,0.00410403
2983.86500610,0.00406280
2985.79381348,0.00387939
2987.72262085,0.00391453
2989.65142822,0.00396584
2991.58023560,0.00386605
2993.50904297,0.00391852
2995.43785034,0.00391487
2997.36665771,0.00398990
2999.29546509,0.00396998
3001.22427246,0.00388034
3003.15307983,0.00402987
3005.08188721,0.00399689
3007.01069458,0.00391653
3008.93950195,0.00396647
3010.86830933,0.00392551
3012.79711670,0.00388586
3014.72592407,0.00386738
3016.65473145,0.00384873
3018.58353882,0.00385912
3020.51234619,0.00382510
3022.44115356,0.00377590
3024.36996094,0.00377892
3026.29876831,0.00375285
3028.22757568,0.00372644
3030.15638306,0.00374226
3032.08519043,0.00371761
3034.01399780,0.00364982
3035.94280518,0.00367065
3037.87161255,0.00382085
3039.80041992,0.00378119
3041.72922729,0.00363588
3043.65803467,0.00373690
3045.58684204,0.00371273
3047.51564941,0.00363547
3049.44445679,0.00374845
3051.37326416,0.00363517
3053.30207153,0.00356271
3055.23087891,0.00364216
3057.15968628,0.00360875
3059.08849365,0.00366497
3061.01730103,0.00367054
3062.94610840,0.00357660
3064.87491577,0.00356296
3066.80372314,0.00355222
3068.73253052,0.00345802
3070.66133789,0.00344349
3072.59014526,0.00354028
3074.51895264,0.00355016
3076.44776001,0.00358701
3078.37656738,0.00354589
3080.30537476,0.00340114
3082.23418213,0.00340037
3084.16298950,0.00339924
3086.09179687,0.00336177
3088.02060425,0.00343195
3089.94941162,0.00348313
3091.87821899,0.00341178
3093.80702637,0.00337266
3095.73583374,0.00332403
3097.66464111,0.00332253
3099.59344849,0.00333430
3101.52225586,0.00324932
3103.45106323,0.00334400
3105.37987061,0.00331533
3107.30867798,0.00326455
3109.23748535,0.00342829
3111.16629272,0.00330672
3113.09510010,0.00327527
3115.02390747,0.00336820
3116.95271484,0.00322514
3118.88152222,0.00322711
3120.81032959,0.00325550
3122.73913696,0.00323496
3124.66794434,0.00327260
3126.59675171,0.00319671
3128.52555908,0.00319536
3130.45436645,0.00322521
3132.38317383,0.00316689
3134.31198120,0.00317270
3136.24078857,0.00311308
3138.16959595,0.00305074
3140.09840332,0.00319668
3142.02721069,0.00325195
3143.95601807,0.00310450
3145.88482544,0.00313492
3147.81363281,0.00309856
3149.74244019,0.00299469
3151.67124756,0.00306501
3153.60005493,0.00292417
3155.52886230,0.00298048
3157.45766968,0.00312848
3159.38647705,0.00304787
3161.31528442,0.00313698
3163.24409180,0.00304587
3165.17289917,0.00296922
3167.10170654,0.00299823
3169.03051392,0.00294909
3170.95932129,0.00301833
3172.88812866,0.00293895
3174.81693604,0.00291278
3176.74574341,0.00303127
3178.67455078,0.00305077
3180.60335815,0.00294053
3182.53216553,0.00284647
3184.46097290,0.00295403
3186.38978027,0.00299436
3188.31858765,0.00291532
3190.24739502,0.00286833
3192.17620239,0.00292364
3194.10500977,0.00297703
3196.03381714,0.00289121
3197.96262451,0.00288295
3199.89143188,0.00294349
3201.82023926,0.00294824
3203.74904663,0.00289514
3205.67785400,0.00284496
3207.60666138,0.00291194
3209.53546875,0.00290793
3211.46427612,0.00280523
3213.39308350,0.00285793
3215.32189087,0.00292603
3217.25069824,0.00288759
3219.17950562,0.00283242
3221.10831299,0.00284487
3223.03712036,0.00296432
3224.96592773,0.00294999
3226.89473511,0.00288069
3228.82354248,0.00290258
3230.75234985,0.00285635
3232.68115723,0.00285798
3234.60996460,0.00293870
3236.53877197,0.00293274
3238.46757935,0.00290649
3240.39638672,0.00292673
3242.32519409,0.00288349
3244.25400146,0.00286177
3246.18280884,0.00286546
3248.11161621,0.00283535
3250.04042358,0.00288647
3251.96923096,0.00294192
3253.89803833,0.00296466
3255.82684570,0.00294353
3257.75565308,0.00291351
3259.68446045,0.00293936
3261.61326782,0.00293699
3263.54207520,0.00289439
3265.47088257,0.00296391
3267.39968994,0.00302607
3269.32849731,0.00289724
3271.25730469,0.00294677
3273.18611206,0.00299702
3275.11491943,0.00292294
3277.04372681,0.00302240
3278.97253418,0.00306841
3280.90134155,0.00301691
3282.83014893,0.00287480
3284.75895630,0.00290585
3286.68776367,0.00305898
3288.61657104,0.00299777
3290.54537842,0.00296302
3292.47418579,0.00305978
3294.40299316,0.00313178
3296.33180054,0.00298908
3298.26060791,0.00303894
3300.18941528,0.00308126
3302.11822266,0.00293443
3304.04703003,0.00307253
3305.97583740,0.00299940
3307.90464478,0.00298335
3309.83345215,0.00310751
3311.76225952,0.00303804
3313.69106689,0.00318740
3315.61987427,0.00319601
3317.54868164,0.00302956
3319.47748901,0.00303574
3321.40629639,0.00307829
3323.33510376,0.00304360
3325.26391113,0.00308923
3327.19271851,0.00316365
3329.12152588,0.00306564
3331.05033325,0.00302698
3332.97914062,0.00302234
3334.90794800,0.00311218
3336.83675537,0.00318529
3338.76556274,0.00307073
3340.69437012,0.00310429
3342.62317749,0.00310585
3344.55198486,0.00310114
3346.48079224,0.00315427
3348.40959961,0.00308883
3350.33840698,0.00313907
3352.26721436,0.00318737
3354.19602173,0.00316312
3356.12482910,0.00312897
3358.05363647,0.00312334
3359.98244385,0.00320332
3361.91125122,0.00311440
3363.84005859,0.00309835
3365.76886597,0.00323052
3367.69767334,0.00323947
3369.62648071,0.00325261
3371.55528809,0.00318236
3373.48409546,0.00312345
3375.41290283,0.00316934
3377.34171020,0.00320400
3379.27051758,0.00328838
3381.19932495,0.00330001
3383.12813232,0.00321365
3385.05693970,0.00323239
3386.98574707,0.00334378
3388.91455444,0.00331922
3390.84336182,0.00331810
3392.77216919,0.00334345
3394.70097656,0.00324261
3396.62978394,0.00328962
3398.55859131,0.00331834
3400.48739868,0.00333388
3402.41620605,0.00342607
3404.34501343,0.00332110
3406.27382080,0.00329666
3408.20262817,0.00337624
3410.13143555,0.00334528
3412.06024292,0.00342878
3413.98905029,0.00345354
3415.91785767,0.00333942
3417.84666504,0.00339056
3419.77547241,0.00339403
3421.70427979,0.00338618
3423.63308716,0.00347268
3425.56189453,0.00348224
3427.49070190,0.00349565
3429.41950928,0.00348361
3431.34831665,0.00348211
3433.27712402,0.00338138
3435.20593140,0.00338725
3437.13473877,0.00349525
3439.06354614,0.00339468
3440.99235352,0.00344805
3442.92116089,0.00345271
3444.84996826,0.00347966
3446.77877563,0.00356121
3448.70758301,0.00344980
3450.63639038,0.00357209
3452.56519775,0.00356656
3454.49400513,0.00340409
3456.42281250,0.00350145
3458.35161987,0.00355505
3460.28042725,0.00349868
3462.20923462,0.00354737
3464.13804199,0.00358047
3466.06684937,0.00351664
3467.99565674,0.00355796
3469.92446411,0.00358460
3471.85327148,0.00355440
3473.78207886,0.00352097
3475.71088623,0.00353043
3477.63969360,0.00360977
3479.56850098,0.00361674
3481.49730835,0.00360278
3483.42611572,0.00360530
3485.35492310,0.00363479
3487.28373047,0.00361993
3489.21253784,0.00365631
3491.14134521,0.00367094
3493.07015259,0.00360456
3494.99895996,0.00359929
3496.92776733,0.00359123
3498.85657471,0.00364696
3500.78538208,0.00346405
3502.71418945,0.00345670
3504.64299683,0.00366614
3506.57180420,0.00356259
3508.50061157,0.00365824
3510.42941895,0.00366726
3512.35822632,0.00365684
3514.28703369,0.00371674
3516.21584106,0.00361831
3518.14464844,0.00367882
3520.07345581,0.00361602
3522.00226318,0.00366020
3523.93107056,0.00368205
3525.85987793,0.00359200
3527.78868530,0.00366091
3529.71749268,0.00362571
3531.64630005,0.00372387
3533.57510742,0.00370353
3535.50391479,0.00357911
3537.43272217,0.00367533
3539.36152954,0.00365538
3541.29033691,0.00358139
3543.21914429,0.00365049
3545.14795166,0.00369447
3547.07675903,0.00358223
3549.00556641,0.00364762
3550.93437378,0.00374262
3552.86318115,0.00361016
3554.79198853,0.00358694
3556.72079590,0.00362873
3558.64960327,0.00369253
3560.57841064,0.00367068
3562.50721802,0.00358931
3564.43602539,0.00358844
3566.36483276,0.00333765
3568.29364014,0.00327076
3570.22244751,0.00361068
3572.15125488,0.00368588
3574.08006226,0.00364410
3576.00886963,0.00370228
3577.93767700,0.00371435
3579.86648437,0.00370218
3581.79529175,0.00361154
3583.72409912,0.00362519
3585.65290649,0.00359448
3587.58171387,0.00340155
3589.51052124,0.00350796
3591.43932861,0.00367959
3593.36813599,0.00354823
3595.29694336,0.00347056
3597.22575073,0.00357177
3599.15455811,0.00360080
3601.08336548,0.00358390
3603.01217285,0.00357320
3604.94098022,0.00356076
3606.86978760,0.00349712
3608.79859497,0.00336399
3610.72740234,0.00349978
3612.65620972,0.00350095
3614.58501709,0.00342921
3616.51382446,0.00359933
3618.44263184,0.00330285
3620.37143921,0.00338201
3622.30024658,0.00368058
3624.22905395,0.00358421
3626.15786133,0.00374054
3628.08666870,0.00315270
3630.01547607,0.00285577
3631.94428345,0.00351370
3633.87309082,0.00355925
3635.80189819,0.00345054
3637.73070557,0.00351002
3639.65951294,0.00364175
3641.58832031,0.00361685
3643.51712769,0.00358924
3645.44593506,0.00357349
3647.37474243,0.00313932
3649.30354980,0.00295654
3651.23235718,0.00307537
3653.16116455,0.00350814
3655.08997192,0.00343259
3657.01877930,0.00314094
3658.94758667,0.00358659
3660.87639404,0.00357368
3662.80520142,0.00350919
3664.73400879,0.00344760
3666.66281616,0.00348504
3668.59162354,0.00333304
3670.52043091,0.00275422
3672.44923828,0.00330316
3674.37804565,0.00316869
3676.30685303,0.00269091
3678.23566040,0.00325114
3680.16446777,0.00330048
3682.09327515,0.00331914
3684.02208252,0.00343228
3685.95088989,0.00335925
3687.87969727,0.00297686
3689.80850464,0.00278172
3691.73731201,0.00313687
3693.66611938,0.00319242
3695.59492676,0.00328955
3697.52373413,0.00333821
3699.45254150,0.00330035
3701.38134888,0.00319099
3703.31015625,0.00316251
3705.23896362,0.00333365
3707.16777100,0.00317428
3709.09657837,0.00312092
3711.02538574,0.00284868
3712.95419312,0.00282726
3714.88300049,0.00318713
3716.81180786,0.00313867
3718.74061523,0.00320484
3720.66942261,0.00298490
3722.59822998,0.00293814
3724.52703735,0.00307975
3726.45584473,0.00286039
3728.38465210,0.00303513
3730.31345947,0.00306066
3732.24226685,0.00282135
3734.17107422,0.00270360
3736.09988159,0.00264363
3738.02868896,0.00271462
3739.95749634,0.00296803
3741.88630371,0.00303400
3743.81511108,0.00237238
3745.74391846,0.00230356
3747.67272583,0.00282028
3749.60153320,0.00254935
3751.53034058,0.00238222
3753.45914795,0.00263218
3755.38795532,0.00287847
3757.31676270,0.00297899
3759.24557007,0.00270402
3761.17437744,0.00280644
3763.10318481,0.00300852
3765.03199219,0.00278636
3766.96079956,0.00287066
3768.88960693,0.00283431
3770.81841431,0.00269409
3772.74722168,0.00286684
3774.67602905,0.00286143
3776.60483643,0.00287461
3778.53364380,0.00274519
3780.46245117,0.00266143
3782.39125854,0.00281419
3784.32006592,0.00277303
3786.24887329,0.00279272
3788.17768066,0.00282615
3790.10648804,0.00284781
3792.03529541,0.00284838
3793.96410278,0.00281692
3795.89291016,0.00261248
3797.82171753,0.00263766
3799.75052490,0.00272849
3801.67933228,0.00224779
3803.60813965,0.00265626
3805.53694702,0.00282222
3807.46575439,0.00237081
3809.39456177,0.00270797
3811.32336914,0.00272752
3813.25217651,0.00286316
3815.18098389,0.00252298
3817.10979126,0.00230673
3819.03859863,0.00277703
3820.96740601,0.00235693
3822.89621338,0.00249443
3824.82502075,0.00265998
3826.75382812,0.00250849
3828.68263550,0.00267895
3830.61144287,0.00251356
3832.54025024,0.00255631
3834.46905762,0.00249813
3836.39786499,0.00238066
3838.32667236,0.00228610
3840.25547974,0.00235408
3842.18428711,0.00247729
3844.11309448,0.00241499
3846.04190186,0.00261317
3847.97070923,0.00252386
3849.89951660,0.00253140
3851.82832397,0.00228970
3853.75713135,0.00177216
3855.68593872,0.00216733
3857.61474609,0.00258336
3859.54355347,0.00250458
3861.47236084,0.00249698
3863.40116821,0.00242811
3865.32997559,0.00227833
3867.25878296,0.00249545
3869.18759033,0.00235285
3871.11639770,0.00224315
3873.04520508,0.00255084
3874.97401245,0.00224608
3876.90281982,0.00244418
3878.83162720,0.00252045
3880.76043457,0.00214455
3882.68924194,0.00250758
3884.61804932,0.00235712
3886.54685669,0.00218002
3888.47566406,0.00247067
3890.40447144,0.00233877
3892.33327881,0.00226339
3894.26208618,0.00245328
3896.19089355,0.00248673
3898.11970093,0.00233994
3900.04850830,0.00228421
3901.97731567,0.00220661
3903.90612305,0.00211927
3905.83493042,0.00222492
3907.76373779,0.00239972
3909.69254517,0.00244475
3911.62135254,0.00234388
3913.55015991,0.00232874
3915.47896728,0.00240115
3917.40777466,0.00227734
3919.33658203,0.00216009
3921.26538940,0.00235156
3923.19419678,0.00235967
3925.12300415,0.00222681
3927.05181152,0.00235299
3928.98061890,0.00238914
3930.90942627,0.00224559
3932.83823364,0.00219769
3934.76704102,0.00232369
3936.69584839,0.00239314
3938.62465576,0.00233256
3940.55346313,0.00226110
3942.48227051,0.00223208
3944.41107788,0.00227830
3946.33988525,0.00228568
3948.26869263,0.00221482
3950.19750000,0.00222644
3952.12630737,0.00231650
3954.05511475,0.00227523
3955.98392212,0.00222205
3957.91272949,0.00220950
3959.84153687,0.00227837
3961.77034424,0.00230404
3963.69915161,0.00215489
3965.62795898,0.00218919
3967.55676636,0.00215453
3969.48557373,0.00215505
3971.41438110,0.00224479
3973.34318848,0.00215702
3975.27199585,0.00223141
3977.20080322,0.00223945
3979.12961060,0.00218703
3981.05841797,0.00219981
3982.98722534,0.00222249
3984.91603271,0.00222274
3986.84484009,0.00214001
3988.77364746,0.00216585
3990.70245483,0.00214274
3992.63126221,0.00219747
3994.56006958,0.00223194
3996.48887695,0.00214136
3998.41768433,0.00215522
4000.34649170,0.00211609
4002.27529907,0.00210917
4004.20410645,0.00212584
4006.13291382,0.00218467
4008.06172119,0.00219987
4009.99052856,0.00208134
4011.91933594,0.00209288
4013.84814331,0.00207907
4015.77695068,0.00200575
4017.70575806,0.00209389
4019.63456543,0.00212062
4021.56337280,0.00203278
4023.49218018,0.00210416
4025.42098755,0.00209610
4027.34979492,0.00203947
4029.27860229,0.00212551
4031.20740967,0.00207703
4033.13621704,0.00200459
4035.06502441,0.00200788
4036.99383179,0.00201496
4038.92263916,0.00201626
4040.85144653,0.00201865
4042.78025391,0.00203017
4044.70906128,0.00205233
4046.63786865,0.00209554
4048.56667603,0.00200948
4050.49548340,0.00196044
4052.42429077,0.00205994
4054.35309814,0.00204250
4056.28190552,0.00196577
4058.21071289,0.00197675
4060.13952026,0.00195012
4062.06832764,0.00200309
4063.99713501,0.00206730
4065.92594238,0.00200107
4067.85474976,0.00203233
4069.78355713,0.00194983
4071.71236450,0.00190059
4073.64117187,0.00196217
4075.56997925,0.00194395
4077.49878662,0.00198480
4079.42759399,0.00191651
4081.35640137,0.00196104
4083.28520874,0.00197674
4085.21401611,0.00186781
4087.14282349,0.00187729
4089.07163086,0.00187009
4091.00043823,0.00195946
4092.92924561,0.00196665
4094.85805298,0.00192510
4096.78686035,0.00190454
4098.71566772,0.00192302
4100.64447510,0.00192531
4102.57328247,0.00184679
4104.50208984,0.00194063
4106.43089722,0.00188169
4108.35970459,0.00185774
4110.28851196,0.00188149
4112.21731934,0.00183614
4114.14612671,0.00194495
4116.07493408,0.00190675
4118.00374145,0.00192271
4119.93254883,0.00188135
4121.86135620,0.00178992
4123.79016357,0.00185185
4125.71897095,0.00187137
4127.64777832,0.00187211
4129.57658569,0.00176896
4131.50539307,0.00178821
4133.43420044,0.00183520
4135.36300781,0.00181794
4137.29181519,0.00183531
4139.22062256,0.00175671
4141.14942993,0.00177629
4143.07823730,0.00176236
4145.00704468,0.00172573
4146.93585205,0.00178057
4148.86465942,0.00175727
4150.79346680,0.00176041
4152.72227417,0.00175472
4154.65108154,0.00170328
4156.57988892,0.00175184
4158.50869629,0.00176995
4160.43750366,0.00171930
4162.36631103,0.00172748
4164.29511841,0.00173686
4166.22392578,0.00174884
4168.15273315,0.00171840
4170.08154053,0.00174600
4172.01034790,0.00184364
4173.93915527,0.00179361
4175.86796265,0.00170097
4177.79677002,0.00167220
4179.72557739,0.00168490
4181.65438477,0.00169650
4183.58319214,0.00174771
4185.51199951,0.00166656
4187.44080688,0.00162834
4189.36961426,0.00176490
4191.29842163,0.00164946
4193.22722900,0.00167086
4195.15603638,0.00173889
4197.08484375,0.00169872
4199.01365112,0.00171141
4200.94245850,0.00160331
4202.87126587,0.00172417
4204.80007324,0.00167821
4206.72888062,0.00160803
4208.65768799,0.00178334
4210.58649536,0.00169258
4212.51530273,0.00159023
4214.44411011,0.00156173
4216.37291748,0.00166691
4218.30172485,0.00169446
4220.23053223,0.00159663
4222.15933960,0.00158331
4224.08814697,0.00154865
4226.01695435,0.00160597
4227.94576172,0.00164707
4229.87456909,0.00171172
4231.80337646,0.00159101
4233.73218384,0.00150170
4235.66099121,0.00157923
4237.58979858,0.00151419
4239.51860596,0.00160352
4241.44741333,0.00152475
4243.37622070,0.00150907
4245.30502808,0.00161321
4247.23383545,0.00152954
4249.16264282,0.00158381
4251.09145020,0.00158064
4253.02025757,0.00165008
4254.94906494,0.00162665
4256.87787231,0.00149368
4258.80667969,0.00151051
4260.73548706,0.00154607
4262.66429443,0.00156489
4264.59310181,0.00146905
4266.52190918,0.00155621
4268.45071655,0.00155149
4270.37952393,0.00143624
4272.30833130,0.00151253
4274.23713867,0.00158374
4276.16594604,0.00161389
4278.09475342,0.00146603
4280.02356079,0.00148774
4281.95236816,0.00156038
4283.88117554,0.00152601
4285.80998291,0.00150454
4287.73879028,0.00143521
4289.66759766,0.00153624
4291.59640503,0.00153791
4293.52521240,0.00156079
4295.45401978,0.00153490
4297.38282715,0.00146474
4299.31163452,0.00150862
4301.24044189,0.00139494
4303.16924927,0.00149649
4305.09805664,0.00154638
4307.02686401,0.00147027
4308.95567139,0.00145887
4310.88447876,0.00140738
4312.81328613,0.00145720
4314.74209351,0.00142116
4316.67090088,0.00142752
4318.59970825,0.00138574
4320.52851562,0.00138489
4322.45732300,0.00147579
4324.38613037,0.00142338
4326.31493774,0.00149632
4328.24374512,0.00151243
4330.17255249,0.00143773
4332.10135986,0.00140265
4334.03016724,0.00140345
4335.95897461,0.00142903
4337.88778198,0.00137686
4339.81658936,0.00133581
4341.74539673,0.00132770
4343.67420410,0.00143751
4345.60301147,0.00148087
4347.53181885,0.00138845
4349.46062622,0.00136846
4351.38943359,0.00137712
4353.31824097,0.00140198
4355.24704834,0.00139656
4357.17585571,0.00136483
4359.10466309,0.00136630
4361.03347046,0.00139214
4362.96227783,0.00138916
4364.89108520,0.00137710
4366.81989258,0.00141594
4368.74869995,0.00145055
4370.67750732,0.00140405
4372.60631470,0.00132941
4374.53512207,0.00133491
4376.46392944,0.00133471
4378.39273682,0.00132952
4380.32154419,0.00137746
4382.25035156,0.00141902
4384.17915894,0.00136945
4386.10796631,0.00129027
4388.03677368,0.00129644
4389.96558105,0.00132075
4391.89438843,0.00128793
4393.82319580,0.00122773
4395.75200317,0.00129695
4397.68081055,0.00129137
4399.60961792,0.00128416
4401.53842529,0.00136241
4403.46723267,0.00124044
4405.39604004,0.00130907
4407.32484741,0.00135513
4409.25365478,0.00124458
4411.18246216,0.00132923
4413.11126953,0.00132722
4415.04007690,0.00126370
4416.96888428,0.00126037
4418.89769165,0.00128847
4420.82649902,0.00122957
4422.75530640,0.00126377
4424.68411377,0.00134632
4426.61292114,0.00121701
4428.54172852,0.00124356
4430.47053589,0.00123896
4432.39934326,0.00116344
4434.32815063,0.00124055
4436.25695801,0.00124382
4438.18576538,0.00120138
4440.11457275,0.00119729
4442.04338013,0.00121601
4443.97218750,0.00120529
4445.90099487,0.00124233
4447.82980225,0.00131306
4449.75860962,0.00128612
4451.68741699,0.00121911
4453.61622437,0.00120762
4455.54503174,0.00118710
4457.47383911,0.00116725
4459.40264648,0.00122635
4461.33145386,0.00121270
4463.26026123,0.00120103
4465.18906860,0.00121428
4467.11787598,0.00121826
4469.04668335,0.00118727
4470.97549072,0.00110509
4472.90429810,0.00115483
4474.83310547,0.00117924
4476.76191284,0.00115379
4478.69072021,0.00112300
4480.61952759,0.00118417
4482.54833496,0.00126434
4484.47714233,0.00117037
4486.40594971,0.00119733
4488.33475708,0.00118832
4490.26356445,0.00110786
4492.19237183,0.00112976
4494.12117920,0.00118086
4496.04998657,0.00118565
4497.97879395,0.00113001
4499.90760132,0.00120762
4501.83640869,0.00116196
4503.76521606,0.00108731
4505.69402344,0.00120174
4507.62283081,0.00118762
4509.55163818,0.00114212
4511.48044556,0.00115982
4513.40925293,0.00113123
4515.33806030,0.00111499
4517.26686768,0.00111408
4519.19567505,0.00110591
4521.12448242,0.00115568
4523.05328979,0.00114344
4524.98209717,0.00111599
4526.91090454,0.00112048
4528.83971191,0.00114147
4530.76851929,0.00123680
4532.69732666,0.00114489
4534.62613403,0.00111513
4536.55494141,0.00114324
4538.48374878,0.00105163
4540.41255615,0.00111537
4542.34136353,0.00110496
4544.27017090,0.00107162
4546.19897827,0.00109298
4548.12778564,0.00107494
4550.05659302,0.00109515
4551.98540039,0.00109786
4553.91420776,0.00106468
4555.84301514,0.00104568
4557.77182251,0.00105329
4559.70062988,0.00105480
4561.62943726,0.00116668
4563.55824463,0.00111147
4565.48705200,0.00102866
4567.41585937,0.00110771
4569.34466675,0.00100647
4571.27347412,0.00104144
4573.20228149,0.00104170
4575.13108887,0.00097570
4577.05989624,0.00101617
4578.98870361,0.00099035
4580.91751099,0.00106239
4582.84631836,0.00099901
4584.77512573,0.00101662
4586.70393311,0.00109031
4588.63274048,0.00100076
4590.56154785,0.00105557
4592.49035522,0.00103735
4594.41916260,0.00106309
4596.34796997,0.00106885
4598.27677734,0.00096683
4600.20558472,0.00102068
4602.13439209,0.00098721
4604.06319946,0.00099243
4605.99200684,0.00100908
4607.92081421,0.00095450
4609.84962158,0.00103225
4611.77842895,0.00100915
4613.70723633,0.00101239
4615.63604370,0.00105723
4617.56485107,0.00101001
4619.49365845,0.00101620
4621.42246582,0.00096674
4623.35127319,0.00095861
4625.28008057,0.00094487
4627.20888794,0.00099690
4629.13769531,0.00105937
4631.06650269,0.00087670
4632.99531006,0.00095105
4634.92411743,0.00101940
4636.85292480,0.00087204
4638.78173218,0.00093790
4640.71053955,0.00094639
4642.63934692,0.00093372
4644.56815430,0.00098349
4646.49696167,0.00099159
4648.42576904,0.00099952
4650.35457642,0.00094572
4652.28338379,0.00090187
4654.21219116,0.00089357
4656.14099853,0.00092804
4658.06980591,0.00101973
4659.99861328,0.00100875
4661.92742065,0.00092960
4663.85622803,0.00095479
4665.78503540,0.00090486
4667.71384277,0.00087096
4669.64265015,0.00096636
4671.57145752,0.00093343
4673.50026489,0.00090055
4675.42907227,0.00092494
4677.35787964,0.00088455
4679.28668701,0.00080878
4681.21549438,0.00086164
4683.14430176,0.00090598
4685.07310913,0.00081325
4687.00191650,0.00092770
4688.93072388,0.00095406
4690.85953125,0.00084676
4692.78833862,0.00093968
4694.71714600,0.00094760
4696.64595337,0.00090409
4698.57476074,0.00097451
4700.50356812,0.00096469
4702.43237549,0.00084053
4704.36118286,0.00086910
4706.28999023,0.00090392
4708.21879761,0.00082156
4710.14760498,0.00084153
4712.07641235,0.00084261
4714.00521973,0.00081470
4715.93402710,0.00083551
4717.86283447,0.00090249
4719.79164185,0.00088266
4721.72044922,0.00083415
4723.64925659,0.00093365
4725.57806396,0.00094841
4727.50687134,0.00093101
4729.43567871,0.00085521
4731.36448608,0.00073385
4733.29329346,0.00080322
4735.22210083,0.00084602
4737.15090820,0.00081553
4739.07971558,0.00084108
4741.00852295,0.00084476
4742.93733032,0.00078941
4744.86613770,0.00076832
4746.79494507,0.00079639
4748.72375244,0.00087083
4750.65255981,0.00088923
4752.58136719,0.00078587
4754.51017456,0.00080916
4756.43898193,0.00086952
4758.36778931,0.00086315
4760.29659668,0.00085586
4762.22540405,0.00083658
4764.15421143,0.00088232
4766.08301880,0.00088914
4768.01182617,0.00083401
4769.94063354,0.00079451
4771.86944092,0.00086684
4773.79824829,0.00091141
4775.72705566,0.00079585
4777.65586304,0.00080207
4779.58467041,0.00081822
4781.51347778,0.00078598
4783.44228516,0.00081177
4785.37109253,0.00075237
4787.29989990,0.00074838
4789.22870728,0.00083890
4791.15751465,0.00084691
4793.08632202,0.00081406
4795.01512939,0.00082910
4796.94393677,0.00081990
4798.87274414,0.00079578
4800.80155151,0.00081063
4802.73035889,0.00078800
4804.65916626,0.00078035
4806.58797363,0.00080739
4808.51678101,0.00080102
4810.44558838,0.00078855
4812.37439575,0.00075082
4814.30320312,0.00071019
4816.23201050,0.00075686
4818.16081787,0.00077754
4820.08962524,0.00075413
4822.01843262,0.00081462
4823.94723999,0.00080539
4825.87604736,0.00077657
4827.80485474,0.00080656
4829.73366211,0.00074450
4831.66246948,0.00073496
4833.59127686,0.00075254
4835.52008423,0.00072178
4837.44889160,0.00076092
4839.37769897,0.00074870
4841.30650635,0.00070294
4843.23531372,0.00076333
4845.16412109,0.00078606
4847.09292847,0.00075700
4849.02173584,0.00078172
4850.95054321,0.00070251
4852.87935059,0.00064791
4854.80815796,0.00074028
4856.73696533,0.00076393
4858.66577270,0.00078637
4860.59458008,0.00077253
4862.52338745,0.00072670
4864.45219482,0.00074392
4866.38100220,0.00071357
4868.30980957,0.00073249
4870.23861694,0.00073780
4872.16742432,0.00069819
4874.09623169,0.00074183
4876.02503906,0.00074636
4877.95384644,0.00073494
4879.88265381,0.00074808
4881.81146118,0.00072857
4883.74026855,0.00071462
4885.66907593,0.00068788
4887.59788330,0.00067497
4889.52669067,0.00066595
4891.45549805,0.00060866
4893.38430542,0.00062582
4895.31311279,0.00071392
4897.24192017,0.00077164
4899.17072754,0.00074336
4901.09953491,0.00064451
4903.02834228,0.00068060
4904.95714966,0.00070378
4906.88595703,0.00061436
4908.81476440,0.00065900
4910.74357178,0.00065831
4912.67237915,0.00064181
4914.60118652,0.00074367
4916.52999390,0.00072386
4918.45880127,0.00070423
4920.38760864,0.00068302
4922.31641602,0.00061191
4924.24522339,0.00067726
4926.17403076,0.00069306
4928.10283813,0.00066790
4930.03164551,0.00062424
4931.96045288,0.00055479
4933.88926025,0.00062891
4935.81806763,0.00060267
4937.74687500,0.00058898
4939.67568237,0.00063125
4941.60448975,0.00056916
4943.53329712,0.00061710
4945.46210449,0.00062433
4947.39091187,0.00066301
4949.31971924,0.00067260
4951.24852661,0.00058929
4953.17733398,0.00066971
4955.10614136,0.00062375
4957.03494873,0.00058271
4958.96375610,0.00063691
4960.89256348,0.00062383
4962.82137085,0.00062458
4964.75017822,0.00060566
4966.67898560,0.00065856
4968.60779297,0.00064656
4970.53660034,0.00064047
4972.46540771,0.00063625
4974.39421509,0.00054235
4976.32302246,0.00061390
4978.25182983,0.00065220
4980.18063721,0.00061453
4982.10944458,0.00063408
4984.03825195,0.00065744
4985.96705933,0.00062645
4987.89586670,0.00056432
4989.82467407,0.00057013
4991.75348145,0.00057932
4993.68228882,0.00062204
4995.61109619,0.00061855
4997.53990356,0.00060791
4999.46871094,0.00062028
5001.39751831,0.00053685
5003.32632568,0.00053459
5005.25513306,0.00063115
5007.18394043,0.00067889
5009.11274780,0.00061171
5011.04155518,0.00060264
5012.97036255,0.00061625
5014.89916992,0.00061068
5016.82797729,0.00065071
5018.75678467,0.00051366
5020.68559204,0.00049597
5022.61439941,0.00062399
5024.54320679,0.00065929
5026.47201416,0.00063738
5028.40082153,0.00054881
5030.32962891,0.00056251
5032.25843628,0.00054656
5034.18724365,0.00056593
5036.11605103,0.00061313
5038.04485840,0.00056993
5039.97366577,0.00058928
5041.90247314,0.00054311
5043.83128052,0.00054596
5045.76008789,0.00060951
5047.68889526,0.00060944
5049.61770264,0.00059815
5051.54651001,0.00060739
5053.47531738,0.00054290
5055.40412476,0.00046326
5057.33293213,0.00059118
5059.26173950,0.00059549
5061.19054687,0.00055013
5063.11935425,0.00056744
5065.04816162,0.00055309
5066.97696899,0.00060986
5068.90577637,0.00050233
5070.83458374,0.00050477
5072.76339111,0.00051647
5074.69219849,0.00043853
5076.62100586,0.00056921
5078.54981323,0.00056349
5080.47862061,0.00053962
5082.40742798,0.00058612
5084.33623535,0.00060966
5086.26504272,0.00057893
5088.19385010,0.00045586
5090.12265747,0.00050511
5092.05146484,0.00055810
5093.98027222,0.00056247
5095.90907959,0.00058413
5097.83788696,0.00052146
5099.76669434,0.00049562
5101.69550171,0.00053758
5103.62430908,0.00055603
5105.55311645,0.00049697
5107.48192383,0.00054911
5109.41073120,0.00060617
5111.33953857,0.00049659
5113.26834595,0.00051914
5115.19715332,0.00053674
5117.12596069,0.00046895
5119.05476807,0.00052220
5120.98357544,0.00051992
5122.91238281,0.00049387
5124.84119019,0.00048149
5126.76999756,0.00045570
5128.69880493,0.00050637
5130.62761230,0.00051749
5132.55641968,0.00054888
5134.48522705,0.00052931
5136.41403442,0.00051178
5138.34284180,0.00062744
5140.27164917,0.00055326
5142.20045654,0.00049256
5144.12926392,0.00052937
5146.05807129,0.00046667
5147.98687866,0.00051790
5149.91568603,0.00056574
5151.84449341,0.00051552
5153.77330078,0.00050483
5155.70210815,0.00051909
5157.63091553,0.00049068
5159.55972290,0.00048672
5161.48853027,0.00052646
5163.41733765,0.00047640
5165.34614502,0.00045061
5167.27495239,0.00047917
5169.20375977,0.00047767
5171.13256714,0.00048068
5173.06137451,0.00049822
5174.99018188,0.00050526
5176.91898926,0.00044758
5178.84779663,0.00046607
5180.77660400,0.00052845
5182.70541138,0.00046122
5184.63421875,0.00043579
5186.56302612,0.00047620
5188.49183350,0.00044322
5190.42064087,0.00042662
5192.34944824,0.00045013
5194.27825562,0.00045836
5196.20706299,0.00046595
5198.13587036,0.00046931
5200.06467773,0.00048078
5201.99348511,0.00043548
5203.92229248,0.00039471
5205.85109985,0.00044175
5207.77990723,0.00045889
5209.70871460,0.00046063
5211.63752197,0.00046602
5213.56632935,0.00046398
5215.49513672,0.00047183
5217.42394409,0.00044814
5219.35275146,0.00040371
5221.28155884,0.00044783
5223.21036621,0.00049083
5225.13917358,0.00043112
5227.06798096,0.00045665
5228.99678833,0.00043554
5230.92559570,0.00042480
5232.85440308,0.00049307
5234.78321045,0.00038843
5236.71201782,0.00037631
5238.64082520,0.00042679
5240.56963257,0.00040175
5242.49843994,0.00041072
5244.42724731,0.00046538
5246.35605469,0.00049412
5248.28486206,0.00039153
5250.21366943,0.00047024
5252.14247681,0.00049051
5254.07128418,0.00035027
5256.00009155,0.00039325
5257.92889893,0.00037522
5259.85770630,0.00040674
5261.78651367,0.00044643
5263.71532104,0.00040654
5265.64412842,0.00043055
5267.57293579,0.00039472
5269.50174316,0.00037284
5271.43055054,0.00037918
5273.35935791,0.00041616
5275.28816528,0.00041519
5277.21697266,0.00039816
5279.14578003,0.00042432
5281.07458740,0.00043986
5283.00339478,0.00042429
5284.93220215,0.00029328
5286.86100952,0.00035093
5288.78981689,0.00042488
5290.71862427,0.00035774
5292.64743164,0.00043771
5294.57623901,0.00042021
5296.50504639,0.00041713
5298.43385376,0.00043228
5300.36266113,0.00037274
5302.29146851,0.00043378
5304.22027588,0.00044148
5306.14908325,0.00043157
5308.07789062,0.00045402
5310.00669800,0.00045152
5311.93550537,0.00043531
5313.86431274,0.00038096
5315.79312012,0.00037996
5317.72192749,0.00044643
5319.65073486,0.00043096
5321.57954224,0.00034554
5323.50834961,0.00039756
5325.43715698,0.00042567
5327.36596436,0.00037233
5329.29477173,0.00039068
5331.22357910,0.00034521
5333.15238647,0.00034282
5335.08119385,0.00046376
5337.01000122,0.00043132
5338.93880859,0.00033330
5340.86761597,0.00044835
5342.79642334,0.00046850
5344.72523071,0.00038883
5346.65403809,0.00042558
5348.58284546,0.00037593
5350.51165283,0.00039793
5352.44046020,0.00038730
5354.36926758,0.00030833
5356.29807495,0.00037012
5358.22688232,0.00038129
5360.15568970,0.00039578
5362.08449707,0.00038147
5364.01330444,0.00039284
5365.94211182,0.00043597
5367.87091919,0.00035747
5369.79972656,0.00041195
5371.72853394,0.00044536
5373.65734131,0.00032279
5375.58614868,0.00031261
5377.51495605,0.00032330
5379.44376343,0.00032500
5381.37257080,0.00038364
5383.30137817,0.00035891
5385.23018555,0.00038328
5387.15899292,0.00043581
5389.08780029,0.00032211
5391.01660767,0.00030830
5392.94541504,0.00038491
5394.87422241,0.00036402
5396.80302978,0.00037316
5398.73183716,0.00038060
5400.66064453,0.00034182
5402.58945190,0.00035381
5404.51825928,0.00033865
5406.44706665,0.00033623
5408.37587402,0.00039539
5410.30468140,0.00034468
5412.23348877,0.00035157
5414.16229614,0.00035167
5416.09110352,0.00029631
5418.01991089,0.00036066
5419.94871826,0.00036348
5421.87752563,0.00036808
5423.80633301,0.00036462
5425.73514038,0.00039769
5427.66394775,0.00038811
5429.59275513,0.00030170
5431.52156250,0.00037826
5433.45036987,0.00033915
5435.37917725,0.00032607
5437.30798462,0.00034701
5439.23679199,0.00028246
5441.16559936,0.00032242
5443.09440674,0.00033137
5445.02321411,0.00036367
5446.95202148,0.00036616
5448.88082886,0.00034837
5450.80963623,0.00031712
5452.73844360,0.00033223
5454.66725098,0.00039447
5456.59605835,0.00032409
5458.52486572,0.00030922
5460.45367310,0.00032660
5462.38248047,0.00035598
5464.31128784,0.00028413
5466.24009521,0.00028496
5468.16890259,0.00042463
5470.09770996,0.00036304
5472.02651733,0.00037017
5473.95532471,0.00033483
5475.88413208,0.00028253
5477.81293945,0.00033788
5479.74174683,0.00035576
5481.67055420,0.00039357
5483.59936157,0.00033376
5485.52816895,0.00032305
5487.45697632,0.00034572
5489.38578369,0.00032793
5491.31459106,0.00030249
5493.24339844,0.00028925
5495.17220581,0.00027745
5497.10101318,0.00027826
5499.02982056,0.00034060
5500.95862793,0.00028830
5502.88743530,0.00035930
5504.81624268,0.00034503
5506.74505005,0.00023708
5508.67385742,0.00034903
5510.60266479,0.00035648
5512.53147217,0.00036343
5514.46027954,0.00027731
5516.38908691,0.00026747
5518.31789429,0.00037371
5520.24670166,0.00028479
5522.17550903,0.00029880
5524.10431641,0.00031180
5526.03312378,0.00035515
5527.96193115,0.00037176
5529.89073853,0.00027404
5531.81954590,0.00028715
5533.74835327,0.00026165
5535.67716064,0.00027403
5537.60596802,0.00030980
5539.53477539,0.00026054
5541.46358276,0.00028743
5543.39239014,0.00033328
5545.32119751,0.00030804
5547.25000488,0.00032817
5549.17881226,0.00030898
5551.10761963,0.00025484
5553.03642700,0.00033965
5554.96523437,0.00035054
5556.89404175,0.00027325
5558.82284912,0.00027763
5560.75165649,0.00026791
5562.68046387,0.00025312
5564.60927124,0.00029475
5566.53807861,0.00026471
5568.46688599,0.00023926
5570.39569336,0.00027955
5572.32450073,0.00023000
5574.25330811,0.00022210
5576.18211548,0.00024584
5578.11092285,0.00028073
5580.03973022,0.00028901
5581.96853760,0.00026169
5583.89734497,0.00031877
5585.82615234,0.00027326
5587.75495972,0.00030830
5589.68376709,0.00036500
5591.61257446,0.00027731
5593.54138184,0.00027087
5595.47018921,0.00026633
5597.39899658,0.00024629
5599.32780395,0.00023814
5601.25661133,0.00027809
5603.18541870,0.00031059
5605.11422607,0.00032995
5607.04303345,0.00029000
5608.97184082,0.00022837
5610.90064819,0.00032235
5612.82945557,0.00026451
5614.75826294,0.00023049
5616.68707031,0.00026800
5618.61587769,0.00021387
5620.54468506,0.00031767
5622.47349243,0.00032814
5624.40229980,0.00027943
5626.33110718,0.00029323
5628.25991455,0.00027412
5630.18872192,0.00028930
5632.11752930,0.00025624
5634.04633667,0.00022483
5635.97514404,0.00023201
5637.90395142,0.00027554
5639.83275879,0.00033604
5641.76156616,0.00029684
5643.69037353,0.00026812
5645.61918091,0.00029758
5647.54798828,0.00027120
5649.47679565,0.00028702
5651.40560303,0.00027659
5653.33441040,0.00025455
5655.26321777,0.00032438
5657.19202515,0.00024008
5659.12083252,0.00020409
5661.04963989,0.00028532
5662.97844727,0.00024643
5664.90725464,0.00024809
5666.83606201,0.00024532
5668.76486938,0.00020209
5670.69367676,0.00024680
5672.62248413,0.00024847
5674.55129150,0.00021330
5676.48009888,0.00025748
5678.40890625,0.00026719
5680.33771362,0.00029416
5682.26652100,0.00020472
5684.19532837,0.00018880
5686.12413574,0.00034737
5688.05294311,0.00018687
5689.98175049,0.00029561
5691.91055786,0.00037173
5693.83936523,0.00013717
5695.76817261,0.00028442
5697.69697998,0.00025207
5699.62578735,0.00026129
5701.55459473,0.00027722
5703.48340210,0.00017245
5705.41220947,0.00029941
5707.34101685,0.00022071
5709.26982422,0.00024815
5711.19863159,0.00022287
5713.12743896,0.00017186
5715.05624634,0.00024506
5716.98505371,0.00016941
5718.91386108,0.00027403
5720.84266846,0.00021940
5722.77147583,0.00019256
5724.70028320,0.00029160
5726.62909058,0.00022460
5728.55789795,0.00025853
5730.48670532,0.00023518
5732.41551270,0.00022873
5734.34432007,0.00029088
5736.27312744,0.00030344
5738.20193481,0.00024882
5740.13074219,0.00025316
5742.05954956,0.00030424
5743.98835693,0.00020249
5745.91716431,0.00020668
5747.84597168,0.00021702
5749.77477905,0.00022316
5751.70358643,0.00027622
5753.63239380,0.00018999
5755.56120117,0.00021433
5757.49000854,0.00025897
5759.41881592,0.00024707
5761.34762329,0.00023707
5763.27643066,0.00018932
5765.20523804,0.00025251
5767.13404541,0.00026312
5769.06285278,0.00021585
5770.99166016,0.00022141
5772.92046753,0.00021035
5774.84927490,0.00027497
5776.77808228,0.00029357
5778.70688965,0.00023377
5780.63569702,0.00022070
5782.56450439,0.00020426
5784.49331177,0.00022859
5786.42211914,0.00024588
5788.35092651,0.00020987
5790.27973389,0.00019231
5792.20854126,0.00020005
5794.13734863,0.00020229
5796.06615601,0.00020767
5797.99496338,0.00025513
5799.92377075,0.00025325
5801.85257812,0.00021097
5803.78138550,0.00021945
5805.71019287,0.00025878
5807.63900024,0.00026921
5809.56780762,0.00023344
5811.49661499,0.00018941
5813.42542236,0.00020212
5815.35422974,0.00026378
5817.28303711,0.00021441
5819.21184448,0.00024397
5821.14065186,0.00028601
5823.06945923,0.00016109
5824.99826660,0.00015410
5826.92707397,0.00011019
5828.85588135,0.00013637
5830.78468872,0.00021865
5832.71349609,0.00016817
5834.64230347,0.00027927
5836.57111084,0.00026847
5838.49991821,0.00016754
5840.42872559,0.00019430
5842.35753296,0.00020178
5844.28634033,0.00025097
5846.21514770,0.00025928
5848.14395508,0.00023565
5850.07276245,0.00019346
5852.00156982,0.00019874
5853.93037720,0.00022526
5855.85918457,0.00017658
5857.78799194,0.00022790
5859.71679932,0.00025316
5861.64560669,0.00023178
5863.57441406,0.00024432
5865.50322144,0.00020473
5867.43202881,0.00018281
5869.36083618,0.00017480
5871.28964355,0.00018118
5873.21845093,0.00021021
5875.14725830,0.00022161
5877.07606567,0.00018822
5879.00487305,0.00019153
5880.93368042,0.00023186
5882.86248779,0.00016607
5884.79129517,0.00020679
5886.72010254,0.00028718
5888.64890991,0.00020442
5890.57771728,0.00018819
5892.50652466,0.00018299
5894.43533203,0.00017349
5896.36413940,0.00016315
5898.29294678,0.00016626
5900.22175415,0.00025873
5902.15056152,0.00019149
5904.07936890,0.00016333
5906.00817627,0.00021081
5907.93698364,0.00017070
5909.86579102,0.00022323
5911.79459839,0.00018811
5913.72340576,0.00011550
5915.65221313,0.00016098
5917.58102051,0.00017933
5919.50982788,0.00016733
5921.43863525,0.00019093
5923.36744263,0.00020277
5925.29625000,0.00018530
5927.22505737,0.00015557
5929.15386475,0.00010163
5931.08267212,0.00024055
5933.01147949,0.00029069
5934.94028686,0.00010842
5936.86909424,0.00014301
5938.79790161,0.00020176
5940.72670898,0.00017650
5942.65551636,0.00016043
5944.58432373,0.00019499
5946.51313110,0.00022732
5948.44193848,0.00013906
5950.37074585,0.00018711
5952.29955322,0.00020040
5954.22836060,0.00015415
5956.15716797,0.00019369
5958.08597534,0.00016620
5960.01478271,0.00019791
5961.94359009,0.00022017
5963.87239746,0.00017762
5965.80120483,0.00017501
5967.73001221,0.00020376
5969.65881958,0.00019048
5971.58762695,0.00016080
5973.51643433,0.00017931
5975.44524170,0.00014461
5977.37404907,0.00016939
5979.30285645,0.00020267
5981.23166382,0.00015243
5983.16047119,0.00017821
5985.08927856,0.00022901
5987.01808594,0.00018140
5988.94689331,0.00006929
5990.87570068,0.00013772
5992.80450806,0.00019758
5994.73331543,0.00011058
5996.66212280,0.00021097
5998.59093018,0.00023595
6000.51973755,0.00017939
