399.26312622,0.00126432
401.19193359,0.00125778
403.12074097,0.00135202
405.04954834,0.00152619
406.97835571,0.00127636
408.90716309,0.00134156
410.83597046,0.00197470
412.76477783,0.00207004
414.69358521,0.00210898
416.62239258,0.00172259
418.55119995,0.00156970
420.48000732,0.00188438
422.40881470,0.00199016
424.33762207,0.00235270
426.26642944,0.00221458
428.19523682,0.00238688
430.12404419,0.00249979
432.05285156,0.00189491
433.98165894,0.00197797
435.91046631,0.00200965
437.83927368,0.00186905
439.76808105,0.00203005
441.69688843,0.00193656
443.62569580,0.00180666
445.55450317,0.00178777
447.48331055,0.00169343
449.41211792,0.00169999
451.34092529,0.00166034
453.26973267,0.00182340
455.19854004,0.00188324
457.12734741,0.00118773
459.05615479,0.00136385
460.98496216,0.00162561
462.91376953,0.00097733
464.84257690,0.00096950
466.77138428,0.00087592
468.70019165,0.00076490
470.62899902,0.00117598
472.55780640,0.00121358
474.48661377,0.00077001
476.41542114,0.00083913
478.34422852,0.00106181
480.27303589,0.00041955
482.20184326,0.00041143
484.13065063,0.00053770
486.05945801,0.00026497
487.98826538,0.00053417
489.91707275,0.00063190
491.84588013,0.00052267
493.77468750,0.00031116
495.70349487,0.00045106
497.63230225,0.00054657
499.56110962,0.00022485
501.48991699,0.00045869
503.41872437,0.00036747
505.34753174,-0.00006761
507.27633911,0.00025575
509.20514648,0.00038439
511.13395386,0.00020082
513.06276123,0.00005301
514.99156860,-0.00003716
516.92037598,0.00034142
518.84918335,0.00041510
520.77799072,0.00026836
522.70679810,0.00013702
524.63560547,0.00033165
526.56441284,0.00041659
528.49322021,0.00004672
530.42202759,0.00034396
532.35083496,0.00007202
534.27964233,0.00002744
536.20844971,0.00057581
538.13725708,0.00044064
540.06606445,0.00046851
541.99487183,-0.00011269
543.92367920,-0.00018509
545.85248657,0.00046782
547.78129395,0.00010456
549.71010132,0.00022863
551.63890869,0.00036139
553.56771606,0.00023098
555.49652344,0.00008624
557.42533081,0.00004419
559.35413818,0.00049159
561.28294556,0.00028485
563.21175293,0.00001156
565.14056030,-0.00000377
567.06936768,0.00013731
568.99817505,0.00027541
570.92698242,0.00036808
572.85578979,0.00030267
574.78459717,0.00003647
576.71340454,0.00005063
578.64221191,-0.00007769
580.57101929,0.00008007
582.49982666,0.00035139
584.42863403,0.00020322
586.35744141,0.00028826
588.28624878,0.00015733
590.21505615,0.00009430
592.14386353,0.00029447
594.07267090,0.00035413
596.00147827,0.00035351
597.93028564,-0.00013066
599.85909302,-0.00025476
601.78790039,0.00021361
603.71670776,-0.00003895
605.64551514,-0.00002203
607.57432251,0.00031128
609.50312988,0.00020235
611.43193726,0.00000481
613.36074463,0.00018638
615.28955200,0.00008826
617.21835938,-0.00013906
619.14716675,0.00029120
621.07597412,-0.00003056
623.00478149,0.00004729
624.93358887,0.00058795
626.86239624,0.00000113
628.79120361,-0.00022467
630.72001099,0.00030556
632.64881836,0.00097634
634.57762573,0.00162195
636.50643311,0.00173018
638.43524048,0.00156963
640.36404785,0.00178208
642.29285522,0.00214217
644.22166260,0.00241308
646.15046997,0.00246423
648.07927734,0.00222314
650.00808472,0.00257624
651.93689209,0.00270169
653.86569946,0.00272864
655.79450684,0.00325762
657.72331421,0.00312820
659.65212158,0.00318484
661.58092896,0.00345400
663.50973633,0.00384757
665.43854370,0.00365905
667.36735107,0.00311171
669.29615845,0.00408645
671.22496582,0.00454317
673.15377319,0.00476153
675.08258057,0.00504975
677.01138794,0.00460567
678.94019531,0.00500206
680.86900269,0.00519455
682.79781006,0.00502102
684.72661743,0.00495868
686.65542480,0.00460711
688.58423218,0.00462650
690.51303955,0.00517724
692.44184692,0.00545817
694.37065430,0.00566201
696.29946167,0.00654940
698.22826904,0.00738729
700.15707642,0.00818989
702.08588379,0.00804256
704.01469116,0.00720516
705.94349854,0.00695671
707.87230591,0.00590892
709.80111328,0.00468599
711.72992065,0.00353016
713.65872803,0.00187882
715.58753540,0.00090388
717.51634277,0.00056099
719.44515015,0.00030018
721.37395752,0.00024702
723.30276489,0.00020561
725.23157227,0.00020556
727.16037964,0.00021681
729.08918701,-0.00009708
731.01799438,0.00016624
732.94680176,0.00018746
734.87560913,-0.00005044
736.80441650,0.00011658
738.73322388,-0.00014154
740.66203125,0.00021359
742.59083862,0.00019138
744.51964600,-0.00007056
746.44845337,0.00026526
748.37726074,0.00028639
750.30606812,0.00021838
752.23487549,0.00012106
754.16368286,0.00038168
756.09249023,0.00024639
758.02129761,0.00026715
759.95010498,0.00038050
761.87891235,0.00008713
763.80771973,0.00053701
765.73652710,0.00046902
767.66533447,0.00025017
769.59414185,0.00021308
771.52294922,0.00037477
773.45175659,0.00073440
775.38056396,0.00054274
777.30937134,0.00068426
779.23817871,0.00058498
781.16698608,0.00049880
783.09579346,0.00049415
785.02460083,0.00049276
786.95340820,0.00059897
788.88221558,0.00029783
790.81102295,0.00051852
792.73983032,0.00073393
794.66863770,0.00072492
796.59744507,0.00091517
798.52625244,0.00132273
800.45505981,0.00140893
802.38386719,0.00121748
804.31267456,0.00144504
806.24148193,0.00129061
808.17028931,0.00080969
810.09909668,0.00036389
812.02790405,0.00063252
813.95671143,0.00086919
815.88551880,0.00024073
817.81432617,0.00025331
819.74313354,0.00061079
821.67194092,0.00046751
823.60074829,0.00042947
825.52955566,0.00087142
827.45836304,0.00077809
829.38717041,0.00086798
831.31597778,0.00136532
833.24478516,0.00141721
835.17359253,0.00189626
837.10239990,0.00211414
839.03120728,0.00232702
840.96001465,0.00234971
842.88882202,0.00195241
844.81762939,0.00188512
846.74643677,0.00161527
848.67524414,0.00150660
850.60405151,0.00130527
852.53285889,0.00129750
854.46166626,0.00121891
856.39047363,0.00097427
858.31928101,0.00110740
860.24808838,0.00076321
862.17689575,0.00041521
864.10570313,0.00054045
866.03451050,0.00085734
867.96331787,0.00060318
869.89212524,0.00042787
871.82093262,0.00059349
873.74973999,0.00056649
875.67854736,0.00068449
877.60735474,0.00028412
879.53616211,0.00039815
881.46496948,0.00043136
883.39377686,0.00017726
885.32258423,0.00067944
887.25139160,0.00030519
889.18019897,0.00030375
891.10900635,0.00060119
893.03781372,0.00021336
894.96662109,0.00057585
896.89542847,0.00077407
898.82423584,0.00064862
900.75304321,0.00064567
902.68185059,0.00059484
904.61065796,0.00053912
906.53946533,0.00056346
908.46827271,0.00095408
910.39708008,0.00090916
912.32588745,0.00078649
914.25469482,0.00109252
916.18350220,0.00111496
918.11230957,0.00112703
920.04111694,0.00142357
921.96992432,0.00175679
923.89873169,0.00197036
925.82753906,0.00203892
927.75634644,0.00223444
929.68515381,0.00248840
931.61396118,0.00263127
933.54276855,0.00274388
935.47157593,0.00286201
937.40038330,0.00308410
939.32919067,0.00342266
941.25799805,0.00368963
943.18680542,0.00355373
945.11561279,0.00349652
947.04442017,0.00363282
948.97322754,0.00338498
950.90203491,0.00334907
952.83084229,0.00355599
954.75964966,0.00345229
956.68845703,0.00337655
958.61726440,0.00337382
960.54607178,0.00336398
962.47487915,0.00369295
964.40368652,0.00372246
966.33249390,0.00354557
968.26130127,0.00388563
970.19010864,0.00394070
972.11891602,0.00422306
974.04772339,0.00466236
975.97653076,0.00466543
977.90533813,0.00513969
979.83414551,0.00565698
981.76295288,0.00612548
983.69176025,0.00673583
985.62056763,0.00754589
987.54937500,0.00857625
989.47818237,0.00939827
991.40698975,0.01041012
993.33579712,0.01149531
995.26460449,0.01261501
997.19341187,0.01376904
999.12221924,0.01488346
1001.05102661,0.01601514
1002.97983398,0.01690442
1004.90864136,0.01826799
1006.83744873,0.01960013
1008.76625610,0.02033993
1010.69506348,0.02159504
1012.62387085,0.02291884
1014.55267822,0.02407060
1016.48148560,0.02528654
1018.41029297,0.02620788
1020.33910034,0.02759552
1022.26790771,0.02909718
1024.19671509,0.03021483
1026.12552246,0.03116837
1028.05432983,0.03199789
1029.98313721,0.03321475
1031.91194458,0.03397974
1033.84075195,0.03460407
1035.76955933,0.03538859
1037.69836670,0.03563710
1039.62717407,0.03601577
1041.55598145,0.03583812
1043.48478882,0.03543495
1045.41359619,0.03518236
1047.34240356,0.03453900
1049.27121094,0.03421382
1051.20001831,0.03359593
1053.12882568,0.03290061
1055.05763306,0.03244060
1056.98644043,0.03155882
1058.91524780,0.03083500
1060.84405518,0.03002200
1062.77286255,0.02891889
1064.70166992,0.02805614
1066.63047729,0.02714811
1068.55928467,0.02604325
1070.48809204,0.02481049
1072.41689941,0.02358690
1074.34570679,0.02245136
1076.27451416,0.02145362
1078.20332153,0.02066356
1080.13212891,0.01960227
1082.06093628,0.01863075
1083.98974365,0.01784604
1085.91855103,0.01690068
1087.84735840,0.01607015
1089.77616577,0.01529476
1091.70497314,0.01470316
1093.63378052,0.01405946
1095.56258789,0.01376327
1097.49139526,0.01332117
1099.42020264,0.01252213
1101.34901001,0.01264991
1103.27781738,0.01244090
1105.20662476,0.01201987
1107.13543213,0.01192881
1109.06423950,0.01144095
1110.99304687,0.01121431
1112.92185425,0.01124624
1114.85066162,0.01120171
1116.77946899,0.01118484
1118.70827637,0.01124844
1120.63708374,0.01102669
1122.56589111,0.01108061
1124.49469849,0.01136180
1126.42350586,0.01153439
1128.35231323,0.01183392
1130.28112061,0.01195280
1132.20992798,0.01244246
1134.13873535,0.01268590
1136.06754272,0.01317252
1137.99635010,0.01400871
1139.92515747,0.01460772
1141.85396484,0.01590907
1143.78277222,0.01691701
1145.71157959,0.01782155
1147.64038696,0.01886448
1149.56919434,0.01983648
1151.49800171,0.02087886
1153.42680908,0.02201394
1155.35561646,0.02324299
1157.28442383,0.02380623
1159.21323120,0.02489254
1161.14203857,0.02600968
1163.07084595,0.02677637
1164.99965332,0.02773990
1166.92846069,0.02857717
1168.85726807,0.03001804
1170.78607544,0.03116029
1172.71488281,0.03214882
1174.64369019,0.03340784
1176.57249756,0.03464816
1178.50130493,0.03602065
1180.43011230,0.03730232
1182.35891968,0.03888486
1184.28772705,0.04062940
1186.21653442,0.04233539
1188.14534180,0.04419398
1190.07414917,0.04646615
1192.00295654,0.04865505
1193.93176392,0.05085324
1195.86057129,0.05303907
1197.78937866,0.05540526
1199.71818604,0.05846702
1201.64699341,0.06064136
1203.57580078,0.06298716
1205.50460815,0.06572007
1207.43341553,0.06791621
1209.36222290,0.07047273
1211.29103027,0.07248119
1213.21983765,0.07431181
1215.14864502,0.07631852
1217.07745239,0.07786613
1219.00625977,0.07912587
1220.93506714,0.08059730
1222.86387451,0.08177266
1224.79268188,0.08219193
1226.72148926,0.08287805
1228.65029663,0.08337349
1230.57910400,0.08378506
1232.50791138,0.08409566
1234.43671875,0.08395450
1236.36552612,0.08403493
1238.29433350,0.08384164
1240.22314087,0.08355655
1242.15194824,0.08335013
1244.08075562,0.08294583
1246.00956299,0.08254869
1247.93837036,0.08205555
1249.86717773,0.08129000
1251.79598511,0.08064649
1253.72479248,0.08010013
1255.65359985,0.07900847
1257.58240723,0.07797524
1259.51121460,0.07680710
1261.44002197,0.07538086
1263.36882935,0.07462285
1265.29763672,0.07375968
1267.22644409,0.07263926
1269.15525146,0.07161322
1271.08405884,0.07035524
1273.01286621,0.06941535
1274.94167358,0.06834282
1276.87048096,0.06681544
1278.79928833,0.06552418
1280.72809570,0.06425328
1282.65690308,0.06305276
1284.58571045,0.06186979
1286.51451782,0.06057482
1288.44332520,0.05936358
1290.37213257,0.05861437
1292.30093994,0.05818464
1294.22974731,0.05751090
1296.15855469,0.05703837
1298.08736206,0.05686651
1300.01616943,0.05731009
1301.94497681,0.05761619
1303.87378418,0.05775930
1305.80259155,0.05863769
1307.73139893,0.05932190
1309.66020630,0.06042702
1311.58901367,0.06128563
1313.51782104,0.06228083
1315.44662842,0.06421193
1317.37543579,0.06540325
1319.30424316,0.06703106
1321.23305054,0.06916623
1323.16185791,0.07117787
1325.09066528,0.07333992
1327.01947266,0.07556952
1328.94828003,0.07761739
1330.87708740,0.07933177
1332.80589478,0.08131106
1334.73470215,0.08282097
1336.66350952,0.08362880
1338.59231689,0.08303876
1340.52112427,0.08391859
1342.44993164,0.08716917
1344.37873901,0.08773854
1346.30754639,0.08773185
1348.23635376,0.08764149
1350.16516113,0.08710390
1352.09396851,0.08727591
1354.02277588,0.08581772
1355.95158325,0.08510759
1357.88039062,0.08455420
1359.80919800,0.08317924
1361.73800537,0.08004895
1363.66681274,0.07847007
1365.59562012,0.08221430
1367.52442749,0.08079061
1369.45323486,0.07956073
1371.38204224,0.08089386
1373.31084961,0.07678492
1375.23965698,0.07709767
1377.16846436,0.07911083
1379.09727173,0.07875897
1381.02607910,0.07892910
1382.95488647,0.07882077
1384.88369385,0.07867345
1386.81250122,0.07531929
1388.74130859,0.07619367
1390.67011597,0.08235306
1392.59892334,0.08064127
1394.52773071,0.07537392
1396.45653809,0.07896012
1398.38534546,0.07913100
1400.31415283,0.07844685
1402.24296021,0.08454303
1404.17176758,0.08003291
1406.10057495,0.08034506
1408.02938232,0.08365321
1409.95818970,0.08052097
1411.88699707,0.08208416
1413.81580444,0.07925825
1415.74461182,0.08062722
1417.67341919,0.07323196
1419.60222656,0.06538805
1421.53103394,0.07481573
1423.45984131,0.07249364
1425.38864868,0.07032570
1427.31745605,0.07143061
1429.24626343,0.06607982
1431.17507080,0.06402603
1433.10387817,0.06478295
1435.03268555,0.05955466
1436.96149292,0.05039823
1438.89030029,0.05666098
1440.81910767,0.05826643
1442.74791504,0.05394727
1444.67672241,0.05665762
1446.60552979,0.05210847
1448.53433716,0.05275301
1450.46314453,0.05452276
1452.39195190,0.05549023
1454.32075928,0.05760057
1456.24956665,0.04813620
1458.17837402,0.04997469
1460.10718140,0.06567613
1462.03598877,0.07048105
1463.96479614,0.07011454
1465.89360352,0.07283832
1467.82241089,0.08273380
1469.75121826,0.08912183
1471.68002563,0.08025614
1473.60883301,0.08418512
1475.53764038,0.09586779
1477.46644775,0.10288124
1479.39525513,0.11288712
1481.32406250,0.11505962
1483.25286987,0.12191020
1485.18167725,0.12605885
1487.11048462,0.12444884
1489.03929199,0.12417696
1490.96809937,0.12488075
1492.89690674,0.14435148
1494.82571411,0.14181066
1496.75452148,0.12809497
1498.68332886,0.14433911
1500.61213623,0.14887863
1502.54094360,0.15910825
1504.46975098,0.15172252
1506.39855835,0.11201316
1508.32736572,0.13470322
1510.25617310,0.15804210
1512.18498047,0.15281370
1514.11378784,0.16517031
1516.04259521,0.14997509
1517.97140259,0.15572834
1519.90020996,0.15101260
1521.82901733,0.13123359
1523.75782471,0.15922764
1525.68663208,0.15693295
1527.61543945,0.15590896
1529.54424683,0.17177001
1531.47305420,0.16567665
1533.40186157,0.15235877
1535.33066895,0.16031858
1537.25947632,0.17195518
1539.18828369,0.12510626
1541.11709106,0.12916699
1543.04589844,0.15463313
1544.97470581,0.14814916
1546.90351318,0.17373893
1548.83232056,0.16297141
1550.76112793,0.16740009
1552.68993530,0.16669692
1554.61874268,0.15160294
1556.54755005,0.16225165
1558.47635742,0.11656857
1560.40516479,0.12365440
1562.33397217,0.17372328
1564.26277954,0.16473150
1566.19158691,0.16861647
1568.12039429,0.16747785
1570.04920166,0.14882576
1571.97800903,0.16990989
1573.90681641,0.17231244
1575.83562378,0.13738462
1577.76443115,0.15370029
1579.69323853,0.17313099
1581.62204590,0.16559127
1583.55085327,0.16953453
1585.47966064,0.16671953
1587.40846802,0.16743347
1589.33727539,0.16568416
1591.26608276,0.16497350
1593.19489014,0.16486365
1595.12369751,0.16268626
1597.05250488,0.16450718
1598.98131226,0.16268614
1600.91011963,0.16303769
1602.83892700,0.15950415
1604.76773437,0.16160205
1606.69654175,0.15880373
1608.62534912,0.15748784
1610.55415649,0.15684021
1612.48296387,0.15660448
1614.41177124,0.15859118
1616.34057861,0.13000718
1618.26938599,0.13893373
1620.19819336,0.16105720
1622.12700073,0.14277415
1624.05580811,0.14264584
1625.98461548,0.14867049
1627.91342285,0.14749104
1629.84223022,0.14606327
1631.77103760,0.15520222
1633.69984497,0.14393927
1635.62865234,0.11903007
1637.55745972,0.13735941
1639.48626709,0.15088592
1641.41507446,0.14742316
1643.34388184,0.15150732
1645.27268921,0.13772333
1647.20149658,0.12143925
1649.13030396,0.14980395
1651.05911133,0.14384738
1652.98791870,0.09383130
1654.91672607,0.12540904
1656.84553345,0.15797067
1658.77434082,0.15146291
1660.70314819,0.15639758
1662.63195557,0.14327961
1664.56076294,0.15076059
1666.48957031,0.16277298
1668.41837769,0.14381085
1670.34718506,0.13983214
1672.27599243,0.15856418
1674.20479980,0.14803682
1676.13360718,0.14187738
1678.06241455,0.16335925
1679.99122192,0.15861011
1681.92002930,0.15768923
1683.84883667,0.13040754
1685.77764404,0.12780184
1687.70645142,0.17479092
1689.63525879,0.15362546
1691.56406616,0.16755867
1693.49287354,0.17304486
1695.42168091,0.12757246
1697.35048828,0.15616378
1699.27929565,0.13990662
1701.20810303,0.12534034
1703.13691040,0.16974711
1705.06571777,0.15718460
1706.99452515,0.15808529
1708.92333252,0.17198820
1710.85213989,0.16568220
1712.78094727,0.16913015
1714.70975464,0.15797350
1716.63856201,0.14249691
1718.56736938,0.14002895
1720.49617676,0.16490325
1722.42498413,0.17184031
1724.35379150,0.15991634
1726.28259888,0.17341076
1728.21140625,0.16123699
1730.14021362,0.16233248
1732.06902100,0.15908882
1733.99782837,0.12254865
1735.92663574,0.15018298
1737.85544312,0.16681330
1739.78425049,0.14888659
1741.71305786,0.16154398
1743.64186523,0.16433647
1745.57067261,0.16446732
1747.49947998,0.16630828
1749.42828735,0.15959311
1751.35709473,0.15280892
1753.28590210,0.16825064
1755.21470947,0.17663406
1757.14351685,0.16170542
1759.07232422,0.17660955
1761.00113159,0.16727908
1762.92993896,0.16094612
1764.85874634,0.18357885
1766.78755371,0.16635150
1768.71636108,0.16718726
1770.64516846,0.16698135
1772.57397583,0.15031794
1774.50278320,0.16658294
1776.43159058,0.17613167
1778.36039795,0.17369193
1780.28920532,0.17189068
1782.21801270,0.17321262
1784.14682007,0.17301095
1786.07562744,0.16986370
1788.00443481,0.17800650
1789.93324219,0.17398921
1791.86204956,0.15831569
1793.79085693,0.16433358
1795.71966431,0.17602377
1797.64847168,0.17398979
1799.57727905,0.17152300
1801.50608643,0.16867730
1803.43489380,0.17368951
1805.36370117,0.17750040
1807.29250854,0.17504364
1809.22131592,0.17596494
1811.15012329,0.17140964
1813.07893066,0.17608458
1815.00773804,0.17707932
1816.93654541,0.17508850
1818.86535278,0.17672905
1820.79416016,0.17573178
1822.72296753,0.17844319
1824.65177490,0.16751985
1826.58058228,0.17274518
1828.50938965,0.17354941
1830.43819702,0.16297641
1832.36700439,0.17649752
1834.29581177,0.17574912
1836.22461914,0.17535177
1838.15342651,0.17471555
1840.08223389,0.17552504
1842.01104126,0.17624876
1843.93984863,0.15725026
1845.86865601,0.16651967
1847.79746338,0.17569274
1849.72627075,0.17202044
1851.65507812,0.17674328
1853.58388550,0.17347138
1855.51269287,0.17499813
1857.44150024,0.17390770
1859.37030762,0.17283686
1861.29911499,0.17402482
1863.22792236,0.17220208
1865.15672974,0.17397992
1867.08553711,0.16861811
1869.01434448,0.16176739
1870.94315186,0.16748735
1872.87195923,0.17387444
1874.80076660,0.17125501
1876.72957397,0.17208067
1878.65838135,0.17157640
1880.58718872,0.17058492
1882.51599609,0.17211439
1884.44480347,0.16925243
1886.37361084,0.17165786
1888.30241821,0.16799939
1890.23122559,0.16468197
1892.16003296,0.17066154
1894.08884033,0.16821271
1896.01764771,0.16751769
1897.94645508,0.16944782
1899.87526245,0.16858286
1901.80406982,0.16895810
1903.73287720,0.16788352
1905.66168457,0.16845216
1907.59049194,0.16693763
1909.51929932,0.16595453
1911.44810669,0.16685176
1913.37691406,0.16689415
1915.30572144,0.16830790
1917.23452881,0.16147770
1919.16333618,0.16117562
1921.09214355,0.16712669
1923.02095093,0.16230735
1924.94975830,0.16507617
1926.87856567,0.16690639
1928.80737305,0.16474754
1930.73618042,0.16654861
1932.66498779,0.16447404
1934.59379517,0.16590557
1936.52260254,0.16490616
1938.45140991,0.16535980
1940.38021729,0.16537124
1942.30902466,0.16018945
1944.23783203,0.16285235
1946.16663940,0.16443832
1948.09544678,0.16422288
1950.02425415,0.16477397
1951.95306152,0.16412210
1953.88186890,0.16424400
1955.81067627,0.16346365
1957.73948364,0.16400841
1959.66829102,0.16369566
1961.59709839,0.16334045
1963.52590576,0.16374661
1965.45471313,0.16287762
1967.38352051,0.16129805
1969.31232788,0.16232271
1971.24113525,0.16343890
1973.16994263,0.16218781
1975.09875000,0.16291568
1977.02755737,0.16222152
1978.95636475,0.16204934
1980.88517212,0.16214520
1982.81397949,0.16146217
1984.74278687,0.16193670
1986.67159424,0.16049656
1988.60040161,0.16089973
1990.52920898,0.15965796
1992.45801636,0.15780765
1994.38682373,0.15991485
1996.31563110,0.16008571
1998.24443848,0.15937206
2000.17324585,0.15936428
2002.10205322,0.15879548
2004.03086060,0.15864658
2005.95966797,0.15840699
2007.88847534,0.15774861
2009.81728271,0.15766591
2011.74609009,0.15717289
2013.67489746,0.15716425
2015.60370483,0.15648821
2017.53251221,0.15486714
2019.46131958,0.15571490
2021.39012695,0.15551381
2023.31893433,0.15498275
2025.24774170,0.15506259
2027.17654907,0.15448324
2029.10535645,0.15450597
2031.03416382,0.15373869
2032.96297119,0.15358737
2034.89177856,0.15334338
2036.82058594,0.15295452
2038.74939331,0.15280083
2040.67820068,0.15193708
2042.60700806,0.15163654
2044.53581543,0.15158045
2046.46462280,0.15144205
2048.39343018,0.15091361
2050.32223755,0.15067181
2052.25104492,0.15040165
2054.17985229,0.14998613
2056.10865967,0.14983487
2058.03746704,0.14943320
2059.96627441,0.14905582
2061.89508179,0.14877105
2063.82388916,0.14832932
2065.75269653,0.14769858
2067.68150391,0.14807919
2069.61031128,0.14770293
2071.53911865,0.14709356
2073.46792603,0.14719751
2075.39673340,0.14664543
2077.32554077,0.14669937
2079.25434814,0.14620656
2081.18315552,0.14604455
2083.11196289,0.14583513
2085.04077026,0.14527068
2086.96957764,0.14522448
2088.89838501,0.14432134
2090.82719238,0.14443335
2092.75599976,0.14440024
2094.68480713,0.14392684
2096.61361450,0.14384885
2098.54242187,0.14349914
2100.47122925,0.14344695
2102.40003662,0.14304143
2104.32884399,0.14273795
2106.25765137,0.14251447
2108.18645874,0.14237122
2110.11526611,0.14218557
2112.04407349,0.14183159
2113.97288086,0.14161468
2115.90168823,0.14137423
2117.83049561,0.14120427
2119.75930298,0.14096135
2121.68811035,0.14090313
2123.61691772,0.14063869
2125.54572510,0.14047234
2127.47453247,0.14036623
2129.40333984,0.14003640
2131.33214722,0.13981451
2133.26095459,0.13969457
2135.18976196,0.13957632
2137.11856934,0.13927661
2139.04737671,0.13910669
2140.97618408,0.13875452
2142.90499146,0.13882771
2144.83379883,0.13863041
2146.76260620,0.13824967
2148.69141357,0.13842531
2150.62022095,0.13809612
2152.54902832,0.13803011
2154.47783569,0.13771123
2156.40664307,0.13752988
2158.33545044,0.13748187
2160.26425781,0.13720782
2162.19306519,0.13719495
2164.12187256,0.13692552
2166.05067993,0.13701521
2167.97948730,0.13661852
2169.90829468,0.13650870
2171.83710205,0.13654566
2173.76590942,0.13607018
2175.69471680,0.13609594
2177.62352417,0.13596228
2179.55233154,0.13585463
2181.48113892,0.13562402
2183.40994629,0.13552308
2185.33875366,0.13528252
2187.26756104,0.13508177
2189.19636841,0.13507491
2191.12517578,0.13480070
2193.05398315,0.13475710
2194.98279053,0.13452834
2196.91159790,0.13453770
2198.84040527,0.13425316
2200.76921265,0.13412872
2202.69802002,0.13412738
2204.62682739,0.13376352
2206.55563477,0.13384627
2208.48444214,0.13359779
2210.41324951,0.13356882
2212.34205688,0.13336404
2214.27086426,0.13311338
2216.19967163,0.13310778
2218.12847900,0.13281628
2220.05728638,0.13262828
2221.98609375,0.13247186
2223.91490112,0.13245353
2225.84370850,0.13211979
2227.77251587,0.13212976
2229.70132324,0.13193655
2231.63013062,0.13155469
2233.55893799,0.13156128
2235.48774536,0.13127263
2237.41655273,0.13110581
2239.34536011,0.13083789
2241.27416748,0.13082740
2243.20297485,0.13054973
2245.13178223,0.13034743
2247.06058960,0.13022582
2248.98939697,0.12987041
2250.91820435,0.12990814
2252.84701172,0.12955151
2254.77581909,0.12954730
2256.70462646,0.12932126
2258.63343384,0.12911943
2260.56224121,0.12900360
2262.49104858,0.12858108
2264.41985596,0.12867245
2266.34866333,0.12844336
2268.27747070,0.12836146
2270.20627808,0.12812164
2272.13508545,0.12800227
2274.06389282,0.12786573
2275.99270020,0.12767473
2277.92150757,0.12784219
2279.85031494,0.12755799
2281.77912231,0.12764312
2283.70792969,0.12738207
2285.63673706,0.12708187
2287.56554443,0.12686387
2289.49435181,0.12650919
2291.42315918,0.12625013
2293.35196655,0.12583640
2295.28077393,0.12582441
2297.20958130,0.12523456
2299.13838867,0.12487203
2301.06719604,0.12445816
2302.99600342,0.12375239
2304.92481079,0.12328267
2306.85361816,0.12242202
2308.78242554,0.12171835
2310.71123291,0.12069704
2312.64004028,0.11958969
2314.56884766,0.11824686
2316.49765503,0.11701323
2318.42646240,0.11568499
2320.35526978,0.11404428
2322.28407715,0.11253718
2324.21288452,0.11085165
2326.14169189,0.10984658
2328.07049927,0.10841498
2329.99930664,0.10709211
2331.92811401,0.10622336
2333.85692139,0.10565291
2335.78572876,0.10545495
2337.71453613,0.10504489
2339.64334351,0.10524562
2341.57215088,0.10552981
2343.50095825,0.10706724
2345.42976562,0.10897185
2347.35857300,0.11323123
2349.28738037,0.11728767
2351.21618774,0.11329902
2353.14499512,0.10763391
2355.07380249,0.10369366
2357.00260986,0.10043248
2358.93141724,0.09870049
2360.86022461,0.09740631
2362.78903198,0.09736765
2364.71783936,0.09770104
2366.64664673,0.09911022
2368.57545410,0.10122202
2370.50426147,0.10365701
2372.43306885,0.10655388
2374.36187622,0.10930169
2376.29068359,0.11250241
2378.21949097,0.11484239
2380.14829834,0.11669858
2382.07710571,0.11801031
2384.00591309,0.11870101
2385.93472046,0.11919678
2387.86352783,0.11913671
2389.79233521,0.11917474
2391.72114258,0.11905403
2393.64994995,0.11895990
2395.57875732,0.11882277
2397.50756470,0.11861826
2399.43637207,0.11842933
2401.36517944,0.11834444
2403.29398682,0.11831445
2405.22279419,0.11801898
2407.15160156,0.11787224
2409.08040894,0.11761071
2411.00921631,0.11753090
2412.93802368,0.11741254
2414.86683105,0.11715292
2416.79563843,0.11708511
2418.72444580,0.11691169
2420.65325317,0.11684780
2422.58206055,0.11666578
2424.51086792,0.11647116
2426.43967529,0.11638071
2428.36848267,0.11622325
2430.29729004,0.11596852
2432.22609741,0.11584868
2434.15490479,0.11576357
2436.08371216,0.11557843
2438.01251953,0.11547354
2439.94132690,0.11524048
2441.87013428,0.11526990
2443.79894165,0.11514967
2445.72774902,0.11480339
2447.65655640,0.11468969
2449.58536377,0.11462963
2451.51417114,0.11453016
2453.44297852,0.11426461
2455.37178589,0.11424425
2457.30059326,0.11412379
2459.22940063,0.11388424
2461.15820801,0.11374161
2463.08701538,0.11355085
2465.01582275,0.11344334
2466.94463013,0.11325041
2468.87343750,0.11311176
2470.80224487,0.11296731
2472.73105225,0.11289020
2474.65985962,0.11270745
2476.58866699,0.11254622
2478.51747437,0.11245304
2480.44628174,0.11212891
2482.37508911,0.11203745
2484.30389648,0.11197762
2486.23270386,0.11181854
2488.16151123,0.11165576
2490.09031860,0.11160059
2492.01912598,0.11151245
2493.94793335,0.11132865
2495.87674072,0.11123201
2497.80554810,0.11099656
2499.73435547,0.11080048
2501.66316284,0.11060615
2503.59197021,0.11052097
2505.52077759,0.11039889
2507.44958496,0.11027045
2509.37839233,0.11023171
2511.30719971,0.10999651
2513.23600708,0.10989533
2515.16481445,0.10982233
2517.09362183,0.10965231
2519.02242920,0.10940918
2520.95123657,0.10935636
2522.88004395,0.10918149
2524.80885132,0.10886623
2526.73765869,0.10883783
2528.66646606,0.10873072
2530.59527344,0.10868478
2532.52408081,0.10847099
2534.45288818,0.10844878
2536.38169556,0.10829920
2538.31050293,0.10786894
2540.23931030,0.10794487
2542.16811768,0.10785116
2544.09692505,0.10776725
2546.02573242,0.10760795
2547.95453979,0.10734145
2549.88334717,0.10725959
2551.81215454,0.10719104
2553.74096191,0.10705663
2555.66976929,0.10680372
2557.59857666,0.10674725
2559.52738403,0.10649751
2561.45619141,0.10643181
2563.38499878,0.10638133
2565.31380615,0.10613135
2567.24261353,0.10601313
2569.17142090,0.10573757
2571.10022827,0.10565463
2573.02903564,0.10543618
2574.95784302,0.10536526
2576.88665039,0.10536130
2578.81545776,0.10510292
2580.74426514,0.10492782
2582.67307251,0.10476041
2584.60187988,0.10477100
2586.53068726,0.10457206
2588.45949463,0.10440318
2590.38830200,0.10426010
2592.31710937,0.10417767
2594.24591675,0.10413180
2596.17472412,0.10382856
2598.10353149,0.10375515
2600.03233887,0.10354310
2601.96114624,0.10343611
2603.88995361,0.10329340
2605.81876099,0.10303836
2607.74756836,0.10305372
2609.67637573,0.10279679
2611.60518311,0.10261562
2613.53399048,0.10257402
2615.46279785,0.10244302
2617.39160522,0.10235403
2619.32041260,0.10222286
2621.24921997,0.10200697
2623.17802734,0.10185288
2625.10683472,0.10164839
2627.03564209,0.10148776
2628.96444946,0.10149342
2630.89325684,0.10131600
2632.82206421,0.10121420
2634.75087158,0.10100749
2636.67967895,0.10086659
2638.60848633,0.10087791
2640.53729370,0.10063842
2642.46610107,0.10049754
2644.39490845,0.10034332
2646.32371582,0.10018606
2648.25252319,0.10002809
2650.18133057,0.09993622
2652.11013794,0.09975989
2654.03894531,0.09956811
2655.96775269,0.09950832
2657.89656006,0.09926657
2659.82536743,0.09926412
2661.75417480,0.09900087
2663.68298218,0.09878374
2665.61178955,0.09892825
2667.54059692,0.09859874
2669.46940430,0.09843732
2671.39821167,0.09843129
2673.32701904,0.09820122
2675.25582642,0.09809096
2677.18463379,0.09796782
2679.11344116,0.09777076
2681.04224854,0.09767954
2682.97105591,0.09743635
2684.89986328,0.09728387
2686.82867065,0.09732945
2688.75747803,0.09705570
2690.68628540,0.09688022
2692.61509277,0.09680820
2694.54390015,0.09661682
2696.47270752,0.09643973
2698.40151489,0.09634896
2700.33032227,0.09622733
2702.25912964,0.09602995
2704.18793701,0.09595348
2706.11674438,0.09571549
2708.04555176,0.09558886
2709.97435913,0.09547298
2711.90316650,0.09533172
2713.83197388,0.09524375
2715.76078125,0.09493573
2717.68958862,0.09479704
2719.61839600,0.09466827
2721.54720337,0.09457715
2723.47601074,0.09445362
2725.40481812,0.09433749
2727.33362549,0.09420294
2729.26243286,0.09396067
2731.19124023,0.09390099
2733.12004761,0.09369318
2735.04885498,0.09360623
2736.97766235,0.09338595
2738.90646973,0.09316966
2740.83527710,0.09314050
2742.76408447,0.09293786
2744.69289185,0.09288231
2746.62169922,0.09263596
2748.55050659,0.09254904
2750.47931396,0.09241560
2752.40812134,0.09207164
2754.33692871,0.09204984
2756.26573608,0.09193604
2758.19454346,0.09172514
2760.12335083,0.09151535
2762.05215820,0.09137498
2763.98096558,0.09127188
2765.90977295,0.09121822
2767.83858032,0.09099252
2769.76738770,0.09067759
2771.69619507,0.09063330
2773.62500244,0.09048653
2775.55380981,0.09021290
2777.48261719,0.09010923
2779.41142456,0.09014986
2781.34023193,0.08983083
2783.26903931,0.08961036
2785.19784668,0.08955406
2787.12665405,0.08933706
2789.05546143,0.08921272
2790.98426880,0.08886665
2792.91307617,0.08882456
2794.84188354,0.08877322
2796.77069092,0.08850343
2798.69949829,0.08832598
2800.62830566,0.08808053
2802.55711304,0.08797601
2804.48592041,0.08774354
2806.41472778,0.08772382
2808.34353516,0.08753267
2810.27234253,0.08715837
2812.20114990,0.08708610
2814.12995728,0.08697777
2816.05876465,0.08685127
2817.98757202,0.08653748
2819.91637939,0.08640768
2821.84518677,0.08623359
2823.77399414,0.08600608
2825.70280151,0.08590816
2827.63160889,0.08561930
2829.56041626,0.08545640
2831.48922363,0.08525975
2833.41803101,0.08503199
2835.34683838,0.08480205
2837.27564575,0.08462054
2839.20445312,0.08437045
2841.13326050,0.08408509
2843.06206787,0.08393683
2844.99087524,0.08349448
2846.91968262,0.08294541
2848.84848999,0.08257154
2850.77729736,0.08235484
2852.70610474,0.08211775
2854.63491211,0.08201690
2856.56371948,0.08188950
2858.49252686,0.08167762
2860.42133423,0.08161592
2862.35014160,0.08154733
2864.27894897,0.08149573
2866.20775635,0.08112784
2868.13656372,0.08111360
2870.06537109,0.08104395
2871.99417847,0.08073443
2873.92298584,0.08088028
2875.85179321,0.08052208
2877.78060059,0.08037183
2879.70940796,0.08032750
2881.63821533,0.08004534
2883.56702270,0.08005568
2885.49583008,0.07991320
2887.42463745,0.07975755
2889.35344482,0.07953377
2891.28225220,0.07933764
2893.21105957,0.07902424
2895.13986694,0.07883696
2897.06867432,0.07871337
2898.99748169,0.07842182
2900.92628906,0.07824235
2902.85509644,0.07787418
2904.78390381,0.07774203
2906.71271118,0.07748918
2908.64151855,0.07715043
2910.57032593,0.07697807
2912.49913330,0.07653932
2914.42794067,0.07602428
2916.35674805,0.07560154
2918.28555542,0.07556334
2920.21436279,0.07534403
2922.14317017,0.07506147
2924.07197754,0.07493748
2926.00078491,0.07471870
2927.92959229,0.07466429
2929.85839966,0.07462786
2931.78720703,0.07457981
2933.71601440,0.07442293
2935.64482178,0.07447633
2937.57362915,0.07436866
2939.50243652,0.07415592
2941.43124390,0.07425420
2943.36005127,0.07406966
2945.28885864,0.07394879
2947.21766602,0.07383014
2949.14647339,0.07363941
2951.07528076,0.07341769
2953.00408813,0.07318509
2954.93289551,0.07307017
2956.86170288,0.07270551
2958.79051025,0.07243051
2960.71931763,0.07230887
2962.64812500,0.07204714
2964.57693237,0.07175461
2966.50573975,0.07173885
2968.43454712,0.07167578
2970.36335449,0.07163282
2972.29216187,0.07181627
2974.22096924,0.07167417
2976.14977661,0.07166021
2978.07858398,0.07165548
2980.00739136,0.07152943
2981.93619873,0.07146978
2983.86500610,0.07128702
2985.79381348,0.07123095
2987.72262085,0.07107294
2989.65142822,0.07093272
2991.58023560,0.07075119
2993.50904297,0.07046176
2995.43785034,0.07035876
2997.36665771,0.07020733
2999.29546509,0.06999002
3001.22427246,0.06974499
3003.15307983,0.06947304
3005.08188721,0.06931849
3007.01069458,0.06925365
3008.93950195,0.06898449
3010.86830933,0.06861396
3012.79711670,0.06840271
3014.72592407,0.06827660
3016.65473145,0.06809234
3018.58353882,0.06789103
3020.51234619,0.06772967
3022.44115356,0.06751393
3024.36996094,0.06728531
3026.29876831,0.06695786
3028.22757568,0.06681140
3030.15638306,0.06656198
3032.08519043,0.06610987
3034.01399780,0.06603827
3035.94280518,0.06592268
3037.87161255,0.06574515
3039.80041992,0.06550457
3041.72922729,0.06520233
3043.65803467,0.06494140
3045.58684204,0.06478086
3047.51564941,0.06463033
3049.44445679,0.06417137
3051.37326416,0.06410719
3053.30207153,0.06396273
3055.23087891,0.06355126
3057.15968628,0.06338321
3059.08849365,0.06311035
3061.01730103,0.06290054
3062.94610840,0.06266321
3064.87491577,0.06233640
3066.80372314,0.06199773
3068.73253052,0.06200410
3070.66133789,0.06196381
3072.59014526,0.06158376
3074.51895264,0.06142475
3076.44776001,0.06114770
3078.37656738,0.06079682
3080.30537476,0.06048635
3082.23418213,0.06030726
3084.16298950,0.06004779
3086.09179687,0.05981378
3088.02060425,0.05970518
3089.94941162,0.05928798
3091.87821899,0.05915257
3093.80702637,0.05889178
3095.73583374,0.05851706
3097.66464111,0.05838954
3099.59344849,0.05810465
3101.52225586,0.05775035
3103.45106323,0.05744606
3105.37987061,0.05736062
3107.30867798,0.05704039
3109.23748535,0.05668576
3111.16629272,0.05648231
3113.09510010,0.05624723
3115.02390747,0.05589946
3116.95271484,0.05544908
3118.88152222,0.05533909
3120.81032959,0.05497811
3122.73913696,0.05469772
3124.66794434,0.05458825
3126.59675171,0.05411347
3128.52555908,0.05394330
3130.45436645,0.05375488
3132.38317383,0.05327840
3134.31198120,0.05304994
3136.24078857,0.05277852
3138.16959595,0.05237709
3140.09840332,0.05222660
3142.02721069,0.05182153
3143.95601807,0.05150770
3145.88482544,0.05131219
3147.81363281,0.05086405
3149.74244019,0.05070320
3151.67124756,0.05034288
3153.60005493,0.05008641
3155.52886230,0.04981906
3157.45766968,0.04940554
3159.38647705,0.04921415
3161.31528442,0.04887696
3163.24409180,0.04867301
3165.17289917,0.04819584
3167.10170654,0.04788685
3169.03051392,0.04776756
3170.95932129,0.04741170
3172.88812866,0.04721971
3174.81693604,0.04693193
3176.74574341,0.04665710
3178.67455078,0.04623729
3180.60335815,0.04603719
3182.53216553,0.04586885
3184.46097290,0.04546113
3186.38978027,0.04522982
3188.31858765,0.04497777
3190.24739502,0.04474574
3192.17620239,0.04444522
3194.10500977,0.04432213
3196.03381714,0.04403190
3197.96262451,0.04378840
3199.89143188,0.04369342
3201.82023926,0.04331324
3203.74904663,0.04320570
3205.67785400,0.04292603
3207.60666138,0.04263595
3209.53546875,0.04245095
3211.46427612,0.04224322
3213.39308350,0.04213956
3215.32189087,0.04187753
3217.25069824,0.04173181
3219.17950562,0.04155070
3221.10831299,0.04139910
3223.03712036,0.04125600
3224.96592773,0.04106503
3226.89473511,0.04087134
3228.82354248,0.04067407
3230.75234985,0.04052673
3232.68115723,0.04042986
3234.60996460,0.04032326
3236.53877197,0.04001572
3238.46757935,0.04006565
3240.39638672,0.03995960
3242.32519409,0.03973734
3244.25400146,0.03972697
3246.18280884,0.03945445
3248.11161621,0.03939298
3250.04042358,0.03928636
3251.96923096,0.03933626
3253.89803833,0.03923973
3255.82684570,0.03895294
3257.75565308,0.03904899
3259.68446045,0.03892221
3261.61326782,0.03884649
3263.54207520,0.03880774
3265.47088257,0.03872643
3267.39968994,0.03863911
3269.32849731,0.03847459
3271.25730469,0.03838002
3273.18611206,0.03827474
3275.11491943,0.03821320
3277.04372681,0.03819767
3278.97253418,0.03818476
3280.90134155,0.03799802
3282.83014893,0.03800023
3284.75895630,0.03798331
3286.68776367,0.03780663
3288.61657104,0.03773358
3290.54537842,0.03763013
3292.47418579,0.03756659
3294.40299316,0.03746592
3296.33180054,0.03751895
3298.26060791,0.03735502
3300.18941528,0.03730550
3302.11822266,0.03732418
3304.04703003,0.03704116
3305.97583740,0.03704531
3307.90464478,0.03694715
3309.83345215,0.03692294
3311.76225952,0.03678025
3313.69106689,0.03668476
3315.61987427,0.03678355
3317.54868164,0.03666902
3319.47748901,0.03667328
3321.40629639,0.03657586
3323.33510376,0.03655426
3325.26391113,0.03633840
3327.19271851,0.03628366
3329.12152588,0.03645239
3331.05033325,0.03625898
3332.97914062,0.03613616
3334.90794800,0.03604885
3336.83675537,0.03591707
3338.76556274,0.03576862
3340.69437012,0.03592324
3342.62317749,0.03576284
3344.55198486,0.03560670
3346.48079224,0.03582243
3348.40959961,0.03561869
3350.33840698,0.03550349
3352.26721436,0.03539983
3354.19602173,0.03542184
3356.12482910,0.03531087
3358.05363647,0.03519012
3359.98244385,0.03522462
3361.91125122,0.03506819
3363.84005859,0.03506909
3365.76886597,0.03497152
3367.69767334,0.03502002
3369.62648071,0.03484886
3371.55528809,0.03486065
3373.48409546,0.03491464
3375.41290283,0.03478390
3377.34171020,0.03498616
3379.27051758,0.03468946
3381.19932495,0.03468470
3383.12813232,0.03476758
3385.05693970,0.03466111
3386.98574707,0.03458620
3388.91455444,0.03457639
3390.84336182,0.03463126
3392.77216919,0.03445374
3394.70097656,0.03469785
3396.62978394,0.03452909
3398.55859131,0.03452799
3400.48739868,0.03451918
3402.41620605,0.03432224
3404.34501343,0.03465283
3406.27382080,0.03455394
3408.20262817,0.03456222
3410.13143555,0.03449500
3412.06024292,0.03462675
3413.98905029,0.03459698
3415.91785767,0.03459369
3417.84666504,0.03483086
3419.77547241,0.03446580
3421.70427979,0.03457479
3423.63308716,0.03455304
3425.56189453,0.03468471
3427.49070190,0.03464025
3429.41950928,0.03456114
3431.34831665,0.03481691
3433.27712402,0.03464542
3435.20593140,0.03490105
3437.13473877,0.03473911
3439.06354614,0.03489652
3440.99235352,0.03484467
3442.92116089,0.03467514
3444.84996826,0.03503177
3446.77877563,0.03452592
3448.70758301,0.03486340
3450.63639038,0.03520768
3452.56519775,0.03510996
3454.49400513,0.03528359
3456.42281250,0.03524810
3458.35161987,0.03532886
3460.28042725,0.03519426
3462.20923462,0.03517643
3464.13804199,0.03537516
3466.06684937,0.03552583
3467.99565674,0.03531980
3469.92446411,0.03546596
3471.85327148,0.03569014
3473.78207886,0.03553978
3475.71088623,0.03569335
3477.63969360,0.03583559
3479.56850098,0.03589645
3481.49730835,0.03561076
3483.42611572,0.03579394
3485.35492310,0.03604259
3487.28373047,0.03588468
3489.21253784,0.03603677
3491.14134521,0.03624051
3493.07015259,0.03643063
3494.99895996,0.03631448
3496.92776733,0.03632505
3498.85657471,0.03640988
3500.78538208,0.03662314
3502.71418945,0.03617544
3504.64299683,0.03609708
3506.57180420,0.03708863
3508.50061157,0.03665891
3510.42941895,0.03659803
3512.35822632,0.03695072
3514.28703369,0.03704338
3516.21584106,0.03732182
3518.14464844,0.03709545
3520.07345581,0.03735948
3522.00226318,0.03718734
3523.93107056,0.03679404
3525.85987793,0.03699044
3527.78868530,0.03719553
3529.71749268,0.03719296
3531.64630005,0.03756289
3533.57510742,0.03805238
3535.50391479,0.03767809
3537.43272217,0.03764703
3539.36152954,0.03802202
3541.29033691,0.03811523
3543.21914429,0.03795942
3545.14795166,0.03741322
3547.07675903,0.03694940
3549.00556641,0.03799018
3550.93437378,0.03845340
3552.86318115,0.03763791
3554.79198853,0.03845922
3556.72079590,0.03873812
3558.64960327,0.03864415
3560.57841064,0.03851336
3562.50721802,0.03836912
3564.43602539,0.03868075
3566.36483276,0.03637492
3568.29364014,0.03568344
3570.22244751,0.03841136
3572.15125488,0.03948458
3574.08006226,0.03899910
3576.00886963,0.03926922
3577.93767700,0.03926540
3579.86648437,0.03912339
3581.79529175,0.03937339
3583.72409912,0.03945320
3585.65290649,0.03886465
3587.58171387,0.03604501
3589.51052124,0.03699719
3591.43932861,0.04011570
3593.36813599,0.03900750
3595.29694336,0.03852541
3597.22575073,0.03923040
3599.15455811,0.03959272
3601.08336548,0.03929913
3603.01217285,0.03964857
3604.94098022,0.04046971
3606.86978760,0.03921013
3608.79859497,0.03714952
3610.72740234,0.03796553
3612.65620972,0.03889173
3614.58501709,0.03781497
3616.51382446,0.04040606
3618.44263184,0.03775418
3620.37143921,0.03647862
3622.30024658,0.04093296
3624.22905395,0.03993672
3626.15786133,0.04176304
3628.08666870,0.03592367
3630.01547607,0.03283790
3631.94428345,0.04080592
3633.87309082,0.03988454
3635.80189819,0.04058607
3637.73070557,0.04141721
3639.65951294,0.04084983
3641.58832031,0.04143971
3643.51712769,0.04088423
3645.44593506,0.04138792
3647.37474243,0.03756017
3649.30354980,0.03466617
3651.23235718,0.03518531
3653.16116455,0.04123401
3655.08997192,0.04096920
3657.01877930,0.03706743
3658.94758667,0.04221661
3660.87639404,0.04151887
3662.80520142,0.04208605
3664.73400879,0.04204588
3666.66281616,0.04165294
3668.59162354,0.04076207
3670.52043091,0.03377128
3672.44923828,0.04017623
3674.37804565,0.03873720
3676.30685303,0.03247297
3678.23566040,0.04017811
3680.16446777,0.04123439
3682.09327515,0.04121406
3684.02208252,0.04245336
3685.95088989,0.04182265
3687.87969727,0.03789772
3689.80850464,0.03504413
3691.73731201,0.03971384
3693.66611938,0.04076608
3695.59492676,0.04179389
3697.52373413,0.04183627
3699.45254150,0.04137574
3701.38134888,0.04056139
3703.31015625,0.03900836
3705.23896362,0.04262607
3707.16777100,0.04070147
3709.09657837,0.03985463
3711.02538574,0.03776667
3712.95419312,0.03534325
3714.88300049,0.04115371
3716.81180786,0.04051490
3718.74061523,0.04080155
3720.66942261,0.04018775
3722.59822998,0.03874983
3724.52703735,0.04018009
3726.45584473,0.03750217
3728.38465210,0.04038743
3730.31345947,0.03985245
3732.24226685,0.03681587
3734.17107422,0.03619623
3736.09988159,0.03445317
3738.02868896,0.03617776
3739.95749634,0.03897091
3741.88630371,0.04085400
3743.81511108,0.03228299
3745.74391846,0.03047459
3747.67272583,0.03897821
3749.60153320,0.03386794
3751.53034058,0.03123534
3753.45914795,0.03559311
3755.38795532,0.03817876
3757.31676270,0.03962339
3759.24557007,0.03692167
3761.17437744,0.03796984
3763.10318481,0.04015312
3765.03199219,0.03777698
3766.96079956,0.03839751
3768.88960693,0.03804529
3770.81841431,0.03640957
3772.74722168,0.03909570
3774.67602905,0.03930795
3776.60483643,0.03928696
3778.53364380,0.03824401
3780.46245117,0.03689282
3782.39125854,0.03910044
3784.32006592,0.03825258
3786.24887329,0.03804839
3788.17768066,0.03881218
3790.10648804,0.03865070
3792.03529541,0.03831377
3793.96410278,0.03891350
3795.89291016,0.03683929
3797.82171753,0.03628416
3799.75052490,0.03821756
3801.67933228,0.03078299
3803.60813965,0.03540391
3805.53694702,0.03842431
3807.46575439,0.03182508
3809.39456177,0.03802667
3811.32336914,0.03724039
3813.25217651,0.03832595
3815.18098389,0.03504480
3817.10979126,0.03090050
3819.03859863,0.03839029
3820.96740601,0.03165663
3822.89621338,0.03305237
3824.82502075,0.03829424
3826.75382812,0.03478393
3828.68263550,0.03719121
3830.61144287,0.03597878
3832.54025024,0.03474285
3834.46905762,0.03543065
3836.39786499,0.03386959
3838.32667236,0.03075413
3840.25547974,0.03308202
3842.18428711,0.03555959
3844.11309448,0.03397577
3846.04190186,0.03652571
3847.97070923,0.03606979
3849.89951660,0.03610245
3851.82832397,0.03275052
3853.75713135,0.02493946
3855.68593872,0.02902806
3857.61474609,0.03612966
3859.54355347,0.03522540
3861.47236084,0.03485187
3863.40116821,0.03424760
3865.32997559,0.03183216
3867.25878296,0.03527100
3869.18759033,0.03248636
3871.11639770,0.03015944
3873.04520508,0.03544561
3874.97401245,0.03282127
3876.90281982,0.03503988
3878.83162720,0.03570123
3880.76043457,0.03097593
3882.68924194,0.03516502
3884.61804932,0.03310917
3886.54685669,0.03054492
3888.47566406,0.03531542
3890.40447144,0.03354667
3892.33327881,0.03157960
3894.26208618,0.03442872
3896.19089355,0.03495217
3898.11970093,0.03342830
3900.04850830,0.03172218
3901.97731567,0.03137711
3903.90612305,0.03105877
3905.83493042,0.03148836
3907.76373779,0.03425501
3909.69254517,0.03414039
3911.62135254,0.03396145
3913.55015991,0.03445337
3915.47896728,0.03331651
3917.40777466,0.03256823
3919.33658203,0.03218511
3921.26538940,0.03341598
3923.19419678,0.03328864
3925.12300415,0.03261001
3927.05181152,0.03314793
3928.98061890,0.03330560
3930.90942627,0.03276370
3932.83823364,0.03176422
3934.76704102,0.03297258
3936.69584839,0.03321544
3938.62465576,0.03287993
3940.55346313,0.03326592
3942.48227051,0.03203262
3944.41107788,0.03232459
3946.33988525,0.03290045
3948.26869263,0.03207609
3950.19750000,0.03208799
3952.12630737,0.03253601
3954.05511475,0.03252307
3955.98392212,0.03246804
3957.91272949,0.03233258
3959.84153687,0.03226048
3961.77034424,0.03205120
3963.69915161,0.03199250
3965.62795898,0.03233220
3967.55676636,0.03196753
3969.48557373,0.03194031
3971.41438110,0.03190266
3973.34318848,0.03178691
3975.27199585,0.03176951
3977.20080322,0.03164302
3979.12961060,0.03196159
3981.05841797,0.03151348
3982.98722534,0.03155142
3984.91603271,0.03160822
3986.84484009,0.03145409
3988.77364746,0.03153331
3990.70245483,0.03114155
3992.63126221,0.03132389
3994.56006958,0.03118690
3996.48887695,0.03116406
3998.41768433,0.03114676
4000.34649170,0.03103772
4002.27529907,0.03106656
4004.20410645,0.03083497
4006.13291382,0.03088409
4008.06172119,0.03061007
4009.99052856,0.03070603
4011.91933594,0.03070274
4013.84814331,0.03053346
4015.77695068,0.03049620
4017.70575806,0.03041450
4019.63456543,0.03043760
4021.56337280,0.03021998
4023.49218018,0.03037626
4025.42098755,0.03012700
4027.34979492,0.03012720
4029.27860229,0.03021144
4031.20740967,0.02999369
4033.13621704,0.03007201
4035.06502441,0.02985864
4036.99383179,0.02993254
4038.92263916,0.02976628
4040.85144653,0.02972928
4042.78025391,0.02964859
4044.70906128,0.02948552
4046.63786865,0.02957618
4048.56667603,0.02937939
4050.49548340,0.02947507
4052.42429077,0.02932578
4054.35309814,0.02933038
4056.28190552,0.02923655
4058.21071289,0.02912390
4060.13952026,0.02919738
4062.06832764,0.02895916
4063.99713501,0.02906490
4065.92594238,0.02893873
4067.85474976,0.02883407
4069.78355713,0.02885507
4071.71236450,0.02885474
4073.64117187,0.02869231
4075.56997925,0.02857906
4077.49878662,0.02860860
4079.42759399,0.02838852
4081.35640137,0.02851536
4083.28520874,0.02837131
4085.21401611,0.02835513
4087.14282349,0.02828394
4089.07163086,0.02811579
4091.00043823,0.02828774
4092.92924561,0.02809899
4094.85805298,0.02807618
4096.78686035,0.02793401
4098.71566772,0.02791039
4100.64447510,0.02787597
4102.57328247,0.02776143
4104.50208984,0.02777760
4106.43089722,0.02765058
4108.35970459,0.02769224
4110.28851196,0.02751330
4112.21731934,0.02749958
4114.14612671,0.02740379
4116.07493408,0.02732725
4118.00374145,0.02738687
4119.93254883,0.02733906
4121.86135620,0.02733708
4123.79016357,0.02711142
4125.71897095,0.02719324
4127.64777832,0.02709870
4129.57658569,0.02697253
4131.50539307,0.02686002
4133.43420044,0.02676781
4135.36300781,0.02687814
4137.29181519,0.02659384
4139.22062256,0.02663648
4141.14942993,0.02676334
4143.07823730,0.02668884
4145.00704468,0.02650782
4146.93585205,0.02647028
4148.86465942,0.02640915
4150.79346680,0.02624339
4152.72227417,0.02641395
4154.65108154,0.02623850
4156.57988892,0.02617154
4158.50869629,0.02613199
4160.43750366,0.02603423
4162.36631103,0.02599511
4164.29511841,0.02594741
4166.22392578,0.02599736
4168.15273315,0.02576582
4170.08154053,0.02584725
4172.01034790,0.02581296
4173.93915527,0.02574191
4175.86796265,0.02568758
4177.79677002,0.02551426
4179.72557739,0.02559092
4181.65438477,0.02548000
4183.58319214,0.02540052
4185.51199951,0.02529018
4187.44080688,0.02533232
4189.36961426,0.02525170
4191.29842163,0.02521381
4193.22722900,0.02518593
4195.15603638,0.02498010
4197.08484375,0.02513553
4199.01365112,0.02495724
4200.94245850,0.02495209
4202.87126587,0.02488044
4204.80007324,0.02474213
4206.72888062,0.02482468
4208.65768799,0.02468378
4210.58649536,0.02472742
4212.51530273,0.02453902
4214.44411011,0.02457595
4216.37291748,0.02456415
4218.30172485,0.02440018
4220.23053223,0.02442222
4222.15933960,0.02436212
4224.08814697,0.02435105
4226.01695435,0.02414515
4227.94576172,0.02415489
4229.87456909,0.02407774
4231.80337646,0.02403736
4233.73218384,0.02397361
4235.66099121,0.02382220
4237.58979858,0.02388986
4239.51860596,0.02375135
4241.44741333,0.02387425
4243.37622070,0.02380348
4245.30502808,0.02370160
4247.23383545,0.02370654
4249.16264282,0.02352247
4251.09145020,0.02352567
4253.02025757,0.02353009
4254.94906494,0.02349725
4256.87787231,0.02331901
4258.80667969,0.02338846
4260.73548706,0.02330772
4262.66429443,0.02318642
4264.59310181,0.02326113
4266.52190918,0.02305419
4268.45071655,0.02302306
4270.37952393,0.02303167
4272.30833130,0.02311269
4274.23713867,0.02294705
4276.16594604,0.02279558
4278.09475342,0.02296011
4280.02356079,0.02287042
4281.95236816,0.02278144
4283.88117554,0.02269572
4285.80998291,0.02263471
4287.73879028,0.02255072
4289.66759766,0.02254777
4291.59640503,0.02250440
4293.52521240,0.02240412
4295.45401978,0.02242047
4297.38282715,0.02237931
4299.31163452,0.02234384
4301.24044189,0.02216662
4303.16924927,0.02216944
4305.09805664,0.02213651
4307.02686401,0.02202280
4308.95567139,0.02201013
4310.88447876,0.02188614
4312.81328613,0.02190126
4314.74209351,0.02186376
4316.67090088,0.02181049
4318.59970825,0.02180444
4320.52851562,0.02180538
4322.45732300,0.02170223
4324.38613037,0.02168667
4326.31493774,0.02168544
4328.24374512,0.02146858
4330.17255249,0.02153343
4332.10135986,0.02153854
4334.03016724,0.02145037
4335.95897461,0.02136077
4337.88778198,0.02132089
4339.81658936,0.02134191
4341.74539673,0.02124052
4343.67420410,0.02129527
4345.60301147,0.02126277
4347.53181885,0.02115882
4349.46062622,0.02104792
4351.38943359,0.02100817
4353.31824097,0.02091578
4355.24704834,0.02084813
4357.17585571,0.02090241
4359.10466309,0.02077866
4361.03347046,0.02074655
4362.96227783,0.02064095
4364.89108520,0.02063048
4366.81989258,0.02062606
4368.74869995,0.02058965
4370.67750732,0.02059133
4372.60631470,0.02045491
4374.53512207,0.02040889
4376.46392944,0.02027989
4378.39273682,0.02034275
4380.32154419,0.02028361
4382.25035156,0.02025563
4384.17915894,0.02026832
4386.10796631,0.02012931
4388.03677368,0.02023545
4389.96558105,0.02007172
4391.89438843,0.02002457
4393.82319580,0.01993698
4395.75200317,0.01990080
4397.68081055,0.01991658
4399.60961792,0.01977294
4401.53842529,0.01985658
4403.46723267,0.01967341
4405.39604004,0.01973026
4407.32484741,0.01969363
4409.25365478,0.01951625
4411.18246216,0.01955195
4413.11126953,0.01955418
4415.04007690,0.01952769
4416.96888428,0.01933572
4418.89769165,0.01945005
4420.82649902,0.01931770
4422.75530640,0.01927108
4424.68411377,0.01930698
4426.61292114,0.01914242
4428.54172852,0.01918406
4430.47053589,0.01903772
4432.39934326,0.01917150
4434.32815063,0.01906285
4436.25695801,0.01893402
4438.18576538,0.01900325
4440.11457275,0.01889522
4442.04338013,0.01898080
4443.97218750,0.01888335
4445.90099487,0.01881783
4447.82980225,0.01869759
4449.75860962,0.01866983
4451.68741699,0.01866363
4453.61622437,0.01861163
4455.54503174,0.01862206
4457.47383911,0.01843178
4459.40264648,0.01847026
4461.33145386,0.01843547
4463.26026123,0.01840362
4465.18906860,0.01835166
4467.11787598,0.01821865
4469.04668335,0.01820703
4470.97549072,0.01816860
4472.90429810,0.01816851
4474.83310547,0.01809916
4476.76191284,0.01811018
4478.69072021,0.01804798
4480.61952759,0.01803045
4482.54833496,0.01794647
4484.47714233,0.01789617
4486.40594971,0.01787143
4488.33475708,0.01772957
4490.26356445,0.01791153
4492.19237183,0.01778548
4494.12117920,0.01770998
4496.04998657,0.01769396
4497.97879395,0.01759819
4499.90760132,0.01759489
4501.83640869,0.01745967
4503.76521606,0.01764101
4505.69402344,0.01746495
4507.62283081,0.01735388
4509.55163818,0.01745280
4511.48044556,0.01732194
4513.40925293,0.01733215
4515.33806030,0.01727549
4517.26686768,0.01728215
4519.19567505,0.01719158
4521.12448242,0.01715392
4523.05328979,0.01710061
4524.98209717,0.01705249
4526.91090454,0.01706855
4528.83971191,0.01702339
4530.76851929,0.01698887
4532.69732666,0.01682940
4534.62613403,0.01691628
4536.55494141,0.01680036
4538.48374878,0.01677730
4540.41255615,0.01685177
4542.34136353,0.01670053
4544.27017090,0.01674407
4546.19897827,0.01659412
4548.12778564,0.01663244
4550.05659302,0.01655927
4551.98540039,0.01645081
4553.91420776,0.01656372
4555.84301514,0.01648042
4557.77182251,0.01644674
4559.70062988,0.01637909
4561.62943726,0.01635661
4563.55824463,0.01617592
4565.48705200,0.01616957
4567.41585937,0.01620221
4569.34466675,0.01607286
4571.27347412,0.01614838
4573.20228149,0.01604974
4575.13108887,0.01603461
4577.05989624,0.01597393
4578.98870361,0.01595448
4580.91751099,0.01594524
4582.84631836,0.01584919
4584.77512573,0.01591920
4586.70393311,0.01574770
4588.63274048,0.01573336
4590.56154785,0.01578909
4592.49035522,0.01569749
4594.41916260,0.01567736
4596.34796997,0.01562866
4598.27677734,0.01560185
4600.20558472,0.01557632
4602.13439209,0.01559271
4604.06319946,0.01545569
4605.99200684,0.01537734
4607.92081421,0.01545525
4609.84962158,0.01531571
4611.77842895,0.01527748
4613.70723633,0.01538194
4615.63604370,0.01525578
4617.56485107,0.01519413
4619.49365845,0.01525094
4621.42246582,0.01519354
4623.35127319,0.01507902
4625.28008057,0.01495220
4627.20888794,0.01500942
4629.13769531,0.01497269
4631.06650269,0.01492965
4632.99531006,0.01499660
4634.92411743,0.01489313
4636.85292480,0.01488626
4638.78173218,0.01482236
4640.71053955,0.01474701
4642.63934692,0.01471682
4644.56815430,0.01474314
4646.49696167,0.01472323
4648.42576904,0.01456256
4650.35457642,0.01464549
4652.28338379,0.01461483
4654.21219116,0.01458014
4656.14099853,0.01453670
4658.06980591,0.01438960
4659.99861328,0.01442184
4661.92742065,0.01437884
4663.85622803,0.01438573
4665.78503540,0.01435066
4667.71384277,0.01431675
4669.64265015,0.01432191
4671.57145752,0.01423511
4673.50026489,0.01423317
4675.42907227,0.01419167
4677.35787964,0.01413802
4679.28668701,0.01412181
4681.21549438,0.01405836
4683.14430176,0.01404239
4685.07310913,0.01411024
4687.00191650,0.01398708
4688.93072388,0.01385750
4690.85953125,0.01389999
4692.78833862,0.01390396
4694.71714600,0.01388568
4696.64595337,0.01381469
4698.57476074,0.01381541
4700.50356812,0.01374601
4702.43237549,0.01371211
4704.36118286,0.01372304
4706.28999023,0.01356917
4708.21879761,0.01359101
4710.14760498,0.01362992
4712.07641235,0.01361140
4714.00521973,0.01355850
4715.93402710,0.01346243
4717.86283447,0.01347483
4719.79164185,0.01350223
4721.72044922,0.01346043
4723.64925659,0.01338494
4725.57806396,0.01338392
4727.50687134,0.01332281
4729.43567871,0.01325076
4731.36448608,0.01322158
4733.29329346,0.01321481
4735.22210083,0.01320028
4737.15090820,0.01309844
4739.07971558,0.01305510
4741.00852295,0.01307801
4742.93733032,0.01307952
4744.86613770,0.01300093
4746.79494507,0.01299372
4748.72375244,0.01295355
4750.65255981,0.01291549
4752.58136719,0.01293023
4754.51017456,0.01288072
4756.43898193,0.01289906
4758.36778931,0.01279666
4760.29659668,0.01280973
4762.22540405,0.01277338
4764.15421143,0.01269516
4766.08301880,0.01280859
4768.01182617,0.01268680
4769.94063354,0.01263653
4771.86944092,0.01262220
4773.79824829,0.01256294
4775.72705566,0.01255568
4777.65586304,0.01254765
4779.58467041,0.01252467
4781.51347778,0.01243902
4783.44228516,0.01241176
4785.37109253,0.01232681
4787.29989990,0.01244590
4789.22870728,0.01246589
4791.15751465,0.01227859
4793.08632202,0.01229632
4795.01512939,0.01227641
4796.94393677,0.01222116
4798.87274414,0.01222284
4800.80155151,0.01224424
4802.73035889,0.01213446
4804.65916626,0.01215014
4806.58797363,0.01215324
4808.51678101,0.01206470
4810.44558838,0.01209628
4812.37439575,0.01193159
4814.30320312,0.01194032
4816.23201050,0.01194910
4818.16081787,0.01187103
4820.08962524,0.01189261
4822.01843262,0.01181374
4823.94723999,0.01182161
4825.87604736,0.01176124
4827.80485474,0.01171703
4829.73366211,0.01171658
4831.66246948,0.01167522
4833.59127686,0.01166457
4835.52008423,0.01164171
4837.44889160,0.01160042
4839.37769897,0.01159484
4841.30650635,0.01157438
4843.23531372,0.01149773
4845.16412109,0.01158099
4847.09292847,0.01156943
4849.02173584,0.01151915
4850.95054321,0.01147600
4852.87935059,0.01143082
4854.80815796,0.01141890
4856.73696533,0.01127646
4858.66577270,0.01139603
4860.59458008,0.01137169
4862.52338745,0.01120577
4864.45219482,0.01122564
4866.38100220,0.01119990
4868.30980957,0.01114600
4870.23861694,0.01111943
4872.16742432,0.01123598
4874.09623169,0.01106661
4876.02503906,0.01097784
4877.95384644,0.01109681
4879.88265381,0.01101619
4881.81146118,0.01103323
4883.74026855,0.01101857
4885.66907593,0.01097738
4887.59788330,0.01092936
4889.52669067,0.01095202
4891.45549805,0.01089342
4893.38430542,0.01074710
4895.31311279,0.01076603
4897.24192017,0.01077215
4899.17072754,0.01076474
4901.09953491,0.01068965
4903.02834228,0.01069371
4904.95714966,0.01065126
4906.88595703,0.01060823
4908.81476440,0.01065197
4910.74357178,0.01061139
4912.67237915,0.01062556
4914.60118652,0.01052062
4916.52999390,0.01047205
4918.45880127,0.01050428
4920.38760864,0.01048403
4922.31641602,0.01043677
4924.24522339,0.01040844
4926.17403076,0.01042302
4928.10283813,0.01035829
4930.03164551,0.01036596
4931.96045288,0.01030778
4933.88926025,0.01026495
4935.81806763,0.01024690
4937.74687500,0.01016873
4939.67568237,0.01015698
4941.60448975,0.01021754
4943.53329712,0.01022173
4945.46210449,0.01004392
4947.39091187,0.01005527
4949.31971924,0.01004936
4951.24852661,0.01004281
4953.17733398,0.01005927
4955.10614136,0.00996828
4957.03494873,0.01000242
4958.96375610,0.00992542
4960.89256348,0.00997698
4962.82137085,0.00990039
4964.75017822,0.00980976
4966.67898560,0.00995719
4968.60779297,0.00983680
4970.53660034,0.00976627
4972.46540771,0.00977300
4974.39421509,0.00974917
4976.32302246,0.00972981
4978.25182983,0.00973527
4980.18063721,0.00973125
4982.10944458,0.00971772
4984.03825195,0.00969744
4985.96705933,0.00962002
4987.89586670,0.00961072
4989.82467407,0.00946666
4991.75348145,0.00949598
4993.68228882,0.00951330
4995.61109619,0.00938463
4997.53990356,0.00946702
4999.46871094,0.00944170
5001.39751831,0.00940136
5003.32632568,0.00941539
5005.25513306,0.00943984
5007.18394043,0.00931657
5009.11274780,0.00925100
5011.04155518,0.00928250
5012.97036255,0.00923278
5014.89916992,0.00935016
5016.82797729,0.00921685
5018.75678467,0.00914521
5020.68559204,0.00922916
5022.61439941,0.00911631
5024.54320679,0.00909090
5026.47201416,0.00905916
5028.40082153,0.00903885
5030.32962891,0.00906705
5032.25843628,0.00904214
5034.18724365,0.00895392
5036.11605103,0.00901558
5038.04485840,0.00900397
5039.97366577,0.00885512
5041.90247314,0.00889559
5043.83128052,0.00894257
5045.76008789,0.00897923
5047.68889526,0.00887978
5049.61770264,0.00879000
5051.54651001,0.00879499
5053.47531738,0.00874829
5055.40412476,0.00874251
5057.33293213,0.00873966
5059.26173950,0.00874854
5061.19054687,0.00868850
5063.11935425,0.00868392
5065.04816162,0.00862790
5066.97696899,0.00857848
5068.90577637,0.00864706
5070.83458374,0.00859305
5072.76339111,0.00854012
5074.69219849,0.00854975
5076.62100586,0.00861069
5078.54981323,0.00852215
5080.47862061,0.00844094
5082.40742798,0.00848992
5084.33623535,0.00848043
5086.26504272,0.00850462
5088.19385010,0.00844085
5090.12265747,0.00833607
5092.05146484,0.00832976
5093.98027222,0.00839606
5095.90907959,0.00832140
5097.83788696,0.00824405
5099.76669434,0.00828494
5101.69550171,0.00824987
5103.62430908,0.00826191
5105.55311645,0.00823134
5107.48192383,0.00818133
5109.41073120,0.00817528
5111.33953857,0.00820180
5113.26834595,0.00812890
5115.19715332,0.00806463
5117.12596069,0.00812261
5119.05476807,0.00805555
5120.98357544,0.00807444
5122.91238281,0.00803649
5124.84119019,0.00801918
5126.76999756,0.00797382
5128.69880493,0.00783943
5130.62761230,0.00796030
5132.55641968,0.00793680
5134.48522705,0.00789442
5136.41403442,0.00787105
5138.34284180,0.00780539
5140.27164917,0.00784154
5142.20045654,0.00780124
5144.12926392,0.00776879
5146.05807129,0.00779362
5147.98687866,0.00784426
5149.91568603,0.00774142
5151.84449341,0.00773893
5153.77330078,0.00776596
5155.70210815,0.00765864
5157.63091553,0.00770940
5159.55972290,0.00762892
5161.48853027,0.00758528
5163.41733765,0.00767967
5165.34614502,0.00762516
5167.27495239,0.00758885
5169.20375977,0.00760446
5171.13256714,0.00754228
5173.06137451,0.00751472
5174.99018188,0.00747252
5176.91898926,0.00738383
5178.84779663,0.00744718
5180.77660400,0.00746304
5182.70541138,0.00743602
5184.63421875,0.00733106
5186.56302612,0.00729265
5188.49183350,0.00745495
5190.42064087,0.00739106
5192.34944824,0.00735478
5194.27825562,0.00736879
5196.20706299,0.00727791
5198.13587036,0.00725391
5200.06467773,0.00727156
5201.99348511,0.00730254
5203.92229248,0.00725609
5205.85109985,0.00711211
5207.77990723,0.00697780
5209.70871460,0.00710597
5211.63752197,0.00725809
5213.56632935,0.00719268
5215.49513672,0.00713686
5217.42394409,0.00715056
5219.35275146,0.00709406
5221.28155884,0.00706717
5223.21036621,0.00711313
5225.13917358,0.00691277
5227.06798096,0.00696115
5228.99678833,0.00709506
5230.92559570,0.00695689
5232.85440308,0.00697475
5234.78321045,0.00686476
5236.71201782,0.00693255
5238.64082520,0.00700874
5240.56963257,0.00687033
5242.49843994,0.00693229
5244.42724731,0.00686225
5246.35605469,0.00682882
5248.28486206,0.00674291
5250.21366943,0.00668469
5252.14247681,0.00685644
5254.07128418,0.00669056
5256.00009155,0.00660212
5257.92889893,0.00677066
5259.85770630,0.00677146
5261.78651367,0.00674156
5263.71532104,0.00659531
5265.64412842,0.00654588
5267.57293579,0.00669028
5269.50174316,0.00663398
5271.43055054,0.00661956
5273.35935791,0.00663905
5275.28816528,0.00660230
5277.21697266,0.00664566
5279.14578003,0.00656638
5281.07458740,0.00652674
5283.00339478,0.00653631
5284.93220215,0.00647177
5286.86100952,0.00651465
5288.78981689,0.00654554
5290.71862427,0.00642716
5292.64743164,0.00635696
5294.57623901,0.00646103
5296.50504639,0.00653290
5298.43385376,0.00641201
5300.36266113,0.00636130
5302.29146851,0.00643944
5304.22027588,0.00638121
5306.14908325,0.00633829
5308.07789062,0.00629628
5310.00669800,0.00625605
5311.93550537,0.00634272
5313.86431274,0.00633980
5315.79312012,0.00627047
5317.72192749,0.00626559
5319.65073486,0.00630470
5321.57954224,0.00618523
5323.50834961,0.00621680
5325.43715698,0.00628321
5327.36596436,0.00607157
5329.29477173,0.00613024
5331.22357910,0.00613969
5333.15238647,0.00611086
5335.08119385,0.00619180
5337.01000122,0.00604082
5338.93880859,0.00588573
5340.86761597,0.00595699
5342.79642334,0.00603501
5344.72523071,0.00579771
5346.65403809,0.00591628
5348.58284546,0.00604270
5350.51165283,0.00589881
5352.44046020,0.00593491
5354.36926758,0.00577017
5356.29807495,0.00589115
5358.22688232,0.00596942
5360.15568970,0.00585746
5362.08449707,0.00588920
5364.01330444,0.00580323
5365.94211182,0.00584971
5367.87091919,0.00584165
5369.79972656,0.00584778
5371.72853394,0.00582269
5373.65734131,0.00582847
5375.58614868,0.00577312
5377.51495605,0.00558033
5379.44376343,0.00572784
5381.37257080,0.00580298
5383.30137817,0.00579832
5385.23018555,0.00566198
5387.15899292,0.00552102
5389.08780029,0.00565790
5391.01660767,0.00567678
5392.94541504,0.00563343
5394.87422241,0.00554197
5396.80302978,0.00557032
5398.73183716,0.00561874
5400.66064453,0.00562305
5402.58945190,0.00562632
5404.51825928,0.00551701
5406.44706665,0.00560098
5408.37587402,0.00554717
5410.30468140,0.00547609
5412.23348877,0.00554518
5414.16229614,0.00532092
5416.09110352,0.00535072
5418.01991089,0.00552439
5419.94871826,0.00543594
5421.87752563,0.00549039
5423.80633301,0.00542740
5425.73514038,0.00541376
5427.66394775,0.00542873
5429.59275513,0.00516313
5431.52156250,0.00531841
5433.45036987,0.00534234
5435.37917725,0.00513287
5437.30798462,0.00534452
5439.23679199,0.00532368
5441.16559936,0.00520107
5443.09440674,0.00527797
5445.02321411,0.00522149
5446.95202148,0.00515649
5448.88082886,0.00520896
5450.80963623,0.00516013
5452.73844360,0.00523653
5454.66725098,0.00532350
5456.59605835,0.00516659
5458.52486572,0.00520854
5460.45367310,0.00509903
5462.38248047,0.00500519
5464.31128784,0.00511118
5466.24009521,0.00507713
5468.16890259,0.00514820
5470.09770996,0.00511307
5472.02651733,0.00517036
5473.95532471,0.00513214
5475.88413208,0.00490527
5477.81293945,0.00501378
5479.74174683,0.00505627
5481.67055420,0.00502181
5483.59936157,0.00502186
5485.52816895,0.00498229
5487.45697632,0.00500538
5489.38578369,0.00497859
5491.31459106,0.00496007
5493.24339844,0.00492500
5495.17220581,0.00487342
5497.10101318,0.00492414
5499.02982056,0.00489012
5500.95862793,0.00488232
5502.88743530,0.00492122
5504.81624268,0.00481976
5506.74505005,0.00486646
5508.67385742,0.00484206
5510.60266479,0.00480709
5512.53147217,0.00487333
5514.46027954,0.00477887
5516.38908691,0.00481995
5518.31789429,0.00481788
5520.24670166,0.00480197
5522.17550903,0.00477678
5524.10431641,0.00472108
5526.03312378,0.00476060
5527.96193115,0.00467452
5529.89073853,0.00475155
5531.81954590,0.00472378
5533.74835327,0.00464700
5535.67716064,0.00474328
5537.60596802,0.00468971
5539.53477539,0.00471844
5541.46358276,0.00469320
5543.39239014,0.00465876
5545.32119751,0.00471801
5547.25000488,0.00463077
5549.17881226,0.00461405
5551.10761963,0.00467327
5553.03642700,0.00456645
5554.96523437,0.00448735
5556.89404175,0.00456994
5558.82284912,0.00460233
5560.75165649,0.00455980
5562.68046387,0.00453236
5564.60927124,0.00452771
5566.53807861,0.00447863
5568.46688599,0.00445213
5570.39569336,0.00441127
5572.32450073,0.00444068
5574.25330811,0.00453371
5576.18211548,0.00444338
5578.11092285,0.00445649
5580.03973022,0.00445070
5581.96853760,0.00438422
5583.89734497,0.00438349
5585.82615234,0.00434093
5587.75495972,0.00436147
5589.68376709,0.00435732
5591.61257446,0.00439307
5593.54138184,0.00431828
5595.47018921,0.00430665
5597.39899658,0.00436365
5599.32780395,0.00427356
5601.25661133,0.00430694
5603.18541870,0.00428774
5605.11422607,0.00433920
5607.04303345,0.00433085
5608.97184082,0.00420566
5610.90064819,0.00422860
5612.82945557,0.00423717
5614.75826294,0.00424753
5616.68707031,0.00421825
5618.61587769,0.00424000
5620.54468506,0.00422173
5622.47349243,0.00417920
5624.40229980,0.00420782
5626.33110718,0.00418695
5628.25991455,0.00417312
5630.18872192,0.00414874
5632.11752930,0.00416380
5634.04633667,0.00415558
5635.97514404,0.00409049
5637.90395142,0.00403761
5639.83275879,0.00407639
5641.76156616,0.00404598
5643.69037353,0.00401808
5645.61918091,0.00406197
5647.54798828,0.00397934
5649.47679565,0.00405777
5651.40560303,0.00405578
5653.33441040,0.00399950
5655.26321777,0.00398415
5657.19202515,0.00396719
5659.12083252,0.00409681
5661.04963989,0.00398574
5662.97844727,0.00393161
5664.90725464,0.00393567
5666.83606201,0.00389640
5668.76486938,0.00389797
5670.69367676,0.00390321
5672.62248413,0.00396590
5674.55129150,0.00382989
5676.48009888,0.00387042
5678.40890625,0.00389752
5680.33771362,0.00383422
5682.26652100,0.00390857
5684.19532837,0.00386806
5686.12413574,0.00384755
5688.05294311,0.00381780
5689.98175049,0.00381629
5691.91055786,0.00374337
5693.83936523,0.00377070
5695.76817261,0.00380861
5697.69697998,0.00371224
5699.62578735,0.00380772
5701.55459473,0.00376932
5703.48340210,0.00373006
5705.41220947,0.00376192
5707.34101685,0.00370369
5709.26982422,0.00368923
5711.19863159,0.00370814
5713.12743896,0.00373139
5715.05624634,0.00372571
5716.98505371,0.00372596
5718.91386108,0.00365439
5720.84266846,0.00362949
5722.77147583,0.00364449
5724.70028320,0.00368063
5726.62909058,0.00364979
5728.55789795,0.00357065
5730.48670532,0.00364538
5732.41551270,0.00364127
5734.34432007,0.00362210
5736.27312744,0.00351910
5738.20193481,0.00346499
5740.13074219,0.00354036
5742.05954956,0.00351449
5743.98835693,0.00355197
5745.91716431,0.00350934
5747.84597168,0.00345848
5749.77477905,0.00348115
5751.70358643,0.00348530
5753.63239380,0.00347635
5755.56120117,0.00347771
5757.49000854,0.00349374
5759.41881592,0.00348403
5761.34762329,0.00347950
5763.27643066,0.00340487
5765.20523804,0.00342512
5767.13404541,0.00337313
5769.06285278,0.00331851
5770.99166016,0.00342256
5772.92046753,0.00335220
5774.84927490,0.00331262
5776.77808228,0.00334142
5778.70688965,0.00332437
5780.63569702,0.00332630
5782.56450439,0.00337138
5784.49331177,0.00334124
5786.42211914,0.00327447
5788.35092651,0.00328377
5790.27973389,0.00326363
5792.20854126,0.00327300
5794.13734863,0.00322928
5796.06615601,0.00324574
5797.99496338,0.00325597
5799.92377075,0.00326518
5801.85257812,0.00325607
5803.78138550,0.00314249
5805.71019287,0.00322139
5807.63900024,0.00320252
5809.56780762,0.00324324
5811.49661499,0.00320864
5813.42542236,0.00306863
5815.35422974,0.00323043
5817.28303711,0.00320338
5819.21184448,0.00318214
5821.14065186,0.00319486
5823.06945923,0.00312232
5824.99826660,0.00313723
5826.92707397,0.00310864
5828.85588135,0.00308016
5830.78468872,0.00309827
5832.71349609,0.00310236
5834.64230347,0.00301343
5836.57111084,0.00309981
5838.49991821,0.00307790
5840.42872559,0.00297526
5842.35753296,0.00306565
5844.28634033,0.00303114
5846.21514770,0.00302054
5848.14395508,0.00299052
5850.07276245,0.00303693
5852.00156982,0.00301414
5853.93037720,0.00291164
5855.85918457,0.00300840
5857.78799194,0.00299267
5859.71679932,0.00297542
5861.64560669,0.00295309
5863.57441406,0.00291751
5865.50322144,0.00288656
5867.43202881,0.00287051
5869.36083618,0.00291342
5871.28964355,0.00288221
5873.21845093,0.00292074
5875.14725830,0.00291899
5877.07606567,0.00292480
5879.00487305,0.00291226
5880.93368042,0.00282686
5882.86248779,0.00282222
5884.79129517,0.00284623
5886.72010254,0.00285381
5888.64890991,0.00276478
5890.57771728,0.00280417
5892.50652466,0.00286316
5894.43533203,0.00283761
5896.36413940,0.00284638
5898.29294678,0.00277461
5900.22175415,0.00278249
5902.15056152,0.00280148
5904.07936890,0.00276169
5906.00817627,0.00271755
5907.93698364,0.00275781
5909.86579102,0.00282751
5911.79459839,0.00275859
5913.72340576,0.00275481
5915.65221313,0.00272363
5917.58102051,0.00270316
5919.50982788,0.00273791
5921.43863525,0.00268858
5923.36744263,0.00271144
5925.29625000,0.00269575
5927.22505737,0.00268014
5929.15386475,0.00266903
5931.08267212,0.00264875
5933.01147949,0.00270231
5934.94028686,0.00264708
5936.86909424,0.00264299
5938.79790161,0.00260838
5940.72670898,0.00259321
5942.65551636,0.00267987
5944.58432373,0.00260055
5946.51313110,0.00259434
5948.44193848,0.00256469
5950.37074585,0.00256869
5952.29955322,0.00258861
5954.22836060,0.00251309
5956.15716797,0.00260507
5958.08597534,0.00257577
5960.01478271,0.00258267
5961.94359009,0.00257184
5963.87239746,0.00251526
5965.80120483,0.00255559
5967.73001221,0.00245771
5969.65881958,0.00250836
5971.58762695,0.00253419
5973.51643433,0.00256932
5975.44524170,0.00255080
5977.37404907,0.00242001
5979.30285645,0.00246462
5981.23166382,0.00245321
5983.16047119,0.00251855
5985.08927856,0.00248013
5987.01808594,0.00246918
5988.94689331,0.00249966
5990.87570068,0.00242597
5992.80450806,0.00250125
5994.73331543,0.00241382
5996.66212280,0.00245508
5998.59093018,0.00246422
6000.51973755,0.00234846
