399.26312622,0.00097526
401.19193359,0.00035153
403.12074097,0.00022231
405.04954834,0.00039499
406.97835571,0.00004915
408.90716309,0.00073623
410.83597046,0.00052396
412.76477783,0.00066322
414.69358521,0.00090676
416.62239258,0.00060873
418.55119995,0.00046700
420.48000732,0.00081700
422.40881470,0.00065529
424.33762207,0.00039707
426.26642944,0.00085460
428.19523682,0.00035133
430.12404419,0.00047099
432.05285156,0.00071174
433.98165894,0.00081523
435.91046631,0.00088359
437.83927368,0.00044996
439.76808105,0.00090109
441.69688843,0.00084147
443.62569580,0.00076191
445.55450317,0.00070373
447.48331055,0.00070846
449.41211792,0.00094625
451.34092529,0.00074464
453.26973267,0.00072585
455.19854004,0.00041075
457.12734741,0.00064387
459.05615479,0.00064436
460.98496216,0.00034898
462.91376953,0.00045304
464.84257690,0.00048325
466.77138428,0.00081037
468.70019165,0.00049785
470.62899902,0.00019028
472.55780640,0.00010346
474.48661377,0.00017476
476.41542114,0.00066433
478.34422852,0.00049711
480.27303589,0.00018863
482.20184326,0.00030946
484.13065063,0.00036920
486.05945801,0.00048341
487.98826538,0.00067992
489.91707275,0.00025680
491.84588013,0.00013117
493.77468750,0.00020863
495.70349487,-0.00013704
497.63230225,0.00009242
499.56110962,0.00008791
501.48991699,-0.00002104
503.41872437,0.00021297
505.34753174,0.00001402
507.27633911,-0.00019527
509.20514648,0.00001950
511.13395386,0.00034532
513.06276123,0.00024512
514.99156860,0.00011218
516.92037598,0.00058552
518.84918335,0.00084828
520.77799072,0.00010548
522.70679810,-0.00038325
524.63560547,0.00007511
526.56441284,0.00005446
528.49322021,0.00015007
530.42202759,0.00024025
532.35083496,0.00010914
534.27964233,0.00049681
536.20844971,0.00020890
538.13725708,0.00014905
540.06606445,0.00019157
541.99487183,-0.00001358
543.92367920,0.00014723
545.85248657,-0.00017203
547.78129395,0.00014371
549.71010132,0.00039453
551.63890869,0.00009453
553.56771606,0.00009417
555.49652344,-0.00039071
557.42533081,0.00029285
559.35413818,0.00071214
561.28294556,-0.00009791
563.21175293,0.00012681
565.14056030,0.00021907
567.06936768,0.00024276
568.99817505,0.00029523
570.92698242,-0.00001250
572.85578979,0.00012833
574.78459717,0.00017624
576.71340454,0.00007505
578.64221191,0.00024370
580.57101929,0.00015416
582.49982666,0.00002096
584.42863403,0.00011250
586.35744141,-0.00038996
588.28624878,-0.00007843
590.21505615,0.00042579
592.14386353,-0.00017657
594.07267090,-0.00000752
596.00147827,0.00010110
597.93028564,-0.00001106
599.85909302,0.00031517
601.78790039,0.00013818
603.71670776,-0.00002880
605.64551514,0.00004624
607.57432251,0.00034384
609.50312988,0.00034092
611.43193726,-0.00018875
613.36074463,-0.00003009
615.28955200,0.00013788
617.21835938,-0.00003522
619.14716675,0.00013375
621.07597412,-0.00003339
623.00478149,-0.00009423
624.93358887,0.00024955
626.86239624,0.00013176
628.79120361,0.00022815
630.72001099,0.00023812
632.64881836,0.00026988
634.57762573,0.00070843
636.50643311,0.00063340
638.43524048,0.00086084
640.36404785,0.00096692
642.29285522,0.00087436
644.22166260,0.00096692
646.15046997,0.00107420
648.07927734,0.00145618
650.00808472,0.00114350
651.93689209,0.00129190
653.86569946,0.00136784
655.79450684,0.00115957
657.72331421,0.00178216
659.65212158,0.00167312
661.58092896,0.00154687
663.50973633,0.00159870
665.43854370,0.00153717
667.36735107,0.00158059
669.29615845,0.00163089
671.22496582,0.00188885
673.15377319,0.00182677
675.08258057,0.00199807
677.01138794,0.00218589
678.94019531,0.00233273
680.86900269,0.00241543
682.79781006,0.00221764
684.72661743,0.00226389
686.65542480,0.00223207
688.58423218,0.00243574
690.51303955,0.00262893
692.44184692,0.00256364
694.37065430,0.00278930
696.29946167,0.00338137
698.22826904,0.00380386
700.15707642,0.00389031
702.08588379,0.00387395
704.01469116,0.00336574
705.94349854,0.00290053
707.87230591,0.00250914
709.80111328,0.00222718
711.72992065,0.00181040
713.65872803,0.00084922
715.58753540,0.00062093
717.51634277,0.00043150
719.44515015,0.00008152
721.37395752,0.00021230
723.30276489,0.00020418
725.23157227,0.00042929
727.16037964,0.00025292
729.08918701,-0.00011266
731.01799438,0.00030477
732.94680176,0.00045602
734.87560913,0.00017996
736.80441650,0.00010621
738.73322388,0.00038462
740.66203125,0.00015271
742.59083862,-0.00012461
744.51964600,0.00005170
746.44845337,0.00003108
748.37726074,0.00026331
750.30606812,0.00021363
752.23487549,0.00014129
754.16368286,0.00033514
756.09249023,0.00040487
758.02129761,0.00033321
759.95010498,0.00009047
761.87891235,0.00029494
763.80771973,0.00046862
765.73652710,0.00046374
767.66533447,0.00033228
769.59414185,0.00015448
771.52294922,0.00020681
773.45175659,0.00027975
775.38056396,0.00051546
777.30937134,0.00029648
779.23817871,0.00022974
781.16698608,0.00061204
783.09579346,0.00038725
785.02460083,0.00018910
786.95340820,0.00022653
788.88221558,0.00030090
790.81102295,0.00022886
792.73983032,0.00015238
794.66863770,0.00039339
796.59744507,0.00041058
798.52625244,0.00077986
800.45505981,0.00100941
802.38386719,0.00060328
804.31267456,0.00064551
806.24148193,0.00051987
808.17028931,0.00032018
810.09909668,0.00058952
812.02790405,0.00046681
813.95671143,0.00056549
815.88551880,0.00052595
817.81432617,0.00013764
819.74313354,0.00044521
821.67194092,0.00026347
823.60074829,0.00033634
825.52955566,0.00080977
827.45836304,0.00072161
829.38717041,0.00082951
831.31597778,0.00069896
833.24478516,0.00091200
835.17359253,0.00107489
837.10239990,0.00112501
839.03120728,0.00126998
840.96001465,0.00084213
842.88882202,0.00113335
844.81762939,0.00110206
846.74643677,0.00091234
848.67524414,0.00120472
850.60405151,0.00075411
852.53285889,0.00060686
854.46166626,0.00073094
856.39047363,0.00060319
858.31928101,0.00061323
860.24808838,0.00071430
862.17689575,0.00053208
864.10570313,0.00055111
866.03451050,0.00054803
867.96331787,0.00023816
869.89212524,0.00040300
871.82093262,0.00016327
873.74973999,0.00028984
875.67854736,0.00056902
877.60735474,0.00036183
879.53616211,0.00060224
881.46496948,0.00056063
883.39377686,0.00054966
885.32258423,0.00039988
887.25139160,0.00026638
889.18019897,0.00029725
891.10900635,0.00032655
893.03781372,0.00052396
894.96662109,0.00045659
896.89542847,0.00058853
898.82423584,0.00040313
900.75304321,0.00038976
902.68185059,0.00050640
904.61065796,0.00036161
906.53946533,0.00058487
908.46827271,0.00056179
910.39708008,0.00063677
912.32588745,0.00059223
914.25469482,0.00067307
916.18350220,0.00090275
918.11230957,0.00077134
920.04111694,0.00082209
921.96992432,0.00090235
923.89873169,0.00118913
925.82753906,0.00104701
927.75634644,0.00098652
929.68515381,0.00143482
931.61396118,0.00131385
933.54276855,0.00138935
935.47157593,0.00160951
937.40038330,0.00137004
939.32919067,0.00140256
941.25799805,0.00184253
943.18680542,0.00159854
945.11561279,0.00113210
947.04442017,0.00146986
948.97322754,0.00166100
950.90203491,0.00155058
952.83084229,0.00157881
954.75964966,0.00152787
956.68845703,0.00153219
958.61726440,0.00169107
960.54607178,0.00161757
962.47487915,0.00150175
964.40368652,0.00169153
966.33249390,0.00173220
968.26130127,0.00154185
970.19010864,0.00179346
972.11891602,0.00214304
974.04772339,0.00190709
975.97653076,0.00215339
977.90533813,0.00242645
979.83414551,0.00251661
981.76295288,0.00288112
983.69176025,0.00274772
985.62056763,0.00335731
987.54937500,0.00376492
989.47818237,0.00371339
991.40698975,0.00440716
993.33579712,0.00470343
995.26460449,0.00509062
997.19341187,0.00554478
999.12221924,0.00619531
1001.05102661,0.00663659
1002.97983398,0.00681106
1004.90864136,0.00760353
1006.83744873,0.00767738
1008.76625610,0.00796263
1010.69506348,0.00850470
1012.62387085,0.00876378
1014.55267822,0.00953116
1016.48148560,0.00976180
1018.41029297,0.01009832
1020.33910034,0.01078168
1022.26790771,0.01102093
1024.19671509,0.01130356
1026.12552246,0.01185634
1028.05432983,0.01238854
1029.98313721,0.01244045
1031.91194458,0.01273715
1033.84075195,0.01325320
1035.76955933,0.01319251
1037.69836670,0.01333604
1039.62717407,0.01350877
1041.55598145,0.01335064
1043.48478882,0.01330866
1045.41359619,0.01311512
1047.34240356,0.01283164
1049.27121094,0.01260764
1051.20001831,0.01245491
1053.12882568,0.01204857
1055.05763306,0.01165994
1056.98644043,0.01169993
1058.91524780,0.01131272
1060.84405518,0.01087891
1062.77286255,0.01061277
1064.70166992,0.01022037
1066.63047729,0.00991546
1068.55928467,0.00937673
1070.48809204,0.00891163
1072.41689941,0.00867895
1074.34570679,0.00835743
1076.27451416,0.00776569
1078.20332153,0.00732599
1080.13212891,0.00709123
1082.06093628,0.00667476
1083.98974365,0.00645675
1085.91855103,0.00611894
1087.84735840,0.00563590
1089.77616577,0.00555628
1091.70497314,0.00543713
1093.63378052,0.00495289
1095.56258789,0.00498777
1097.49139526,0.00505183
1099.42020264,0.00456370
1101.34901001,0.00464675
1103.27781738,0.00443592
1105.20662476,0.00430280
1107.13543213,0.00454213
1109.06423950,0.00393353
1110.99304687,0.00398800
1112.92185425,0.00422193
1114.85066162,0.00391230
1116.77946899,0.00400210
1118.70827637,0.00389781
1120.63708374,0.00406986
1122.56589111,0.00439736
1124.49469849,0.00407911
1126.42350586,0.00410605
1128.35231323,0.00436985
1130.28112061,0.00437449
1132.20992798,0.00447406
1134.13873535,0.00442951
1136.06754272,0.00461114
1137.99635010,0.00487153
1139.92515747,0.00498876
1141.85396484,0.00550584
1143.78277222,0.00582779
1145.71157959,0.00609181
1147.64038696,0.00669281
1149.56919434,0.00711855
1151.49800171,0.00742223
1153.42680908,0.00760804
1155.35561646,0.00770104
1157.28442383,0.00814791
1159.21323120,0.00856911
1161.14203857,0.00881281
1163.07084595,0.00914521
1164.99965332,0.00924696
1166.92846069,0.00978828
1168.85726807,0.01034755
1170.78607544,0.01035509
1172.71488281,0.01069773
1174.64369019,0.01102067
1176.57249756,0.01140420
1178.50130493,0.01192710
1180.43011230,0.01229953
1182.35891968,0.01280323
1184.28772705,0.01338180
1186.21653442,0.01391448
1188.14534180,0.01455107
1190.07414917,0.01533693
1192.00295654,0.01591850
1193.93176392,0.01659701
1195.86057129,0.01722223
1197.78937866,0.01787012
1199.71818604,0.01878281
1201.64699341,0.01955442
1203.57580078,0.02039656
1205.50460815,0.02107516
1207.43341553,0.02194830
1209.36222290,0.02271908
1211.29103027,0.02308044
1213.21983765,0.02362064
1215.14864502,0.02414639
1217.07745239,0.02476144
1219.00625977,0.02493606
1220.93506714,0.02523309
1222.86387451,0.02590972
1224.79268188,0.02599077
1226.72148926,0.02608341
1228.65029663,0.02640798
1230.57910400,0.02640704
1232.50791138,0.02626808
1234.43671875,0.02653397
1236.36552612,0.02645475
1238.29433350,0.02616044
1240.22314087,0.02623673
1242.15194824,0.02608987
1244.08075562,0.02606311
1246.00956299,0.02604228
1247.93837036,0.02584049
1249.86717773,0.02566666
1251.79598511,0.02536961
1253.72479248,0.02502466
1255.65359985,0.02484700
1257.58240723,0.02444992
1259.51121460,0.02385275
1261.44002197,0.02362762
1263.36882935,0.02317369
1265.29763672,0.02284508
1267.22644409,0.02272829
1269.15525146,0.02242124
1271.08405884,0.02214532
1273.01286621,0.02161841
1274.94167358,0.02111977
1276.87048096,0.02070253
1278.79928833,0.02056986
1280.72809570,0.02017467
1282.65690308,0.01951486
1284.58571045,0.01924592
1286.51451782,0.01880208
1288.44332520,0.01855244
1290.37213257,0.01835775
1292.30093994,0.01810535
1294.22974731,0.01789540
1296.15855469,0.01779822
1298.08736206,0.01795374
1300.01616943,0.01787573
1301.94497681,0.01786998
1303.87378418,0.01803575
1305.80259155,0.01835325
1307.73139893,0.01845769
1309.66020630,0.01867792
1311.58901367,0.01913148
1313.51782104,0.01938150
1315.44662842,0.01990192
1317.37543579,0.02016747
1319.30424316,0.02070618
1321.23305054,0.02137003
1323.16185791,0.02187891
1325.09066528,0.02271319
1327.01947266,0.02310250
1328.94828003,0.02369000
1330.87708740,0.02427280
1332.80589478,0.02478651
1334.73470215,0.02534021
1336.66350952,0.02521776
1338.59231689,0.02515540
1340.52112427,0.02565463
1342.44993164,0.02653501
1344.37873901,0.02668779
1346.30754639,0.02665844
1348.23635376,0.02684126
1350.16516113,0.02646211
1352.09396851,0.02631168
1354.02277588,0.02592036
1355.95158325,0.02567861
1357.88039062,0.02579500
1359.80919800,0.02521545
1361.73800537,0.02403350
1363.66681274,0.02377646
1365.59562012,0.02490684
1367.52442749,0.02441852
1369.45323486,0.02396701
1371.38204224,0.02429148
1373.31084961,0.02315730
1375.23965698,0.02323869
1377.16846436,0.02377838
1379.09727173,0.02369163
1381.02607910,0.02367725
1382.95488647,0.02371244
1384.88369385,0.02369217
1386.81250122,0.02246078
1388.74130859,0.02290774
1390.67011597,0.02475647
1392.59892334,0.02399439
1394.52773071,0.02264546
1396.45653809,0.02352009
1398.38534546,0.02350120
1400.31415283,0.02354566
1402.24296021,0.02516847
1404.17176758,0.02395096
1406.10057495,0.02399464
1408.02938232,0.02479709
1409.95818970,0.02407411
1411.88699707,0.02440713
1413.81580444,0.02341327
1415.74461182,0.02389249
1417.67341919,0.02172044
1419.60222656,0.01948191
1421.53103394,0.02235006
1423.45984131,0.02147582
1425.38864868,0.02076458
1427.31745605,0.02115828
1429.24626343,0.01947867
1431.17507080,0.01910671
1433.10387817,0.01931073
1435.03268555,0.01755038
1436.96149292,0.01523738
1438.89030029,0.01705021
1440.81910767,0.01727736
1442.74791504,0.01617577
1444.67672241,0.01691622
1446.60552979,0.01546232
1448.53433716,0.01563589
1450.46314453,0.01623340
1452.39195190,0.01660692
1454.32075928,0.01699499
1456.24956665,0.01414042
1458.17837402,0.01494507
1460.10718140,0.01949072
1462.03598877,0.02053829
1463.96479614,0.02042324
1465.89360352,0.02133179
1467.82241089,0.02401675
1469.75121826,0.02572907
1471.68002563,0.02316692
1473.60883301,0.02440195
1475.53764038,0.02779879
1477.46644775,0.02962031
1479.39525513,0.03228642
1481.32406250,0.03282450
1483.25286987,0.03486521
1485.18167725,0.03582203
1487.11048462,0.03510275
1489.03929199,0.03511336
1490.96809937,0.03522876
1492.89690674,0.04056505
1494.82571411,0.03977435
1496.75452148,0.03609298
1498.68332886,0.04046013
1500.61213623,0.04152720
1502.54094360,0.04452758
1504.46975098,0.04183654
1506.39855835,0.03113280
1508.32736572,0.03793439
1510.25617310,0.04353898
1512.18498047,0.04211518
1514.11378784,0.04546228
1516.04259521,0.04114043
1517.97140259,0.04302264
1519.90020996,0.04143224
1521.82901733,0.03612635
1523.75782471,0.04356430
1525.68663208,0.04259625
1527.61543945,0.04248641
1529.54424683,0.04667832
1531.47305420,0.04491143
1533.40186157,0.04133847
1535.33066895,0.04374922
1537.25947632,0.04640502
1539.18828369,0.03364107
1541.11709106,0.03522981
1543.04589844,0.04165037
1544.97470581,0.04020753
1546.90351318,0.04698735
1548.83232056,0.04378697
1550.76112793,0.04517226
1552.68993530,0.04457681
1554.61874268,0.04085740
1556.54755005,0.04315892
1558.47635742,0.03077403
1560.40516479,0.03366087
1562.33397217,0.04656620
1564.26277954,0.04390254
1566.19158691,0.04498933
1568.12039429,0.04455233
1570.04920166,0.03976796
1571.97800903,0.04541361
1573.90681641,0.04571252
1575.83562378,0.03636953
1577.76443115,0.04115493
1579.69323853,0.04610597
1581.62204590,0.04392126
1583.55085327,0.04494726
1585.47966064,0.04414269
1587.40846802,0.04443958
1589.33727539,0.04394239
1591.26608276,0.04384644
1593.19489014,0.04376751
1595.12369751,0.04338001
1597.05250488,0.04391313
1598.98131226,0.04327453
1600.91011963,0.04350827
1602.83892700,0.04270211
1604.76773437,0.04342339
1606.69654175,0.04285513
1608.62534912,0.04278343
1610.55415649,0.04266863
1612.48296387,0.04290859
1614.41177124,0.04338327
1616.34057861,0.03571770
1618.26938599,0.03905541
1620.19819336,0.04514018
1622.12700073,0.04028662
1624.05580811,0.04073802
1625.98461548,0.04299694
1627.91342285,0.04309977
1629.84223022,0.04298295
1631.77103760,0.04623280
1633.69984497,0.04292236
1635.62865234,0.03620645
1637.55745972,0.04233474
1639.48626709,0.04663256
1641.41507446,0.04605497
1643.34388184,0.04774703
1645.27268921,0.04364555
1647.20149658,0.03908152
1649.13030396,0.04869901
1651.05911133,0.04597711
1652.98791870,0.03071594
1654.91672607,0.04204952
1656.84553345,0.05217802
1658.77434082,0.05055995
1660.70314819,0.05225103
1662.63195557,0.04805431
1664.56076294,0.05107037
1666.48957031,0.05489004
1668.41837769,0.04852945
1670.34718506,0.04782590
1672.27599243,0.05407222
1674.20479980,0.05018080
1676.13360718,0.04903211
1678.06241455,0.05624697
1679.99122192,0.05449592
1681.92002930,0.05415776
1683.84883667,0.04448305
1685.77764404,0.04476279
1687.70645142,0.06030679
1689.63525879,0.05278344
1691.56406616,0.05833720
1693.49287354,0.05894862
1695.42168091,0.04398464
1697.35048828,0.05416415
1699.27929565,0.04759954
1701.20810303,0.04366207
1703.13691040,0.05852184
1705.06571777,0.05367285
1706.99452515,0.05441660
1708.92333252,0.05861413
1710.85213989,0.05658232
1712.78094727,0.05756646
1714.70975464,0.05338303
1716.63856201,0.04822400
1718.56736938,0.04760078
1720.49617676,0.05603806
1722.42498413,0.05757582
1724.35379150,0.05387734
1726.28259888,0.05831045
1728.21140625,0.05380172
1730.14021362,0.05455453
1732.06902100,0.05245550
1733.99782837,0.04064508
1735.92663574,0.05031598
1737.85544312,0.05468511
1739.78425049,0.04907360
1741.71305786,0.05329668
1743.64186523,0.05368107
1745.57067261,0.05376296
1747.49947998,0.05416400
1749.42828735,0.05162587
1751.35709473,0.04966092
1753.28590210,0.05478575
1755.21470947,0.05653691
1757.14351685,0.05189117
1759.07232422,0.05688333
1761.00113159,0.05335698
1762.92993896,0.05175187
1764.85874634,0.05835822
1766.78755371,0.05263505
1768.71636108,0.05324299
1770.64516846,0.05241933
1772.57397583,0.04746921
1774.50278320,0.05287413
1776.43159058,0.05532930
1778.36039795,0.05451167
1780.28920532,0.05387383
1782.21801270,0.05413281
1784.14682007,0.05404504
1786.07562744,0.05302086
1788.00443481,0.05538455
1789.93324219,0.05384328
1791.86204956,0.04884223
1793.79085693,0.05078708
1795.71966431,0.05424426
1797.64847168,0.05339641
1799.57727905,0.05248475
1801.50608643,0.05153535
1803.43489380,0.05315477
1805.36370117,0.05413320
1807.29250854,0.05331274
1809.22131592,0.05348672
1811.15012329,0.05195877
1813.07893066,0.05334244
1815.00773804,0.05349302
1816.93654541,0.05283799
1818.86535278,0.05310617
1820.79416016,0.05291442
1822.72296753,0.05353927
1824.65177490,0.05003133
1826.58058228,0.05186506
1828.50938965,0.05170771
1830.43819702,0.04864717
1832.36700439,0.05268453
1834.29581177,0.05204691
1836.22461914,0.05203673
1838.15342651,0.05179845
1840.08223389,0.05201108
1842.01104126,0.05185781
1843.93984863,0.04627214
1845.86865601,0.04921248
1847.79746338,0.05147843
1849.72627075,0.05044653
1851.65507812,0.05177143
1853.58388550,0.05068132
1855.51269287,0.05121957
1857.44150024,0.05066092
1859.37030762,0.05034266
1861.29911499,0.05072926
1863.22792236,0.04992494
1865.15672974,0.05034009
1867.08553711,0.04883271
1869.01434448,0.04688377
1870.94315186,0.04845848
1872.87195923,0.05002568
1874.80076660,0.04929878
1876.72957397,0.04953014
1878.65838135,0.04912224
1880.58718872,0.04881699
1882.51599609,0.04929145
1884.44480347,0.04842795
1886.37361084,0.04898872
1888.30241821,0.04797409
1890.23122559,0.04700923
1892.16003296,0.04850511
1894.08884033,0.04774933
1896.01764771,0.04758780
1897.94645508,0.04817516
1899.87526245,0.04761716
1901.80406982,0.04756401
1903.73287720,0.04743066
1905.66168457,0.04757105
1907.59049194,0.04709072
1909.51929932,0.04658971
1911.44810669,0.04685684
1913.37691406,0.04700695
1915.30572144,0.04703241
1917.23452881,0.04503764
1919.16333618,0.04516079
1921.09214355,0.04661084
1923.02095093,0.04524549
1924.94975830,0.04605589
1926.87856567,0.04630724
1928.80737305,0.04585847
1930.73618042,0.04640162
1932.66498779,0.04561887
1934.59379517,0.04605313
1936.52260254,0.04562928
1938.45140991,0.04552066
1940.38021729,0.04550770
1942.30902466,0.04413065
1944.23783203,0.04478893
1946.16663940,0.04520166
1948.09544678,0.04511235
1950.02425415,0.04518062
1951.95306152,0.04499561
1953.88186890,0.04489014
1955.81067627,0.04467577
1957.73948364,0.04478594
1959.66829102,0.04454865
1961.59709839,0.04457296
1963.52590576,0.04462501
1965.45471313,0.04420591
1967.38352051,0.04378927
1969.31232788,0.04399301
1971.24113525,0.04437952
1973.16994263,0.04410463
1975.09875000,0.04399086
1977.02755737,0.04386130
1978.95636475,0.04385217
1980.88517212,0.04373979
1982.81397949,0.04369372
1984.74278687,0.04362180
1986.67159424,0.04315881
1988.60040161,0.04324984
1990.52920898,0.04278419
1992.45801636,0.04241890
1994.38682373,0.04293093
1996.31563110,0.04297468
1998.24443848,0.04277738
2000.17324585,0.04276997
2002.10205322,0.04256640
2004.03086060,0.04230636
2005.95966797,0.04230257
2007.88847534,0.04214117
2009.81728271,0.04208336
2011.74609009,0.04189206
2013.67489746,0.04174932
2015.60370483,0.04158717
2017.53251221,0.04126664
2019.46131958,0.04149627
2021.39012695,0.04129871
2023.31893433,0.04125114
2025.24774170,0.04118621
2027.17654907,0.04083492
2029.10535645,0.04091930
2031.03416382,0.04065760
2032.96297119,0.04059314
2034.89177856,0.04034131
2036.82058594,0.04024119
2038.74939331,0.04044823
2040.67820068,0.04012495
2042.60700806,0.04007225
2044.53581543,0.03984738
2046.46462280,0.03968657
2048.39343018,0.03973930
2050.32223755,0.03954032
2052.25104492,0.03947662
2054.17985229,0.03932000
2056.10865967,0.03928932
2058.03746704,0.03924523
2059.96627441,0.03899544
2061.89508179,0.03898217
2063.82388916,0.03876776
2065.75269653,0.03858104
2067.68150391,0.03877760
2069.61031128,0.03867432
2071.53911865,0.03856933
2073.46792603,0.03847046
2075.39673340,0.03825937
2077.32554077,0.03828949
2079.25434814,0.03824238
2081.18315552,0.03818865
2083.11196289,0.03802222
2085.04077026,0.03788386
2086.96957764,0.03786625
2088.89838501,0.03769001
2090.82719238,0.03763992
2092.75599976,0.03764444
2094.68480713,0.03757919
2096.61361450,0.03749453
2098.54242187,0.03741825
2100.47122925,0.03726581
2102.40003662,0.03716979
2104.32884399,0.03713580
2106.25765137,0.03700784
2108.18645874,0.03699470
2110.11526611,0.03703003
2112.04407349,0.03697416
2113.97288086,0.03674881
2115.90168823,0.03659853
2117.83049561,0.03656683
2119.75930298,0.03658284
2121.68811035,0.03665213
2123.61691772,0.03658893
2125.54572510,0.03647661
2127.47453247,0.03637121
2129.40333984,0.03633691
2131.33214722,0.03621009
2133.26095459,0.03622629
2135.18976196,0.03623301
2137.11856934,0.03611496
2139.04737671,0.03612604
2140.97618408,0.03594967
2142.90499146,0.03601098
2144.83379883,0.03590893
2146.76260620,0.03566612
2148.69141357,0.03574241
2150.62022095,0.03574758
2152.54902832,0.03576698
2154.47783569,0.03564902
2156.40664307,0.03553785
2158.33545044,0.03540055
2160.26425781,0.03548798
2162.19306519,0.03548802
2164.12187256,0.03527353
2166.05067993,0.03539276
2167.97948730,0.03524462
2169.90829468,0.03515922
2171.83710205,0.03513768
2173.76590942,0.03517931
2175.69471680,0.03515112
2177.62352417,0.03490650
2179.55233154,0.03500465
2181.48113892,0.03493656
2183.40994629,0.03494148
2185.33875366,0.03485448
2187.26756104,0.03472548
2189.19636841,0.03475480
2191.12517578,0.03465698
2193.05398315,0.03469955
2194.98279053,0.03449202
2196.91159790,0.03443519
2198.84040527,0.03454020
2200.76921265,0.03456901
2202.69802002,0.03450949
2204.62682739,0.03431470
2206.55563477,0.03436162
2208.48444214,0.03432580
2210.41324951,0.03424956
2212.34205688,0.03415457
2214.27086426,0.03408953
2216.19967163,0.03403464
2218.12847900,0.03397831
2220.05728638,0.03400250
2221.98609375,0.03394999
2223.91490112,0.03386451
2225.84370850,0.03361663
2227.77251587,0.03367402
2229.70132324,0.03371411
2231.63013062,0.03354227
2233.55893799,0.03350732
2235.48774536,0.03343005
2237.41655273,0.03345974
2239.34536011,0.03338303
2241.27416748,0.03340589
2243.20297485,0.03328691
2245.13178223,0.03309230
2247.06058960,0.03313000
2248.98939697,0.03299527
2250.91820435,0.03302853
2252.84701172,0.03293624
2254.77581909,0.03279613
2256.70462646,0.03278263
2258.63343384,0.03254277
2260.56224121,0.03254568
2262.49104858,0.03261109
2264.41985596,0.03246897
2266.34866333,0.03248661
2268.27747070,0.03237872
2270.20627808,0.03225581
2272.13508545,0.03234969
2274.06389282,0.03227219
2275.99270020,0.03232528
2277.92150757,0.03220665
2279.85031494,0.03209186
2281.77912231,0.03218723
2283.70792969,0.03195799
2285.63673706,0.03192500
2287.56554443,0.03178935
2289.49435181,0.03173237
2291.42315918,0.03173737
2293.35196655,0.03149532
2295.28077393,0.03147085
2297.20958130,0.03139087
2299.13838867,0.03125665
2301.06719604,0.03097147
2302.99600342,0.03099437
2304.92481079,0.03084370
2306.85361816,0.03044062
2308.78242554,0.03038986
2310.71123291,0.02989034
2312.64004028,0.02960110
2314.56884766,0.02939818
2316.49765503,0.02899247
2318.42646240,0.02862719
2320.35526978,0.02813243
2322.28407715,0.02765427
2324.21288452,0.02716565
2326.14169189,0.02707307
2328.07049927,0.02672228
2329.99930664,0.02628187
2331.92811401,0.02606448
2333.85692139,0.02589014
2335.78572876,0.02585918
2337.71453613,0.02558879
2339.64334351,0.02573420
2341.57215088,0.02586652
2343.50095825,0.02598459
2345.42976562,0.02668155
2347.35857300,0.02782594
2349.28738037,0.02865738
2351.21618774,0.02772007
2353.14499512,0.02612716
2355.07380249,0.02504874
2357.00260986,0.02433519
2358.93141724,0.02383412
2360.86022461,0.02357450
2362.78903198,0.02354517
2364.71783936,0.02360816
2366.64664673,0.02407879
2368.57545410,0.02442165
2370.50426147,0.02497766
2372.43306885,0.02587748
2374.36187622,0.02657467
2376.29068359,0.02731009
2378.21949097,0.02789986
2380.14829834,0.02838236
2382.07710571,0.02873755
2384.00591309,0.02907296
2385.93472046,0.02911240
2387.86352783,0.02887291
2389.79233521,0.02890223
2391.72114258,0.02892532
2393.64994995,0.02889468
2395.57875732,0.02887675
2397.50756470,0.02884699
2399.43637207,0.02862422
2401.36517944,0.02854777
2403.29398682,0.02868666
2405.22279419,0.02859800
2407.15160156,0.02842807
2409.08040894,0.02830246
2411.00921631,0.02836553
2412.93802368,0.02826387
2414.86683105,0.02821904
2416.79563843,0.02830201
2418.72444580,0.02816843
2420.65325317,0.02814297
2422.58206055,0.02803342
2424.51086792,0.02795573
2426.43967529,0.02790551
2428.36848267,0.02788126
2430.29729004,0.02788558
2432.22609741,0.02776052
2434.15490479,0.02771209
2436.08371216,0.02752869
2438.01251953,0.02756419
2439.94132690,0.02770429
2441.87013428,0.02750089
2443.79894165,0.02743833
2445.72774902,0.02744735
2447.65655640,0.02733527
2449.58536377,0.02727911
2451.51417114,0.02716305
2453.44297852,0.02712727
2455.37178589,0.02712244
2457.30059326,0.02693506
2459.22940063,0.02705618
2461.15820801,0.02703225
2463.08701538,0.02679895
2465.01582275,0.02688709
2466.94463013,0.02681906
2468.87343750,0.02675983
2470.80224487,0.02658706
2472.73105225,0.02648684
2474.65985962,0.02660070
2476.58866699,0.02647344
2478.51747437,0.02655763
2480.44628174,0.02652716
2482.37508911,0.02630758
2484.30389648,0.02622321
2486.23270386,0.02612040
2488.16151123,0.02618015
2490.09031860,0.02618498
2492.01912598,0.02607249
2493.94793335,0.02612754
2495.87674072,0.02613249
2497.80554810,0.02596061
2499.73435547,0.02593363
2501.66316284,0.02586745
2503.59197021,0.02577819
2505.52077759,0.02579757
2507.44958496,0.02563166
2509.37839233,0.02555537
2511.30719971,0.02553274
2513.23600708,0.02551275
2515.16481445,0.02557802
2517.09362183,0.02543576
2519.02242920,0.02529256
2520.95123657,0.02537026
2522.88004395,0.02536400
2524.80885132,0.02514694
2526.73765869,0.02511754
2528.66646606,0.02518155
2530.59527344,0.02511535
2532.52408081,0.02506693
2534.45288818,0.02497387
2536.38169556,0.02486340
2538.31050293,0.02483525
2540.23931030,0.02484722
2542.16811768,0.02473307
2544.09692505,0.02470143
2546.02573242,0.02470880
2547.95453979,0.02459613
2549.88334717,0.02462640
2551.81215454,0.02453534
2553.74096191,0.02448970
2555.66976929,0.02450948
2557.59857666,0.02427674
2559.52738403,0.02423001
2561.45619141,0.02423817
2563.38499878,0.02413982
2565.31380615,0.02413654
2567.24261353,0.02403677
2569.17142090,0.02393611
2571.10022827,0.02402282
2573.02903564,0.02401366
2574.95784302,0.02392459
2576.88665039,0.02394238
2578.81545776,0.02386978
2580.74426514,0.02385426
2582.67307251,0.02376713
2584.60187988,0.02357297
2586.53068726,0.02361961
2588.45949463,0.02349476
2590.38830200,0.02349149
2592.31710937,0.02363896
2594.24591675,0.02337629
2596.17472412,0.02330380
2598.10353149,0.02328553
2600.03233887,0.02317090
2601.96114624,0.02323679
2603.88995361,0.02319659
2605.81876099,0.02319307
2607.74756836,0.02307841
2609.67637573,0.02298390
2611.60518311,0.02307292
2613.53399048,0.02302710
2615.46279785,0.02302566
2617.39160522,0.02287183
2619.32041260,0.02270975
2621.24921997,0.02279260
2623.17802734,0.02269950
2625.10683472,0.02256981
2627.03564209,0.02253174
2628.96444946,0.02245859
2630.89325684,0.02238929
2632.82206421,0.02231050
2634.75087158,0.02233464
2636.67967895,0.02234117
2638.60848633,0.02222612
2640.53729370,0.02223246
2642.46610107,0.02219307
2644.39490845,0.02212380
2646.32371582,0.02212705
2648.25252319,0.02203370
2650.18133057,0.02206412
2652.11013794,0.02201422
2654.03894531,0.02186480
2655.96775269,0.02185351
2657.89656006,0.02178560
2659.82536743,0.02174127
2661.75417480,0.02165511
2663.68298218,0.02156128
2665.61178955,0.02158252
2667.54059692,0.02157653
2669.46940430,0.02146983
2671.39821167,0.02143014
2673.32701904,0.02142992
2675.25582642,0.02133786
2677.18463379,0.02146086
2679.11344116,0.02137245
2681.04224854,0.02115175
2682.97105591,0.02119260
2684.89986328,0.02105836
2686.82867065,0.02110066
2688.75747803,0.02109227
2690.68628540,0.02088713
2692.61509277,0.02093386
2694.54390015,0.02089793
2696.47270752,0.02079453
2698.40151489,0.02075025
2700.33032227,0.02079130
2702.25912964,0.02078108
2704.18793701,0.02063480
2706.11674438,0.02053829
2708.04555176,0.02054435
2709.97435913,0.02067263
2711.90316650,0.02051150
2713.83197388,0.02026368
2715.76078125,0.02035021
2717.68958862,0.02037932
2719.61839600,0.02035546
2721.54720337,0.02030438
2723.47601074,0.02016757
2725.40481812,0.02013341
2727.33362549,0.02007936
2729.26243286,0.02003489
2731.19124023,0.02005458
2733.12004761,0.01995683
2735.04885498,0.01981318
2736.97766235,0.01978064
2738.90646973,0.01984389
2740.83527710,0.01982955
2742.76408447,0.01970110
2744.69289185,0.01958051
2746.62169922,0.01954726
2748.55050659,0.01956519
2750.47931396,0.01952905
2752.40812134,0.01947343
2754.33692871,0.01933951
2756.26573608,0.01934956
2758.19454346,0.01946749
2760.12335083,0.01931518
2762.05215820,0.01924948
2763.98096558,0.01921400
2765.90977295,0.01907407
2767.83858032,0.01907969
2769.76738770,0.01912801
2771.69619507,0.01914922
2773.62500244,0.01898653
2775.55380981,0.01884276
2777.48261719,0.01881280
2779.41142456,0.01871234
2781.34023193,0.01873265
2783.26903931,0.01872763
2785.19784668,0.01863729
2787.12665405,0.01859118
2789.05546143,0.01852046
2790.98426880,0.01849796
2792.91307617,0.01847503
2794.84188354,0.01845097
2796.77069092,0.01840501
2798.69949829,0.01823020
2800.62830566,0.01821150
2802.55711304,0.01828089
2804.48592041,0.01819864
2806.41472778,0.01808642
2808.34353516,0.01801147
2810.27234253,0.01802823
2812.20114990,0.01792497
2814.12995728,0.01786491
2816.05876465,0.01785922
2817.98757202,0.01769285
2819.91637939,0.01773346
2821.84518677,0.01764310
2823.77399414,0.01755848
2825.70280151,0.01765999
2827.63160889,0.01741323
2829.56041626,0.01733509
2831.48922363,0.01752711
2833.41803101,0.01746736
2835.34683838,0.01721751
2837.27564575,0.01714959
2839.20445312,0.01721846
2841.13326050,0.01714358
2843.06206787,0.01709690
2844.99087524,0.01701519
2846.91968262,0.01688570
2848.84848999,0.01677494
2850.77729736,0.01667489
2852.70610474,0.01671413
2854.63491211,0.01665444
2856.56371948,0.01653818
2858.49252686,0.01655012
2860.42133423,0.01644404
2862.35014160,0.01642511
2864.27894897,0.01651769
2866.20775635,0.01635532
2868.13656372,0.01628717
2870.06537109,0.01631362
2871.99417847,0.01624694
2873.92298584,0.01618857
2875.85179321,0.01615696
2877.78060059,0.01620155
2879.70940796,0.01607151
2881.63821533,0.01607275
2883.56702270,0.01607582
2885.49583008,0.01587788
2887.42463745,0.01588653
2889.35344482,0.01579480
2891.28225220,0.01572045
2893.21105957,0.01573263
2895.13986694,0.01572577
2897.06867432,0.01563174
2898.99748169,0.01554198
2900.92628906,0.01558500
2902.85509644,0.01539734
2904.78390381,0.01539590
2906.71271118,0.01536151
2908.64151855,0.01524665
2910.57032593,0.01528145
2912.49913330,0.01509482
2914.42794067,0.01506265
2916.35674805,0.01495399
2918.28555542,0.01487921
2920.21436279,0.01490215
2922.14317017,0.01475017
2924.07197754,0.01475909
2926.00078491,0.01473598
2927.92959229,0.01465958
2929.85839966,0.01458918
2931.78720703,0.01465388
2933.71601440,0.01471906
2935.64482178,0.01464610
2937.57362915,0.01465831
2939.50243652,0.01458822
2941.43124390,0.01451420
2943.36005127,0.01449869
2945.28885864,0.01449372
2947.21766602,0.01446297
2949.14647339,0.01441754
2951.07528076,0.01430963
2953.00408813,0.01423433
2954.93289551,0.01419677
2956.86170288,0.01410262
2958.79051025,0.01422394
2960.71931763,0.01406059
2962.64812500,0.01390772
2964.57693237,0.01402787
2966.50573975,0.01390777
2968.43454712,0.01401172
2970.36335449,0.01398239
2972.29216187,0.01380739
2974.22096924,0.01393725
2976.14977661,0.01390086
2978.07858398,0.01377415
2980.00739136,0.01389367
2981.93619873,0.01390622
2983.86500610,0.01375792
2985.79381348,0.01377780
2987.72262085,0.01358350
2989.65142822,0.01359205
2991.58023560,0.01376382
2993.50904297,0.01352891
2995.43785034,0.01358197
2997.36665771,0.01358733
2999.29546509,0.01344775
3001.22427246,0.01349646
3003.15307983,0.01339396
3005.08188721,0.01338748
3007.01069458,0.01340965
3008.93950195,0.01329450
3010.86830933,0.01321846
3012.79711670,0.01320686
3014.72592407,0.01312486
3016.65473145,0.01297861
3018.58353882,0.01300371
3020.51234619,0.01305929
3022.44115356,0.01295324
3024.36996094,0.01287539
3026.29876831,0.01288746
3028.22757568,0.01282923
3030.15638306,0.01273832
3032.08519043,0.01275333
3034.01399780,0.01276604
3035.94280518,0.01268888
3037.87161255,0.01265946
3039.80041992,0.01255404
3041.72922729,0.01246771
3043.65803467,0.01247144
3045.58684204,0.01232974
3047.51564941,0.01242143
3049.44445679,0.01250319
3051.37326416,0.01226619
3053.30207153,0.01222144
3055.23087891,0.01227809
3057.15968628,0.01218949
3059.08849365,0.01205866
3061.01730103,0.01206900
3062.94610840,0.01210581
3064.87491577,0.01204706
3066.80372314,0.01199348
3068.73253052,0.01192258
3070.66133789,0.01190310
3072.59014526,0.01191924
3074.51895264,0.01187746
3076.44776001,0.01186492
3078.37656738,0.01185764
3080.30537476,0.01169941
3082.23418213,0.01167683
3084.16298950,0.01171158
3086.09179687,0.01164933
3088.02060425,0.01166988
3089.94941162,0.01155489
3091.87821899,0.01156836
3093.80702637,0.01151884
3095.73583374,0.01140952
3097.66464111,0.01147693
3099.59344849,0.01133391
3101.52225586,0.01137817
3103.45106323,0.01133741
3105.37987061,0.01124287
3107.30867798,0.01125587
3109.23748535,0.01109274
3111.16629272,0.01118079
3113.09510010,0.01103732
3115.02390747,0.01092455
3116.95271484,0.01106800
3118.88152222,0.01098321
3120.81032959,0.01094357
3122.73913696,0.01087692
3124.66794434,0.01095307
3126.59675171,0.01087636
3128.52555908,0.01071617
3130.45436645,0.01080279
3132.38317383,0.01068089
3134.31198120,0.01071441
3136.24078857,0.01069698
3138.16959595,0.01060352
3140.09840332,0.01064667
3142.02721069,0.01047014
3143.95601807,0.01057363
3145.88482544,0.01064991
3147.81363281,0.01046811
3149.74244019,0.01044248
3151.67124756,0.01039847
3153.60005493,0.01035328
3155.52886230,0.01035895
3157.45766968,0.01039527
3159.38647705,0.01026765
3161.31528442,0.01023278
3163.24409180,0.01025967
3165.17289917,0.01014758
3167.10170654,0.01015236
3169.03051392,0.01006868
3170.95932129,0.01024743
3172.88812866,0.01023892
3174.81693604,0.00999587
3176.74574341,0.01009199
3178.67455078,0.00992700
3180.60335815,0.01000153
3182.53216553,0.01012121
3184.46097290,0.00991343
3186.38978027,0.00990705
3188.31858765,0.01000042
3190.24739502,0.01002624
3192.17620239,0.00986809
3194.10500977,0.00988120
3196.03381714,0.00990169
3197.96262451,0.00984442
3199.89143188,0.00984868
3201.82023926,0.00986441
3203.74904663,0.00996685
3205.67785400,0.00992656
3207.60666138,0.00987646
3209.53546875,0.00982962
3211.46427612,0.00991036
3213.39308350,0.00982311
3215.32189087,0.00977200
3217.25069824,0.00991562
3219.17950562,0.00973512
3221.10831299,0.00986606
3223.03712036,0.00988997
3224.96592773,0.00987892
3226.89473511,0.00993853
3228.82354248,0.00975928
3230.75234985,0.00992344
3232.68115723,0.00987780
3234.60996460,0.00986686
3236.53877197,0.00998446
3238.46757935,0.01000185
3240.39638672,0.00994470
3242.32519409,0.00985084
3244.25400146,0.01000378
3246.18280884,0.00994643
3248.11161621,0.01002178
3250.04042358,0.00995733
3251.96923096,0.00990018
3253.89803833,0.01007187
3255.82684570,0.00987039
3257.75565308,0.00997036
3259.68446045,0.00999875
3261.61326782,0.00993921
3263.54207520,0.01011088
3265.47088257,0.01012699
3267.39968994,0.01014534
3269.32849731,0.01007535
3271.25730469,0.01005051
3273.18611206,0.01006664
3275.11491943,0.01005162
3277.04372681,0.01009985
3278.97253418,0.01020620
3280.90134155,0.01020941
3282.83014893,0.01014037
3284.75895630,0.01022069
3286.68776367,0.01020248
3288.61657104,0.01018544
3290.54537842,0.01027249
3292.47418579,0.01029304
3294.40299316,0.01029064
3296.33180054,0.01029758
3298.26060791,0.01027524
3300.18941528,0.01031104
3302.11822266,0.01039823
3304.04703003,0.01037551
3305.97583740,0.01037382
3307.90464478,0.01036255
3309.83345215,0.01029294
3311.76225952,0.01032531
3313.69106689,0.01043573
3315.61987427,0.01044554
3317.54868164,0.01047087
3319.47748901,0.01051417
3321.40629639,0.01047941
3323.33510376,0.01054510
3325.26391113,0.01050570
3327.19271851,0.01052698
3329.12152588,0.01055383
3331.05033325,0.01049590
3332.97914062,0.01056711
3334.90794800,0.01047762
3336.83675537,0.01052784
3338.76556274,0.01070216
3340.69437012,0.01069564
3342.62317749,0.01067801
3344.55198486,0.01077108
3346.48079224,0.01072632
3348.40959961,0.01064063
3350.33840698,0.01078149
3352.26721436,0.01078984
3354.19602173,0.01086236
3356.12482910,0.01081042
3358.05363647,0.01075966
3359.98244385,0.01089518
3361.91125122,0.01090241
3363.84005859,0.01096992
3365.76886597,0.01087293
3367.69767334,0.01097395
3369.62648071,0.01098674
3371.55528809,0.01094575
3373.48409546,0.01117805
3375.41290283,0.01112068
3377.34171020,0.01114694
3379.27051758,0.01112709
3381.19932495,0.01117653
3383.12813232,0.01124508
3385.05693970,0.01114879
3386.98574707,0.01121109
3388.91455444,0.01130001
3390.84336182,0.01139964
3392.77216919,0.01134520
3394.70097656,0.01142783
3396.62978394,0.01148162
3398.55859131,0.01146285
3400.48739868,0.01154478
3402.41620605,0.01158753
3404.34501343,0.01169358
3406.27382080,0.01166154
3408.20262817,0.01172601
3410.13143555,0.01181596
3412.06024292,0.01192800
3413.98905029,0.01185773
3415.91785767,0.01177507
3417.84666504,0.01198784
3419.77547241,0.01194174
3421.70427979,0.01201925
3423.63308716,0.01209537
3425.56189453,0.01215548
3427.49070190,0.01221522
3429.41950928,0.01210604
3431.34831665,0.01215153
3433.27712402,0.01229643
3435.20593140,0.01239985
3437.13473877,0.01221672
3439.06354614,0.01238238
3440.99235352,0.01249197
3442.92116089,0.01239560
3444.84996826,0.01258670
3446.77877563,0.01250345
3448.70758301,0.01257687
3450.63639038,0.01268240
3452.56519775,0.01277740
3454.49400513,0.01288307
3456.42281250,0.01279642
3458.35161987,0.01290666
3460.28042725,0.01301202
3462.20923462,0.01295112
3464.13804199,0.01290326
3466.06684937,0.01299734
3467.99565674,0.01300831
3469.92446411,0.01319617
3471.85327148,0.01327387
3473.78207886,0.01313975
3475.71088623,0.01326541
3477.63969360,0.01337442
3479.56850098,0.01341510
3481.49730835,0.01319340
3483.42611572,0.01330607
3485.35492310,0.01351484
3487.28373047,0.01344135
3489.21253784,0.01359394
3491.14134521,0.01367659
3493.07015259,0.01375195
3494.99895996,0.01365974
3496.92776733,0.01365874
3498.85657471,0.01371955
3500.78538208,0.01375461
3502.71418945,0.01376950
3504.64299683,0.01376116
3506.57180420,0.01404111
3508.50061157,0.01398497
3510.42941895,0.01405758
3512.35822632,0.01415067
3514.28703369,0.01421682
3516.21584106,0.01435381
3518.14464844,0.01418263
3520.07345581,0.01429299
3522.00226318,0.01413989
3523.93107056,0.01410378
3525.85987793,0.01417729
3527.78868530,0.01415821
3529.71749268,0.01444218
3531.64630005,0.01447026
3533.57510742,0.01468906
3535.50391479,0.01475581
3537.43272217,0.01459652
3539.36152954,0.01474127
3541.29033691,0.01479347
3543.21914429,0.01469835
3545.14795166,0.01446413
3547.07675903,0.01439586
3549.00556641,0.01490569
3550.93437378,0.01500550
3552.86318115,0.01462108
3554.79198853,0.01494125
3556.72079590,0.01506822
3558.64960327,0.01502066
3560.57841064,0.01501610
3562.50721802,0.01493926
3564.43602539,0.01506188
3566.36483276,0.01419596
3568.29364014,0.01395648
3570.22244751,0.01500588
3572.15125488,0.01533526
3574.08006226,0.01523407
3576.00886963,0.01526136
3577.93767700,0.01529036
3579.86648437,0.01539911
3581.79529175,0.01535097
3583.72409912,0.01537719
3585.65290649,0.01519085
3587.58171387,0.01404850
3589.51052124,0.01448619
3591.43932861,0.01578099
3593.36813599,0.01529843
3595.29694336,0.01508824
3597.22575073,0.01535602
3599.15455811,0.01541868
3601.08336548,0.01539336
3603.01217285,0.01560432
3604.94098022,0.01590366
3606.86978760,0.01538460
3608.79859497,0.01462041
3610.72740234,0.01488627
3612.65620972,0.01516080
3614.58501709,0.01495020
3616.51382446,0.01590436
3618.44263184,0.01472688
3620.37143921,0.01434001
3622.30024658,0.01603438
3624.22905395,0.01574699
3626.15786133,0.01651175
3628.08666870,0.01402576
3630.01547607,0.01294423
3631.94428345,0.01617466
3633.87309082,0.01572812
3635.80189819,0.01609955
3637.73070557,0.01645370
3639.65951294,0.01620271
3641.58832031,0.01654101
3643.51712769,0.01637692
3645.44593506,0.01639777
3647.37474243,0.01492614
3649.30354980,0.01388990
3651.23235718,0.01401175
3653.16116455,0.01659539
3655.08997192,0.01637725
3657.01877930,0.01486620
3658.94758667,0.01709737
3660.87639404,0.01665698
3662.80520142,0.01703287
3664.73400879,0.01696533
3666.66281616,0.01686697
3668.59162354,0.01641017
3670.52043091,0.01353978
3672.44923828,0.01644780
3674.37804565,0.01554939
3676.30685303,0.01313936
3678.23566040,0.01643990
3680.16446777,0.01665277
3682.09327515,0.01670181
3684.02208252,0.01720853
3685.95088989,0.01694392
3687.87969727,0.01521159
3689.80850464,0.01405732
3691.73731201,0.01594539
3693.66611938,0.01639717
3695.59492676,0.01671709
3697.52373413,0.01655257
3699.45254150,0.01647530
3701.38134888,0.01599593
3703.31015625,0.01544897
3705.23896362,0.01692455
3707.16777100,0.01600840
3709.09657837,0.01562541
3711.02538574,0.01471529
3712.95419312,0.01385150
3714.88300049,0.01600604
3716.81180786,0.01579310
3718.74061523,0.01582058
3720.66942261,0.01543688
3722.59822998,0.01500278
3724.52703735,0.01532981
3726.45584473,0.01428435
3728.38465210,0.01543030
3730.31345947,0.01514469
3732.24226685,0.01397039
3734.17107422,0.01364064
3736.09988159,0.01296644
3738.02868896,0.01364340
3739.95749634,0.01474315
3741.88630371,0.01526147
3743.81511108,0.01189385
3745.74391846,0.01133213
3747.67272583,0.01445689
3749.60153320,0.01245712
3751.53034058,0.01154219
3753.45914795,0.01316447
3755.38795532,0.01406583
3757.31676270,0.01447518
3759.24557007,0.01341390
3761.17437744,0.01395515
3763.10318481,0.01466028
3765.03199219,0.01370948
3766.96079956,0.01389703
3768.88960693,0.01366491
3770.81841431,0.01321728
3772.74722168,0.01399303
3774.67602905,0.01390483
3776.60483643,0.01397733
3778.53364380,0.01356163
3780.46245117,0.01314286
3782.39125854,0.01390836
3784.32006592,0.01345978
3786.24887329,0.01333462
3788.17768066,0.01367627
3790.10648804,0.01352301
3792.03529541,0.01337409
3793.96410278,0.01362921
3795.89291016,0.01280598
3797.82171753,0.01270545
3799.75052490,0.01320766
3801.67933228,0.01053541
3803.60813965,0.01231541
3805.53694702,0.01316598
3807.46575439,0.01097346
3809.39456177,0.01319626
3811.32336914,0.01271775
3813.25217651,0.01318734
3815.18098389,0.01198157
3817.10979126,0.01048029
3819.03859863,0.01312609
3820.96740601,0.01072298
3822.89621338,0.01122175
3824.82502075,0.01293378
3826.75382812,0.01168856
3828.68263550,0.01260023
3830.61144287,0.01204404
3832.54025024,0.01165120
3834.46905762,0.01196770
3836.39786499,0.01126140
3838.32667236,0.01018764
3840.25547974,0.01105984
3842.18428711,0.01184536
3844.11309448,0.01124401
3846.04190186,0.01203335
3847.97070923,0.01186744
3849.89951660,0.01187882
3851.82832397,0.01074366
3853.75713135,0.00820144
3855.68593872,0.00956581
3857.61474609,0.01190729
3859.54355347,0.01151774
3861.47236084,0.01134519
3863.40116821,0.01119785
3865.32997559,0.01036611
3867.25878296,0.01149918
3869.18759033,0.01049813
3871.11639770,0.00973026
3873.04520508,0.01145109
3874.97401245,0.01056250
3876.90281982,0.01135999
3878.83162720,0.01146308
3880.76043457,0.00995645
3882.68924194,0.01129564
3884.61804932,0.01059390
3886.54685669,0.00978949
3888.47566406,0.01126628
3890.40447144,0.01077661
3892.33327881,0.01007892
3894.26208618,0.01097237
3896.19089355,0.01108197
3898.11970093,0.01057719
3900.04850830,0.01009724
3901.97731567,0.00990930
3903.90612305,0.00987609
3905.83493042,0.00989507
3907.76373779,0.01073948
3909.69254517,0.01076893
3911.62135254,0.01064746
3913.55015991,0.01081685
3915.47896728,0.01042564
3917.40777466,0.01023614
3919.33658203,0.01006393
3921.26538940,0.01037763
3923.19419678,0.01033398
3925.12300415,0.01014677
3927.05181152,0.01031186
3928.98061890,0.01027188
3930.90942627,0.01018837
3932.83823364,0.00985297
3934.76704102,0.01015042
3936.69584839,0.01021259
3938.62465576,0.01007954
3940.55346313,0.01023881
3942.48227051,0.00981771
3944.41107788,0.00988487
3946.33988525,0.01006239
3948.26869263,0.00975977
3950.19750000,0.00978469
3952.12630737,0.00995046
3954.05511475,0.00985415
3955.98392212,0.00990196
3957.91272949,0.00994189
3959.84153687,0.00976280
3961.77034424,0.00968722
3963.69915161,0.00971875
3965.62795898,0.00981349
3967.55676636,0.00968920
3969.48557373,0.00964810
3971.41438110,0.00963761
3973.34318848,0.00961545
3975.27199585,0.00960611
3977.20080322,0.00951574
3979.12961060,0.00955572
3981.05841797,0.00936623
3982.98722534,0.00950155
3984.91603271,0.00955677
3986.84484009,0.00934756
3988.77364746,0.00939772
3990.70245483,0.00930004
3992.63126221,0.00930045
3994.56006958,0.00922126
3996.48887695,0.00922007
3998.41768433,0.00926441
4000.34649170,0.00925288
4002.27529907,0.00925679
4004.20410645,0.00916010
4006.13291382,0.00911989
4008.06172119,0.00900779
4009.99052856,0.00909433
4011.91933594,0.00901715
4013.84814331,0.00901213
4015.77695068,0.00907083
4017.70575806,0.00892543
4019.63456543,0.00900900
4021.56337280,0.00887113
4023.49218018,0.00885824
4025.42098755,0.00886205
4027.34979492,0.00879823
4029.27860229,0.00883251
4031.20740967,0.00872989
4033.13621704,0.00875453
4035.06502441,0.00874463
4036.99383179,0.00872898
4038.92263916,0.00862102
4040.85144653,0.00864886
4042.78025391,0.00870016
4044.70906128,0.00857795
4046.63786865,0.00856601
4048.56667603,0.00850759
4050.49548340,0.00854141
4052.42429077,0.00851955
4054.35309814,0.00850234
4056.28190552,0.00844346
4058.21071289,0.00840628
4060.13952026,0.00848307
4062.06832764,0.00836885
4063.99713501,0.00841496
4065.92594238,0.00843463
4067.85474976,0.00830426
4069.78355713,0.00826162
4071.71236450,0.00827419
4073.64117187,0.00826223
4075.56997925,0.00819476
4077.49878662,0.00815774
4079.42759399,0.00813605
4081.35640137,0.00810709
4083.28520874,0.00808279
4085.21401611,0.00817479
4087.14282349,0.00816127
4089.07163086,0.00812846
4091.00043823,0.00809517
4092.92924561,0.00799475
4094.85805298,0.00801717
4096.78686035,0.00798573
4098.71566772,0.00800154
4100.64447510,0.00794129
4102.57328247,0.00786438
4104.50208984,0.00778423
4106.43089722,0.00777229
4108.35970459,0.00788143
4110.28851196,0.00778058
4112.21731934,0.00779592
4114.14612671,0.00774370
4116.07493408,0.00766660
4118.00374145,0.00765247
4119.93254883,0.00767499
4121.86135620,0.00779065
4123.79016357,0.00766853
4125.71897095,0.00765810
4127.64777832,0.00765877
4129.57658569,0.00765620
4131.50539307,0.00759839
4133.43420044,0.00746467
4135.36300781,0.00754470
4137.29181519,0.00754230
4139.22062256,0.00748890
4141.14942993,0.00737952
4143.07823730,0.00739030
4145.00704468,0.00736849
4146.93585205,0.00730705
4148.86465942,0.00740303
4150.79346680,0.00731998
4152.72227417,0.00728634
4154.65108154,0.00729379
4156.57988892,0.00731568
4158.50869629,0.00728884
4160.43750366,0.00718709
4162.36631103,0.00722957
4164.29511841,0.00724657
4166.22392578,0.00719455
4168.15273315,0.00714757
4170.08154053,0.00712392
4172.01034790,0.00708914
4173.93915527,0.00710887
4175.86796265,0.00704990
4177.79677002,0.00701003
4179.72557739,0.00702024
4181.65438477,0.00697886
4183.58319214,0.00699704
4185.51199951,0.00693681
4187.44080688,0.00700245
4189.36961426,0.00695049
4191.29842163,0.00685346
4193.22722900,0.00690828
4195.15603638,0.00683171
4197.08484375,0.00683295
4199.01365112,0.00682360
4200.94245850,0.00685766
4202.87126587,0.00682969
4204.80007324,0.00676296
4206.72888062,0.00674406
4208.65768799,0.00667067
4210.58649536,0.00668961
4212.51530273,0.00664387
4214.44411011,0.00668382
4216.37291748,0.00663045
4218.30172485,0.00651782
4220.23053223,0.00660761
4222.15933960,0.00663098
4224.08814697,0.00658490
4226.01695435,0.00659500
4227.94576172,0.00661715
4229.87456909,0.00648201
4231.80337646,0.00643988
4233.73218384,0.00641485
4235.66099121,0.00641465
4237.58979858,0.00649799
4239.51860596,0.00645170
4241.44741333,0.00645317
4243.37622070,0.00638312
4245.30502808,0.00640716
4247.23383545,0.00634848
4249.16264282,0.00626326
4251.09145020,0.00636540
4253.02025757,0.00634018
4254.94906494,0.00639937
4256.87787231,0.00625070
4258.80667969,0.00613233
4260.73548706,0.00626628
4262.66429443,0.00626564
4264.59310181,0.00625603
4266.52190918,0.00618923
4268.45071655,0.00623656
4270.37952393,0.00622863
4272.30833130,0.00606618
4274.23713867,0.00611346
4276.16594604,0.00613796
4278.09475342,0.00605585
4280.02356079,0.00605303
4281.95236816,0.00599286
4283.88117554,0.00593904
4285.80998291,0.00599825
4287.73879028,0.00594326
4289.66759766,0.00587035
4291.59640503,0.00596480
4293.52521240,0.00598418
4295.45401978,0.00587560
4297.38282715,0.00591094
4299.31163452,0.00587680
4301.24044189,0.00582067
4303.16924927,0.00588379
4305.09805664,0.00581090
4307.02686401,0.00582708
4308.95567139,0.00576907
4310.88447876,0.00575720
4312.81328613,0.00581946
4314.74209351,0.00566082
4316.67090088,0.00563194
4318.59970825,0.00565971
4320.52851562,0.00575366
4322.45732300,0.00567780
4324.38613037,0.00556995
4326.31493774,0.00566143
4328.24374512,0.00557889
4330.17255249,0.00556887
4332.10135986,0.00555527
4334.03016724,0.00554160
4335.95897461,0.00555327
4337.88778198,0.00554268
4339.81658936,0.00552778
4341.74539673,0.00546686
4343.67420410,0.00552459
4345.60301147,0.00550271
4347.53181885,0.00548104
4349.46062622,0.00542464
4351.38943359,0.00541973
4353.31824097,0.00547409
4355.24704834,0.00546299
4357.17585571,0.00550358
4359.10466309,0.00534648
4361.03347046,0.00535127
4362.96227783,0.00538160
4364.89108520,0.00528724
4366.81989258,0.00537476
4368.74869995,0.00533523
4370.67750732,0.00528999
4372.60631470,0.00525600
4374.53512207,0.00522325
4376.46392944,0.00531594
4378.39273682,0.00528627
4380.32154419,0.00517143
4382.25035156,0.00520926
4384.17915894,0.00519653
4386.10796631,0.00514222
4388.03677368,0.00524654
4389.96558105,0.00522332
4391.89438843,0.00516666
4393.82319580,0.00518316
4395.75200317,0.00511809
4397.68081055,0.00505281
4399.60961792,0.00508242
4401.53842529,0.00504925
4403.46723267,0.00498899
4405.39604004,0.00507840
4407.32484741,0.00501145
4409.25365478,0.00495332
4411.18246216,0.00500293
4413.11126953,0.00499971
4415.04007690,0.00499447
4416.96888428,0.00496711
4418.89769165,0.00497032
4420.82649902,0.00488560
4422.75530640,0.00488679
4424.68411377,0.00484867
4426.61292114,0.00479946
4428.54172852,0.00489068
4430.47053589,0.00482966
4432.39934326,0.00486928
4434.32815063,0.00489226
4436.25695801,0.00481050
4438.18576538,0.00480436
4440.11457275,0.00478316
4442.04338013,0.00477016
4443.97218750,0.00476464
4445.90099487,0.00474110
4447.82980225,0.00468984
4449.75860962,0.00468342
4451.68741699,0.00466536
4453.61622437,0.00470892
4455.54503174,0.00473147
4457.47383911,0.00465276
4459.40264648,0.00461608
4461.33145386,0.00459937
4463.26026123,0.00463474
4465.18906860,0.00458509
4467.11787598,0.00457667
4469.04668335,0.00456636
4470.97549072,0.00444936
4472.90429810,0.00451726
4474.83310547,0.00455959
4476.76191284,0.00443208
4478.69072021,0.00446419
4480.61952759,0.00456698
4482.54833496,0.00442230
4484.47714233,0.00435683
4486.40594971,0.00445390
4488.33475708,0.00449031
4490.26356445,0.00440233
4492.19237183,0.00434256
4494.12117920,0.00444228
4496.04998657,0.00435708
4497.97879395,0.00436339
4499.90760132,0.00442908
4501.83640869,0.00437175
4503.76521606,0.00443265
4505.69402344,0.00443248
4507.62283081,0.00436113
4509.55163818,0.00426937
4511.48044556,0.00433804
4513.40925293,0.00433673
4515.33806030,0.00423729
4517.26686768,0.00422920
4519.19567505,0.00417163
4521.12448242,0.00425975
4523.05328979,0.00429240
4524.98209717,0.00420548
4526.91090454,0.00410474
4528.83971191,0.00414318
4530.76851929,0.00423703
4532.69732666,0.00417963
4534.62613403,0.00416581
4536.55494141,0.00415850
4538.48374878,0.00420285
4540.41255615,0.00413015
4542.34136353,0.00407939
4544.27017090,0.00406523
4546.19897827,0.00403222
4548.12778564,0.00409302
4550.05659302,0.00400113
4551.98540039,0.00402101
4553.91420776,0.00396560
4555.84301514,0.00398862
4557.77182251,0.00408076
4559.70062988,0.00395974
4561.62943726,0.00403353
4563.55824463,0.00396395
4565.48705200,0.00389648
4567.41585937,0.00395775
4569.34466675,0.00395517
4571.27347412,0.00394479
4573.20228149,0.00386820
4575.13108887,0.00390463
4577.05989624,0.00391510
4578.98870361,0.00388342
4580.91751099,0.00390013
4582.84631836,0.00392153
4584.77512573,0.00385907
4586.70393311,0.00378970
4588.63274048,0.00380160
4590.56154785,0.00378252
4592.49035522,0.00376307
4594.41916260,0.00374447
4596.34796997,0.00375559
4598.27677734,0.00369968
4600.20558472,0.00374708
4602.13439209,0.00379276
4604.06319946,0.00369801
4605.99200684,0.00372159
4607.92081421,0.00367672
4609.84962158,0.00364753
4611.77842895,0.00367446
4613.70723633,0.00366330
4615.63604370,0.00359830
4617.56485107,0.00358532
4619.49365845,0.00368403
4621.42246582,0.00367768
4623.35127319,0.00364175
4625.28008057,0.00360104
4627.20888794,0.00361190
4629.13769531,0.00358104
4631.06650269,0.00354741
4632.99531006,0.00355114
4634.92411743,0.00352022
4636.85292480,0.00355346
4638.78173218,0.00353388
4640.71053955,0.00354732
4642.63934692,0.00350451
4644.56815430,0.00352590
4646.49696167,0.00352867
4648.42576904,0.00345274
4650.35457642,0.00349805
4652.28338379,0.00342838
4654.21219116,0.00351795
4656.14099853,0.00351200
4658.06980591,0.00340518
4659.99861328,0.00347920
4661.92742065,0.00348724
4663.85622803,0.00352622
4665.78503540,0.00344285
4667.71384277,0.00335511
4669.64265015,0.00335207
4671.57145752,0.00340404
4673.50026489,0.00341193
4675.42907227,0.00332040
4677.35787964,0.00333725
4679.28668701,0.00330745
4681.21549438,0.00330391
4683.14430176,0.00331236
4685.07310913,0.00327516
4687.00191650,0.00329966
4688.93072388,0.00330331
4690.85953125,0.00322998
4692.78833862,0.00324427
4694.71714600,0.00324760
4696.64595337,0.00326956
4698.57476074,0.00338996
4700.50356812,0.00317141
4702.43237549,0.00315400
4704.36118286,0.00325889
4706.28999023,0.00314195
4708.21879761,0.00318256
4710.14760498,0.00313227
4712.07641235,0.00317561
4714.00521973,0.00319931
4715.93402710,0.00318664
4717.86283447,0.00313845
4719.79164185,0.00309684
4721.72044922,0.00316290
4723.64925659,0.00303914
4725.57806396,0.00316516
4727.50687134,0.00316234
4729.43567871,0.00305641
4731.36448608,0.00310825
4733.29329346,0.00303962
4735.22210083,0.00305588
4737.15090820,0.00299839
4739.07971558,0.00308034
4741.00852295,0.00305768
4742.93733032,0.00298158
4744.86613770,0.00303154
4746.79494507,0.00289108
4748.72375244,0.00297068
4750.65255981,0.00306012
4752.58136719,0.00301855
4754.51017456,0.00304723
4756.43898193,0.00301771
4758.36778931,0.00296734
4760.29659668,0.00294623
4762.22540405,0.00292850
4764.15421143,0.00300270
4766.08301880,0.00300527
4768.01182617,0.00286174
4769.94063354,0.00290510
4771.86944092,0.00290597
4773.79824829,0.00289997
4775.72705566,0.00292601
4777.65586304,0.00290595
4779.58467041,0.00289643
4781.51347778,0.00281258
4783.44228516,0.00290019
4785.37109253,0.00283483
4787.29989990,0.00274654
4789.22870728,0.00282643
4791.15751465,0.00280509
4793.08632202,0.00277536
4795.01512939,0.00275346
4796.94393677,0.00282380
4798.87274414,0.00279397
4800.80155151,0.00281549
4802.73035889,0.00286199
4804.65916626,0.00281529
4806.58797363,0.00279050
4808.51678101,0.00273005
4810.44558838,0.00279259
4812.37439575,0.00276959
4814.30320312,0.00272758
4816.23201050,0.00270161
4818.16081787,0.00275259
4820.08962524,0.00278197
4822.01843262,0.00267778
4823.94723999,0.00273027
4825.87604736,0.00262749
4827.80485474,0.00260359
4829.73366211,0.00263413
4831.66246948,0.00263931
4833.59127686,0.00272075
4835.52008423,0.00262650
4837.44889160,0.00260134
4839.37769897,0.00253378
4841.30650635,0.00256265
4843.23531372,0.00260079
4845.16412109,0.00256590
4847.09292847,0.00262217
4849.02173584,0.00254906
4850.95054321,0.00252781
4852.87935059,0.00254091
4854.80815796,0.00262262
4856.73696533,0.00264515
4858.66577270,0.00255807
4860.59458008,0.00255314
4862.52338745,0.00256706
4864.45219482,0.00258063
4866.38100220,0.00255737
4868.30980957,0.00258139
4870.23861694,0.00248911
4872.16742432,0.00247309
4874.09623169,0.00252368
4876.02503906,0.00245168
4877.95384644,0.00252112
4879.88265381,0.00251270
4881.81146118,0.00250931
4883.74026855,0.00255809
4885.66907593,0.00247249
4887.59788330,0.00239011
4889.52669067,0.00241666
4891.45549805,0.00247485
4893.38430542,0.00243410
4895.31311279,0.00241606
4897.24192017,0.00240309
4899.17072754,0.00237378
4901.09953491,0.00236357
4903.02834228,0.00237014
4904.95714966,0.00241075
4906.88595703,0.00241805
4908.81476440,0.00239202
4910.74357178,0.00238515
4912.67237915,0.00236649
4914.60118652,0.00233694
4916.52999390,0.00236179
4918.45880127,0.00226359
4920.38760864,0.00226844
4922.31641602,0.00241516
4924.24522339,0.00234339
4926.17403076,0.00229684
4928.10283813,0.00231667
4930.03164551,0.00231708
4931.96045288,0.00232500
4933.88926025,0.00232929
4935.81806763,0.00230215
4937.74687500,0.00226666
4939.67568237,0.00227753
4941.60448975,0.00221961
4943.53329712,0.00223797
4945.46210449,0.00224691
4947.39091187,0.00217326
4949.31971924,0.00221413
4951.24852661,0.00222474
4953.17733398,0.00216659
4955.10614136,0.00219212
4957.03494873,0.00215576
4958.96375610,0.00211079
4960.89256348,0.00221008
4962.82137085,0.00215538
4964.75017822,0.00220111
4966.67898560,0.00230333
4968.60779297,0.00218390
4970.53660034,0.00215568
4972.46540771,0.00211128
4974.39421509,0.00213764
4976.32302246,0.00214800
4978.25182983,0.00203779
4980.18063721,0.00205795
4982.10944458,0.00215742
4984.03825195,0.00215598
4985.96705933,0.00205700
4987.89586670,0.00207020
4989.82467407,0.00200497
4991.75348145,0.00199421
4993.68228882,0.00207001
4995.61109619,0.00207941
4997.53990356,0.00203123
4999.46871094,0.00189840
5001.39751831,0.00203156
5003.32632568,0.00204005
5005.25513306,0.00199449
5007.18394043,0.00208171
5009.11274780,0.00197524
5011.04155518,0.00196010
5012.97036255,0.00195993
5014.89916992,0.00201025
5016.82797729,0.00200904
5018.75678467,0.00196986
5020.68559204,0.00201729
5022.61439941,0.00197299
5024.54320679,0.00197985
5026.47201416,0.00194463
5028.40082153,0.00200547
5030.32962891,0.00205593
5032.25843628,0.00194383
5034.18724365,0.00190983
5036.11605103,0.00187701
5038.04485840,0.00186390
5039.97366577,0.00190949
5041.90247314,0.00193637
5043.83128052,0.00190511
5045.76008789,0.00194051
5047.68889526,0.00189257
5049.61770264,0.00181094
5051.54651001,0.00189810
5053.47531738,0.00190598
5055.40412476,0.00190050
5057.33293213,0.00187251
5059.26173950,0.00187794
5061.19054687,0.00190500
5063.11935425,0.00180977
5065.04816162,0.00181719
5066.97696899,0.00185495
5068.90577637,0.00186793
5070.83458374,0.00187388
5072.76339111,0.00185209
5074.69219849,0.00186216
5076.62100586,0.00182192
5078.54981323,0.00176461
5080.47862061,0.00182095
5082.40742798,0.00186148
5084.33623535,0.00177967
5086.26504272,0.00176045
5088.19385010,0.00177446
5090.12265747,0.00175522
5092.05146484,0.00171682
5093.98027222,0.00170060
5095.90907959,0.00175823
5097.83788696,0.00176356
5099.76669434,0.00175950
5101.69550171,0.00176509
5103.62430908,0.00179020
5105.55311645,0.00178962
5107.48192383,0.00172831
5109.41073120,0.00175411
5111.33953857,0.00172193
5113.26834595,0.00169628
5115.19715332,0.00175217
5117.12596069,0.00172098
5119.05476807,0.00172337
5120.98357544,0.00176134
5122.91238281,0.00179330
5124.84119019,0.00173559
5126.76999756,0.00162867
5128.69880493,0.00168387
5130.62761230,0.00167775
5132.55641968,0.00166852
5134.48522705,0.00169376
5136.41403442,0.00161996
5138.34284180,0.00165711
5140.27164917,0.00163467
5142.20045654,0.00159680
5144.12926392,0.00165656
5146.05807129,0.00167623
5147.98687866,0.00162230
5149.91568603,0.00153192
5151.84449341,0.00167910
5153.77330078,0.00170547
5155.70210815,0.00157246
5157.63091553,0.00161984
5159.55972290,0.00159396
5161.48853027,0.00161543
5163.41733765,0.00162544
5165.34614502,0.00157132
5167.27495239,0.00158813
5169.20375977,0.00155394
5171.13256714,0.00158200
5173.06137451,0.00163014
5174.99018188,0.00159844
5176.91898926,0.00156636
5178.84779663,0.00154705
5180.77660400,0.00153433
5182.70541138,0.00156847
5184.63421875,0.00158704
5186.56302612,0.00153879
5188.49183350,0.00152806
5190.42064087,0.00151208
5192.34944824,0.00151119
5194.27825562,0.00157547
5196.20706299,0.00154324
5198.13587036,0.00145898
5200.06467773,0.00148573
5201.99348511,0.00154477
5203.92229248,0.00154952
5205.85109985,0.00149739
5207.77990723,0.00145017
5209.70871460,0.00142819
5211.63752197,0.00145826
5213.56632935,0.00154030
5215.49513672,0.00147421
5217.42394409,0.00143536
5219.35275146,0.00147094
5221.28155884,0.00147500
5223.21036621,0.00149696
5225.13917358,0.00139489
5227.06798096,0.00142342
5228.99678833,0.00148181
5230.92559570,0.00145836
5232.85440308,0.00149923
5234.78321045,0.00143753
5236.71201782,0.00148465
5238.64082520,0.00150433
5240.56963257,0.00143965
5242.49843994,0.00146053
5244.42724731,0.00141710
5246.35605469,0.00140697
5248.28486206,0.00141659
5250.21366943,0.00140890
5252.14247681,0.00139185
5254.07128418,0.00135043
5256.00009155,0.00135850
5257.92889893,0.00139893
5259.85770630,0.00139522
5261.78651367,0.00141157
5263.71532104,0.00140541
5265.64412842,0.00130946
5267.57293579,0.00136387
5269.50174316,0.00141002
5271.43055054,0.00137993
5273.35935791,0.00141979
5275.28816528,0.00139575
5277.21697266,0.00138291
5279.14578003,0.00137304
5281.07458740,0.00134218
5283.00339478,0.00132992
5284.93220215,0.00134077
5286.86100952,0.00136159
5288.78981689,0.00132819
5290.71862427,0.00131798
5292.64743164,0.00134453
5294.57623901,0.00135540
5296.50504639,0.00135818
5298.43385376,0.00133552
5300.36266113,0.00127435
5302.29146851,0.00129767
5304.22027588,0.00134523
5306.14908325,0.00132538
5308.07789062,0.00128145
5310.00669800,0.00122619
5311.93550537,0.00134304
5313.86431274,0.00138368
5315.79312012,0.00125535
5317.72192749,0.00130632
5319.65073486,0.00134183
5321.57954224,0.00129779
5323.50834961,0.00128491
5325.43715698,0.00125652
5327.36596436,0.00127913
5329.29477173,0.00122356
5331.22357910,0.00117903
5333.15238647,0.00127839
5335.08119385,0.00126606
5337.01000122,0.00127019
5338.93880859,0.00122383
5340.86761597,0.00115909
5342.79642334,0.00131476
5344.72523071,0.00122821
5346.65403809,0.00115438
5348.58284546,0.00125998
5350.51165283,0.00121107
5352.44046020,0.00114842
5354.36926758,0.00112922
5356.29807495,0.00126856
5358.22688232,0.00125630
5360.15568970,0.00115656
5362.08449707,0.00120791
5364.01330444,0.00116722
5365.94211182,0.00120739
5367.87091919,0.00120235
5369.79972656,0.00114113
5371.72853394,0.00118587
5373.65734131,0.00117394
5375.58614868,0.00114042
5377.51495605,0.00114857
5379.44376343,0.00115668
5381.37257080,0.00117322
5383.30137817,0.00118108
5385.23018555,0.00114757
5387.15899292,0.00112641
5389.08780029,0.00108600
5391.01660767,0.00114734
5392.94541504,0.00112180
5394.87422241,0.00103049
5396.80302978,0.00116543
5398.73183716,0.00112035
5400.66064453,0.00108155
5402.58945190,0.00115833
5404.51825928,0.00111086
5406.44706665,0.00107841
5408.37587402,0.00108771
5410.30468140,0.00115263
5412.23348877,0.00109798
5414.16229614,0.00107729
5416.09110352,0.00111866
5418.01991089,0.00110299
5419.94871826,0.00107320
5421.87752563,0.00102517
5423.80633301,0.00110010
5425.73514038,0.00107516
5427.66394775,0.00103285
5429.59275513,0.00106360
5431.52156250,0.00106747
5433.45036987,0.00109233
5435.37917725,0.00105463
5437.30798462,0.00108222
5439.23679199,0.00107630
5441.16559936,0.00105307
5443.09440674,0.00110758
5445.02321411,0.00107557
5446.95202148,0.00098717
5448.88082886,0.00101428
5450.80963623,0.00109558
5452.73844360,0.00104152
5454.66725098,0.00106509
5456.59605835,0.00106850
5458.52486572,0.00100780
5460.45367310,0.00105138
5462.38248047,0.00098136
5464.31128784,0.00098151
5466.24009521,0.00102999
5468.16890259,0.00098353
5470.09770996,0.00104143
5472.02651733,0.00100132
5473.95532471,0.00094050
5475.88413208,0.00097862
5477.81293945,0.00092079
5479.74174683,0.00100570
5481.67055420,0.00105125
5483.59936157,0.00096805
5485.52816895,0.00103416
5487.45697632,0.00096520
5489.38578369,0.00093722
5491.31459106,0.00097030
5493.24339844,0.00090802
5495.17220581,0.00097486
5497.10101318,0.00102925
5499.02982056,0.00106947
5500.95862793,0.00098615
5502.88743530,0.00089984
5504.81624268,0.00097384
5506.74505005,0.00094905
5508.67385742,0.00095054
5510.60266479,0.00096321
5512.53147217,0.00097601
5514.46027954,0.00099053
5516.38908691,0.00089532
5518.31789429,0.00088524
5520.24670166,0.00092900
5522.17550903,0.00095098
5524.10431641,0.00094885
5526.03312378,0.00090381
5527.96193115,0.00092058
5529.89073853,0.00092726
5531.81954590,0.00092702
5533.74835327,0.00089332
5535.67716064,0.00082483
5537.60596802,0.00088777
5539.53477539,0.00088680
5541.46358276,0.00092105
5543.39239014,0.00097290
5545.32119751,0.00087063
5547.25000488,0.00094406
5549.17881226,0.00090548
5551.10761963,0.00080595
5553.03642700,0.00094007
5554.96523437,0.00090954
5556.89404175,0.00081552
5558.82284912,0.00084753
5560.75165649,0.00089224
5562.68046387,0.00088771
5564.60927124,0.00085851
5566.53807861,0.00088369
5568.46688599,0.00085959
5570.39569336,0.00078643
5572.32450073,0.00091716
5574.25330811,0.00096889
5576.18211548,0.00083771
5578.11092285,0.00092337
5580.03973022,0.00083836
5581.96853760,0.00074446
5583.89734497,0.00089160
5585.82615234,0.00088659
5587.75495972,0.00088204
5589.68376709,0.00083981
5591.61257446,0.00081522
5593.54138184,0.00080766
5595.47018921,0.00077731
5597.39899658,0.00082939
5599.32780395,0.00084786
5601.25661133,0.00084934
5603.18541870,0.00082736
5605.11422607,0.00087073
5607.04303345,0.00082740
5608.97184082,0.00079678
5610.90064819,0.00079553
5612.82945557,0.00074888
5614.75826294,0.00089218
5616.68707031,0.00083939
5618.61587769,0.00076764
5620.54468506,0.00082317
5622.47349243,0.00079048
5624.40229980,0.00080984
5626.33110718,0.00080544
5628.25991455,0.00079451
5630.18872192,0.00075051
5632.11752930,0.00077272
5634.04633667,0.00082310
5635.97514404,0.00080952
5637.90395142,0.00075367
5639.83275879,0.00072040
5641.76156616,0.00078931
5643.69037353,0.00074452
5645.61918091,0.00073600
5647.54798828,0.00077746
5649.47679565,0.00075921
5651.40560303,0.00074689
5653.33441040,0.00078350
5655.26321777,0.00080539
5657.19202515,0.00070851
5659.12083252,0.00074684
5661.04963989,0.00074526
5662.97844727,0.00069724
5664.90725464,0.00076668
5666.83606201,0.00078704
5668.76486938,0.00078110
5670.69367676,0.00075058
5672.62248413,0.00076371
5674.55129150,0.00075028
5676.48009888,0.00078270
5678.40890625,0.00080846
5680.33771362,0.00073328
5682.26652100,0.00073934
5684.19532837,0.00071975
5686.12413574,0.00069287
5688.05294311,0.00066928
5689.98175049,0.00066867
5691.91055786,0.00070425
5693.83936523,0.00070622
5695.76817261,0.00070834
5697.69697998,0.00071693
5699.62578735,0.00074072
5701.55459473,0.00071358
5703.48340210,0.00070419
5705.41220947,0.00070972
5707.34101685,0.00071114
5709.26982422,0.00073997
5711.19863159,0.00073276
5713.12743896,0.00064677
5715.05624634,0.00061284
5716.98505371,0.00074129
5718.91386108,0.00075632
5720.84266846,0.00071149
5722.77147583,0.00069952
5724.70028320,0.00068437
5726.62909058,0.00070775
5728.55789795,0.00067665
5730.48670532,0.00067444
5732.41551270,0.00066673
5734.34432007,0.00066321
5736.27312744,0.00067440
5738.20193481,0.00069913
5740.13074219,0.00067821
5742.05954956,0.00065644
5743.98835693,0.00072552
5745.91716431,0.00062108
5747.84597168,0.00061296
5749.77477905,0.00064057
5751.70358643,0.00056827
5753.63239380,0.00066334
5755.56120117,0.00067286
5757.49000854,0.00069707
5759.41881592,0.00072459
5761.34762329,0.00064507
5763.27643066,0.00064362
5765.20523804,0.00065844
5767.13404541,0.00063624
5769.06285278,0.00061463
5770.99166016,0.00063069
5772.92046753,0.00057646
5774.84927490,0.00054134
5776.77808228,0.00057745
5778.70688965,0.00059108
5780.63569702,0.00066369
5782.56450439,0.00064630
5784.49331177,0.00057011
5786.42211914,0.00058998
5788.35092651,0.00060838
5790.27973389,0.00066294
5792.20854126,0.00065134
5794.13734863,0.00061513
5796.06615601,0.00064298
5797.99496338,0.00052569
5799.92377075,0.00058390
5801.85257812,0.00067114
5803.78138550,0.00056528
5805.71019287,0.00063006
5807.63900024,0.00057495
5809.56780762,0.00054937
5811.49661499,0.00062326
5813.42542236,0.00057942
5815.35422974,0.00058365
5817.28303711,0.00056749
5819.21184448,0.00060630
5821.14065186,0.00051138
5823.06945923,0.00047755
5824.99826660,0.00056861
5826.92707397,0.00052348
5828.85588135,0.00060253
5830.78468872,0.00056657
5832.71349609,0.00052642
5834.64230347,0.00057986
5836.57111084,0.00050742
5838.49991821,0.00049590
5840.42872559,0.00054393
5842.35753296,0.00060311
5844.28634033,0.00058088
5846.21514770,0.00057938
5848.14395508,0.00062042
5850.07276245,0.00057192
5852.00156982,0.00057957
5853.93037720,0.00061507
5855.85918457,0.00052166
5857.78799194,0.00047698
5859.71679932,0.00060390
5861.64560669,0.00059922
5863.57441406,0.00055991
5865.50322144,0.00060978
5867.43202881,0.00060047
5869.36083618,0.00060001
5871.28964355,0.00054202
5873.21845093,0.00051578
5875.14725830,0.00054102
5877.07606567,0.00051529
5879.00487305,0.00054123
5880.93368042,0.00056048
5882.86248779,0.00057381
5884.79129517,0.00056521
5886.72010254,0.00048483
5888.64890991,0.00048962
5890.57771728,0.00052425
5892.50652466,0.00051407
5894.43533203,0.00050274
5896.36413940,0.00047584
5898.29294678,0.00048599
5900.22175415,0.00047736
5902.15056152,0.00053122
5904.07936890,0.00057405
5906.00817627,0.00053155
5907.93698364,0.00056306
5909.86579102,0.00049027
5911.79459839,0.00052638
5913.72340576,0.00059800
5915.65221313,0.00048145
5917.58102051,0.00049575
5919.50982788,0.00047693
5921.43863525,0.00048196
5923.36744263,0.00052137
5925.29625000,0.00046060
5927.22505737,0.00046276
5929.15386475,0.00045535
5931.08267212,0.00048140
5933.01147949,0.00051263
5934.94028686,0.00049889
5936.86909424,0.00048687
5938.79790161,0.00048306
5940.72670898,0.00043508
5942.65551636,0.00039144
5944.58432373,0.00050137
5946.51313110,0.00050316
5948.44193848,0.00041834
5950.37074585,0.00048263
5952.29955322,0.00050764
5954.22836060,0.00045981
5956.15716797,0.00048500
5958.08597534,0.00049258
5960.01478271,0.00044780
5961.94359009,0.00048245
5963.87239746,0.00051144
5965.80120483,0.00048678
5967.73001221,0.00045984
5969.65881958,0.00047345
5971.58762695,0.00051657
5973.51643433,0.00046878
5975.44524170,0.00039777
5977.37404907,0.00039798
5979.30285645,0.00042160
5981.23166382,0.00043330
5983.16047119,0.00044850
5985.08927856,0.00039628
5987.01808594,0.00038116
5988.94689331,0.00048086
5990.87570068,0.00048976
5992.80450806,0.00049082
5994.73331543,0.00049863
5996.66212280,0.00046443
5998.59093018,0.00046293
6000.51973755,0.00045797
