399.26312622,0.00137973
401.19193359,0.00145440
403.12074097,0.00129976
405.04954834,0.00108323
406.97835571,0.00111948
408.90716309,0.00119199
410.83597046,0.00118480
412.76477783,0.00172455
414.69358521,0.00139704
416.62239258,0.00103987
418.55119995,0.00130541
420.48000732,0.00159196
422.40881470,0.00217926
424.33762207,0.00129672
426.26642944,0.00120616
428.19523682,0.00218907
430.12404419,0.00173054
432.05285156,0.00172806
433.98165894,0.00159816
435.91046631,0.00137373
437.83927368,0.00133150
439.76808105,0.00156462
441.69688843,0.00188588
443.62569580,0.00117838
445.55450317,0.00143785
447.48331055,0.00130819
449.41211792,0.00134631
451.34092529,0.00167231
453.26973267,0.00062128
455.19854004,0.00102340
457.12734741,0.00098776
459.05615479,0.00049212
460.98496216,0.00118367
462.91376953,0.00095585
464.84257690,0.00047642
466.77138428,0.00072636
468.70019165,0.00101710
470.62899902,0.00100991
472.55780640,0.00141558
474.48661377,0.00133640
476.41542114,0.00085244
478.34422852,0.00082264
480.27303589,0.00104219
482.20184326,0.00112049
484.13065063,0.00055044
486.05945801,0.00063293
487.98826538,0.00049553
489.91707275,0.00039058
491.84588013,0.00071433
493.77468750,0.00035598
495.70349487,0.00088253
497.63230225,0.00117230
499.56110962,0.00058060
501.48991699,0.00059373
503.41872437,0.00078801
505.34753174,0.00074551
507.27633911,0.00073473
509.20514648,0.00054407
511.13395386,0.00011257
513.06276123,0.00012040
514.99156860,0.00067656
516.92037598,0.00081956
518.84918335,0.00044100
520.77799072,0.00059515
522.70679810,0.00059297
524.63560547,0.00070771
526.56441284,0.00097153
528.49322021,0.00055875
530.42202759,0.00037212
532.35083496,0.00010378
534.27964233,0.00014119
536.20844971,0.00023583
538.13725708,0.00037773
540.06606445,0.00056738
541.99487183,0.00013769
543.92367920,0.00030172
545.85248657,0.00068238
547.78129395,0.00079469
549.71010132,0.00021509
551.63890869,0.00019768
553.56771606,0.00058566
555.49652344,0.00018890
557.42533081,0.00069594
559.35413818,0.00052544
561.28294556,0.00013325
563.21175293,0.00020475
565.14056030,0.00005019
567.06936768,0.00022568
568.99817505,0.00009426
570.92698242,0.00050685
572.85578979,0.00053255
574.78459717,0.00036659
576.71340454,0.00057717
578.64221191,0.00035335
580.57101929,0.00048871
582.49982666,0.00035402
584.42863403,0.00007758
586.35744141,0.00017119
588.28624878,0.00019280
590.21505615,0.00031660
592.14386353,0.00043830
594.07267090,0.00014376
596.00147827,0.00054407
597.93028564,0.00069617
599.85909302,-0.00016089
601.78790039,0.00021894
603.71670776,0.00018784
605.64551514,0.00043452
607.57432251,0.00094095
609.50312988,0.00019354
611.43193726,0.00059887
613.36074463,0.00002229
615.28955200,-0.00015107
617.21835938,0.00102056
619.14716675,0.00035633
621.07597412,-0.00006382
623.00478149,0.00005563
624.93358887,0.00041945
626.86239624,0.00053213
628.79120361,0.00004677
630.72001099,0.00050007
632.64881836,0.00102824
634.57762573,0.00133871
636.50643311,0.00175155
638.43524048,0.00148773
640.36404785,0.00147053
642.29285522,0.00196391
644.22166260,0.00196838
646.15046997,0.00217486
648.07927734,0.00231712
650.00808472,0.00240752
651.93689209,0.00248578
653.86569946,0.00251950
655.79450684,0.00294626
657.72331421,0.00281488
659.65212158,0.00317441
661.58092896,0.00340444
663.50973633,0.00333641
665.43854370,0.00371856
667.36735107,0.00305194
669.29615845,0.00337003
671.22496582,0.00396507
673.15377319,0.00382153
675.08258057,0.00449716
677.01138794,0.00456613
678.94019531,0.00444928
680.86900269,0.00473509
682.79781006,0.00485091
684.72661743,0.00478054
686.65542480,0.00480213
688.58423218,0.00492341
690.51303955,0.00496056
692.44184692,0.00532750
694.37065430,0.00547071
696.29946167,0.00605867
698.22826904,0.00718227
700.15707642,0.00756533
702.08588379,0.00748917
704.01469116,0.00702588
705.94349854,0.00628669
707.87230591,0.00556721
709.80111328,0.00439421
711.72992065,0.00275416
713.65872803,0.00152947
715.58753540,0.00087526
717.51634277,0.00064970
719.44515015,0.00052159
721.37395752,0.00025849
723.30276489,0.00020317
725.23157227,0.00014194
727.16037964,0.00027178
729.08918701,0.00006053
731.01799438,-0.00006046
732.94680176,0.00018198
734.87560913,-0.00014738
736.80441650,-0.00000298
738.73322388,0.00017789
740.66203125,-0.00006606
742.59083862,0.00007212
744.51964600,0.00016333
746.44845337,0.00030820
748.37726074,0.00026212
750.30606812,0.00025062
752.23487549,0.00055301
754.16368286,0.00037514
756.09249023,0.00022178
758.02129761,0.00026055
759.95010498,0.00025188
761.87891235,0.00010500
763.80771973,0.00030474
765.73652710,0.00064076
767.66533447,0.00053562
769.59414185,0.00073193
771.52294922,0.00048248
773.45175659,0.00029341
775.38056396,0.00045874
777.30937134,0.00047386
779.23817871,0.00050569
781.16698608,0.00038996
783.09579346,0.00050570
785.02460083,0.00036484
786.95340820,0.00077849
788.88221558,0.00086269
790.81102295,0.00043338
792.73983032,0.00083734
794.66863770,0.00071716
796.59744507,0.00111248
798.52625244,0.00154983
800.45505981,0.00141101
802.38386719,0.00152094
804.31267456,0.00114405
806.24148193,0.00093496
808.17028931,0.00074265
810.09909668,0.00075375
812.02790405,0.00071631
813.95671143,0.00058681
815.88551880,0.00069672
817.81432617,0.00045601
819.74313354,0.00063379
821.67194092,0.00063918
823.60074829,0.00042759
825.52955566,0.00041884
827.45836304,0.00085335
829.38717041,0.00151262
831.31597778,0.00142966
833.24478516,0.00183931
835.17359253,0.00237958
837.10239990,0.00237059
839.03120728,0.00242261
840.96001465,0.00227536
842.88882202,0.00183395
844.81762939,0.00185470
846.74643677,0.00195091
848.67524414,0.00149897
850.60405151,0.00165469
852.53285889,0.00127214
854.46166626,0.00094671
856.39047363,0.00129968
858.31928101,0.00094673
860.24808838,0.00109591
862.17689575,0.00103399
864.10570313,0.00086432
866.03451050,0.00068870
867.96331787,0.00035991
869.89212524,0.00060288
871.82093262,0.00053746
873.74973999,0.00080591
875.67854736,0.00064969
877.60735474,0.00022935
879.53616211,0.00042969
881.46496948,0.00034564
883.39377686,0.00029486
885.32258423,0.00032345
887.25139160,0.00043167
889.18019897,0.00050288
891.10900635,0.00062332
893.03781372,0.00057688
894.96662109,0.00050179
896.89542847,0.00054897
898.82423584,0.00050084
900.75304321,0.00065925
902.68185059,0.00043753
904.61065796,0.00045176
906.53946533,0.00063850
908.46827271,0.00069356
910.39708008,0.00079382
912.32588745,0.00092861
914.25469482,0.00128584
916.18350220,0.00125562
918.11230957,0.00169356
920.04111694,0.00168199
921.96992432,0.00182669
923.89873169,0.00238042
925.82753906,0.00195648
927.75634644,0.00238706
929.68515381,0.00258160
931.61396118,0.00284558
933.54276855,0.00326074
935.47157593,0.00309642
937.40038330,0.00355608
939.32919067,0.00375647
941.25799805,0.00415915
943.18680542,0.00401852
945.11561279,0.00392133
947.04442017,0.00418354
948.97322754,0.00384403
950.90203491,0.00402229
952.83084229,0.00370506
954.75964966,0.00360395
956.68845703,0.00372585
958.61726440,0.00362748
960.54607178,0.00390647
962.47487915,0.00372456
964.40368652,0.00384877
966.33249390,0.00403124
968.26130127,0.00402081
970.19010864,0.00426074
972.11891602,0.00462135
974.04772339,0.00487501
975.97653076,0.00499193
977.90533813,0.00547147
979.83414551,0.00588729
981.76295288,0.00658152
983.69176025,0.00753066
985.62056763,0.00837038
987.54937500,0.00935456
989.47818237,0.01005406
991.40698975,0.01108311
993.33579712,0.01250547
995.26460449,0.01356853
997.19341187,0.01467555
999.12221924,0.01593333
1001.05102661,0.01726262
1002.97983398,0.01858458
1004.90864136,0.01965624
1006.83744873,0.02085193
1008.76625610,0.02212768
1010.69506348,0.02344467
1012.62387085,0.02478739
1014.55267822,0.02608534
1016.48148560,0.02739850
1018.41029297,0.02843888
1020.33910034,0.03003121
1022.26790771,0.03147236
1024.19671509,0.03239547
1026.12552246,0.03399888
1028.05432983,0.03503926
1029.98313721,0.03588227
1031.91194458,0.03699528
1033.84075195,0.03745792
1035.76955933,0.03806917
1037.69836670,0.03867458
1039.62717407,0.03886580
1041.55598145,0.03881035
1043.48478882,0.03832188
1045.41359619,0.03782791
1047.34240356,0.03751873
1049.27121094,0.03702040
1051.20001831,0.03634977
1053.12882568,0.03551468
1055.05763306,0.03482954
1056.98644043,0.03417177
1058.91524780,0.03317070
1060.84405518,0.03245293
1062.77286255,0.03156564
1064.70166992,0.03040295
1066.63047729,0.02944446
1068.55928467,0.02819217
1070.48809204,0.02674713
1072.41689941,0.02534873
1074.34570679,0.02431099
1076.27451416,0.02347145
1078.20332153,0.02225180
1080.13212891,0.02116007
1082.06093628,0.02030675
1083.98974365,0.01921419
1085.91855103,0.01850360
1087.84735840,0.01775114
1089.77616577,0.01655165
1091.70497314,0.01598185
1093.63378052,0.01516474
1095.56258789,0.01436792
1097.49139526,0.01439294
1099.42020264,0.01406165
1101.34901001,0.01351473
1103.27781738,0.01314247
1105.20662476,0.01290148
1107.13543213,0.01258596
1109.06423950,0.01234419
1110.99304687,0.01224894
1112.92185425,0.01213284
1114.85066162,0.01205801
1116.77946899,0.01184653
1118.70827637,0.01202231
1120.63708374,0.01219809
1122.56589111,0.01220511
1124.49469849,0.01239733
1126.42350586,0.01242445
1128.35231323,0.01273626
1130.28112061,0.01326818
1132.20992798,0.01345126
1134.13873535,0.01358073
1136.06754272,0.01417839
1137.99635010,0.01498567
1139.92515747,0.01591412
1141.85396484,0.01707570
1143.78277222,0.01818109
1145.71157959,0.01924510
1147.64038696,0.02049963
1149.56919434,0.02171258
1151.49800171,0.02266790
1153.42680908,0.02382906
1155.35561646,0.02475715
1157.28442383,0.02578450
1159.21323120,0.02709836
1161.14203857,0.02796042
1163.07084595,0.02894000
1164.99965332,0.03002027
1166.92846069,0.03136421
1168.85726807,0.03261258
1170.78607544,0.03360048
1172.71488281,0.03480353
1174.64369019,0.03603516
1176.57249756,0.03745215
1178.50130493,0.03874422
1180.43011230,0.04024698
1182.35891968,0.04198935
1184.28772705,0.04384688
1186.21653442,0.04582205
1188.14534180,0.04802519
1190.07414917,0.05027686
1192.00295654,0.05223536
1193.93176392,0.05491232
1195.86057129,0.05745803
1197.78937866,0.05994614
1199.71818604,0.06273817
1201.64699341,0.06536442
1203.57580078,0.06798777
1205.50460815,0.07039246
1207.43341553,0.07324132
1209.36222290,0.07566114
1211.29103027,0.07805227
1213.21983765,0.08040291
1215.14864502,0.08227481
1217.07745239,0.08410373
1219.00625977,0.08528300
1220.93506714,0.08685242
1222.86387451,0.08782948
1224.79268188,0.08859995
1226.72148926,0.08935601
1228.65029663,0.08940437
1230.57910400,0.09011374
1232.50791138,0.09058309
1234.43671875,0.09068939
1236.36552612,0.09039521
1238.29433350,0.09031753
1240.22314087,0.09006360
1242.15194824,0.08944624
1244.08075562,0.08942842
1246.00956299,0.08890034
1247.93837036,0.08854882
1249.86717773,0.08785926
1251.79598511,0.08704387
1253.72479248,0.08618799
1255.65359985,0.08489299
1257.58240723,0.08395319
1259.51121460,0.08231536
1261.44002197,0.08110890
1263.36882935,0.08024763
1265.29763672,0.07914166
1267.22644409,0.07831252
1269.15525146,0.07728456
1271.08405884,0.07603222
1273.01286621,0.07469558
1274.94167358,0.07348716
1276.87048096,0.07188717
1278.79928833,0.07056515
1280.72809570,0.06918845
1282.65690308,0.06777876
1284.58571045,0.06669237
1286.51451782,0.06499630
1288.44332520,0.06402759
1290.37213257,0.06339739
1292.30093994,0.06247863
1294.22974731,0.06203350
1296.15855469,0.06171518
1298.08736206,0.06153587
1300.01616943,0.06171922
1301.94497681,0.06203142
1303.87378418,0.06265727
1305.80259155,0.06330308
1307.73139893,0.06379246
1309.66020630,0.06529793
1311.58901367,0.06630975
1313.51782104,0.06719856
1315.44662842,0.06915940
1317.37543579,0.07049894
1319.30424316,0.07231189
1321.23305054,0.07474770
1323.16185791,0.07700048
1325.09066528,0.07919195
1327.01947266,0.08140822
1328.94828003,0.08347128
1330.87708740,0.08548335
1332.80589478,0.08763267
1334.73470215,0.08898557
1336.66350952,0.09000414
1338.59231689,0.08943656
1340.52112427,0.09021685
1342.44993164,0.09390433
1344.37873901,0.09461099
1346.30754639,0.09448537
1348.23635376,0.09457698
1350.16516113,0.09388016
1352.09396851,0.09363908
1354.02277588,0.09221745
1355.95158325,0.09173274
1357.88039062,0.09124713
1359.80919800,0.08963138
1361.73800537,0.08604041
1363.66681274,0.08458919
1365.59562012,0.08864217
1367.52442749,0.08679137
1369.45323486,0.08559066
1371.38204224,0.08712107
1373.31084961,0.08263798
1375.23965698,0.08292405
1377.16846436,0.08483255
1379.09727173,0.08464048
1381.02607910,0.08477768
1382.95488647,0.08452599
1384.88369385,0.08479106
1386.81250122,0.08099918
1388.74130859,0.08190104
1390.67011597,0.08831507
1392.59892334,0.08618922
1394.52773071,0.08111046
1396.45653809,0.08485995
1398.38534546,0.08473363
1400.31415283,0.08407168
1402.24296021,0.09076832
1404.17176758,0.08610260
1406.10057495,0.08629706
1408.02938232,0.08986276
1409.95818970,0.08663961
1411.88699707,0.08836345
1413.81580444,0.08521735
1415.74461182,0.08642190
1417.67341919,0.07838229
1419.60222656,0.07023600
1421.53103394,0.08060043
1423.45984131,0.07815401
1425.38864868,0.07566213
1427.31745605,0.07648575
1429.24626343,0.07082362
1431.17507080,0.06872935
1433.10387817,0.06956318
1435.03268555,0.06396094
1436.96149292,0.05421458
1438.89030029,0.06116385
1440.81910767,0.06253015
1442.74791504,0.05781926
1444.67672241,0.06082559
1446.60552979,0.05569840
1448.53433716,0.05654704
1450.46314453,0.05844947
1452.39195190,0.05954476
1454.32075928,0.06203140
1456.24956665,0.05144510
1458.17837402,0.05354685
1460.10718140,0.07075553
1462.03598877,0.07548304
1463.96479614,0.07525021
1465.89360352,0.07817313
1467.82241089,0.08878654
1469.75121826,0.09578337
1471.68002563,0.08583446
1473.60883301,0.09027557
1475.53764038,0.10275893
1477.46644775,0.11038144
1479.39525513,0.12109149
1481.32406250,0.12292547
1483.25286987,0.13054414
1485.18167725,0.13474955
1487.11048462,0.13309368
1489.03929199,0.13288425
1490.96809937,0.13366973
1492.89690674,0.15473381
1494.82571411,0.15134165
1496.75452148,0.13680954
1498.68332886,0.15417600
1500.61213623,0.15885335
1502.54094360,0.17001915
1504.46975098,0.16148168
1506.39855835,0.11927219
1508.32736572,0.14393273
1510.25617310,0.16835231
1512.18498047,0.16294140
1514.11378784,0.17613234
1516.04259521,0.15958750
1517.97140259,0.16595876
1519.90020996,0.16083868
1521.82901733,0.13959819
1523.75782471,0.16916862
1525.68663208,0.16668898
1527.61543945,0.16584431
1529.54424683,0.18242982
1531.47305420,0.17577639
1533.40186157,0.16157861
1535.33066895,0.17043731
1537.25947632,0.18231431
1539.18828369,0.13211918
1541.11709106,0.13715611
1543.04589844,0.16372228
1544.97470581,0.15698595
1546.90351318,0.18422380
1548.83232056,0.17239383
1550.76112793,0.17718199
1552.68993530,0.17597167
1554.61874268,0.16002640
1556.54755005,0.17088088
1558.47635742,0.12245629
1560.40516479,0.13053286
1562.33397217,0.18302090
1564.26277954,0.17344451
1566.19158691,0.17760549
1568.12039429,0.17583787
1570.04920166,0.15627074
1571.97800903,0.17854035
1573.90681641,0.18017231
1575.83562378,0.14363915
1577.76443115,0.16100828
1579.69323853,0.18067944
1581.62204590,0.17248932
1583.55085327,0.17636423
1585.47966064,0.17335168
1587.40846802,0.17396152
1589.33727539,0.17189717
1591.26608276,0.17096844
1593.19489014,0.17060614
1595.12369751,0.16760266
1597.05250488,0.16892049
1598.98131226,0.16711479
1600.91011963,0.16702625
1602.83892700,0.16317651
1604.76773437,0.16467771
1606.69654175,0.16131368
1608.62534912,0.15982677
1610.55415649,0.15857196
1612.48296387,0.15831426
1614.41177124,0.15936904
1616.34057861,0.13024774
1618.26938599,0.13949037
1620.19819336,0.16055605
1622.12700073,0.14211792
1624.05580811,0.14210245
1625.98461548,0.14776753
1627.91342285,0.14634748
1629.84223022,0.14475060
1631.77103760,0.15368652
1633.69984497,0.14223732
1635.62865234,0.11797377
1637.55745972,0.13626945
1639.48626709,0.14959416
1641.41507446,0.14649680
1643.34388184,0.15068653
1645.27268921,0.13678926
1647.20149658,0.12102298
1649.13030396,0.14995040
1651.05911133,0.14328079
1652.98791870,0.09402957
1654.91672607,0.12662548
1656.84553345,0.15890524
1658.77434082,0.15297699
1660.70314819,0.15814914
1662.63195557,0.14528990
1664.56076294,0.15365621
1666.48957031,0.16574606
1668.41837769,0.14649257
1670.34718506,0.14338681
1672.27599243,0.16269454
1674.20479980,0.15174219
1676.13360718,0.14660639
1678.06241455,0.16875106
1679.99122192,0.16396564
1681.92002930,0.16328865
1683.84883667,0.13483019
1685.77764404,0.13354561
1687.70645142,0.18242688
1689.63525879,0.16026831
1691.56406616,0.17585161
1693.49287354,0.18084939
1695.42168091,0.13358402
1697.35048828,0.16442509
1699.27929565,0.14684194
1701.20810303,0.13240084
1703.13691040,0.17954530
1705.06571777,0.16603039
1706.99452515,0.16768628
1708.92333252,0.18258807
1710.85213989,0.17605621
1712.78094727,0.17963417
1714.70975464,0.16791868
1716.63856201,0.15157615
1718.56736938,0.14934403
1720.49617676,0.17654389
1722.42498413,0.18333212
1724.35379150,0.17121027
1726.28259888,0.18596117
1728.21140625,0.17255747
1730.14021362,0.17438942
1732.06902100,0.17027462
1733.99782837,0.13132575
1735.92663574,0.16148250
1737.85544312,0.17876180
1739.78425049,0.15998460
1741.71305786,0.17371137
1743.64186523,0.17664579
1745.57067261,0.17700030
1747.49947998,0.17876109
1749.42828735,0.17144231
1751.35709473,0.16457961
1753.28590210,0.18164773
1755.21470947,0.19011022
1757.14351685,0.17409235
1759.07232422,0.19059804
1761.00113159,0.18014571
1762.92993896,0.17379123
1764.85874634,0.19813830
1766.78755371,0.17946476
1768.71636108,0.18098941
1770.64516846,0.18016686
1772.57397583,0.16240782
1774.50278320,0.18043709
1776.43159058,0.19039315
1778.36039795,0.18784097
1780.28920532,0.18575343
1782.21801270,0.18732074
1784.14682007,0.18712580
1786.07562744,0.18350869
1788.00443481,0.19275081
1789.93324219,0.18833651
1791.86204956,0.17096192
1793.79085693,0.17769739
1795.71966431,0.19042931
1797.64847168,0.18809678
1799.57727905,0.18537331
1801.50608643,0.18231054
1803.43489380,0.18791831
1805.36370117,0.19201568
1807.29250854,0.18956396
1809.22131592,0.19042255
1811.15012329,0.18541218
1813.07893066,0.19093776
1815.00773804,0.19174644
1816.93654541,0.18948844
1818.86535278,0.19133663
1820.79416016,0.19040596
1822.72296753,0.19322604
1824.65177490,0.18120083
1826.58058228,0.18717895
1828.50938965,0.18764974
1830.43819702,0.17652719
1832.36700439,0.19130340
1834.29581177,0.19000980
1836.22461914,0.18991086
1838.15342651,0.18915941
1840.08223389,0.19017887
1842.01104126,0.19075984
1843.93984863,0.16993275
1845.86865601,0.18029505
1847.79746338,0.19014403
1849.72627075,0.18618533
1851.65507812,0.19124150
1853.58388550,0.18772605
1855.51269287,0.18948492
1857.44150024,0.18825623
1859.37030762,0.18718903
1861.29911499,0.18849134
1863.22792236,0.18641537
1865.15672974,0.18825001
1867.08553711,0.18229130
1869.01434448,0.17498311
1870.94315186,0.18152390
1872.87195923,0.18816051
1874.80076660,0.18512517
1876.72957397,0.18616515
1878.65838135,0.18563545
1880.58718872,0.18433997
1882.51599609,0.18581337
1884.44480347,0.18304336
1886.37361084,0.18549235
1888.30241821,0.18161182
1890.23122559,0.17820701
1892.16003296,0.18432210
1894.08884033,0.18190293
1896.01764771,0.18117264
1897.94645508,0.18303490
1899.87526245,0.18207805
1901.80406982,0.18243054
1903.73287720,0.18124765
1905.66168457,0.18189920
1907.59049194,0.18031397
1909.51929932,0.17919679
1911.44810669,0.18020886
1913.37691406,0.18031326
1915.30572144,0.18172403
1917.23452881,0.17412396
1919.16333618,0.17420891
1921.09214355,0.18069145
1923.02095093,0.17507602
1924.94975830,0.17842144
1926.87856567,0.18011539
1928.80737305,0.17768970
1930.73618042,0.17992261
1932.66498779,0.17738792
1934.59379517,0.17907779
1936.52260254,0.17791292
1938.45140991,0.17812365
1940.38021729,0.17820799
1942.30902466,0.17275932
1944.23783203,0.17576435
1946.16663940,0.17735378
1948.09544678,0.17680395
1950.02425415,0.17737837
1951.95306152,0.17690238
1953.88186890,0.17696163
1955.81067627,0.17609227
1957.73948364,0.17663354
1959.66829102,0.17622516
1961.59709839,0.17579189
1963.52590576,0.17618936
1965.45471313,0.17539346
1967.38352051,0.17354345
1969.31232788,0.17468363
1971.24113525,0.17597392
1973.16994263,0.17456315
1975.09875000,0.17530435
1977.02755737,0.17441806
1978.95636475,0.17443135
1980.88517212,0.17441399
1982.81397949,0.17345314
1984.74278687,0.17416054
1986.67159424,0.17270093
1988.60040161,0.17302850
1990.52920898,0.17156111
1992.45801636,0.16957027
1994.38682373,0.17167844
1996.31563110,0.17189249
1998.24443848,0.17113435
2000.17324585,0.17103747
2002.10205322,0.17073247
2004.03086060,0.17036159
2005.95966797,0.16984990
2007.88847534,0.16923484
2009.81728271,0.16917917
2011.74609009,0.16884276
2013.67489746,0.16847554
2015.60370483,0.16748485
2017.53251221,0.16609368
2019.46131958,0.16694236
2021.39012695,0.16669610
2023.31893433,0.16634175
2025.24774170,0.16617629
2027.17654907,0.16530493
2029.10535645,0.16540086
2031.03416382,0.16456115
2032.96297119,0.16446477
2034.89177856,0.16403621
2036.82058594,0.16337359
2038.74939331,0.16331342
2040.67820068,0.16229340
2042.60700806,0.16215739
2044.53581543,0.16216373
2046.46462280,0.16176578
2048.39343018,0.16133571
2050.32223755,0.16092882
2052.25104492,0.16069086
2054.17985229,0.16032802
2056.10865967,0.15993956
2058.03746704,0.15964481
2059.96627441,0.15923454
2061.89508179,0.15886791
2063.82388916,0.15832628
2065.75269653,0.15742874
2067.68150391,0.15776548
2069.61031128,0.15755159
2071.53911865,0.15703583
2073.46792603,0.15711975
2075.39673340,0.15652326
2077.32554077,0.15638572
2079.25434814,0.15586072
2081.18315552,0.15560362
2083.11196289,0.15534499
2085.04077026,0.15486930
2086.96957764,0.15472758
2088.89838501,0.15403837
2090.82719238,0.15379183
2092.75599976,0.15355183
2094.68480713,0.15349203
2096.61361450,0.15316880
2098.54242187,0.15278237
2100.47122925,0.15256426
2102.40003662,0.15216912
2104.32884399,0.15210892
2106.25765137,0.15152009
2108.18645874,0.15149379
2110.11526611,0.15130305
2112.04407349,0.15077692
2113.97288086,0.15065372
2115.90168823,0.15035737
2117.83049561,0.15018743
2119.75930298,0.14992210
2121.68811035,0.14988844
2123.61691772,0.14948040
2125.54572510,0.14928111
2127.47453247,0.14913586
2129.40333984,0.14886329
2131.33214722,0.14878519
2133.26095459,0.14824793
2135.18976196,0.14830697
2137.11856934,0.14805163
2139.04737671,0.14765993
2140.97618408,0.14764217
2142.90499146,0.14747384
2144.83379883,0.14734937
2146.76260620,0.14711635
2148.69141357,0.14703830
2150.62022095,0.14673775
2152.54902832,0.14658746
2154.47783569,0.14642373
2156.40664307,0.14622480
2158.33545044,0.14608032
2160.26425781,0.14585567
2162.19306519,0.14568305
2164.12187256,0.14542238
2166.05067993,0.14545113
2167.97948730,0.14525084
2169.90829468,0.14517479
2171.83710205,0.14496000
2173.76590942,0.14471252
2175.69471680,0.14467515
2177.62352417,0.14445877
2179.55233154,0.14443484
2181.48113892,0.14406171
2183.40994629,0.14400691
2185.33875366,0.14372614
2187.26756104,0.14357883
2189.19636841,0.14363834
2191.12517578,0.14318353
2193.05398315,0.14335693
2194.98279053,0.14311001
2196.91159790,0.14286703
2198.84040527,0.14278308
2200.76921265,0.14257786
2202.69802002,0.14245823
2204.62682739,0.14223005
2206.55563477,0.14228988
2208.48444214,0.14192235
2210.41324951,0.14178813
2212.34205688,0.14169843
2214.27086426,0.14154340
2216.19967163,0.14146045
2218.12847900,0.14114776
2220.05728638,0.14113009
2221.98609375,0.14094457
2223.91490112,0.14077270
2225.84370850,0.14052555
2227.77251587,0.14028493
2229.70132324,0.14013782
2231.63013062,0.13999161
2233.55893799,0.13968614
2235.48774536,0.13948208
2237.41655273,0.13954046
2239.34536011,0.13914140
2241.27416748,0.13908029
2243.20297485,0.13883385
2245.13178223,0.13857037
2247.06058960,0.13847321
2248.98939697,0.13815251
2250.91820435,0.13805690
2252.84701172,0.13766553
2254.77581909,0.13769612
2256.70462646,0.13739726
2258.63343384,0.13710858
2260.56224121,0.13720401
2262.49104858,0.13682854
2264.41985596,0.13677505
2266.34866333,0.13653161
2268.27747070,0.13638458
2270.20627808,0.13625118
2272.13508545,0.13599508
2274.06389282,0.13597777
2275.99270020,0.13588177
2277.92150757,0.13574666
2279.85031494,0.13559213
2281.77912231,0.13551588
2283.70792969,0.13528892
2285.63673706,0.13514294
2287.56554443,0.13483796
2289.49435181,0.13456744
2291.42315918,0.13420790
2293.35196655,0.13371801
2295.28077393,0.13346738
2297.20958130,0.13302767
2299.13838867,0.13272549
2301.06719604,0.13206670
2302.99600342,0.13162044
2304.92481079,0.13105693
2306.85361816,0.13007605
2308.78242554,0.12931371
2310.71123291,0.12808757
2312.64004028,0.12701946
2314.56884766,0.12563622
2316.49765503,0.12420634
2318.42646240,0.12261850
2320.35526978,0.12072709
2322.28407715,0.11929096
2324.21288452,0.11769900
2326.14169189,0.11641895
2328.07049927,0.11501739
2329.99930664,0.11347830
2331.92811401,0.11249445
2333.85692139,0.11225391
2335.78572876,0.11174011
2337.71453613,0.11127822
2339.64334351,0.11150962
2341.57215088,0.11183016
2343.50095825,0.11352294
2345.42976562,0.11558937
2347.35857300,0.12042809
2349.28738037,0.12444960
2351.21618774,0.12014589
2353.14499512,0.11410823
2355.07380249,0.10984602
2357.00260986,0.10633090
2358.93141724,0.10434116
2360.86022461,0.10315371
2362.78903198,0.10294626
2364.71783936,0.10350209
2366.64664673,0.10504680
2368.57545410,0.10707150
2370.50426147,0.10981980
2372.43306885,0.11296953
2374.36187622,0.11613066
2376.29068359,0.11933692
2378.21949097,0.12177683
2380.14829834,0.12398265
2382.07710571,0.12538512
2384.00591309,0.12614059
2385.93472046,0.12660626
2387.86352783,0.12662396
2389.79233521,0.12658831
2391.72114258,0.12649156
2393.64994995,0.12641725
2395.57875732,0.12611803
2397.50756470,0.12599856
2399.43637207,0.12594596
2401.36517944,0.12571780
2403.29398682,0.12546623
2405.22279419,0.12529358
2407.15160156,0.12519869
2409.08040894,0.12500322
2411.00921631,0.12486041
2412.93802368,0.12469904
2414.86683105,0.12461919
2416.79563843,0.12431196
2418.72444580,0.12415569
2420.65325317,0.12402902
2422.58206055,0.12380506
2424.51086792,0.12390893
2426.43967529,0.12357974
2428.36848267,0.12339230
2430.29729004,0.12327255
2432.22609741,0.12303065
2434.15490479,0.12297763
2436.08371216,0.12285978
2438.01251953,0.12270924
2439.94132690,0.12236995
2441.87013428,0.12237625
2443.79894165,0.12221500
2445.72774902,0.12191545
2447.65655640,0.12191759
2449.58536377,0.12169647
2451.51417114,0.12155306
2453.44297852,0.12143295
2455.37178589,0.12123643
2457.30059326,0.12103853
2459.22940063,0.12091742
2461.15820801,0.12078810
2463.08701538,0.12057239
2465.01582275,0.12040788
2466.94463013,0.12022337
2468.87343750,0.11995573
2470.80224487,0.11982678
2472.73105225,0.11974867
2474.65985962,0.11950448
2476.58866699,0.11951189
2478.51747437,0.11929992
2480.44628174,0.11914788
2482.37508911,0.11911217
2484.30389648,0.11880250
2486.23270386,0.11871136
2488.16151123,0.11839958
2490.09031860,0.11839765
2492.01912598,0.11831699
2493.94793335,0.11804931
2495.87674072,0.11801217
2497.80554810,0.11766279
2499.73435547,0.11765526
2501.66316284,0.11746092
2503.59197021,0.11718171
2505.52077759,0.11711363
2507.44958496,0.11697434
2509.37839233,0.11684214
2511.30719971,0.11659473
2513.23600708,0.11656833
2515.16481445,0.11629467
2517.09362183,0.11615318
2519.02242920,0.11612749
2520.95123657,0.11589228
2522.88004395,0.11581902
2524.80885132,0.11558615
2526.73765869,0.11542627
2528.66646606,0.11529095
2530.59527344,0.11513777
2532.52408081,0.11500537
2534.45288818,0.11474565
2536.38169556,0.11458130
2538.31050293,0.11456297
2540.23931030,0.11441675
2542.16811768,0.11424771
2544.09692505,0.11413161
2546.02573242,0.11397967
2547.95453979,0.11393144
2549.88334717,0.11360395
2551.81215454,0.11345039
2553.74096191,0.11334881
2555.66976929,0.11316888
2557.59857666,0.11306274
2559.52738403,0.11269009
2561.45619141,0.11275305
2563.38499878,0.11250710
2565.31380615,0.11230488
2567.24261353,0.11233290
2569.17142090,0.11197028
2571.10022827,0.11200032
2573.02903564,0.11178952
2574.95784302,0.11160930
2576.88665039,0.11145641
2578.81545776,0.11120100
2580.74426514,0.11117475
2582.67307251,0.11105271
2584.60187988,0.11090793
2586.53068726,0.11059488
2588.45949463,0.11055346
2590.38830200,0.11043781
2592.31710937,0.11025043
2594.24591675,0.11007185
2596.17472412,0.10982946
2598.10353149,0.10986388
2600.03233887,0.10958287
2601.96114624,0.10937963
2603.88995361,0.10924557
2605.81876099,0.10914783
2607.74756836,0.10907315
2609.67637573,0.10887982
2611.60518311,0.10883354
2613.53399048,0.10851395
2615.46279785,0.10828239
2617.39160522,0.10812421
2619.32041260,0.10804448
2621.24921997,0.10801487
2623.17802734,0.10772145
2625.10683472,0.10749640
2627.03564209,0.10737662
2628.96444946,0.10728899
2630.89325684,0.10706486
2632.82206421,0.10694076
2634.75087158,0.10679821
2636.67967895,0.10661466
2638.60848633,0.10655339
2640.53729370,0.10641518
2642.46610107,0.10630012
2644.39490845,0.10608369
2646.32371582,0.10588976
2648.25252319,0.10563333
2650.18133057,0.10538006
2652.11013794,0.10532938
2654.03894531,0.10527101
2655.96775269,0.10505987
2657.89656006,0.10485534
2659.82536743,0.10478096
2661.75417480,0.10452254
2663.68298218,0.10438391
2665.61178955,0.10424890
2667.54059692,0.10405561
2669.46940430,0.10397617
2671.39821167,0.10380508
2673.32701904,0.10370421
2675.25582642,0.10343709
2677.18463379,0.10321783
2679.11344116,0.10312425
2681.04224854,0.10296196
2682.97105591,0.10279387
2684.89986328,0.10265880
2686.82867065,0.10255153
2688.75747803,0.10229699
2690.68628540,0.10217816
2692.61509277,0.10199158
2694.54390015,0.10175421
2696.47270752,0.10168812
2698.40151489,0.10155322
2700.33032227,0.10134022
2702.25912964,0.10113759
2704.18793701,0.10100251
2706.11674438,0.10082075
2708.04555176,0.10074909
2709.97435913,0.10057981
2711.90316650,0.10037616
2713.83197388,0.10023968
2715.76078125,0.09999564
2717.68958862,0.09989393
2719.61839600,0.09969607
2721.54720337,0.09948209
2723.47601074,0.09932990
2725.40481812,0.09917183
2727.33362549,0.09898889
2729.26243286,0.09879995
2731.19124023,0.09859845
2733.12004761,0.09835782
2735.04885498,0.09833315
2736.97766235,0.09813049
2738.90646973,0.09792888
2740.83527710,0.09776770
2742.76408447,0.09757407
2744.69289185,0.09749191
2746.62169922,0.09724978
2748.55050659,0.09714472
2750.47931396,0.09695593
2752.40812134,0.09676600
2754.33692871,0.09660167
2756.26573608,0.09642564
2758.19454346,0.09628168
2760.12335083,0.09602721
2762.05215820,0.09599389
2763.98096558,0.09576699
2765.90977295,0.09562068
2767.83858032,0.09545132
2769.76738770,0.09515332
2771.69619507,0.09511928
2773.62500244,0.09485168
2775.55380981,0.09465308
2777.48261719,0.09445475
2779.41142456,0.09423084
2781.34023193,0.09402920
2783.26903931,0.09385156
2785.19784668,0.09371102
2787.12665405,0.09341364
2789.05546143,0.09344004
2790.98426880,0.09312105
2792.91307617,0.09277573
2794.84188354,0.09293444
2796.77069092,0.09258005
2798.69949829,0.09226362
2800.62830566,0.09223356
2802.55711304,0.09190711
2804.48592041,0.09165769
2806.41472778,0.09150261
2808.34353516,0.09132661
2810.27234253,0.09125365
2812.20114990,0.09096187
2814.12995728,0.09070073
2816.05876465,0.09056313
2817.98757202,0.09028324
2819.91637939,0.09016171
2821.84518677,0.09004220
2823.77399414,0.08969918
2825.70280151,0.08940786
2827.63160889,0.08937088
2829.56041626,0.08915105
2831.48922363,0.08884066
2833.41803101,0.08868915
2835.34683838,0.08845910
2837.27564575,0.08833667
2839.20445312,0.08798133
2841.13326050,0.08756790
2843.06206787,0.08732469
2844.99087524,0.08688481
2846.91968262,0.08630070
2848.84848999,0.08576411
2850.77729736,0.08552400
2852.70610474,0.08539543
2854.63491211,0.08530331
2856.56371948,0.08513889
2858.49252686,0.08495016
2860.42133423,0.08475764
2862.35014160,0.08463970
2864.27894897,0.08452806
2866.20775635,0.08415130
2868.13656372,0.08420439
2870.06537109,0.08403532
2871.99417847,0.08365835
2873.92298584,0.08370520
2875.85179321,0.08348295
2877.78060059,0.08329661
2879.70940796,0.08314405
2881.63821533,0.08290239
2883.56702270,0.08260316
2885.49583008,0.08247666
2887.42463745,0.08239096
2889.35344482,0.08208546
2891.28225220,0.08192721
2893.21105957,0.08159710
2895.13986694,0.08143073
2897.06867432,0.08122407
2898.99748169,0.08087431
2900.92628906,0.08061220
2902.85509644,0.08027108
2904.78390381,0.08018151
2906.71271118,0.07981832
2908.64151855,0.07943848
2910.57032593,0.07910410
2912.49913330,0.07863552
2914.42794067,0.07825205
2916.35674805,0.07772128
2918.28555542,0.07744222
2920.21436279,0.07726502
2922.14317017,0.07706703
2924.07197754,0.07684362
2926.00078491,0.07668053
2927.92959229,0.07652487
2929.85839966,0.07627550
2931.78720703,0.07631733
2933.71601440,0.07615025
2935.64482178,0.07595050
2937.57362915,0.07598421
2939.50243652,0.07594019
2941.43124390,0.07582358
2943.36005127,0.07563049
2945.28885864,0.07546660
2947.21766602,0.07525201
2949.14647339,0.07504192
2951.07528076,0.07477893
2953.00408813,0.07457641
2954.93289551,0.07430842
2956.86170288,0.07385066
2958.79051025,0.07357432
2960.71931763,0.07331443
2962.64812500,0.07306206
2964.57693237,0.07288906
2966.50573975,0.07268327
2968.43454712,0.07245729
2970.36335449,0.07242177
2972.29216187,0.07241239
2974.22096924,0.07231158
2976.14977661,0.07232318
2978.07858398,0.07211049
2980.00739136,0.07195823
2981.93619873,0.07188202
2983.86500610,0.07159512
2985.79381348,0.07145622
2987.72262085,0.07126214
2989.65142822,0.07094540
2991.58023560,0.07079756
2993.50904297,0.07064185
2995.43785034,0.07037989
2997.36665771,0.07016760
2999.29546509,0.06986323
3001.22427246,0.06963792
3003.15307983,0.06941702
3005.08188721,0.06908700
3007.01069458,0.06894188
3008.93950195,0.06861839
3010.86830933,0.06816677
3012.79711670,0.06776059
3014.72592407,0.06757148
3016.65473145,0.06744827
3018.58353882,0.06700180
3020.51234619,0.06680947
3022.44115356,0.06665216
3024.36996094,0.06617280
3026.29876831,0.06584774
3028.22757568,0.06568643
3030.15638306,0.06517290
3032.08519043,0.06476276
3034.01399780,0.06472288
3035.94280518,0.06433853
3037.87161255,0.06407100
3039.80041992,0.06381077
3041.72922729,0.06344336
3043.65803467,0.06324595
3045.58684204,0.06283269
3047.51564941,0.06247658
3049.44445679,0.06216830
3051.37326416,0.06195915
3053.30207153,0.06164900
3055.23087891,0.06121886
3057.15968628,0.06094692
3059.08849365,0.06064300
3061.01730103,0.06047585
3062.94610840,0.06005549
3064.87491577,0.05958293
3066.80372314,0.05931272
3068.73253052,0.05902674
3070.66133789,0.05888240
3072.59014526,0.05853219
3074.51895264,0.05818314
3076.44776001,0.05788048
3078.37656738,0.05736629
3080.30537476,0.05695706
3082.23418213,0.05669125
3084.16298950,0.05649855
3086.09179687,0.05629465
3088.02060425,0.05590786
3089.94941162,0.05554011
3091.87821899,0.05529992
3093.80702637,0.05482244
3095.73583374,0.05441186
3097.66464111,0.05416568
3099.59344849,0.05367811
3101.52225586,0.05330313
3103.45106323,0.05304976
3105.37987061,0.05275160
3107.30867798,0.05242141
3109.23748535,0.05199200
3111.16629272,0.05174337
3113.09510010,0.05143260
3115.02390747,0.05087455
3116.95271484,0.05049026
3118.88152222,0.05013420
3120.81032959,0.04971563
3122.73913696,0.04942410
3124.66794434,0.04915096
3126.59675171,0.04877628
3128.52555908,0.04839134
3130.45436645,0.04812207
3132.38317383,0.04769276
3134.31198120,0.04726903
3136.24078857,0.04701015
3138.16959595,0.04662916
3140.09840332,0.04621287
3142.02721069,0.04582480
3143.95601807,0.04559895
3145.88482544,0.04528514
3147.81363281,0.04487174
3149.74244019,0.04456027
3151.67124756,0.04413301
3153.60005493,0.04378592
3155.52886230,0.04345724
3157.45766968,0.04313564
3159.38647705,0.04287033
3161.31528442,0.04254892
3163.24409180,0.04217838
3165.17289917,0.04185426
3167.10170654,0.04156240
3169.03051392,0.04120770
3170.95932129,0.04094641
3172.88812866,0.04053219
3174.81693604,0.04030623
3176.74574341,0.04003139
3178.67455078,0.03950538
3180.60335815,0.03943090
3182.53216553,0.03919122
3184.46097290,0.03889973
3186.38978027,0.03864256
3188.31858765,0.03831740
3190.24739502,0.03810386
3192.17620239,0.03775350
3194.10500977,0.03763010
3196.03381714,0.03735447
3197.96262451,0.03701771
3199.89143188,0.03690826
3201.82023926,0.03674193
3203.74904663,0.03650220
3205.67785400,0.03625491
3207.60666138,0.03607135
3209.53546875,0.03582742
3211.46427612,0.03569711
3213.39308350,0.03538024
3215.32189087,0.03522098
3217.25069824,0.03511988
3219.17950562,0.03479012
3221.10831299,0.03486654
3223.03712036,0.03473027
3224.96592773,0.03456618
3226.89473511,0.03441013
3228.82354248,0.03418358
3230.75234985,0.03415883
3232.68115723,0.03392390
3234.60996460,0.03382711
3236.53877197,0.03371552
3238.46757935,0.03359877
3240.39638672,0.03354689
3242.32519409,0.03338364
3244.25400146,0.03326921
3246.18280884,0.03325292
3248.11161621,0.03319902
3250.04042358,0.03299586
3251.96923096,0.03298905
3253.89803833,0.03288049
3255.82684570,0.03279823
3257.75565308,0.03283905
3259.68446045,0.03277511
3261.61326782,0.03268203
3263.54207520,0.03249990
3265.47088257,0.03258880
3267.39968994,0.03258213
3269.32849731,0.03241268
3271.25730469,0.03225457
3273.18611206,0.03219652
3275.11491943,0.03223952
3277.04372681,0.03214408
3278.97253418,0.03224405
3280.90134155,0.03222065
3282.83014893,0.03208726
3284.75895630,0.03206727
3286.68776367,0.03212181
3288.61657104,0.03202218
3290.54537842,0.03184960
3292.47418579,0.03181983
3294.40299316,0.03169239
3296.33180054,0.03180525
3298.26060791,0.03169002
3300.18941528,0.03165069
3302.11822266,0.03175212
3304.04703003,0.03157140
3305.97583740,0.03151490
3307.90464478,0.03126081
3309.83345215,0.03133246
3311.76225952,0.03136760
3313.69106689,0.03122441
3315.61987427,0.03133743
3317.54868164,0.03135137
3319.47748901,0.03126630
3321.40629639,0.03107846
3323.33510376,0.03114806
3325.26391113,0.03101296
3327.19271851,0.03090566
3329.12152588,0.03092762
3331.05033325,0.03080655
3332.97914062,0.03082486
3334.90794800,0.03069170
3336.83675537,0.03064151
3338.76556274,0.03056624
3340.69437012,0.03069381
3342.62317749,0.03067166
3344.55198486,0.03055974
3346.48079224,0.03062438
3348.40959961,0.03035636
3350.33840698,0.03042112
3352.26721436,0.03042656
3354.19602173,0.03035669
3356.12482910,0.03034275
3358.05363647,0.03030888
3359.98244385,0.03027445
3361.91125122,0.03012476
3363.84005859,0.03022850
3365.76886597,0.03008047
3367.69767334,0.03007436
3369.62648071,0.03010611
3371.55528809,0.03012535
3373.48409546,0.03027641
3375.41290283,0.03019668
3377.34171020,0.03021398
3379.27051758,0.03015503
3381.19932495,0.03018570
3383.12813232,0.03013002
3385.05693970,0.03016482
3386.98574707,0.03014227
3388.91455444,0.03017202
3390.84336182,0.03018468
3392.77216919,0.02991863
3394.70097656,0.03029426
3396.62978394,0.03020709
3398.55859131,0.03012144
3400.48739868,0.03026518
3402.41620605,0.03020008
3404.34501343,0.03041008
3406.27382080,0.03031711
3408.20262817,0.03050209
3410.13143555,0.03048161
3412.06024292,0.03057926
3413.98905029,0.03070179
3415.91785767,0.03061707
3417.84666504,0.03085041
3419.77547241,0.03061696
3421.70427979,0.03064894
3423.63308716,0.03081122
3425.56189453,0.03101557
3427.49070190,0.03107563
3429.41950928,0.03099399
3431.34831665,0.03104441
3433.27712402,0.03098321
3435.20593140,0.03126321
3437.13473877,0.03119465
3439.06354614,0.03139325
3440.99235352,0.03143689
3442.92116089,0.03130512
3444.84996826,0.03157723
3446.77877563,0.03126910
3448.70758301,0.03148307
3450.63639038,0.03186553
3452.56519775,0.03182302
3454.49400513,0.03195390
3456.42281250,0.03210546
3458.35161987,0.03206169
3460.28042725,0.03208027
3462.20923462,0.03219073
3464.13804199,0.03228574
3466.06684937,0.03248710
3467.99565674,0.03237245
3469.92446411,0.03260437
3471.85327148,0.03271437
3473.78207886,0.03266492
3475.71088623,0.03279180
3477.63969360,0.03285579
3479.56850098,0.03302572
3481.49730835,0.03263316
3483.42611572,0.03296801
3485.35492310,0.03331098
3487.28373047,0.03320016
3489.21253784,0.03343554
3491.14134521,0.03348203
3493.07015259,0.03373102
3494.99895996,0.03366269
3496.92776733,0.03378834
3498.85657471,0.03397775
3500.78538208,0.03402587
3502.71418945,0.03369491
3504.64299683,0.03375215
3506.57180420,0.03459378
3508.50061157,0.03416411
3510.42941895,0.03425781
3512.35822632,0.03466026
3514.28703369,0.03474994
3516.21584106,0.03498169
3518.14464844,0.03487072
3520.07345581,0.03525885
3522.00226318,0.03490381
3523.93107056,0.03467981
3525.85987793,0.03502432
3527.78868530,0.03502525
3529.71749268,0.03513578
3531.64630005,0.03554434
3533.57510742,0.03597798
3535.50391479,0.03565165
3537.43272217,0.03569636
3539.36152954,0.03620292
3541.29033691,0.03631467
3543.21914429,0.03618519
3545.14795166,0.03557883
3547.07675903,0.03519720
3549.00556641,0.03635686
3550.93437378,0.03668649
3552.86318115,0.03599006
3554.79198853,0.03684288
3556.72079590,0.03702517
3558.64960327,0.03706557
3560.57841064,0.03690792
3562.50721802,0.03677560
3564.43602539,0.03725405
3566.36483276,0.03501346
3568.29364014,0.03436699
3570.22244751,0.03697307
3572.15125488,0.03800194
3574.08006226,0.03767816
3576.00886963,0.03788020
3577.93767700,0.03790623
3579.86648437,0.03789790
3581.79529175,0.03813645
3583.72409912,0.03815796
3585.65290649,0.03753955
3587.58171387,0.03494795
3589.51052124,0.03587170
3591.43932861,0.03890742
3593.36813599,0.03793597
3595.29694336,0.03733232
3597.22575073,0.03809897
3599.15455811,0.03854857
3601.08336548,0.03826134
3603.01217285,0.03869762
3604.94098022,0.03945388
3606.86978760,0.03822324
3608.79859497,0.03619477
3610.72740234,0.03700212
3612.65620972,0.03803152
3614.58501709,0.03705726
3616.51382446,0.03957695
3618.44263184,0.03694338
3620.37143921,0.03578231
3622.30024658,0.04015124
3624.22905395,0.03919250
3626.15786133,0.04101613
3628.08666870,0.03526048
3630.01547607,0.03228290
3631.94428345,0.04015028
3633.87309082,0.03937460
3635.80189819,0.04008595
3637.73070557,0.04093046
3639.65951294,0.04037226
3641.58832031,0.04090220
3643.51712769,0.04050962
3645.44593506,0.04093209
3647.37474243,0.03720739
3649.30354980,0.03436514
3651.23235718,0.03484928
3653.16116455,0.04115180
3655.08997192,0.04075953
3657.01877930,0.03686939
3658.94758667,0.04216023
3660.87639404,0.04144891
3662.80520142,0.04206455
3664.73400879,0.04197024
3666.66281616,0.04166345
3668.59162354,0.04078503
3670.52043091,0.03384402
3672.44923828,0.04034219
3674.37804565,0.03881587
3676.30685303,0.03261624
3678.23566040,0.04033409
3680.16446777,0.04144654
3682.09327515,0.04151885
3684.02208252,0.04268017
3685.95088989,0.04211282
3687.87969727,0.03821497
3689.80850464,0.03525168
3691.73731201,0.04002790
3693.66611938,0.04122981
3695.59492676,0.04215070
3697.52373413,0.04212390
3699.45254150,0.04170534
3701.38134888,0.04087446
3703.31015625,0.03934268
3705.23896362,0.04304855
3707.16777100,0.04123380
3709.09657837,0.04027721
3711.02538574,0.03801256
3712.95419312,0.03571465
3714.88300049,0.04158526
3716.81180786,0.04101222
3718.74061523,0.04141626
3720.66942261,0.04055080
3722.59822998,0.03907974
3724.52703735,0.04064315
3726.45584473,0.03782149
3728.38465210,0.04074036
3730.31345947,0.04034192
3732.24226685,0.03730074
3734.17107422,0.03647150
3736.09988159,0.03473219
3738.02868896,0.03661038
3739.95749634,0.03938793
3741.88630371,0.04141874
3743.81511108,0.03260006
3745.74391846,0.03065245
3747.67272583,0.03938248
3749.60153320,0.03419703
3751.53034058,0.03169232
3753.45914795,0.03598668
3755.38795532,0.03848554
3757.31676270,0.04004348
3759.24557007,0.03722536
3761.17437744,0.03842135
3763.10318481,0.04065918
3765.03199219,0.03815028
3766.96079956,0.03888822
3768.88960693,0.03847899
3770.81841431,0.03668877
3772.74722168,0.03951246
3774.67602905,0.03968864
3776.60483643,0.03959012
3778.53364380,0.03866860
3780.46245117,0.03721536
3782.39125854,0.03945672
3784.32006592,0.03865642
3786.24887329,0.03842232
3788.17768066,0.03922532
3790.10648804,0.03895499
3792.03529541,0.03868544
3793.96410278,0.03928339
3795.89291016,0.03714842
3797.82171753,0.03663656
3799.75052490,0.03844408
3801.67933228,0.03106364
3803.60813965,0.03584795
3805.53694702,0.03871795
3807.46575439,0.03205036
3809.39456177,0.03840112
3811.32336914,0.03768098
3813.25217651,0.03879271
3815.18098389,0.03525273
3817.10979126,0.03107496
3819.03859863,0.03876249
3820.96740601,0.03189157
3822.89621338,0.03332402
3824.82502075,0.03851720
3826.75382812,0.03504771
3828.68263550,0.03751860
3830.61144287,0.03619040
3832.54025024,0.03507511
3834.46905762,0.03561346
3836.39786499,0.03402212
3838.32667236,0.03101232
3840.25547974,0.03330365
3842.18428711,0.03582325
3844.11309448,0.03425100
3846.04190186,0.03684681
3847.97070923,0.03634138
3849.89951660,0.03638785
3851.82832397,0.03295067
3853.75713135,0.02513785
3855.68593872,0.02933756
3857.61474609,0.03632922
3859.54355347,0.03545066
3861.47236084,0.03507127
3863.40116821,0.03448182
3865.32997559,0.03207867
3867.25878296,0.03552384
3869.18759033,0.03270706
3871.11639770,0.03026477
3873.04520508,0.03558837
3874.97401245,0.03290209
3876.90281982,0.03528173
3878.83162720,0.03596880
3880.76043457,0.03110298
3882.68924194,0.03547371
3884.61804932,0.03333417
3886.54685669,0.03066911
3888.47566406,0.03547347
3890.40447144,0.03369256
3892.33327881,0.03171213
3894.26208618,0.03452193
3896.19089355,0.03508122
3898.11970093,0.03355467
3900.04850830,0.03181094
3901.97731567,0.03152135
3903.90612305,0.03123682
3905.83493042,0.03148402
3907.76373779,0.03435088
3909.69254517,0.03436741
3911.62135254,0.03393806
3913.55015991,0.03449794
3915.47896728,0.03343698
3917.40777466,0.03270958
3919.33658203,0.03241686
3921.26538940,0.03352491
3923.19419678,0.03341876
3925.12300415,0.03265987
3927.05181152,0.03319766
3928.98061890,0.03352176
3930.90942627,0.03285535
3932.83823364,0.03190833
3934.76704102,0.03313816
3936.69584839,0.03331268
3938.62465576,0.03307519
3940.55346313,0.03335970
3942.48227051,0.03214163
3944.41107788,0.03238919
3946.33988525,0.03283679
3948.26869263,0.03213722
3950.19750000,0.03220369
3952.12630737,0.03265153
3954.05511475,0.03254616
3955.98392212,0.03256047
3957.91272949,0.03246824
3959.84153687,0.03232989
3961.77034424,0.03225140
3963.69915161,0.03201768
3965.62795898,0.03236816
3967.55676636,0.03216370
3969.48557373,0.03203795
3971.41438110,0.03201763
3973.34318848,0.03181677
3975.27199585,0.03175201
3977.20080322,0.03157277
3979.12961060,0.03186416
3981.05841797,0.03156018
3982.98722534,0.03157622
3984.91603271,0.03158370
3986.84484009,0.03143444
3988.77364746,0.03151036
3990.70245483,0.03116635
3992.63126221,0.03134260
3994.56006958,0.03112932
3996.48887695,0.03117285
3998.41768433,0.03119956
4000.34649170,0.03103304
4002.27529907,0.03105504
4004.20410645,0.03079431
4006.13291382,0.03095097
4008.06172119,0.03065944
4009.99052856,0.03059470
4011.91933594,0.03060966
4013.84814331,0.03047054
4015.77695068,0.03053684
4017.70575806,0.03043092
4019.63456543,0.03033465
4021.56337280,0.03025104
4023.49218018,0.03037632
4025.42098755,0.03004485
4027.34979492,0.03014982
4029.27860229,0.03007532
4031.20740967,0.02985864
4033.13621704,0.03005668
4035.06502441,0.02976436
4036.99383179,0.02992653
4038.92263916,0.02962401
4040.85144653,0.02965512
4042.78025391,0.02976561
4044.70906128,0.02935546
4046.63786865,0.02949030
4048.56667603,0.02928187
4050.49548340,0.02929532
4052.42429077,0.02927301
4054.35309814,0.02926524
4056.28190552,0.02918772
4058.21071289,0.02906080
4060.13952026,0.02912876
4062.06832764,0.02891505
4063.99713501,0.02898590
4065.92594238,0.02885922
4067.85474976,0.02880147
4069.78355713,0.02869925
4071.71236450,0.02864862
4073.64117187,0.02869629
4075.56997925,0.02848085
4077.49878662,0.02849721
4079.42759399,0.02835222
4081.35640137,0.02832131
4083.28520874,0.02826585
4085.21401611,0.02826394
4087.14282349,0.02816188
4089.07163086,0.02803355
4091.00043823,0.02811212
4092.92924561,0.02789502
4094.85805298,0.02789354
4096.78686035,0.02785542
4098.71566772,0.02785282
4100.64447510,0.02767796
4102.57328247,0.02752026
4104.50208984,0.02757938
4106.43089722,0.02747145
4108.35970459,0.02748211
4110.28851196,0.02736339
4112.21731934,0.02739368
4114.14612671,0.02721696
4116.07493408,0.02721783
4118.00374145,0.02726735
4119.93254883,0.02706144
4121.86135620,0.02713253
4123.79016357,0.02695466
4125.71897095,0.02699545
4127.64777832,0.02691662
4129.57658569,0.02683317
4131.50539307,0.02673664
4133.43420044,0.02652035
4135.36300781,0.02666734
4137.29181519,0.02656088
4139.22062256,0.02651791
4141.14942993,0.02650936
4143.07823730,0.02649683
4145.00704468,0.02634381
4146.93585205,0.02627061
4148.86465942,0.02621834
4150.79346680,0.02604707
4152.72227417,0.02613881
4154.65108154,0.02588901
4156.57988892,0.02595487
4158.50869629,0.02595951
4160.43750366,0.02582787
4162.36631103,0.02585236
4164.29511841,0.02570406
4166.22392578,0.02574401
4168.15273315,0.02555735
4170.08154053,0.02564266
4172.01034790,0.02554431
4173.93915527,0.02539391
4175.86796265,0.02548434
4177.79677002,0.02530194
4179.72557739,0.02535613
4181.65438477,0.02526966
4183.58319214,0.02520106
4185.51199951,0.02513644
4187.44080688,0.02509027
4189.36961426,0.02503047
4191.29842163,0.02494644
4193.22722900,0.02502777
4195.15603638,0.02490150
4197.08484375,0.02481593
4199.01365112,0.02470606
4200.94245850,0.02468188
4202.87126587,0.02455887
4204.80007324,0.02453738
4206.72888062,0.02455924
4208.65768799,0.02440921
4210.58649536,0.02444864
4212.51530273,0.02431456
4214.44411011,0.02433101
4216.37291748,0.02413705
4218.30172485,0.02404878
4220.23053223,0.02413714
4222.15933960,0.02397612
4224.08814697,0.02403820
4226.01695435,0.02386516
4227.94576172,0.02387955
4229.87456909,0.02388645
4231.80337646,0.02373593
4233.73218384,0.02369406
4235.66099121,0.02362014
4237.58979858,0.02368546
4239.51860596,0.02360102
4241.44741333,0.02351385
4243.37622070,0.02338526
4245.30502808,0.02336460
4247.23383545,0.02334222
4249.16264282,0.02323495
4251.09145020,0.02316814
4253.02025757,0.02312243
4254.94906494,0.02314576
4256.87787231,0.02306039
4258.80667969,0.02311265
4260.73548706,0.02292293
4262.66429443,0.02288430
4264.59310181,0.02292004
4266.52190918,0.02278970
4268.45071655,0.02293765
4270.37952393,0.02280724
4272.30833130,0.02268981
4274.23713867,0.02256372
4276.16594604,0.02257311
4278.09475342,0.02255549
4280.02356079,0.02241956
4281.95236816,0.02245227
4283.88117554,0.02228700
4285.80998291,0.02235901
4287.73879028,0.02225669
4289.66759766,0.02215070
4291.59640503,0.02217668
4293.52521240,0.02208286
4295.45401978,0.02204777
4297.38282715,0.02193163
4299.31163452,0.02199540
4301.24044189,0.02194221
4303.16924927,0.02191425
4305.09805664,0.02175363
4307.02686401,0.02168449
4308.95567139,0.02178364
4310.88447876,0.02162918
4312.81328613,0.02164251
4314.74209351,0.02151252
4316.67090088,0.02152016
4318.59970825,0.02149151
4320.52851562,0.02136485
4322.45732300,0.02136379
4324.38613037,0.02126292
4326.31493774,0.02126937
4328.24374512,0.02116987
4330.17255249,0.02116000
4332.10135986,0.02106358
4334.03016724,0.02102775
4335.95897461,0.02106448
4337.88778198,0.02094072
4339.81658936,0.02086146
4341.74539673,0.02083413
4343.67420410,0.02091893
4345.60301147,0.02070090
4347.53181885,0.02069198
4349.46062622,0.02070214
4351.38943359,0.02056745
4353.31824097,0.02062054
4355.24704834,0.02047312
4357.17585571,0.02052914
4359.10466309,0.02050399
4361.03347046,0.02039566
4362.96227783,0.02032147
4364.89108520,0.02027883
4366.81989258,0.02030033
4368.74869995,0.02015815
4370.67750732,0.02013277
4372.60631470,0.02008161
4374.53512207,0.02006824
4376.46392944,0.01996769
4378.39273682,0.01996441
4380.32154419,0.01997430
4382.25035156,0.01981187
4384.17915894,0.01985828
4386.10796631,0.01976704
4388.03677368,0.01971917
4389.96558105,0.01969747
4391.89438843,0.01961238
4393.82319580,0.01954717
4395.75200317,0.01954666
4397.68081055,0.01954461
4399.60961792,0.01935789
4401.53842529,0.01938671
4403.46723267,0.01939422
4405.39604004,0.01929451
4407.32484741,0.01920135
4409.25365478,0.01920913
4411.18246216,0.01922959
4413.11126953,0.01911401
4415.04007690,0.01906978
4416.96888428,0.01897371
4418.89769165,0.01897062
4420.82649902,0.01890350
4422.75530640,0.01885668
4424.68411377,0.01885290
4426.61292114,0.01880176
4428.54172852,0.01874460
4430.47053589,0.01864556
4432.39934326,0.01872456
4434.32815063,0.01856579
4436.25695801,0.01853751
4438.18576538,0.01857790
4440.11457275,0.01842640
4442.04338013,0.01839760
4443.97218750,0.01832279
4445.90099487,0.01838062
4447.82980225,0.01829028
4449.75860962,0.01826273
4451.68741699,0.01821342
4453.61622437,0.01805226
4455.54503174,0.01811442
4457.47383911,0.01806451
4459.40264648,0.01802864
4461.33145386,0.01798040
4463.26026123,0.01797464
4465.18906860,0.01786782
4467.11787598,0.01782383
4469.04668335,0.01786674
4470.97549072,0.01770736
4472.90429810,0.01770962
4474.83310547,0.01762281
4476.76191284,0.01763208
4478.69072021,0.01766707
4480.61952759,0.01755311
4482.54833496,0.01753703
4484.47714233,0.01742589
4486.40594971,0.01741823
4488.33475708,0.01745287
4490.26356445,0.01735464
4492.19237183,0.01723503
4494.12117920,0.01721836
4496.04998657,0.01720975
4497.97879395,0.01713792
4499.90760132,0.01709344
4501.83640869,0.01713286
4503.76521606,0.01711291
4505.69402344,0.01695170
4507.62283081,0.01700157
4509.55163818,0.01701022
4511.48044556,0.01689824
4513.40925293,0.01686611
4515.33806030,0.01680855
4517.26686768,0.01672677
4519.19567505,0.01664715
4521.12448242,0.01662234
4523.05328979,0.01663430
4524.98209717,0.01665832
4526.91090454,0.01649579
4528.83971191,0.01649262
4530.76851929,0.01649075
4532.69732666,0.01633167
4534.62613403,0.01644564
4536.55494141,0.01638202
4538.48374878,0.01624645
4540.41255615,0.01618806
4542.34136353,0.01616784
4544.27017090,0.01613768
4546.19897827,0.01609615
4548.12778564,0.01610500
4550.05659302,0.01602666
4551.98540039,0.01605490
4553.91420776,0.01593391
4555.84301514,0.01593529
4557.77182251,0.01595411
4559.70062988,0.01591908
4561.62943726,0.01593261
4563.55824463,0.01573180
4565.48705200,0.01580645
4567.41585937,0.01572327
4569.34466675,0.01567576
4571.27347412,0.01570822
4573.20228149,0.01554554
4575.13108887,0.01552139
4577.05989624,0.01543273
4578.98870361,0.01548218
4580.91751099,0.01542015
4582.84631836,0.01538695
4584.77512573,0.01538294
4586.70393311,0.01533587
4588.63274048,0.01525196
4590.56154785,0.01506939
4592.49035522,0.01518961
4594.41916260,0.01512464
4596.34796997,0.01515215
4598.27677734,0.01509591
4600.20558472,0.01496460
4602.13439209,0.01509000
4604.06319946,0.01497614
4605.99200684,0.01499786
4607.92081421,0.01491698
4609.84962158,0.01484704
4611.77842895,0.01485518
4613.70723633,0.01481944
4615.63604370,0.01476813
4617.56485107,0.01462568
4619.49365845,0.01468638
4621.42246582,0.01458095
4623.35127319,0.01457381
4625.28008057,0.01454700
4627.20888794,0.01447027
4629.13769531,0.01453877
4631.06650269,0.01442930
4632.99531006,0.01442302
4634.92411743,0.01440903
4636.85292480,0.01441967
4638.78173218,0.01434317
4640.71053955,0.01424493
4642.63934692,0.01419630
4644.56815430,0.01412911
4646.49696167,0.01417933
4648.42576904,0.01409144
4650.35457642,0.01405130
4652.28338379,0.01400586
4654.21219116,0.01401934
4656.14099853,0.01402662
4658.06980591,0.01398633
4659.99861328,0.01400092
4661.92742065,0.01385685
4663.85622803,0.01385306
4665.78503540,0.01381498
4667.71384277,0.01377731
4669.64265015,0.01377143
4671.57145752,0.01369119
4673.50026489,0.01370166
4675.42907227,0.01362666
4677.35787964,0.01357648
4679.28668701,0.01358590
4681.21549438,0.01356016
4683.14430176,0.01352986
4685.07310913,0.01355827
4687.00191650,0.01346392
4688.93072388,0.01343501
4690.85953125,0.01343298
4692.78833862,0.01331569
4694.71714600,0.01338603
4696.64595337,0.01322314
4698.57476074,0.01317642
4700.50356812,0.01325236
4702.43237549,0.01317904
4704.36118286,0.01322542
4706.28999023,0.01308766
4708.21879761,0.01307738
4710.14760498,0.01305400
4712.07641235,0.01295191
4714.00521973,0.01301184
4715.93402710,0.01294858
4717.86283447,0.01288588
4719.79164185,0.01289755
4721.72044922,0.01285747
4723.64925659,0.01277255
4725.57806396,0.01274763
4727.50687134,0.01273740
4729.43567871,0.01278970
4731.36448608,0.01273054
4733.29329346,0.01264753
4735.22210083,0.01264794
4737.15090820,0.01251472
4739.07971558,0.01251760
4741.00852295,0.01244558
4742.93733032,0.01238981
4744.86613770,0.01244044
4746.79494507,0.01243368
4748.72375244,0.01250147
4750.65255981,0.01240830
4752.58136719,0.01235378
4754.51017456,0.01235494
4756.43898193,0.01230581
4758.36778931,0.01230655
4760.29659668,0.01228119
4762.22540405,0.01222219
4764.15421143,0.01218752
4766.08301880,0.01218368
4768.01182617,0.01210625
4769.94063354,0.01209615
4771.86944092,0.01210202
4773.79824829,0.01205245
4775.72705566,0.01199091
4777.65586304,0.01199249
4779.58467041,0.01198713
4781.51347778,0.01189157
4783.44228516,0.01190476
4785.37109253,0.01186101
4787.29989990,0.01181909
4789.22870728,0.01178608
4791.15751465,0.01175907
4793.08632202,0.01175756
4795.01512939,0.01167638
4796.94393677,0.01169266
4798.87274414,0.01161447
4800.80155151,0.01153283
4802.73035889,0.01159093
4804.65916626,0.01162052
4806.58797363,0.01153335
4808.51678101,0.01150059
4810.44558838,0.01149329
4812.37439575,0.01140730
4814.30320312,0.01147254
4816.23201050,0.01139389
4818.16081787,0.01137345
4820.08962524,0.01136834
4822.01843262,0.01125478
4823.94723999,0.01129948
4825.87604736,0.01122542
4827.80485474,0.01123800
4829.73366211,0.01121232
4831.66246948,0.01113436
4833.59127686,0.01106414
4835.52008423,0.01101190
4837.44889160,0.01106961
4839.37769897,0.01101271
4841.30650635,0.01104655
4843.23531372,0.01096801
4845.16412109,0.01094144
4847.09292847,0.01092358
4849.02173584,0.01082352
4850.95054321,0.01084805
4852.87935059,0.01072899
4854.80815796,0.01082997
4856.73696533,0.01081943
4858.66577270,0.01069783
4860.59458008,0.01074337
4862.52338745,0.01062736
4864.45219482,0.01064582
4866.38100220,0.01067350
4868.30980957,0.01057692
4870.23861694,0.01054839
4872.16742432,0.01061722
4874.09623169,0.01057503
4876.02503906,0.01051742
4877.95384644,0.01052407
4879.88265381,0.01040868
4881.81146118,0.01043292
4883.74026855,0.01038957
4885.66907593,0.01035123
4887.59788330,0.01042433
4889.52669067,0.01029677
4891.45549805,0.01030070
4893.38430542,0.01031121
4895.31311279,0.01021432
4897.24192017,0.01027003
4899.17072754,0.01018956
4901.09953491,0.01014563
4903.02834228,0.01018926
4904.95714966,0.01002598
4906.88595703,0.01007934
4908.81476440,0.01012181
4910.74357178,0.01002374
4912.67237915,0.01005332
4914.60118652,0.00995696
4916.52999390,0.00996659
4918.45880127,0.00995800
4920.38760864,0.00987469
4922.31641602,0.00993816
4924.24522339,0.00986450
4926.17403076,0.00976093
4928.10283813,0.00975572
4930.03164551,0.00970748
4931.96045288,0.00966480
4933.88926025,0.00964435
4935.81806763,0.00963959
4937.74687500,0.00971144
4939.67568237,0.00960527
4941.60448975,0.00952509
4943.53329712,0.00961335
4945.46210449,0.00959205
4947.39091187,0.00959331
4949.31971924,0.00951015
4951.24852661,0.00949323
4953.17733398,0.00943089
4955.10614136,0.00937679
4957.03494873,0.00951361
4958.96375610,0.00942014
4960.89256348,0.00936868
4962.82137085,0.00931200
4964.75017822,0.00929234
4966.67898560,0.00930274
4968.60779297,0.00924275
4970.53660034,0.00930234
4972.46540771,0.00918661
4974.39421509,0.00919012
4976.32302246,0.00916841
4978.25182983,0.00906484
4980.18063721,0.00914053
4982.10944458,0.00917078
4984.03825195,0.00917573
4985.96705933,0.00902052
4987.89586670,0.00893666
4989.82467407,0.00895058
4991.75348145,0.00890455
4993.68228882,0.00889871
4995.61109619,0.00889326
4997.53990356,0.00887865
4999.46871094,0.00883143
5001.39751831,0.00882455
5003.32632568,0.00878968
5005.25513306,0.00877473
5007.18394043,0.00877373
5009.11274780,0.00878052
5011.04155518,0.00876940
5012.97036255,0.00868635
5014.89916992,0.00868798
5016.82797729,0.00866142
5018.75678467,0.00865789
5020.68559204,0.00863069
5022.61439941,0.00859012
5024.54320679,0.00857957
5026.47201416,0.00851246
5028.40082153,0.00855597
5030.32962891,0.00851099
5032.25843628,0.00847924
5034.18724365,0.00852416
5036.11605103,0.00839861
5038.04485840,0.00838882
5039.97366577,0.00839869
5041.90247314,0.00828583
5043.83128052,0.00831296
5045.76008789,0.00825681
5047.68889526,0.00817281
5049.61770264,0.00822589
5051.54651001,0.00819651
5053.47531738,0.00821711
5055.40412476,0.00824941
5057.33293213,0.00825470
5059.26173950,0.00816187
5061.19054687,0.00808443
5063.11935425,0.00815092
5065.04816162,0.00808761
5066.97696899,0.00810611
5068.90577637,0.00805977
5070.83458374,0.00804517
5072.76339111,0.00808679
5074.69219849,0.00796858
5076.62100586,0.00800667
5078.54981323,0.00795312
5080.47862061,0.00792667
5082.40742798,0.00789766
5084.33623535,0.00783883
5086.26504272,0.00785248
5088.19385010,0.00777075
5090.12265747,0.00787613
5092.05146484,0.00787674
5093.98027222,0.00776277
5095.90907959,0.00776043
5097.83788696,0.00779728
5099.76669434,0.00775306
5101.69550171,0.00771127
5103.62430908,0.00774594
5105.55311645,0.00759430
5107.48192383,0.00764531
5109.41073120,0.00768703
5111.33953857,0.00762767
5113.26834595,0.00763726
5115.19715332,0.00752008
5117.12596069,0.00755135
5119.05476807,0.00747892
5120.98357544,0.00745209
5122.91238281,0.00751551
5124.84119019,0.00746515
5126.76999756,0.00750443
5128.69880493,0.00744152
5130.62761230,0.00735872
5132.55641968,0.00734567
5134.48522705,0.00741236
5136.41403442,0.00746090
5138.34284180,0.00736201
5140.27164917,0.00730263
5142.20045654,0.00730297
5144.12926392,0.00724412
5146.05807129,0.00721707
5147.98687866,0.00726189
5149.91568603,0.00720140
5151.84449341,0.00715690
5153.77330078,0.00717645
5155.70210815,0.00714241
5157.63091553,0.00707545
5159.55972290,0.00714189
5161.48853027,0.00716102
5163.41733765,0.00696910
5165.34614502,0.00701440
5167.27495239,0.00708234
5169.20375977,0.00703153
5171.13256714,0.00703751
5173.06137451,0.00697741
5174.99018188,0.00694533
5176.91898926,0.00689233
5178.84779663,0.00686818
5180.77660400,0.00692622
5182.70541138,0.00693648
5184.63421875,0.00682303
5186.56302612,0.00676809
5188.49183350,0.00685569
5190.42064087,0.00684438
5192.34944824,0.00679355
5194.27825562,0.00679195
5196.20706299,0.00669129
5198.13587036,0.00663071
5200.06467773,0.00677803
5201.99348511,0.00676952
5203.92229248,0.00668502
5205.85109985,0.00655414
5207.77990723,0.00639976
5209.70871460,0.00658221
5211.63752197,0.00667359
5213.56632935,0.00668810
5215.49513672,0.00662831
5217.42394409,0.00652191
5219.35275146,0.00652846
5221.28155884,0.00648218
5223.21036621,0.00656747
5225.13917358,0.00644330
5227.06798096,0.00642650
5228.99678833,0.00648355
5230.92559570,0.00635037
5232.85440308,0.00646505
5234.78321045,0.00643309
5236.71201782,0.00643815
5238.64082520,0.00641772
5240.56963257,0.00634268
5242.49843994,0.00639726
5244.42724731,0.00626054
5246.35605469,0.00629698
5248.28486206,0.00624298
5250.21366943,0.00617411
5252.14247681,0.00633262
5254.07128418,0.00618426
5256.00009155,0.00614666
5257.92889893,0.00630150
5259.85770630,0.00624839
5261.78651367,0.00616706
5263.71532104,0.00603623
5265.64412842,0.00607576
5267.57293579,0.00621651
5269.50174316,0.00609651
5271.43055054,0.00609700
5273.35935791,0.00608748
5275.28816528,0.00605296
5277.21697266,0.00613269
5279.14578003,0.00601857
5281.07458740,0.00602722
5283.00339478,0.00607238
5284.93220215,0.00601299
5286.86100952,0.00601185
5288.78981689,0.00589368
5290.71862427,0.00580105
5292.64743164,0.00589263
5294.57623901,0.00597689
5296.50504639,0.00595023
5298.43385376,0.00593204
5300.36266113,0.00589057
5302.29146851,0.00587133
5304.22027588,0.00590993
5306.14908325,0.00583920
5308.07789062,0.00578009
5310.00669800,0.00585621
5311.93550537,0.00579731
5313.86431274,0.00574131
5315.79312012,0.00588853
5317.72192749,0.00581588
5319.65073486,0.00576195
5321.57954224,0.00577097
5323.50834961,0.00569675
5325.43715698,0.00575227
5327.36596436,0.00564039
5329.29477173,0.00563661
5331.22357910,0.00567118
5333.15238647,0.00552943
5335.08119385,0.00561943
5337.01000122,0.00558268
5338.93880859,0.00533027
5340.86761597,0.00549151
5342.79642334,0.00559159
5344.72523071,0.00530318
5346.65403809,0.00546788
5348.58284546,0.00553915
5350.51165283,0.00542968
5352.44046020,0.00550727
5354.36926758,0.00533624
5356.29807495,0.00541056
5358.22688232,0.00543462
5360.15568970,0.00541355
5362.08449707,0.00546831
5364.01330444,0.00533911
5365.94211182,0.00537330
5367.87091919,0.00533733
5369.79972656,0.00537793
5371.72853394,0.00535487
5373.65734131,0.00527502
5375.58614868,0.00522063
5377.51495605,0.00508354
5379.44376343,0.00523088
5381.37257080,0.00528626
5383.30137817,0.00524250
5385.23018555,0.00516507
5387.15899292,0.00511247
5389.08780029,0.00523210
5391.01660767,0.00524445
5392.94541504,0.00514549
5394.87422241,0.00507363
5396.80302978,0.00516207
5398.73183716,0.00516711
5400.66064453,0.00520273
5402.58945190,0.00519992
5404.51825928,0.00510472
5406.44706665,0.00514937
5408.37587402,0.00501553
5410.30468140,0.00499403
5412.23348877,0.00500868
5414.16229614,0.00489931
5416.09110352,0.00494770
5418.01991089,0.00498025
5419.94871826,0.00500481
5421.87752563,0.00500513
5423.80633301,0.00494939
5425.73514038,0.00495699
5427.66394775,0.00494924
5429.59275513,0.00479249
5431.52156250,0.00484645
5433.45036987,0.00490336
5435.37917725,0.00471058
5437.30798462,0.00489037
5439.23679199,0.00488223
5441.16559936,0.00464373
5443.09440674,0.00481815
5445.02321411,0.00471800
5446.95202148,0.00460180
5448.88082886,0.00476060
5450.80963623,0.00468993
5452.73844360,0.00474270
5454.66725098,0.00472061
5456.59605835,0.00466297
5458.52486572,0.00480628
5460.45367310,0.00467014
5462.38248047,0.00467549
5464.31128784,0.00469005
5466.24009521,0.00462217
5468.16890259,0.00470650
5470.09770996,0.00456932
5472.02651733,0.00460693
5473.95532471,0.00459207
5475.88413208,0.00442826
5477.81293945,0.00450504
5479.74174683,0.00460536
5481.67055420,0.00464789
5483.59936157,0.00453582
5485.52816895,0.00450322
5487.45697632,0.00449631
5489.38578369,0.00443980
5491.31459106,0.00449040
5493.24339844,0.00445589
5495.17220581,0.00443728
5497.10101318,0.00449553
5499.02982056,0.00446721
5500.95862793,0.00441333
5502.88743530,0.00446390
5504.81624268,0.00444285
5506.74505005,0.00438763
5508.67385742,0.00436073
5510.60266479,0.00436211
5512.53147217,0.00441195
5514.46027954,0.00433074
5516.38908691,0.00434236
5518.31789429,0.00437726
5520.24670166,0.00435850
5522.17550903,0.00429290
5524.10431641,0.00422574
5526.03312378,0.00432669
5527.96193115,0.00426682
5529.89073853,0.00427812
5531.81954590,0.00428788
5533.74835327,0.00421266
5535.67716064,0.00430080
5537.60596802,0.00420228
5539.53477539,0.00415267
5541.46358276,0.00418727
5543.39239014,0.00414591
5545.32119751,0.00415541
5547.25000488,0.00414610
5549.17881226,0.00417715
5551.10761963,0.00416285
5553.03642700,0.00407462
5554.96523437,0.00406342
5556.89404175,0.00413296
5558.82284912,0.00415777
5560.75165649,0.00415656
5562.68046387,0.00411876
5564.60927124,0.00403145
5566.53807861,0.00404284
5568.46688599,0.00409643
5570.39569336,0.00412075
5572.32450073,0.00406764
5574.25330811,0.00402919
5576.18211548,0.00408016
5578.11092285,0.00404703
5580.03973022,0.00400540
5581.96853760,0.00398571
5583.89734497,0.00394911
5585.82615234,0.00398589
5587.75495972,0.00395197
5589.68376709,0.00392204
5591.61257446,0.00400123
5593.54138184,0.00394414
5595.47018921,0.00387632
5597.39899658,0.00389509
5599.32780395,0.00385473
5601.25661133,0.00386388
5603.18541870,0.00387331
5605.11422607,0.00376794
5607.04303345,0.00378608
5608.97184082,0.00387445
5610.90064819,0.00379918
5612.82945557,0.00378134
5614.75826294,0.00375545
5616.68707031,0.00378183
5618.61587769,0.00387609
5620.54468506,0.00372389
5622.47349243,0.00368970
5624.40229980,0.00374251
5626.33110718,0.00372872
5628.25991455,0.00374046
5630.18872192,0.00372374
5632.11752930,0.00374783
5634.04633667,0.00365908
5635.97514404,0.00365763
5637.90395142,0.00372310
5639.83275879,0.00369943
5641.76156616,0.00370899
5643.69037353,0.00365768
5645.61918091,0.00364064
5647.54798828,0.00364396
5649.47679565,0.00359418
5651.40560303,0.00356226
5653.33441040,0.00361791
5655.26321777,0.00358371
5657.19202515,0.00352639
5659.12083252,0.00360317
5661.04963989,0.00355811
5662.97844727,0.00354478
5664.90725464,0.00352006
5666.83606201,0.00346979
5668.76486938,0.00349430
5670.69367676,0.00346858
5672.62248413,0.00351945
5674.55129150,0.00348153
5676.48009888,0.00343972
5678.40890625,0.00353532
5680.33771362,0.00355043
5682.26652100,0.00344725
5684.19532837,0.00336726
5686.12413574,0.00341092
5688.05294311,0.00342851
5689.98175049,0.00341637
5691.91055786,0.00337907
5693.83936523,0.00337348
5695.76817261,0.00343984
5697.69697998,0.00340118
5699.62578735,0.00333165
5701.55459473,0.00330221
5703.48340210,0.00331135
5705.41220947,0.00333136
5707.34101685,0.00331050
5709.26982422,0.00330422
5711.19863159,0.00327481
5713.12743896,0.00328568
5715.05624634,0.00335295
5716.98505371,0.00325799
5718.91386108,0.00318214
5720.84266846,0.00326605
5722.77147583,0.00329749
5724.70028320,0.00326579
5726.62909058,0.00320237
5728.55789795,0.00320016
5730.48670532,0.00318369
5732.41551270,0.00314871
5734.34432007,0.00318071
5736.27312744,0.00316459
5738.20193481,0.00315600
5740.13074219,0.00311317
5742.05954956,0.00314954
5743.98835693,0.00317057
5745.91716431,0.00307573
5747.84597168,0.00311386
5749.77477905,0.00311193
5751.70358643,0.00307947
5753.63239380,0.00308238
5755.56120117,0.00305462
5757.49000854,0.00305062
5759.41881592,0.00307948
5761.34762329,0.00304673
5763.27643066,0.00296408
5765.20523804,0.00297730
5767.13404541,0.00295778
5769.06285278,0.00302135
5770.99166016,0.00302936
5772.92046753,0.00292026
5774.84927490,0.00300418
5776.77808228,0.00301224
5778.70688965,0.00298485
5780.63569702,0.00298060
5782.56450439,0.00292779
5784.49331177,0.00296396
5786.42211914,0.00298153
5788.35092651,0.00292856
5790.27973389,0.00289805
5792.20854126,0.00292549
5794.13734863,0.00285711
5796.06615601,0.00283275
5797.99496338,0.00287189
5799.92377075,0.00282615
5801.85257812,0.00287242
5803.78138550,0.00282794
5805.71019287,0.00275056
5807.63900024,0.00281573
5809.56780762,0.00282163
5811.49661499,0.00284580
5813.42542236,0.00280678
5815.35422974,0.00276104
5817.28303711,0.00285079
5819.21184448,0.00277993
5821.14065186,0.00277157
5823.06945923,0.00286005
5824.99826660,0.00278111
5826.92707397,0.00275292
5828.85588135,0.00270993
5830.78468872,0.00268389
5832.71349609,0.00270940
5834.64230347,0.00271289
5836.57111084,0.00273459
5838.49991821,0.00269001
5840.42872559,0.00268432
5842.35753296,0.00266447
5844.28634033,0.00265544
5846.21514770,0.00266521
5848.14395508,0.00261266
5850.07276245,0.00261599
5852.00156982,0.00265832
5853.93037720,0.00270298
5855.85918457,0.00262245
5857.78799194,0.00257796
5859.71679932,0.00264882
5861.64560669,0.00258942
5863.57441406,0.00253626
5865.50322144,0.00262334
5867.43202881,0.00263199
5869.36083618,0.00253556
5871.28964355,0.00256415
5873.21845093,0.00256099
5875.14725830,0.00253692
5877.07606567,0.00253727
5879.00487305,0.00251934
5880.93368042,0.00256206
5882.86248779,0.00246909
5884.79129517,0.00247466
5886.72010254,0.00252521
5888.64890991,0.00246570
5890.57771728,0.00247121
5892.50652466,0.00244647
5894.43533203,0.00250727
5896.36413940,0.00249906
5898.29294678,0.00244248
5900.22175415,0.00246280
5902.15056152,0.00242362
5904.07936890,0.00242907
5906.00817627,0.00244167
5907.93698364,0.00247069
5909.86579102,0.00244408
5911.79459839,0.00237527
5913.72340576,0.00237554
5915.65221313,0.00235027
5917.58102051,0.00234386
5919.50982788,0.00238676
5921.43863525,0.00243130
5923.36744263,0.00236566
5925.29625000,0.00228989
5927.22505737,0.00231253
5929.15386475,0.00234588
5931.08267212,0.00238028
5933.01147949,0.00234491
5934.94028686,0.00236096
5936.86909424,0.00233916
5938.79790161,0.00225405
5940.72670898,0.00228076
5942.65551636,0.00221566
5944.58432373,0.00232187
5946.51313110,0.00237622
5948.44193848,0.00218696
5950.37074585,0.00226891
5952.29955322,0.00222201
5954.22836060,0.00217606
5956.15716797,0.00228668
5958.08597534,0.00224664
5960.01478271,0.00224597
5961.94359009,0.00220206
5963.87239746,0.00222306
5965.80120483,0.00221449
5967.73001221,0.00220236
5969.65881958,0.00221113
5971.58762695,0.00219493
5973.51643433,0.00223854
5975.44524170,0.00206847
5977.37404907,0.00214524
5979.30285645,0.00221491
5981.23166382,0.00211221
5983.16047119,0.00220604
5985.08927856,0.00211936
5987.01808594,0.00214116
5988.94689331,0.00212520
5990.87570068,0.00207445
5992.80450806,0.00217928
5994.73331543,0.00208839
5996.66212280,0.00205525
5998.59093018,0.00209597
6000.51973755,0.00209901
