399.26312622,0.00043916
401.19193359,-0.00006395
403.12074097,-0.00017506
405.04954834,0.00031413
406.97835571,0.00013693
408.90716309,-0.00014673
410.83597046,0.00009958
412.76477783,0.00040281
414.69358521,0.00015785
416.62239258,0.00036839
418.55119995,0.00034755
420.48000732,0.00004639
422.40881470,0.00032033
424.33762207,0.00009969
426.26642944,0.00030472
428.19523682,0.00077762
430.12404419,0.00045691
432.05285156,0.00038275
433.98165894,0.00071129
435.91046631,0.00037516
437.83927368,-0.00014771
439.76808105,0.00031306
441.69688843,0.00029310
443.62569580,-0.00010331
445.55450317,0.00011417
447.48331055,0.00030625
449.41211792,0.00019326
451.34092529,-0.00005901
453.26973267,0.00009710
455.19854004,0.00016062
457.12734741,0.00020427
459.05615479,-0.00005717
460.98496216,-0.00008010
462.91376953,0.00045915
464.84257690,0.00012747
466.77138428,-0.00011767
468.70019165,0.00019503
470.62899902,0.00032114
472.55780640,0.00011211
474.48661377,0.00011498
476.41542114,0.00034192
478.34422852,0.00026016
480.27303589,0.00027696
482.20184326,0.00019072
484.13065063,0.00032514
486.05945801,0.00039069
487.98826538,0.00002424
489.91707275,0.00009494
491.84588013,0.00011489
493.77468750,-0.00008537
495.70349487,-0.00005915
497.63230225,0.00034231
499.56110962,0.00031923
501.48991699,0.00013553
503.41872437,0.00042443
505.34753174,0.00013328
507.27633911,0.00023420
509.20514648,0.00053381
511.13395386,0.00027952
513.06276123,0.00013723
514.99156860,-0.00013342
516.92037598,0.00021873
518.84918335,0.00032571
520.77799072,-0.00000570
522.70679810,0.00026089
524.63560547,0.00012350
526.56441284,-0.00015830
528.49322021,-0.00007003
530.42202759,0.00013060
532.35083496,0.00003598
534.27964233,-0.00011484
536.20844971,0.00038086
538.13725708,0.00033819
540.06606445,-0.00016917
541.99487183,0.00005354
543.92367920,0.00008614
545.85248657,-0.00001562
547.78129395,0.00024144
549.71010132,-0.00001641
551.63890869,0.00021008
553.56771606,0.00062228
555.49652344,0.00002364
557.42533081,0.00020595
559.35413818,0.00036315
561.28294556,-0.00021262
563.21175293,0.00009842
565.14056030,0.00013252
567.06936768,0.00004218
568.99817505,0.00022163
570.92698242,0.00007543
572.85578979,-0.00002984
574.78459717,0.00005612
576.71340454,0.00029475
578.64221191,0.00016618
580.57101929,0.00010756
582.49982666,0.00014019
584.42863403,0.00030767
586.35744141,0.00006083
588.28624878,-0.00010778
590.21505615,0.00017713
592.14386353,0.00006624
594.07267090,0.00033368
596.00147827,0.00003147
597.93028564,0.00008568
599.85909302,0.00023330
601.78790039,0.00001775
603.71670776,0.00030903
605.64551514,0.00010426
607.57432251,0.00001094
609.50312988,-0.00005648
611.43193726,0.00011936
613.36074463,0.00025387
615.28955200,0.00036443
617.21835938,0.00019105
619.14716675,-0.00005064
621.07597412,0.00045849
623.00478149,-0.00012451
624.93358887,-0.00012559
626.86239624,0.00052154
628.79120361,0.00005895
630.72001099,0.00027934
632.64881836,0.00028145
634.57762573,0.00009038
636.50643311,0.00026893
638.43524048,0.00035580
640.36404785,0.00052725
642.29285522,0.00027951
644.22166260,0.00034340
646.15046997,0.00050700
648.07927734,0.00073770
650.00808472,0.00092882
651.93689209,0.00033694
653.86569946,0.00030022
655.79450684,0.00060038
657.72331421,0.00068351
659.65212158,0.00106102
661.58092896,0.00098530
663.50973633,0.00081824
665.43854370,0.00072754
667.36735107,0.00053915
669.29615845,0.00094094
671.22496582,0.00080428
673.15377319,0.00049930
675.08258057,0.00100408
677.01138794,0.00130279
678.94019531,0.00127413
680.86900269,0.00110218
682.79781006,0.00126257
684.72661743,0.00125572
686.65542480,0.00103588
688.58423218,0.00122299
690.51303955,0.00104851
692.44184692,0.00099792
694.37065430,0.00111548
696.29946167,0.00116002
698.22826904,0.00140221
700.15707642,0.00155971
702.08588379,0.00165391
704.01469116,0.00166273
705.94349854,0.00142498
707.87230591,0.00088641
709.80111328,0.00085064
711.72992065,0.00099175
713.65872803,0.00065462
715.58753540,0.00020391
717.51634277,-0.00006985
719.44515015,0.00032181
721.37395752,0.00039348
723.30276489,-0.00007395
725.23157227,-0.00006454
727.16037964,0.00022627
729.08918701,0.00030364
731.01799438,0.00014653
732.94680176,-0.00005521
734.87560913,-0.00005150
736.80441650,0.00033233
738.73322388,0.00056964
740.66203125,0.00014057
742.59083862,0.00004498
744.51964600,0.00040029
746.44845337,0.00012495
748.37726074,0.00011229
750.30606812,0.00011312
752.23487549,-0.00001551
754.16368286,0.00018253
756.09249023,-0.00003777
758.02129761,-0.00013274
759.95010498,-0.00018668
761.87891235,-0.00003892
763.80771973,0.00046500
765.73652710,0.00015029
767.66533447,0.00014110
769.59414185,0.00040340
771.52294922,0.00004199
773.45175659,0.00016253
775.38056396,0.00028144
777.30937134,0.00039518
779.23817871,0.00049387
781.16698608,0.00020976
783.09579346,0.00019948
785.02460083,0.00025319
786.95340820,0.00033421
788.88221558,0.00027826
790.81102295,0.00015185
792.73983032,0.00016375
794.66863770,0.00014022
796.59744507,0.00032870
798.52625244,0.00042148
800.45505981,0.00042466
802.38386719,0.00045472
804.31267456,0.00036861
806.24148193,0.00042118
808.17028931,0.00031793
810.09909668,-0.00010523
812.02790405,-0.00009709
813.95671143,0.00036034
815.88551880,0.00037653
817.81432617,0.00010932
819.74313354,0.00006392
821.67194092,0.00023358
823.60074829,0.00043360
825.52955566,0.00027724
827.45836304,0.00009539
829.38717041,0.00041387
831.31597778,0.00053545
833.24478516,0.00025634
835.17359253,0.00040272
837.10239990,0.00055199
839.03120728,0.00065161
840.96001465,0.00073974
842.88882202,0.00037806
844.81762939,0.00038929
846.74643677,0.00040069
848.67524414,0.00029588
850.60405151,0.00057657
852.53285889,0.00050284
854.46166626,0.00027181
856.39047363,0.00031139
858.31928101,0.00033620
860.24808838,0.00030921
862.17689575,0.00045814
864.10570313,0.00046914
866.03451050,0.00042902
867.96331787,0.00036129
869.89212524,0.00012198
871.82093262,0.00029632
873.74973999,0.00039553
875.67854736,0.00020905
877.60735474,0.00019885
879.53616211,0.00043087
881.46496948,0.00055166
883.39377686,0.00037475
885.32258423,0.00037439
887.25139160,0.00028191
889.18019897,0.00014574
891.10900635,0.00019511
893.03781372,0.00033058
894.96662109,0.00054336
896.89542847,0.00049349
898.82423584,0.00033288
900.75304321,0.00018137
902.68185059,0.00023005
904.61065796,0.00034899
906.53946533,0.00025633
908.46827271,0.00023450
910.39708008,0.00018255
912.32588745,0.00037819
914.25469482,0.00045681
916.18350220,0.00034545
918.11230957,0.00041435
920.04111694,0.00044681
921.96992432,0.00066238
923.89873169,0.00043718
925.82753906,0.00048889
927.75634644,0.00079472
929.68515381,0.00044768
931.61396118,0.00064950
933.54276855,0.00069337
935.47157593,0.00053203
937.40038330,0.00060011
939.32919067,0.00045069
941.25799805,0.00074104
943.18680542,0.00080527
945.11561279,0.00074484
947.04442017,0.00073638
948.97322754,0.00049843
950.90203491,0.00062506
952.83084229,0.00068197
954.75964966,0.00060070
956.68845703,0.00071052
958.61726440,0.00082527
960.54607178,0.00071187
962.47487915,0.00068977
964.40368652,0.00091051
966.33249390,0.00077524
968.26130127,0.00066897
970.19010864,0.00081131
972.11891602,0.00081747
974.04772339,0.00094494
975.97653076,0.00104168
977.90533813,0.00086993
979.83414551,0.00098321
981.76295288,0.00114176
983.69176025,0.00103479
985.62056763,0.00129321
987.54937500,0.00156347
989.47818237,0.00157324
991.40698975,0.00155289
993.33579712,0.00165144
995.26460449,0.00189864
997.19341187,0.00194898
999.12221924,0.00220069
1001.05102661,0.00240038
1002.97983398,0.00241537
1004.90864136,0.00260587
1006.83744873,0.00269482
1008.76625610,0.00284218
1010.69506348,0.00281953
1012.62387085,0.00314678
1014.55267822,0.00362515
1016.48148560,0.00343900
1018.41029297,0.00361214
1020.33910034,0.00367321
1022.26790771,0.00360110
1024.19671509,0.00428624
1026.12552246,0.00451353
1028.05432983,0.00437625
1029.98313721,0.00464950
1031.91194458,0.00443471
1033.84075195,0.00431531
1035.76955933,0.00481553
1037.69836670,0.00479942
1039.62717407,0.00491606
1041.55598145,0.00502727
1043.48478882,0.00473735
1045.41359619,0.00473076
1047.34240356,0.00439638
1049.27121094,0.00452220
1051.20001831,0.00463873
1053.12882568,0.00421690
1055.05763306,0.00436714
1056.98644043,0.00407343
1058.91524780,0.00406167
1060.84405518,0.00435501
1062.77286255,0.00381967
1064.70166992,0.00379818
1066.63047729,0.00387310
1068.55928467,0.00357460
1070.48809204,0.00345135
1072.41689941,0.00318444
1074.34570679,0.00310141
1076.27451416,0.00291160
1078.20332153,0.00266959
1080.13212891,0.00294373
1082.06093628,0.00267409
1083.98974365,0.00236622
1085.91855103,0.00257839
1087.84735840,0.00233232
1089.77616577,0.00222697
1091.70497314,0.00216105
1093.63378052,0.00193738
1095.56258789,0.00194069
1097.49139526,0.00189863
1099.42020264,0.00199467
1101.34901001,0.00201925
1103.27781738,0.00193146
1105.20662476,0.00188743
1107.13543213,0.00191005
1109.06423950,0.00180530
1110.99304687,0.00172498
1112.92185425,0.00188565
1114.85066162,0.00158103
1116.77946899,0.00156914
1118.70827637,0.00185219
1120.63708374,0.00164377
1122.56589111,0.00165644
1124.49469849,0.00168573
1126.42350586,0.00161522
1128.35231323,0.00171301
1130.28112061,0.00202627
1132.20992798,0.00220247
1134.13873535,0.00184909
1136.06754272,0.00185695
1137.99635010,0.00215079
1139.92515747,0.00208401
1141.85396484,0.00212968
1143.78277222,0.00240682
1145.71157959,0.00255012
1147.64038696,0.00266584
1149.56919434,0.00272945
1151.49800171,0.00269165
1153.42680908,0.00305740
1155.35561646,0.00326019
1157.28442383,0.00323954
1159.21323120,0.00356536
1161.14203857,0.00354459
1163.07084595,0.00368586
1164.99965332,0.00390448
1166.92846069,0.00370302
1168.85726807,0.00401345
1170.78607544,0.00412498
1172.71488281,0.00419443
1174.64369019,0.00461890
1176.57249756,0.00450494
1178.50130493,0.00471695
1180.43011230,0.00496223
1182.35891968,0.00501986
1184.28772705,0.00543278
1186.21653442,0.00543111
1188.14534180,0.00566155
1190.07414917,0.00602211
1192.00295654,0.00614701
1193.93176392,0.00648548
1195.86057129,0.00661111
1197.78937866,0.00691777
1199.71818604,0.00728544
1201.64699341,0.00756901
1203.57580078,0.00795008
1205.50460815,0.00820975
1207.43341553,0.00856006
1209.36222290,0.00877574
1211.29103027,0.00895681
1213.21983765,0.00924910
1215.14864502,0.00958932
1217.07745239,0.00962071
1219.00625977,0.00957344
1220.93506714,0.01009831
1222.86387451,0.01015694
1224.79268188,0.01007559
1226.72148926,0.01032705
1228.65029663,0.01022598
1230.57910400,0.01019297
1232.50791138,0.01016402
1234.43671875,0.01021606
1236.36552612,0.01028007
1238.29433350,0.01019748
1240.22314087,0.01025547
1242.15194824,0.01011423
1244.08075562,0.00997076
1246.00956299,0.00995120
1247.93837036,0.00996608
1249.86717773,0.01008968
1251.79598511,0.01001547
1253.72479248,0.00978912
1255.65359985,0.00978158
1257.58240723,0.00988423
1259.51121460,0.00947831
1261.44002197,0.00899985
1263.36882935,0.00919716
1265.29763672,0.00926267
1267.22644409,0.00896947
1269.15525146,0.00889693
1271.08405884,0.00863918
1273.01286621,0.00842114
1274.94167358,0.00846890
1276.87048096,0.00832571
1278.79928833,0.00829796
1280.72809570,0.00804364
1282.65690308,0.00781467
1284.58571045,0.00795060
1286.51451782,0.00758568
1288.44332520,0.00737173
1290.37213257,0.00736695
1292.30093994,0.00709451
1294.22974731,0.00701084
1296.15855469,0.00706779
1298.08736206,0.00726329
1300.01616943,0.00729066
1301.94497681,0.00725066
1303.87378418,0.00737922
1305.80259155,0.00742340
1307.73139893,0.00745626
1309.66020630,0.00753940
1311.58901367,0.00766301
1313.51782104,0.00781194
1315.44662842,0.00810768
1317.37543579,0.00822213
1319.30424316,0.00834695
1321.23305054,0.00869331
1323.16185791,0.00879204
1325.09066528,0.00900131
1327.01947266,0.00927344
1328.94828003,0.00953713
1330.87708740,0.00981538
1332.80589478,0.01010180
1334.73470215,0.01035513
1336.66350952,0.01018694
1338.59231689,0.01017874
1340.52112427,0.01041696
1342.44993164,0.01080161
1344.37873901,0.01111155
1346.30754639,0.01087278
1348.23635376,0.01058872
1350.16516113,0.01064547
1352.09396851,0.01072096
1354.02277588,0.01036152
1355.95158325,0.01034076
1357.88039062,0.01051793
1359.80919800,0.01024685
1361.73800537,0.00976310
1363.66681274,0.00951726
1365.59562012,0.00997080
1367.52442749,0.00978195
1369.45323486,0.00974346
1371.38204224,0.01001321
1373.31084961,0.00930588
1375.23965698,0.00927532
1377.16846436,0.00954436
1379.09727173,0.00954820
1381.02607910,0.00951690
1382.95488647,0.00959429
1384.88369385,0.00965033
1386.81250122,0.00903872
1388.74130859,0.00935588
1390.67011597,0.01022143
1392.59892334,0.00980868
1394.52773071,0.00909227
1396.45653809,0.00966390
1398.38534546,0.00982684
1400.31415283,0.00962834
1402.24296021,0.01013046
1404.17176758,0.00953764
1406.10057495,0.01000933
1408.02938232,0.01032458
1409.95818970,0.00949108
1411.88699707,0.00989147
1413.81580444,0.00963949
1415.74461182,0.00958995
1417.67341919,0.00885011
1419.60222656,0.00819593
1421.53103394,0.00919559
1423.45984131,0.00877705
1425.38864868,0.00856732
1427.31745605,0.00878592
1429.24626343,0.00819373
1431.17507080,0.00785962
1433.10387817,0.00804147
1435.03268555,0.00731706
1436.96149292,0.00631397
1438.89030029,0.00729906
1440.81910767,0.00724719
1442.74791504,0.00673698
1444.67672241,0.00712428
1446.60552979,0.00655859
1448.53433716,0.00666261
1450.46314453,0.00684777
1452.39195190,0.00702739
1454.32075928,0.00715134
1456.24956665,0.00603873
1458.17837402,0.00639652
1460.10718140,0.00804558
1462.03598877,0.00857548
1463.96479614,0.00853336
1465.89360352,0.00872784
1467.82241089,0.01009864
1469.75121826,0.01071256
1471.68002563,0.00952940
1473.60883301,0.01009376
1475.53764038,0.01121864
1477.46644775,0.01216890
1479.39525513,0.01342979
1481.32406250,0.01351345
1483.25286987,0.01425212
1485.18167725,0.01468091
1487.11048462,0.01454581
1489.03929199,0.01438342
1490.96809937,0.01465095
1492.89690674,0.01697146
1494.82571411,0.01637743
1496.75452148,0.01489621
1498.68332886,0.01670954
1500.61213623,0.01712027
1502.54094360,0.01815729
1504.46975098,0.01714086
1506.39855835,0.01291849
1508.32736572,0.01558756
1510.25617310,0.01804552
1512.18498047,0.01744562
1514.11378784,0.01878414
1516.04259521,0.01707617
1517.97140259,0.01753395
1519.90020996,0.01694042
1521.82901733,0.01514723
1523.75782471,0.01815103
1525.68663208,0.01775049
1527.61543945,0.01777254
1529.54424683,0.01942934
1531.47305420,0.01865133
1533.40186157,0.01715965
1535.33066895,0.01837157
1537.25947632,0.01926981
1539.18828369,0.01395291
1541.11709106,0.01504321
1543.04589844,0.01749872
1544.97470581,0.01680945
1546.90351318,0.01966134
1548.83232056,0.01829452
1550.76112793,0.01910201
1552.68993530,0.01888892
1554.61874268,0.01723105
1556.54755005,0.01803660
1558.47635742,0.01301088
1560.40516479,0.01438607
1562.33397217,0.01967979
1564.26277954,0.01868024
1566.19158691,0.01912735
1568.12039429,0.01882381
1570.04920166,0.01700663
1571.97800903,0.01939154
1573.90681641,0.01931844
1575.83562378,0.01558984
1577.76443115,0.01750506
1579.69323853,0.01924975
1581.62204590,0.01864675
1583.55085327,0.01924988
1585.47966064,0.01897594
1587.40846802,0.01926981
1589.33727539,0.01888045
1591.26608276,0.01881967
1593.19489014,0.01888831
1595.12369751,0.01875460
1597.05250488,0.01897225
1598.98131226,0.01871792
1600.91011963,0.01887229
1602.83892700,0.01842469
1604.76773437,0.01866513
1606.69654175,0.01834518
1608.62534912,0.01838061
1610.55415649,0.01844382
1612.48296387,0.01837199
1614.41177124,0.01862594
1616.34057861,0.01546639
1618.26938599,0.01684457
1620.19819336,0.01951608
1622.12700073,0.01743348
1624.05580811,0.01753134
1625.98461548,0.01845662
1627.91342285,0.01850152
1629.84223022,0.01853481
1631.77103760,0.01991431
1633.69984497,0.01827083
1635.62865234,0.01538805
1637.55745972,0.01816275
1639.48626709,0.01986678
1641.41507446,0.01947245
1643.34388184,0.02010292
1645.27268921,0.01807978
1647.20149658,0.01611441
1649.13030396,0.02040969
1651.05911133,0.01913721
1652.98791870,0.01267442
1654.91672607,0.01739763
1656.84553345,0.02122829
1658.77434082,0.02041257
1660.70314819,0.02105505
1662.63195557,0.01938065
1664.56076294,0.02073734
1666.48957031,0.02201675
1668.41837769,0.01939322
1670.34718506,0.01921453
1672.27599243,0.02150273
1674.20479980,0.01978618
1676.13360718,0.01933372
1678.06241455,0.02200531
1679.99122192,0.02118865
1681.92002930,0.02097075
1683.84883667,0.01716492
1685.77764404,0.01751029
1687.70645142,0.02321440
1689.63525879,0.02016598
1691.56406616,0.02235720
1693.49287354,0.02228182
1695.42168091,0.01669393
1697.35048828,0.02048102
1699.27929565,0.01800747
1701.20810303,0.01659536
1703.13691040,0.02184083
1705.06571777,0.02010482
1706.99452515,0.02037708
1708.92333252,0.02175021
1710.85213989,0.02107621
1712.78094727,0.02129257
1714.70975464,0.01958934
1716.63856201,0.01785785
1718.56736938,0.01756949
1720.49617676,0.02066565
1722.42498413,0.02123700
1724.35379150,0.01961539
1726.28259888,0.02129907
1728.21140625,0.01970759
1730.14021362,0.01993926
1732.06902100,0.01925656
1733.99782837,0.01514785
1735.92663574,0.01863156
1737.85544312,0.02008717
1739.78425049,0.01808597
1741.71305786,0.01935298
1743.64186523,0.01962214
1745.57067261,0.01970328
1747.49947998,0.01974670
1749.42828735,0.01907988
1751.35709473,0.01821527
1753.28590210,0.02011466
1755.21470947,0.02083437
1757.14351685,0.01908415
1759.07232422,0.02094100
1761.00113159,0.01968960
1762.92993896,0.01908285
1764.85874634,0.02147164
1766.78755371,0.01960224
1768.71636108,0.01976115
1770.64516846,0.01947094
1772.57397583,0.01763611
1774.50278320,0.01963247
1776.43159058,0.02071014
1778.36039795,0.02017883
1780.28920532,0.02006592
1782.21801270,0.02013820
1784.14682007,0.01996342
1786.07562744,0.01975823
1788.00443481,0.02052991
1789.93324219,0.01991229
1791.86204956,0.01824063
1793.79085693,0.01910099
1795.71966431,0.02029411
1797.64847168,0.02003052
1799.57727905,0.01976945
1801.50608643,0.01940535
1803.43489380,0.01994063
1805.36370117,0.02021007
1807.29250854,0.02006190
1809.22131592,0.02012505
1811.15012329,0.01961907
1813.07893066,0.02016484
1815.00773804,0.02013589
1816.93654541,0.01996541
1818.86535278,0.02001073
1820.79416016,0.01986517
1822.72296753,0.02016568
1824.65177490,0.01903747
1826.58058228,0.01971343
1828.50938965,0.01967068
1830.43819702,0.01855459
1832.36700439,0.02004872
1834.29581177,0.01981002
1836.22461914,0.01964981
1838.15342651,0.01964433
1840.08223389,0.01973762
1842.01104126,0.01971748
1843.93984863,0.01763341
1845.86865601,0.01872279
1847.79746338,0.01974751
1849.72627075,0.01919554
1851.65507812,0.01968190
1853.58388550,0.01933819
1855.51269287,0.01962611
1857.44150024,0.01952500
1859.37030762,0.01929521
1861.29911499,0.01945218
1863.22792236,0.01926772
1865.15672974,0.01951223
1867.08553711,0.01867345
1869.01434448,0.01812084
1870.94315186,0.01896959
1872.87195923,0.01925335
1874.80076660,0.01904707
1876.72957397,0.01907618
1878.65838135,0.01901723
1880.58718872,0.01903285
1882.51599609,0.01893201
1884.44480347,0.01877467
1886.37361084,0.01907101
1888.30241821,0.01853900
1890.23122559,0.01833996
1892.16003296,0.01899402
1894.08884033,0.01854700
1896.01764771,0.01843731
1897.94645508,0.01876932
1899.87526245,0.01865233
1901.80406982,0.01864399
1903.73287720,0.01851040
1905.66168457,0.01844053
1907.59049194,0.01830148
1909.51929932,0.01828160
1911.44810669,0.01826889
1913.37691406,0.01832111
1915.30572144,0.01846569
1917.23452881,0.01759679
1919.16333618,0.01771661
1921.09214355,0.01840494
1923.02095093,0.01785351
1924.94975830,0.01810364
1926.87856567,0.01816235
1928.80737305,0.01803127
1930.73618042,0.01826642
1932.66498779,0.01790295
1934.59379517,0.01808836
1936.52260254,0.01798118
1938.45140991,0.01791171
1940.38021729,0.01803394
1942.30902466,0.01750273
1944.23783203,0.01770879
1946.16663940,0.01800209
1948.09544678,0.01795429
1950.02425415,0.01796302
1951.95306152,0.01784960
1953.88186890,0.01782313
1955.81067627,0.01778845
1957.73948364,0.01779487
1959.66829102,0.01777779
1961.59709839,0.01775878
1963.52590576,0.01775765
1965.45471313,0.01765829
1967.38352051,0.01754028
1969.31232788,0.01767600
1971.24113525,0.01773204
1973.16994263,0.01762449
1975.09875000,0.01760335
1977.02755737,0.01746291
1978.95636475,0.01758126
1980.88517212,0.01757226
1982.81397949,0.01755118
1984.74278687,0.01751447
1986.67159424,0.01720794
1988.60040161,0.01740184
1990.52920898,0.01717213
1992.45801636,0.01702340
1994.38682373,0.01738471
1996.31563110,0.01718159
1998.24443848,0.01716326
2000.17324585,0.01725889
2002.10205322,0.01720732
2004.03086060,0.01710043
2005.95966797,0.01688563
2007.88847534,0.01700888
2009.81728271,0.01704151
2011.74609009,0.01680701
2013.67489746,0.01678901
2015.60370483,0.01673507
2017.53251221,0.01665227
2019.46131958,0.01672497
2021.39012695,0.01660380
2023.31893433,0.01663339
2025.24774170,0.01670804
2027.17654907,0.01657718
2029.10535645,0.01657428
2031.03416382,0.01650831
2032.96297119,0.01647659
2034.89177856,0.01641941
2036.82058594,0.01635550
2038.74939331,0.01633471
2040.67820068,0.01618981
2042.60700806,0.01613342
2044.53581543,0.01616015
2046.46462280,0.01626251
2048.39343018,0.01627423
2050.32223755,0.01621472
2052.25104492,0.01611212
2054.17985229,0.01595805
2056.10865967,0.01599788
2058.03746704,0.01599911
2059.96627441,0.01595182
2061.89508179,0.01590032
2063.82388916,0.01578744
2065.75269653,0.01584687
2067.68150391,0.01588034
2069.61031128,0.01571372
2071.53911865,0.01570390
2073.46792603,0.01572401
2075.39673340,0.01569354
2077.32554077,0.01567535
2079.25434814,0.01551352
2081.18315552,0.01558226
2083.11196289,0.01557487
2085.04077026,0.01543042
2086.96957764,0.01530261
2088.89838501,0.01523663
2090.82719238,0.01553119
2092.75599976,0.01531591
2094.68480713,0.01521334
2096.61361450,0.01546543
2098.54242187,0.01533981
2100.47122925,0.01540760
2102.40003662,0.01529687
2104.32884399,0.01526632
2106.25765137,0.01531671
2108.18645874,0.01517179
2110.11526611,0.01521205
2112.04407349,0.01515387
2113.97288086,0.01520107
2115.90168823,0.01518119
2117.83049561,0.01509292
2119.75930298,0.01503042
2121.68811035,0.01501655
2123.61691772,0.01503563
2125.54572510,0.01482857
2127.47453247,0.01499624
2129.40333984,0.01495380
2131.33214722,0.01470439
2133.26095459,0.01484408
2135.18976196,0.01475008
2137.11856934,0.01478004
2139.04737671,0.01477399
2140.97618408,0.01464929
2142.90499146,0.01484151
2144.83379883,0.01482981
2146.76260620,0.01465633
2148.69141357,0.01464651
2150.62022095,0.01468002
2152.54902832,0.01460845
2154.47783569,0.01457709
2156.40664307,0.01458032
2158.33545044,0.01454123
2160.26425781,0.01463134
2162.19306519,0.01458014
2164.12187256,0.01454036
2166.05067993,0.01465713
2167.97948730,0.01453999
2169.90829468,0.01444275
2171.83710205,0.01448015
2173.76590942,0.01450057
2175.69471680,0.01442687
2177.62352417,0.01436411
2179.55233154,0.01443747
2181.48113892,0.01425027
2183.40994629,0.01420123
2185.33875366,0.01437780
2187.26756104,0.01425768
2189.19636841,0.01423876
2191.12517578,0.01423562
2193.05398315,0.01428744
2194.98279053,0.01438740
2196.91159790,0.01411788
2198.84040527,0.01406948
2200.76921265,0.01419989
2202.69802002,0.01412177
2204.62682739,0.01409236
2206.55563477,0.01398682
2208.48444214,0.01397571
2210.41324951,0.01418057
2212.34205688,0.01409101
2214.27086426,0.01401450
2216.19967163,0.01414568
2218.12847900,0.01396318
2220.05728638,0.01391407
2221.98609375,0.01400803
2223.91490112,0.01390871
2225.84370850,0.01387092
2227.77251587,0.01380114
2229.70132324,0.01389124
2231.63013062,0.01385742
2233.55893799,0.01368369
2235.48774536,0.01373211
2237.41655273,0.01362372
2239.34536011,0.01366332
2241.27416748,0.01376976
2243.20297485,0.01370708
2245.13178223,0.01369574
2247.06058960,0.01363220
2248.98939697,0.01362173
2250.91820435,0.01351607
2252.84701172,0.01347647
2254.77581909,0.01362354
2256.70462646,0.01358079
2258.63343384,0.01345829
2260.56224121,0.01346401
2262.49104858,0.01349224
2264.41985596,0.01340874
2266.34866333,0.01334862
2268.27747070,0.01334154
2270.20627808,0.01335181
2272.13508545,0.01327212
2274.06389282,0.01318938
2275.99270020,0.01326936
2277.92150757,0.01322061
2279.85031494,0.01325378
2281.77912231,0.01335292
2283.70792969,0.01324089
2285.63673706,0.01318715
2287.56554443,0.01317525
2289.49435181,0.01306470
2291.42315918,0.01308614
2293.35196655,0.01321055
2295.28077393,0.01299926
2297.20958130,0.01289823
2299.13838867,0.01299601
2301.06719604,0.01280353
2302.99600342,0.01269954
2304.92481079,0.01272641
2306.85361816,0.01262284
2308.78242554,0.01236884
2310.71123291,0.01227141
2312.64004028,0.01216608
2314.56884766,0.01194602
2316.49765503,0.01191608
2318.42646240,0.01167895
2320.35526978,0.01155339
2322.28407715,0.01148512
2324.21288452,0.01118968
2326.14169189,0.01105086
2328.07049927,0.01097274
2329.99930664,0.01095720
2331.92811401,0.01080403
2333.85692139,0.01068152
2335.78572876,0.01060549
2337.71453613,0.01051993
2339.64334351,0.01058176
2341.57215088,0.01063554
2343.50095825,0.01088443
2345.42976562,0.01099614
2347.35857300,0.01147343
2349.28738037,0.01198296
2351.21618774,0.01139195
2353.14499512,0.01081904
2355.07380249,0.01041725
2357.00260986,0.01002158
2358.93141724,0.00987262
2360.86022461,0.00972111
2362.78903198,0.00980859
2364.71783936,0.00977948
2366.64664673,0.00982026
2368.57545410,0.01019616
2370.50426147,0.01044773
2372.43306885,0.01068324
2374.36187622,0.01098159
2376.29068359,0.01131393
2378.21949097,0.01161227
2380.14829834,0.01183368
2382.07710571,0.01201072
2384.00591309,0.01204437
2385.93472046,0.01206857
2387.86352783,0.01206471
2389.79233521,0.01202126
2391.72114258,0.01207807
2393.64994995,0.01202998
2395.57875732,0.01191947
2397.50756470,0.01195776
2399.43637207,0.01201625
2401.36517944,0.01194896
2403.29398682,0.01192193
2405.22279419,0.01203221
2407.15160156,0.01203749
2409.08040894,0.01194147
2411.00921631,0.01187859
2412.93802368,0.01188431
2414.86683105,0.01183483
2416.79563843,0.01180682
2418.72444580,0.01181806
2420.65325317,0.01165571
2422.58206055,0.01169389
2424.51086792,0.01173143
2426.43967529,0.01167405
2428.36848267,0.01172190
2430.29729004,0.01163439
2432.22609741,0.01166128
2434.15490479,0.01157532
2436.08371216,0.01154997
2438.01251953,0.01161255
2439.94132690,0.01147311
2441.87013428,0.01156516
2443.79894165,0.01156391
2445.72774902,0.01156587
2447.65655640,0.01155156
2449.58536377,0.01145428
2451.51417114,0.01150474
2453.44297852,0.01136088
2455.37178589,0.01139056
2457.30059326,0.01139466
2459.22940063,0.01135278
2461.15820801,0.01146364
2463.08701538,0.01130880
2465.01582275,0.01122725
2466.94463013,0.01121392
2468.87343750,0.01123852
2470.80224487,0.01124301
2472.73105225,0.01119980
2474.65985962,0.01125258
2476.58866699,0.01116708
2478.51747437,0.01119862
2480.44628174,0.01114961
2482.37508911,0.01110100
2484.30389648,0.01120678
2486.23270386,0.01106095
2488.16151123,0.01100740
2490.09031860,0.01094700
2492.01912598,0.01099473
2493.94793335,0.01117089
2495.87674072,0.01104082
2497.80554810,0.01101663
2499.73435547,0.01103155
2501.66316284,0.01095678
2503.59197021,0.01087720
2505.52077759,0.01084476
2507.44958496,0.01085624
2509.37839233,0.01080531
2511.30719971,0.01084696
2513.23600708,0.01071087
2515.16481445,0.01068905
2517.09362183,0.01076004
2519.02242920,0.01067676
2520.95123657,0.01082010
2522.88004395,0.01075714
2524.80885132,0.01063038
2526.73765869,0.01065632
2528.66646606,0.01065547
2530.59527344,0.01064722
2532.52408081,0.01057853
2534.45288818,0.01052713
2536.38169556,0.01040351
2538.31050293,0.01049718
2540.23931030,0.01050817
2542.16811768,0.01041591
2544.09692505,0.01048429
2546.02573242,0.01042850
2547.95453979,0.01052463
2549.88334717,0.01046641
2551.81215454,0.01041847
2553.74096191,0.01045850
2555.66976929,0.01033185
2557.59857666,0.01037554
2559.52738403,0.01036864
2561.45619141,0.01039390
2563.38499878,0.01032686
2565.31380615,0.01027024
2567.24261353,0.01027501
2569.17142090,0.01019028
2571.10022827,0.01029864
2573.02903564,0.01023638
2574.95784302,0.01020417
2576.88665039,0.01025738
2578.81545776,0.01018867
2580.74426514,0.01011773
2582.67307251,0.01008267
2584.60187988,0.01019282
2586.53068726,0.01010275
2588.45949463,0.01001045
2590.38830200,0.01003627
2592.31710937,0.00999896
2594.24591675,0.01002379
2596.17472412,0.01007988
2598.10353149,0.01007835
2600.03233887,0.00988972
2601.96114624,0.00980081
2603.88995361,0.00986046
2605.81876099,0.00989780
2607.74756836,0.00991741
2609.67637573,0.00984881
2611.60518311,0.00982303
2613.53399048,0.00990777
2615.46279785,0.00987806
2617.39160522,0.00974963
2619.32041260,0.00978821
2621.24921997,0.00983897
2623.17802734,0.00990005
2625.10683472,0.00978142
2627.03564209,0.00961803
2628.96444946,0.00968959
2630.89325684,0.00959094
2632.82206421,0.00969226
2634.75087158,0.00971160
2636.67967895,0.00952355
2638.60848633,0.00959494
2640.53729370,0.00966848
2642.46610107,0.00968169
2644.39490845,0.00945030
2646.32371582,0.00951232
2648.25252319,0.00966561
2650.18133057,0.00954009
2652.11013794,0.00959160
2654.03894531,0.00946284
2655.96775269,0.00943617
2657.89656006,0.00944645
2659.82536743,0.00938241
2661.75417480,0.00941011
2663.68298218,0.00928569
2665.61178955,0.00930072
2667.54059692,0.00933536
2669.46940430,0.00930034
2671.39821167,0.00926748
2673.32701904,0.00926474
2675.25582642,0.00927506
2677.18463379,0.00924345
2679.11344116,0.00920543
2681.04224854,0.00913985
2682.97105591,0.00919230
2684.89986328,0.00917861
2686.82867065,0.00918036
2688.75747803,0.00904755
2690.68628540,0.00895596
2692.61509277,0.00917640
2694.54390015,0.00906430
2696.47270752,0.00902052
2698.40151489,0.00901207
2700.33032227,0.00890649
2702.25912964,0.00902892
2704.18793701,0.00895347
2706.11674438,0.00889151
2708.04555176,0.00894460
2709.97435913,0.00901771
2711.90316650,0.00898018
2713.83197388,0.00882553
2715.76078125,0.00886429
2717.68958862,0.00885213
2719.61839600,0.00879417
2721.54720337,0.00885204
2723.47601074,0.00885435
2725.40481812,0.00875076
2727.33362549,0.00871436
2729.26243286,0.00866446
2731.19124023,0.00869514
2733.12004761,0.00873939
2735.04885498,0.00855972
2736.97766235,0.00863321
2738.90646973,0.00862604
2740.83527710,0.00856612
2742.76408447,0.00868943
2744.69289185,0.00850794
2746.62169922,0.00850938
2748.55050659,0.00860958
2750.47931396,0.00858557
2752.40812134,0.00852980
2754.33692871,0.00842321
2756.26573608,0.00843487
2758.19454346,0.00835626
2760.12335083,0.00845440
2762.05215820,0.00842400
2763.98096558,0.00828929
2765.90977295,0.00845891
2767.83858032,0.00828535
2769.76738770,0.00824127
2771.69619507,0.00842718
2773.62500244,0.00829639
2775.55380981,0.00823442
2777.48261719,0.00823450
2779.41142456,0.00826056
2781.34023193,0.00824366
2783.26903931,0.00815188
2785.19784668,0.00820645
2787.12665405,0.00820204
2789.05546143,0.00813610
2790.98426880,0.00807290
2792.91307617,0.00800119
2794.84188354,0.00812069
2796.77069092,0.00819214
2798.69949829,0.00803324
2800.62830566,0.00798148
2802.55711304,0.00805812
2804.48592041,0.00802705
2806.41472778,0.00795091
2808.34353516,0.00789192
2810.27234253,0.00788367
2812.20114990,0.00791075
2814.12995728,0.00788474
2816.05876465,0.00795938
2817.98757202,0.00790255
2819.91637939,0.00769228
2821.84518677,0.00768118
2823.77399414,0.00775278
2825.70280151,0.00784890
2827.63160889,0.00773071
2829.56041626,0.00769017
2831.48922363,0.00777839
2833.41803101,0.00757841
2835.34683838,0.00761243
2837.27564575,0.00761741
2839.20445312,0.00756803
2841.13326050,0.00763804
2843.06206787,0.00751818
2844.99087524,0.00751127
2846.91968262,0.00737464
2848.84848999,0.00730016
2850.77729736,0.00734549
2852.70610474,0.00733356
2854.63491211,0.00741854
2856.56371948,0.00733157
2858.49252686,0.00742128
2860.42133423,0.00744422
2862.35014160,0.00727165
2864.27894897,0.00730195
2866.20775635,0.00729172
2868.13656372,0.00727380
2870.06537109,0.00720288
2871.99417847,0.00716015
2873.92298584,0.00715418
2875.85179321,0.00707505
2877.78060059,0.00711652
2879.70940796,0.00720992
2881.63821533,0.00719315
2883.56702270,0.00710806
2885.49583008,0.00709441
2887.42463745,0.00707595
2889.35344482,0.00698403
2891.28225220,0.00687240
2893.21105957,0.00694723
2895.13986694,0.00704193
2897.06867432,0.00692980
2898.99748169,0.00692997
2900.92628906,0.00689545
2902.85509644,0.00684154
2904.78390381,0.00684814
2906.71271118,0.00673154
2908.64151855,0.00670936
2910.57032593,0.00677851
2912.49913330,0.00673474
2914.42794067,0.00666397
2916.35674805,0.00673820
2918.28555542,0.00669204
2920.21436279,0.00657896
2922.14317017,0.00662313
2924.07197754,0.00662673
2926.00078491,0.00656948
2927.92959229,0.00646071
2929.85839966,0.00649654
2931.78720703,0.00654133
2933.71601440,0.00646562
2935.64482178,0.00648380
2937.57362915,0.00639605
2939.50243652,0.00638516
2941.43124390,0.00649174
2943.36005127,0.00639128
2945.28885864,0.00644336
2947.21766602,0.00653705
2949.14647339,0.00631153
2951.07528076,0.00634778
2953.00408813,0.00643910
2954.93289551,0.00630096
2956.86170288,0.00631809
2958.79051025,0.00624878
2960.71931763,0.00627041
2962.64812500,0.00628827
2964.57693237,0.00618940
2966.50573975,0.00623900
2968.43454712,0.00621577
2970.36335449,0.00619025
2972.29216187,0.00613977
2974.22096924,0.00621267
2976.14977661,0.00621991
2978.07858398,0.00612134
2980.00739136,0.00623574
2981.93619873,0.00617035
2983.86500610,0.00614755
2985.79381348,0.00617390
2987.72262085,0.00617680
2989.65142822,0.00624040
2991.58023560,0.00610059
2993.50904297,0.00606115
2995.43785034,0.00610244
2997.36665771,0.00603234
2999.29546509,0.00595193
3001.22427246,0.00599414
3003.15307983,0.00597000
3005.08188721,0.00590958
3007.01069458,0.00605505
3008.93950195,0.00594796
3010.86830933,0.00584586
3012.79711670,0.00596560
3014.72592407,0.00589824
3016.65473145,0.00590061
3018.58353882,0.00589064
3020.51234619,0.00568915
3022.44115356,0.00577181
3024.36996094,0.00592915
3026.29876831,0.00579284
3028.22757568,0.00576783
3030.15638306,0.00572375
3032.08519043,0.00564968
3034.01399780,0.00571395
3035.94280518,0.00563390
3037.87161255,0.00566692
3039.80041992,0.00576373
3041.72922729,0.00565622
3043.65803467,0.00554052
3045.58684204,0.00554633
3047.51564941,0.00563156
3049.44445679,0.00560071
3051.37326416,0.00547731
3053.30207153,0.00548522
3055.23087891,0.00551316
3057.15968628,0.00542761
3059.08849365,0.00547104
3061.01730103,0.00552934
3062.94610840,0.00543281
3064.87491577,0.00536707
3066.80372314,0.00536778
3068.73253052,0.00536837
3070.66133789,0.00534572
3072.59014526,0.00542954
3074.51895264,0.00545589
3076.44776001,0.00533996
3078.37656738,0.00529649
3080.30537476,0.00532326
3082.23418213,0.00528916
3084.16298950,0.00522066
3086.09179687,0.00533278
3088.02060425,0.00532743
3089.94941162,0.00519891
3091.87821899,0.00518884
3093.80702637,0.00516010
3095.73583374,0.00519736
3097.66464111,0.00519026
3099.59344849,0.00510070
3101.52225586,0.00508184
3103.45106323,0.00519181
3105.37987061,0.00516585
3107.30867798,0.00502432
3109.23748535,0.00506745
3111.16629272,0.00506429
3113.09510010,0.00504028
3115.02390747,0.00496680
3116.95271484,0.00495601
3118.88152222,0.00497186
3120.81032959,0.00490168
3122.73913696,0.00503033
3124.66794434,0.00495282
3126.59675171,0.00487222
3128.52555908,0.00497957
3130.45436645,0.00492592
3132.38317383,0.00491395
3134.31198120,0.00488795
3136.24078857,0.00481618
3138.16959595,0.00480624
3140.09840332,0.00483658
3142.02721069,0.00483733
3143.95601807,0.00479350
3145.88482544,0.00472771
3147.81363281,0.00476673
3149.74244019,0.00481776
3151.67124756,0.00469904
3153.60005493,0.00460800
3155.52886230,0.00454697
3157.45766968,0.00465020
3159.38647705,0.00465240
3161.31528442,0.00459737
3163.24409180,0.00473745
3165.17289917,0.00460731
3167.10170654,0.00455889
3169.03051392,0.00456195
3170.95932129,0.00452543
3172.88812866,0.00457678
3174.81693604,0.00455067
3176.74574341,0.00462587
3178.67455078,0.00454870
3180.60335815,0.00454509
3182.53216553,0.00454889
3184.46097290,0.00447362
3186.38978027,0.00456883
3188.31858765,0.00448251
3190.24739502,0.00445476
3192.17620239,0.00452818
3194.10500977,0.00453067
3196.03381714,0.00442805
3197.96262451,0.00440990
3199.89143188,0.00451877
3201.82023926,0.00442766
3203.74904663,0.00444089
3205.67785400,0.00444017
3207.60666138,0.00441530
3209.53546875,0.00447631
3211.46427612,0.00437113
3213.39308350,0.00434173
3215.32189087,0.00445180
3217.25069824,0.00442352
3219.17950562,0.00428147
3221.10831299,0.00442761
3223.03712036,0.00447268
3224.96592773,0.00432757
3226.89473511,0.00443452
3228.82354248,0.00439764
3230.75234985,0.00438839
3232.68115723,0.00442484
3234.60996460,0.00437871
3236.53877197,0.00447397
3238.46757935,0.00442753
3240.39638672,0.00440640
3242.32519409,0.00440803
3244.25400146,0.00433376
3246.18280884,0.00440173
3248.11161621,0.00439531
3250.04042358,0.00440484
3251.96923096,0.00445047
3253.89803833,0.00442651
3255.82684570,0.00447878
3257.75565308,0.00444120
3259.68446045,0.00445783
3261.61326782,0.00454727
3263.54207520,0.00447159
3265.47088257,0.00442449
3267.39968994,0.00445819
3269.32849731,0.00448695
3271.25730469,0.00449257
3273.18611206,0.00457963
3275.11491943,0.00458556
3277.04372681,0.00449826
3278.97253418,0.00446246
3280.90134155,0.00444617
3282.83014893,0.00460574
3284.75895630,0.00446867
3286.68776367,0.00438135
3288.61657104,0.00462357
3290.54537842,0.00458630
3292.47418579,0.00457678
3294.40299316,0.00451467
3296.33180054,0.00452126
3298.26060791,0.00453083
3300.18941528,0.00453905
3302.11822266,0.00467364
3304.04703003,0.00445950
3305.97583740,0.00454922
3307.90464478,0.00466653
3309.83345215,0.00464294
3311.76225952,0.00471549
3313.69106689,0.00462767
3315.61987427,0.00472121
3317.54868164,0.00461080
3319.47748901,0.00468790
3321.40629639,0.00474190
3323.33510376,0.00456442
3325.26391113,0.00473190
3327.19271851,0.00463158
3329.12152588,0.00461575
3331.05033325,0.00466372
3332.97914062,0.00463718
3334.90794800,0.00470234
3336.83675537,0.00464363
3338.76556274,0.00470699
3340.69437012,0.00466565
3342.62317749,0.00467876
3344.55198486,0.00473951
3346.48079224,0.00476966
3348.40959961,0.00475894
3350.33840698,0.00465439
3352.26721436,0.00471535
3354.19602173,0.00468744
3356.12482910,0.00476640
3358.05363647,0.00478215
3359.98244385,0.00474285
3361.91125122,0.00484144
3363.84005859,0.00474335
3365.76886597,0.00476712
3367.69767334,0.00476790
3369.62648071,0.00477803
3371.55528809,0.00487994
3373.48409546,0.00489085
3375.41290283,0.00487562
3377.34171020,0.00478636
3379.27051758,0.00482728
3381.19932495,0.00486277
3383.12813232,0.00492626
3385.05693970,0.00490318
3386.98574707,0.00484466
3388.91455444,0.00500755
3390.84336182,0.00494502
3392.77216919,0.00495040
3394.70097656,0.00497893
3396.62978394,0.00490304
3398.55859131,0.00502247
3400.48739868,0.00498750
3402.41620605,0.00504613
3404.34501343,0.00514622
3406.27382080,0.00501283
3408.20262817,0.00495018
3410.13143555,0.00493546
3412.06024292,0.00507115
3413.98905029,0.00511547
3415.91785767,0.00497917
3417.84666504,0.00510724
3419.77547241,0.00510868
3421.70427979,0.00504716
3423.63308716,0.00521372
3425.56189453,0.00517566
3427.49070190,0.00514970
3429.41950928,0.00511812
3431.34831665,0.00503740
3433.27712402,0.00517605
3435.20593140,0.00518418
3437.13473877,0.00514467
3439.06354614,0.00514080
3440.99235352,0.00518154
3442.92116089,0.00530186
3444.84996826,0.00520090
3446.77877563,0.00515428
3448.70758301,0.00521843
3450.63639038,0.00523859
3452.56519775,0.00529782
3454.49400513,0.00530904
3456.42281250,0.00524772
3458.35161987,0.00518944
3460.28042725,0.00528514
3462.20923462,0.00530358
3464.13804199,0.00525922
3466.06684937,0.00535690
3467.99565674,0.00535201
3469.92446411,0.00532471
3471.85327148,0.00533075
3473.78207886,0.00531982
3475.71088623,0.00531111
3477.63969360,0.00533195
3479.56850098,0.00534466
3481.49730835,0.00527900
3483.42611572,0.00533496
3485.35492310,0.00535381
3487.28373047,0.00533773
3489.21253784,0.00538710
3491.14134521,0.00534245
3493.07015259,0.00534301
3494.99895996,0.00535537
3496.92776733,0.00535784
3498.85657471,0.00534107
3500.78538208,0.00534439
3502.71418945,0.00539757
3504.64299683,0.00537915
3506.57180420,0.00535126
3508.50061157,0.00533675
3510.42941895,0.00541471
3512.35822632,0.00540139
3514.28703369,0.00540906
3516.21584106,0.00555082
3518.14464844,0.00546532
3520.07345581,0.00541911
3522.00226318,0.00540404
3523.93107056,0.00534340
3525.85987793,0.00543254
3527.78868530,0.00550663
3529.71749268,0.00545224
3531.64630005,0.00538973
3533.57510742,0.00554442
3535.50391479,0.00551067
3537.43272217,0.00539692
3539.36152954,0.00553639
3541.29033691,0.00549606
3543.21914429,0.00547039
3545.14795166,0.00534200
3547.07675903,0.00518634
3549.00556641,0.00543359
3550.93437378,0.00549672
3552.86318115,0.00539895
3554.79198853,0.00546229
3556.72079590,0.00553577
3558.64960327,0.00551210
3560.57841064,0.00535312
3562.50721802,0.00539072
3564.43602539,0.00541217
3566.36483276,0.00506660
3568.29364014,0.00500423
3570.22244751,0.00534949
3572.15125488,0.00548176
3574.08006226,0.00550696
3576.00886963,0.00546378
3577.93767700,0.00531881
3579.86648437,0.00540191
3581.79529175,0.00542709
3583.72409912,0.00536386
3585.65290649,0.00519316
3587.58171387,0.00490283
3589.51052124,0.00507125
3591.43932861,0.00536748
3593.36813599,0.00531327
3595.29694336,0.00517742
3597.22575073,0.00529978
3599.15455811,0.00535875
3601.08336548,0.00531681
3603.01217285,0.00543818
3604.94098022,0.00532339
3606.86978760,0.00516236
3608.79859497,0.00494914
3610.72740234,0.00504364
3612.65620972,0.00512332
3614.58501709,0.00497690
3616.51382446,0.00533727
3618.44263184,0.00484673
3620.37143921,0.00483544
3622.30024658,0.00540919
3624.22905395,0.00516548
3626.15786133,0.00540074
3628.08666870,0.00459117
3630.01547607,0.00436185
3631.94428345,0.00537731
3633.87309082,0.00521555
3635.80189819,0.00527476
3637.73070557,0.00529124
3639.65951294,0.00523463
3641.58832031,0.00525954
3643.51712769,0.00522020
3645.44593506,0.00524832
3647.37474243,0.00473122
3649.30354980,0.00441536
3651.23235718,0.00447252
3653.16116455,0.00519281
3655.08997192,0.00505915
3657.01877930,0.00463061
3658.94758667,0.00530175
3660.87639404,0.00514118
3662.80520142,0.00521262
3664.73400879,0.00516080
3666.66281616,0.00511663
3668.59162354,0.00496392
3670.52043091,0.00406694
3672.44923828,0.00485911
3674.37804565,0.00456167
3676.30685303,0.00387292
3678.23566040,0.00491391
3680.16446777,0.00492534
3682.09327515,0.00482121
3684.02208252,0.00490677
3685.95088989,0.00485164
3687.87969727,0.00441632
3689.80850464,0.00412090
3691.73731201,0.00465847
3693.66611938,0.00468517
3695.59492676,0.00482958
3697.52373413,0.00476520
3699.45254150,0.00461519
3701.38134888,0.00458026
3703.31015625,0.00446382
3705.23896362,0.00489614
3707.16777100,0.00465988
3709.09657837,0.00450489
3711.02538574,0.00421514
3712.95419312,0.00401735
3714.88300049,0.00473536
3716.81180786,0.00460100
3718.74061523,0.00453082
3720.66942261,0.00447151
3722.59822998,0.00432871
3724.52703735,0.00447270
3726.45584473,0.00424747
3728.38465210,0.00443226
3730.31345947,0.00439590
3732.24226685,0.00412831
3734.17107422,0.00390189
3736.09988159,0.00382534
3738.02868896,0.00396081
3739.95749634,0.00423343
3741.88630371,0.00453511
3743.81511108,0.00349687
3745.74391846,0.00338668
3747.67272583,0.00423606
3749.60153320,0.00361712
3751.53034058,0.00349640
3753.45914795,0.00390072
3755.38795532,0.00416376
3757.31676270,0.00433782
3759.24557007,0.00394614
3761.17437744,0.00406758
3763.10318481,0.00428926
3765.03199219,0.00406953
3766.96079956,0.00419595
3768.88960693,0.00408065
3770.81841431,0.00393753
3772.74722168,0.00417023
3774.67602905,0.00410231
3776.60483643,0.00409764
3778.53364380,0.00400273
3780.46245117,0.00400731
3782.39125854,0.00413097
3784.32006592,0.00400090
3786.24887329,0.00404117
3788.17768066,0.00407522
3790.10648804,0.00418056
3792.03529541,0.00402411
3793.96410278,0.00406880
3795.89291016,0.00393130
3797.82171753,0.00378420
3799.75052490,0.00397297
3801.67933228,0.00321786
3803.60813965,0.00383898
3805.53694702,0.00399874
3807.46575439,0.00323564
3809.39456177,0.00403713
3811.32336914,0.00391565
3813.25217651,0.00397786
3815.18098389,0.00356741
3817.10979126,0.00328255
3819.03859863,0.00401882
3820.96740601,0.00321099
3822.89621338,0.00341288
3824.82502075,0.00387209
3826.75382812,0.00367941
3828.68263550,0.00387722
3830.61144287,0.00358791
3832.54025024,0.00359556
3834.46905762,0.00370938
3836.39786499,0.00348396
3838.32667236,0.00310695
3840.25547974,0.00343354
3842.18428711,0.00365322
3844.11309448,0.00345040
3846.04190186,0.00374270
3847.97070923,0.00368726
3849.89951660,0.00370606
3851.82832397,0.00331319
3853.75713135,0.00263216
3855.68593872,0.00302282
3857.61474609,0.00367257
3859.54355347,0.00366603
3861.47236084,0.00358211
3863.40116821,0.00350710
3865.32997559,0.00329109
3867.25878296,0.00366125
3869.18759033,0.00328386
3871.11639770,0.00312782
3873.04520508,0.00372933
3874.97401245,0.00330714
3876.90281982,0.00357938
3878.83162720,0.00359160
3880.76043457,0.00315400
3882.68924194,0.00362583
3884.61804932,0.00337140
3886.54685669,0.00320701
3888.47566406,0.00358423
3890.40447144,0.00338248
3892.33327881,0.00319160
3894.26208618,0.00351602
3896.19089355,0.00363303
3898.11970093,0.00338604
3900.04850830,0.00322209
3901.97731567,0.00315951
3903.90612305,0.00314545
3905.83493042,0.00315801
3907.76373779,0.00340737
3909.69254517,0.00343866
3911.62135254,0.00340492
3913.55015991,0.00356819
3915.47896728,0.00331127
3917.40777466,0.00315458
3919.33658203,0.00325841
3921.26538940,0.00328767
3923.19419678,0.00332165
3925.12300415,0.00332880
3927.05181152,0.00329774
3928.98061890,0.00333367
3930.90942627,0.00327919
3932.83823364,0.00310052
3934.76704102,0.00327027
3936.69584839,0.00330064
3938.62465576,0.00323003
3940.55346313,0.00335232
3942.48227051,0.00314315
3944.41107788,0.00310712
3946.33988525,0.00321651
3948.26869263,0.00316705
3950.19750000,0.00325142
3952.12630737,0.00327678
3954.05511475,0.00322282
3955.98392212,0.00320953
3957.91272949,0.00323031
3959.84153687,0.00318736
3961.77034424,0.00315558
3963.69915161,0.00319743
3965.62795898,0.00315473
3967.55676636,0.00314982
3969.48557373,0.00313084
3971.41438110,0.00308124
3973.34318848,0.00310751
3975.27199585,0.00310853
3977.20080322,0.00312594
3979.12961060,0.00311346
3981.05841797,0.00306976
3982.98722534,0.00307854
3984.91603271,0.00319151
3986.84484009,0.00316744
3988.77364746,0.00298594
3990.70245483,0.00308150
3992.63126221,0.00305543
3994.56006958,0.00298151
3996.48887695,0.00311188
3998.41768433,0.00307980
4000.34649170,0.00307179
4002.27529907,0.00299942
4004.20410645,0.00301314
4006.13291382,0.00303472
4008.06172119,0.00288976
4009.99052856,0.00301058
4011.91933594,0.00304132
4013.84814331,0.00295781
4015.77695068,0.00297833
4017.70575806,0.00296862
4019.63456543,0.00295814
4021.56337280,0.00295357
4023.49218018,0.00302118
4025.42098755,0.00296539
4027.34979492,0.00289478
4029.27860229,0.00298292
4031.20740967,0.00294471
4033.13621704,0.00290512
4035.06502441,0.00291522
4036.99383179,0.00288149
4038.92263916,0.00297388
4040.85144653,0.00294088
4042.78025391,0.00289013
4044.70906128,0.00291861
4046.63786865,0.00279977
4048.56667603,0.00284472
4050.49548340,0.00286683
4052.42429077,0.00285413
4054.35309814,0.00283332
4056.28190552,0.00273173
4058.21071289,0.00280641
4060.13952026,0.00279381
4062.06832764,0.00281412
4063.99713501,0.00283775
4065.92594238,0.00276483
4067.85474976,0.00269538
4069.78355713,0.00273264
4071.71236450,0.00285118
4073.64117187,0.00273139
4075.56997925,0.00274478
4077.49878662,0.00276205
4079.42759399,0.00277706
4081.35640137,0.00278301
4083.28520874,0.00264142
4085.21401611,0.00272408
4087.14282349,0.00268734
4089.07163086,0.00265719
4091.00043823,0.00265782
4092.92924561,0.00268853
4094.85805298,0.00274781
4096.78686035,0.00269972
4098.71566772,0.00273063
4100.64447510,0.00262774
4102.57328247,0.00271355
4104.50208984,0.00271420
4106.43089722,0.00259884
4108.35970459,0.00263663
4110.28851196,0.00265235
4112.21731934,0.00273027
4114.14612671,0.00258174
4116.07493408,0.00258562
4118.00374145,0.00261634
4119.93254883,0.00259033
4121.86135620,0.00269430
4123.79016357,0.00266782
4125.71897095,0.00265454
4127.64777832,0.00258447
4129.57658569,0.00259665
4131.50539307,0.00253314
4133.43420044,0.00255863
4135.36300781,0.00253731
4137.29181519,0.00243722
4139.22062256,0.00262763
4141.14942993,0.00250922
4143.07823730,0.00250048
4145.00704468,0.00250937
4146.93585205,0.00243321
4148.86465942,0.00257995
4150.79346680,0.00248779
4152.72227417,0.00249110
4154.65108154,0.00254127
4156.57988892,0.00248215
4158.50869629,0.00243377
4160.43750366,0.00243727
4162.36631103,0.00246114
4164.29511841,0.00246794
4166.22392578,0.00247803
4168.15273315,0.00239683
4170.08154053,0.00244228
4172.01034790,0.00247097
4173.93915527,0.00242630
4175.86796265,0.00229146
4177.79677002,0.00224363
4179.72557739,0.00234440
4181.65438477,0.00232718
4183.58319214,0.00243198
4185.51199951,0.00240012
4187.44080688,0.00237091
4189.36961426,0.00239906
4191.29842163,0.00232077
4193.22722900,0.00242327
4195.15603638,0.00234982
4197.08484375,0.00222791
4199.01365112,0.00233196
4200.94245850,0.00238322
4202.87126587,0.00231109
4204.80007324,0.00224306
4206.72888062,0.00226697
4208.65768799,0.00231416
4210.58649536,0.00228326
4212.51530273,0.00233078
4214.44411011,0.00231919
4216.37291748,0.00218652
4218.30172485,0.00226024
4220.23053223,0.00221973
4222.15933960,0.00227302
4224.08814697,0.00230346
4226.01695435,0.00214629
4227.94576172,0.00223544
4229.87456909,0.00213526
4231.80337646,0.00217395
4233.73218384,0.00224474
4235.66099121,0.00216965
4237.58979858,0.00222621
4239.51860596,0.00214830
4241.44741333,0.00221934
4243.37622070,0.00222579
4245.30502808,0.00224373
4247.23383545,0.00228060
4249.16264282,0.00217315
4251.09145020,0.00217429
4253.02025757,0.00214777
4254.94906494,0.00216321
4256.87787231,0.00211955
4258.80667969,0.00215707
4260.73548706,0.00220728
4262.66429443,0.00211914
4264.59310181,0.00208308
4266.52190918,0.00210755
4268.45071655,0.00219382
4270.37952393,0.00212072
4272.30833130,0.00210699
4274.23713867,0.00213351
4276.16594604,0.00205356
4278.09475342,0.00207778
4280.02356079,0.00213860
4281.95236816,0.00208810
4283.88117554,0.00201883
4285.80998291,0.00208395
4287.73879028,0.00200021
4289.66759766,0.00197549
4291.59640503,0.00208634
4293.52521240,0.00209389
4295.45401978,0.00207285
4297.38282715,0.00200803
4299.31163452,0.00206636
4301.24044189,0.00206730
4303.16924927,0.00203691
4305.09805664,0.00204558
4307.02686401,0.00197158
4308.95567139,0.00199759
4310.88447876,0.00204084
4312.81328613,0.00201493
4314.74209351,0.00199631
4316.67090088,0.00201609
4318.59970825,0.00195733
4320.52851562,0.00192870
4322.45732300,0.00196454
4324.38613037,0.00199609
4326.31493774,0.00199664
4328.24374512,0.00185351
4330.17255249,0.00188075
4332.10135986,0.00199968
4334.03016724,0.00191413
4335.95897461,0.00186582
4337.88778198,0.00198606
4339.81658936,0.00195789
4341.74539673,0.00186613
4343.67420410,0.00195037
4345.60301147,0.00198363
4347.53181885,0.00196550
4349.46062622,0.00191140
4351.38943359,0.00195699
4353.31824097,0.00192635
4355.24704834,0.00184598
4357.17585571,0.00191934
4359.10466309,0.00183962
4361.03347046,0.00186142
4362.96227783,0.00186234
4364.89108520,0.00185559
4366.81989258,0.00190898
4368.74869995,0.00185591
4370.67750732,0.00189626
4372.60631470,0.00182302
4374.53512207,0.00184392
4376.46392944,0.00189660
4378.39273682,0.00182799
4380.32154419,0.00178165
4382.25035156,0.00174480
4384.17915894,0.00185242
4386.10796631,0.00192285
4388.03677368,0.00185014
4389.96558105,0.00172921
4391.89438843,0.00180443
4393.82319580,0.00183330
4395.75200317,0.00174758
4397.68081055,0.00178665
4399.60961792,0.00172859
4401.53842529,0.00172912
4403.46723267,0.00176475
4405.39604004,0.00179594
4407.32484741,0.00178433
4409.25365478,0.00172453
4411.18246216,0.00170632
4413.11126953,0.00168806
4415.04007690,0.00175681
4416.96888428,0.00171847
4418.89769165,0.00170371
4420.82649902,0.00174568
4422.75530640,0.00172606
4424.68411377,0.00169828
4426.61292114,0.00170330
4428.54172852,0.00173264
4430.47053589,0.00170995
4432.39934326,0.00171162
4434.32815063,0.00160379
4436.25695801,0.00165262
4438.18576538,0.00168175
4440.11457275,0.00162982
4442.04338013,0.00175270
4443.97218750,0.00165762
4445.90099487,0.00166616
4447.82980225,0.00171695
4449.75860962,0.00166156
4451.68741699,0.00162209
4453.61622437,0.00161049
4455.54503174,0.00168695
4457.47383911,0.00162202
4459.40264648,0.00162848
4461.33145386,0.00164644
4463.26026123,0.00165378
4465.18906860,0.00163671
4467.11787598,0.00163425
4469.04668335,0.00162757
4470.97549072,0.00149271
4472.90429810,0.00160465
4474.83310547,0.00164300
4476.76191284,0.00161191
4478.69072021,0.00155544
4480.61952759,0.00154873
4482.54833496,0.00165278
4484.47714233,0.00153864
4486.40594971,0.00160316
4488.33475708,0.00155664
4490.26356445,0.00153410
4492.19237183,0.00164072
4494.12117920,0.00156016
4496.04998657,0.00158615
4497.97879395,0.00152646
4499.90760132,0.00159034
4501.83640869,0.00159792
4503.76521606,0.00148341
4505.69402344,0.00160646
4507.62283081,0.00163700
4509.55163818,0.00157577
4511.48044556,0.00152180
4513.40925293,0.00149382
4515.33806030,0.00150814
4517.26686768,0.00155746
4519.19567505,0.00153584
4521.12448242,0.00143498
4523.05328979,0.00146372
4524.98209717,0.00154478
4526.91090454,0.00151109
4528.83971191,0.00145857
4530.76851929,0.00147734
4532.69732666,0.00146787
4534.62613403,0.00149698
4536.55494141,0.00146019
4538.48374878,0.00147903
4540.41255615,0.00150926
4542.34136353,0.00140502
4544.27017090,0.00155658
4546.19897827,0.00157096
4548.12778564,0.00146902
4550.05659302,0.00152211
4551.98540039,0.00143844
4553.91420776,0.00137362
4555.84301514,0.00141271
4557.77182251,0.00147086
4559.70062988,0.00142151
4561.62943726,0.00145090
4563.55824463,0.00145986
4565.48705200,0.00138735
4567.41585937,0.00147209
4569.34466675,0.00140236
4571.27347412,0.00134787
4573.20228149,0.00140114
4575.13108887,0.00142857
4577.05989624,0.00140527
4578.98870361,0.00132937
4580.91751099,0.00141687
4582.84631836,0.00139423
4584.77512573,0.00138034
4586.70393311,0.00141208
4588.63274048,0.00131263
4590.56154785,0.00141952
4592.49035522,0.00141497
4594.41916260,0.00130517
4596.34796997,0.00135442
4598.27677734,0.00133615
4600.20558472,0.00133980
4602.13439209,0.00129017
4604.06319946,0.00125279
4605.99200684,0.00128003
4607.92081421,0.00127764
4609.84962158,0.00133876
4611.77842895,0.00128605
4613.70723633,0.00129162
4615.63604370,0.00137912
4617.56485107,0.00137337
4619.49365845,0.00136436
4621.42246582,0.00130599
4623.35127319,0.00128661
4625.28008057,0.00131368
4627.20888794,0.00136703
4629.13769531,0.00132816
4631.06650269,0.00126504
4632.99531006,0.00124727
4634.92411743,0.00123776
4636.85292480,0.00132653
4638.78173218,0.00127884
4640.71053955,0.00130069
4642.63934692,0.00126174
4644.56815430,0.00121414
4646.49696167,0.00136093
4648.42576904,0.00123915
4650.35457642,0.00129781
4652.28338379,0.00134564
4654.21219116,0.00123901
4656.14099853,0.00135645
4658.06980591,0.00126451
4659.99861328,0.00116334
4661.92742065,0.00123011
4663.85622803,0.00127926
4665.78503540,0.00123349
4667.71384277,0.00120740
4669.64265015,0.00122133
4671.57145752,0.00113374
4673.50026489,0.00116028
4675.42907227,0.00124103
4677.35787964,0.00121226
4679.28668701,0.00115855
4681.21549438,0.00124779
4683.14430176,0.00125040
4685.07310913,0.00118548
4687.00191650,0.00126473
4688.93072388,0.00115796
4690.85953125,0.00113979
4692.78833862,0.00122564
4694.71714600,0.00120294
4696.64595337,0.00121966
4698.57476074,0.00113575
4700.50356812,0.00114852
4702.43237549,0.00118113
4704.36118286,0.00110206
4706.28999023,0.00114192
4708.21879761,0.00118382
4710.14760498,0.00122687
4712.07641235,0.00122735
4714.00521973,0.00120221
4715.93402710,0.00128586
4717.86283447,0.00119365
4719.79164185,0.00113139
4721.72044922,0.00120094
4723.64925659,0.00111030
4725.57806396,0.00114297
4727.50687134,0.00119113
4729.43567871,0.00115389
4731.36448608,0.00117318
4733.29329346,0.00112503
4735.22210083,0.00109712
4737.15090820,0.00113272
4739.07971558,0.00117148
4741.00852295,0.00116136
4742.93733032,0.00115575
4744.86613770,0.00115291
4746.79494507,0.00119617
4748.72375244,0.00120499
4750.65255981,0.00112184
4752.58136719,0.00114138
4754.51017456,0.00110316
4756.43898193,0.00109371
4758.36778931,0.00108693
4760.29659668,0.00100739
4762.22540405,0.00101005
4764.15421143,0.00108572
4766.08301880,0.00117251
4768.01182617,0.00106429
4769.94063354,0.00108753
4771.86944092,0.00114443
4773.79824829,0.00107323
4775.72705566,0.00110089
4777.65586304,0.00109016
4779.58467041,0.00109678
4781.51347778,0.00098791
4783.44228516,0.00100812
4785.37109253,0.00111385
4787.29989990,0.00104620
4789.22870728,0.00100783
4791.15751465,0.00097866
4793.08632202,0.00107446
4795.01512939,0.00107159
4796.94393677,0.00102973
4798.87274414,0.00105667
4800.80155151,0.00103169
4802.73035889,0.00101014
4804.65916626,0.00097032
4806.58797363,0.00104464
4808.51678101,0.00103289
4810.44558838,0.00100177
4812.37439575,0.00101929
4814.30320312,0.00104361
4816.23201050,0.00105340
4818.16081787,0.00099130
4820.08962524,0.00105446
4822.01843262,0.00100258
4823.94723999,0.00095389
4825.87604736,0.00095545
4827.80485474,0.00094301
4829.73366211,0.00103565
4831.66246948,0.00103526
4833.59127686,0.00101401
4835.52008423,0.00100118
4837.44889160,0.00097483
4839.37769897,0.00091135
4841.30650635,0.00101267
4843.23531372,0.00103498
4845.16412109,0.00088930
4847.09292847,0.00096700
4849.02173584,0.00088475
4850.95054321,0.00087237
4852.87935059,0.00096964
4854.80815796,0.00096366
4856.73696533,0.00101926
4858.66577270,0.00098723
4860.59458008,0.00098998
4862.52338745,0.00093541
4864.45219482,0.00089977
4866.38100220,0.00091517
4868.30980957,0.00089156
4870.23861694,0.00093354
4872.16742432,0.00099373
4874.09623169,0.00101564
4876.02503906,0.00093143
4877.95384644,0.00093590
4879.88265381,0.00091435
4881.81146118,0.00090472
4883.74026855,0.00094428
4885.66907593,0.00086623
4887.59788330,0.00088143
4889.52669067,0.00094017
4891.45549805,0.00098002
4893.38430542,0.00086239
4895.31311279,0.00081919
4897.24192017,0.00090117
4899.17072754,0.00080575
4901.09953491,0.00081494
4903.02834228,0.00087464
4904.95714966,0.00087266
4906.88595703,0.00086393
4908.81476440,0.00090937
4910.74357178,0.00091515
4912.67237915,0.00082577
4914.60118652,0.00083573
4916.52999390,0.00089079
4918.45880127,0.00091463
4920.38760864,0.00084240
4922.31641602,0.00089887
4924.24522339,0.00092131
4926.17403076,0.00080122
4928.10283813,0.00084289
4930.03164551,0.00085811
4931.96045288,0.00086411
4933.88926025,0.00082177
4935.81806763,0.00082499
4937.74687500,0.00081696
4939.67568237,0.00075608
4941.60448975,0.00088987
4943.53329712,0.00084805
4945.46210449,0.00078125
4947.39091187,0.00077541
4949.31971924,0.00076268
4951.24852661,0.00084615
4953.17733398,0.00078554
4955.10614136,0.00078906
4957.03494873,0.00085442
4958.96375610,0.00086457
4960.89256348,0.00083481
4962.82137085,0.00082589
4964.75017822,0.00087404
4966.67898560,0.00084327
4968.60779297,0.00084573
4970.53660034,0.00074505
4972.46540771,0.00070447
4974.39421509,0.00082623
4976.32302246,0.00081980
4978.25182983,0.00080019
4980.18063721,0.00079606
4982.10944458,0.00082919
4984.03825195,0.00078639
4985.96705933,0.00071034
4987.89586670,0.00074943
4989.82467407,0.00076072
4991.75348145,0.00082060
4993.68228882,0.00079927
4995.61109619,0.00072006
4997.53990356,0.00078839
4999.46871094,0.00080998
5001.39751831,0.00074625
5003.32632568,0.00074258
5005.25513306,0.00074739
5007.18394043,0.00077196
5009.11274780,0.00085016
5011.04155518,0.00075031
5012.97036255,0.00071816
5014.89916992,0.00081786
5016.82797729,0.00071088
5018.75678467,0.00071696
5020.68559204,0.00076011
5022.61439941,0.00073407
5024.54320679,0.00082427
5026.47201416,0.00077098
5028.40082153,0.00071216
5030.32962891,0.00077662
5032.25843628,0.00076833
5034.18724365,0.00073621
5036.11605103,0.00073554
5038.04485840,0.00072360
5039.97366577,0.00070394
5041.90247314,0.00070958
5043.83128052,0.00072327
5045.76008789,0.00069246
5047.68889526,0.00069184
5049.61770264,0.00076203
5051.54651001,0.00070176
5053.47531738,0.00067793
5055.40412476,0.00073989
5057.33293213,0.00069814
5059.26173950,0.00081708
5061.19054687,0.00081811
5063.11935425,0.00063610
5065.04816162,0.00067040
5066.97696899,0.00069092
5068.90577637,0.00072052
5070.83458374,0.00076757
5072.76339111,0.00070346
5074.69219849,0.00068694
5076.62100586,0.00070761
5078.54981323,0.00067875
5080.47862061,0.00064621
5082.40742798,0.00070848
5084.33623535,0.00069660
5086.26504272,0.00066442
5088.19385010,0.00071243
5090.12265747,0.00066847
5092.05146484,0.00070119
5093.98027222,0.00069766
5095.90907959,0.00062944
5097.83788696,0.00066575
5099.76669434,0.00065328
5101.69550171,0.00067594
5103.62430908,0.00065779
5105.55311645,0.00068030
5107.48192383,0.00073178
5109.41073120,0.00066415
5111.33953857,0.00071439
5113.26834595,0.00065607
5115.19715332,0.00062300
5117.12596069,0.00065566
5119.05476807,0.00061126
5120.98357544,0.00068324
5122.91238281,0.00062019
5124.84119019,0.00066545
5126.76999756,0.00067015
5128.69880493,0.00059751
5130.62761230,0.00070022
5132.55641968,0.00061194
5134.48522705,0.00068790
5136.41403442,0.00070170
5138.34284180,0.00062277
5140.27164917,0.00067965
5142.20045654,0.00057243
5144.12926392,0.00063533
5146.05807129,0.00058117
5147.98687866,0.00053864
5149.91568603,0.00064758
5151.84449341,0.00058680
5153.77330078,0.00064854
5155.70210815,0.00062742
5157.63091553,0.00061312
5159.55972290,0.00064015
5161.48853027,0.00059295
5163.41733765,0.00063086
5165.34614502,0.00061698
5167.27495239,0.00062639
5169.20375977,0.00059916
5171.13256714,0.00062440
5173.06137451,0.00068333
5174.99018188,0.00057381
5176.91898926,0.00058141
5178.84779663,0.00064571
5180.77660400,0.00058286
5182.70541138,0.00059309
5184.63421875,0.00064011
5186.56302612,0.00052946
5188.49183350,0.00049575
5190.42064087,0.00056319
5192.34944824,0.00054304
5194.27825562,0.00057795
5196.20706299,0.00057619
5198.13587036,0.00056071
5200.06467773,0.00054749
5201.99348511,0.00051732
5203.92229248,0.00064006
5205.85109985,0.00061661
5207.77990723,0.00055601
5209.70871460,0.00061571
5211.63752197,0.00057430
5213.56632935,0.00060153
5215.49513672,0.00058060
5217.42394409,0.00054912
5219.35275146,0.00055444
5221.28155884,0.00050929
5223.21036621,0.00058375
5225.13917358,0.00055309
5227.06798096,0.00055522
5228.99678833,0.00058896
5230.92559570,0.00047506
5232.85440308,0.00050588
5234.78321045,0.00058918
5236.71201782,0.00063796
5238.64082520,0.00063058
5240.56963257,0.00061710
5242.49843994,0.00056594
5244.42724731,0.00050607
5246.35605469,0.00057025
5248.28486206,0.00048812
5250.21366943,0.00046591
5252.14247681,0.00055738
5254.07128418,0.00054977
5256.00009155,0.00053843
5257.92889893,0.00054941
5259.85770630,0.00056584
5261.78651367,0.00050358
5263.71532104,0.00053801
5265.64412842,0.00057662
5267.57293579,0.00047897
5269.50174316,0.00044552
5271.43055054,0.00053090
5273.35935791,0.00055114
5275.28816528,0.00048003
5277.21697266,0.00055000
5279.14578003,0.00055250
5281.07458740,0.00058538
5283.00339478,0.00056728
5284.93220215,0.00046119
5286.86100952,0.00056366
5288.78981689,0.00050425
5290.71862427,0.00052122
5292.64743164,0.00053959
5294.57623901,0.00048857
5296.50504639,0.00057065
5298.43385376,0.00048926
5300.36266113,0.00048982
5302.29146851,0.00047640
5304.22027588,0.00053119
5306.14908325,0.00056677
5308.07789062,0.00049083
5310.00669800,0.00057095
5311.93550537,0.00051766
5313.86431274,0.00054849
5315.79312012,0.00049350
5317.72192749,0.00042450
5319.65073486,0.00052885
5321.57954224,0.00046964
5323.50834961,0.00050950
5325.43715698,0.00048043
5327.36596436,0.00046326
5329.29477173,0.00053916
5331.22357910,0.00049441
5333.15238647,0.00047478
5335.08119385,0.00046759
5337.01000122,0.00049520
5338.93880859,0.00046056
5340.86761597,0.00049194
5342.79642334,0.00052292
5344.72523071,0.00043309
5346.65403809,0.00042048
5348.58284546,0.00041617
5350.51165283,0.00046251
5352.44046020,0.00046536
5354.36926758,0.00042068
5356.29807495,0.00044545
5358.22688232,0.00050550
5360.15568970,0.00052551
5362.08449707,0.00042654
5364.01330444,0.00040331
5365.94211182,0.00044034
5367.87091919,0.00048253
5369.79972656,0.00051518
5371.72853394,0.00042430
5373.65734131,0.00038036
5375.58614868,0.00044852
5377.51495605,0.00045816
5379.44376343,0.00040765
5381.37257080,0.00042149
5383.30137817,0.00041255
5385.23018555,0.00039908
5387.15899292,0.00047002
5389.08780029,0.00045908
5391.01660767,0.00043090
5392.94541504,0.00047646
5394.87422241,0.00038807
5396.80302978,0.00035385
5398.73183716,0.00053489
5400.66064453,0.00048280
5402.58945190,0.00036954
5404.51825928,0.00043388
5406.44706665,0.00042037
5408.37587402,0.00045999
5410.30468140,0.00042387
5412.23348877,0.00036549
5414.16229614,0.00044014
5416.09110352,0.00041909
5418.01991089,0.00040395
5419.94871826,0.00038189
5421.87752563,0.00039788
5423.80633301,0.00047783
5425.73514038,0.00050273
5427.66394775,0.00051734
5429.59275513,0.00042061
5431.52156250,0.00038090
5433.45036987,0.00041174
5435.37917725,0.00035325
5437.30798462,0.00040357
5439.23679199,0.00041988
5441.16559936,0.00038988
5443.09440674,0.00046935
5445.02321411,0.00039160
5446.95202148,0.00031537
5448.88082886,0.00040314
5450.80963623,0.00040873
5452.73844360,0.00037624
5454.66725098,0.00035416
5456.59605835,0.00037932
5458.52486572,0.00039746
5460.45367310,0.00036060
5462.38248047,0.00039870
5464.31128784,0.00037010
5466.24009521,0.00036305
5468.16890259,0.00040092
5470.09770996,0.00034173
5472.02651733,0.00040842
5473.95532471,0.00045273
5475.88413208,0.00039560
5477.81293945,0.00041970
5479.74174683,0.00039126
5481.67055420,0.00033915
5483.59936157,0.00032746
5485.52816895,0.00035281
5487.45697632,0.00040760
5489.38578369,0.00039529
5491.31459106,0.00041761
5493.24339844,0.00043203
5495.17220581,0.00036018
5497.10101318,0.00032840
5499.02982056,0.00035283
5500.95862793,0.00046056
5502.88743530,0.00044678
5504.81624268,0.00034891
5506.74505005,0.00043363
5508.67385742,0.00042446
5510.60266479,0.00037354
5512.53147217,0.00037842
5514.46027954,0.00030446
5516.38908691,0.00030371
5518.31789429,0.00034689
5520.24670166,0.00039937
5522.17550903,0.00039710
5524.10431641,0.00037166
5526.03312378,0.00038112
5527.96193115,0.00034726
5529.89073853,0.00038397
5531.81954590,0.00036593
5533.74835327,0.00035230
5535.67716064,0.00040531
5537.60596802,0.00036226
5539.53477539,0.00035191
5541.46358276,0.00031712
5543.39239014,0.00031811
5545.32119751,0.00037464
5547.25000488,0.00036025
5549.17881226,0.00036442
5551.10761963,0.00033000
5553.03642700,0.00032392
5554.96523437,0.00033957
5556.89404175,0.00032623
5558.82284912,0.00037362
5560.75165649,0.00035548
5562.68046387,0.00031300
5564.60927124,0.00033122
5566.53807861,0.00032878
5568.46688599,0.00032434
5570.39569336,0.00032807
5572.32450073,0.00034123
5574.25330811,0.00034932
5576.18211548,0.00032763
5578.11092285,0.00029999
5580.03973022,0.00030845
5581.96853760,0.00034568
5583.89734497,0.00032235
5585.82615234,0.00033585
5587.75495972,0.00037172
5589.68376709,0.00033685
5591.61257446,0.00037141
5593.54138184,0.00034057
5595.47018921,0.00031518
5597.39899658,0.00033858
5599.32780395,0.00025069
5601.25661133,0.00032079
5603.18541870,0.00033719
5605.11422607,0.00023523
5607.04303345,0.00028994
5608.97184082,0.00028456
5610.90064819,0.00024683
5612.82945557,0.00029498
5614.75826294,0.00033277
5616.68707031,0.00028537
5618.61587769,0.00033643
5620.54468506,0.00038320
5622.47349243,0.00025569
5624.40229980,0.00027253
5626.33110718,0.00029082
5628.25991455,0.00030202
5630.18872192,0.00034382
5632.11752930,0.00030825
5634.04633667,0.00033493
5635.97514404,0.00028052
5637.90395142,0.00029115
5639.83275879,0.00029631
5641.76156616,0.00026648
5643.69037353,0.00034105
5645.61918091,0.00030678
5647.54798828,0.00033900
5649.47679565,0.00032008
5651.40560303,0.00031046
5653.33441040,0.00036926
5655.26321777,0.00023966
5657.19202515,0.00024255
5659.12083252,0.00029268
5661.04963989,0.00029138
5662.97844727,0.00032231
5664.90725464,0.00029835
5666.83606201,0.00028093
5668.76486938,0.00023996
5670.69367676,0.00028944
5672.62248413,0.00032351
5674.55129150,0.00027430
5676.48009888,0.00031510
5678.40890625,0.00029612
5680.33771362,0.00026460
5682.26652100,0.00033319
5684.19532837,0.00034166
5686.12413574,0.00032882
5688.05294311,0.00030787
5689.98175049,0.00021925
5691.91055786,0.00025127
5693.83936523,0.00032229
5695.76817261,0.00030358
5697.69697998,0.00029967
5699.62578735,0.00028004
5701.55459473,0.00029952
5703.48340210,0.00031155
5705.41220947,0.00026891
5707.34101685,0.00025136
5709.26982422,0.00021759
5711.19863159,0.00021300
5713.12743896,0.00025864
5715.05624634,0.00029229
5716.98505371,0.00029306
5718.91386108,0.00030477
5720.84266846,0.00026636
5722.77147583,0.00021923
5724.70028320,0.00029171
5726.62909058,0.00027486
5728.55789795,0.00023889
5730.48670532,0.00027738
5732.41551270,0.00024927
5734.34432007,0.00027020
5736.27312744,0.00030947
5738.20193481,0.00032258
5740.13074219,0.00027267
5742.05954956,0.00021104
5743.98835693,0.00028465
5745.91716431,0.00027764
5747.84597168,0.00023536
5749.77477905,0.00027213
5751.70358643,0.00025509
5753.63239380,0.00021332
5755.56120117,0.00015849
5757.49000854,0.00021228
5759.41881592,0.00026408
5761.34762329,0.00021422
5763.27643066,0.00027673
5765.20523804,0.00029010
5767.13404541,0.00031457
5769.06285278,0.00032003
5770.99166016,0.00018979
5772.92046753,0.00026765
5774.84927490,0.00029056
5776.77808228,0.00022147
5778.70688965,0.00023733
5780.63569702,0.00019082
5782.56450439,0.00028756
5784.49331177,0.00031905
5786.42211914,0.00025464
5788.35092651,0.00025703
5790.27973389,0.00024029
5792.20854126,0.00026292
5794.13734863,0.00022366
5796.06615601,0.00029189
5797.99496338,0.00031973
5799.92377075,0.00021565
5801.85257812,0.00024874
5803.78138550,0.00024107
5805.71019287,0.00027788
5807.63900024,0.00027273
5809.56780762,0.00019084
5811.49661499,0.00023307
5813.42542236,0.00027684
5815.35422974,0.00030094
5817.28303711,0.00023050
5819.21184448,0.00020283
5821.14065186,0.00019539
5823.06945923,0.00017333
5824.99826660,0.00026460
5826.92707397,0.00020816
5828.85588135,0.00021456
5830.78468872,0.00029406
5832.71349609,0.00022812
5834.64230347,0.00025576
5836.57111084,0.00025702
5838.49991821,0.00018441
5840.42872559,0.00018159
5842.35753296,0.00023740
5844.28634033,0.00021418
5846.21514770,0.00016381
5848.14395508,0.00029086
5850.07276245,0.00027422
5852.00156982,0.00016882
5853.93037720,0.00021008
5855.85918457,0.00019935
5857.78799194,0.00025518
5859.71679932,0.00024307
5861.64560669,0.00014423
5863.57441406,0.00021161
5865.50322144,0.00023217
5867.43202881,0.00022148
5869.36083618,0.00023149
5871.28964355,0.00023623
5873.21845093,0.00025979
5875.14725830,0.00019935
5877.07606567,0.00020138
5879.00487305,0.00022700
5880.93368042,0.00019977
5882.86248779,0.00023425
5884.79129517,0.00024078
5886.72010254,0.00020155
5888.64890991,0.00022531
5890.57771728,0.00024390
5892.50652466,0.00016580
5894.43533203,0.00022670
5896.36413940,0.00023773
5898.29294678,0.00010575
5900.22175415,0.00022688
5902.15056152,0.00025210
5904.07936890,0.00019790
5906.00817627,0.00023511
5907.93698364,0.00015183
5909.86579102,0.00016384
5911.79459839,0.00016806
5913.72340576,0.00016805
5915.65221313,0.00023211
5917.58102051,0.00022841
5919.50982788,0.00021856
5921.43863525,0.00020391
5923.36744263,0.00022040
5925.29625000,0.00021568
5927.22505737,0.00021174
5929.15386475,0.00020321
5931.08267212,0.00019841
5933.01147949,0.00019927
5934.94028686,0.00018918
5936.86909424,0.00027378
5938.79790161,0.00024660
5940.72670898,0.00020987
5942.65551636,0.00023021
5944.58432373,0.00019073
5946.51313110,0.00018909
5948.44193848,0.00015343
5950.37074585,0.00018490
5952.29955322,0.00019428
5954.22836060,0.00019442
5956.15716797,0.00021518
5958.08597534,0.00016899
5960.01478271,0.00020141
5961.94359009,0.00021937
5963.87239746,0.00026444
5965.80120483,0.00020148
5967.73001221,0.00017444
5969.65881958,0.00027293
5971.58762695,0.00013815
5973.51643433,0.00014828
5975.44524170,0.00021614
5977.37404907,0.00016367
5979.30285645,0.00018476
5981.23166382,0.00015901
5983.16047119,0.00015651
5985.08927856,0.00013196
5987.01808594,0.00016367
5988.94689331,0.00020136
5990.87570068,0.00020942
5992.80450806,0.00024843
5994.73331543,0.00018193
5996.66212280,0.00023707
5998.59093018,0.00020799
6000.51973755,0.00010836
