399.26312622,0.00086948
401.19193359,0.00076412
403.12074097,0.00060685
405.04954834,0.00020817
406.97835571,0.00092427
408.90716309,0.00057691
410.83597046,0.00039057
412.76477783,0.00061357
414.69358521,0.00112346
416.62239258,0.00151916
418.55119995,0.00082892
420.48000732,0.00122868
422.40881470,0.00103047
424.33762207,0.00103221
426.26642944,0.00134631
428.19523682,0.00101777
430.12404419,0.00136865
432.05285156,0.00109905
433.98165894,0.00121484
435.91046631,0.00126971
437.83927368,0.00091071
439.76808105,0.00101971
441.69688843,0.00076408
443.62569580,0.00098668
445.55450317,0.00144216
447.48331055,0.00133539
449.41211792,0.00115236
451.34092529,0.00116883
453.26973267,0.00096226
455.19854004,0.00070576
457.12734741,0.00066130
459.05615479,0.00056056
460.98496216,0.00055983
462.91376953,0.00046380
464.84257690,0.00021643
466.77138428,0.00054802
468.70019165,0.00083096
470.62899902,0.00033532
472.55780640,0.00053152
474.48661377,0.00038524
476.41542114,-0.00003064
478.34422852,0.00032449
480.27303589,0.00028146
482.20184326,0.00061601
484.13065063,0.00051113
486.05945801,-0.00005404
487.98826538,0.00005981
489.91707275,0.00076327
491.84588013,0.00053927
493.77468750,-0.00017001
495.70349487,0.00066929
497.63230225,0.00064436
499.56110962,0.00002251
501.48991699,-0.00005329
503.41872437,0.00025169
505.34753174,0.00031452
507.27633911,0.00025587
509.20514648,0.00065995
511.13395386,-0.00024244
513.06276123,-0.00016185
514.99156860,0.00035002
516.92037598,-0.00031122
518.84918335,-0.00014030
520.77799072,0.00042282
522.70679810,0.00036789
524.63560547,-0.00019645
526.56441284,-0.00001575
528.49322021,0.00012779
530.42202759,0.00019428
532.35083496,0.00041402
534.27964233,0.00040121
536.20844971,0.00037089
538.13725708,-0.00007491
540.06606445,0.00039946
541.99487183,0.00038753
543.92367920,0.00017681
545.85248657,0.00041722
547.78129395,0.00000668
549.71010132,0.00056926
551.63890869,0.00047845
553.56771606,0.00035187
555.49652344,0.00062139
557.42533081,0.00006673
559.35413818,0.00045667
561.28294556,0.00040232
563.21175293,0.00002962
565.14056030,-0.00007598
567.06936768,-0.00028142
568.99817505,0.00023518
570.92698242,0.00026991
572.85578979,0.00005506
574.78459717,0.00034681
576.71340454,0.00043139
578.64221191,0.00026792
580.57101929,0.00022680
582.49982666,0.00010425
584.42863403,-0.00005680
586.35744141,0.00006189
588.28624878,0.00028869
590.21505615,0.00031638
592.14386353,0.00021665
594.07267090,0.00016295
596.00147827,-0.00022910
597.93028564,-0.00013879
599.85909302,0.00018371
601.78790039,0.00026809
603.71670776,0.00037097
605.64551514,0.00003135
607.57432251,0.00013605
609.50312988,0.00026978
611.43193726,-0.00001204
613.36074463,-0.00002697
615.28955200,0.00017835
617.21835938,0.00013984
619.14716675,-0.00004033
621.07597412,0.00027831
623.00478149,0.00026200
624.93358887,0.00010172
626.86239624,0.00037386
628.79120361,0.00023720
630.72001099,0.00031697
632.64881836,0.00071950
634.57762573,0.00069465
636.50643311,0.00097020
638.43524048,0.00104502
640.36404785,0.00121888
642.29285522,0.00163394
644.22166260,0.00124567
646.15046997,0.00154595
648.07927734,0.00183468
650.00808472,0.00192190
651.93689209,0.00212801
653.86569946,0.00199244
655.79450684,0.00251336
657.72331421,0.00247554
659.65212158,0.00254525
661.58092896,0.00269505
663.50973633,0.00271254
665.43854370,0.00303153
667.36735107,0.00252267
669.29615845,0.00282342
671.22496582,0.00323683
673.15377319,0.00327423
675.08258057,0.00363416
677.01138794,0.00375046
678.94019531,0.00375844
680.86900269,0.00370265
682.79781006,0.00396469
684.72661743,0.00378549
686.65542480,0.00376218
688.58423218,0.00372464
690.51303955,0.00370679
692.44184692,0.00437133
694.37065430,0.00451079
696.29946167,0.00509558
698.22826904,0.00592173
700.15707642,0.00630690
702.08588379,0.00634723
704.01469116,0.00601763
705.94349854,0.00517866
707.87230591,0.00418371
709.80111328,0.00382312
711.72992065,0.00263631
713.65872803,0.00143572
715.58753540,0.00090289
717.51634277,0.00051103
719.44515015,0.00048164
721.37395752,0.00038783
723.30276489,0.00035193
725.23157227,0.00012106
727.16037964,0.00017214
729.08918701,0.00024108
731.01799438,0.00025092
732.94680176,0.00010022
734.87560913,-0.00026596
736.80441650,0.00001494
738.73322388,-0.00013538
740.66203125,-0.00026786
742.59083862,-0.00003099
744.51964600,0.00000423
746.44845337,0.00014320
748.37726074,0.00036691
750.30606812,0.00043015
752.23487549,0.00009969
754.16368286,0.00030301
756.09249023,0.00037837
758.02129761,0.00031703
759.95010498,0.00038828
761.87891235,0.00014023
763.80771973,0.00050812
765.73652710,0.00039428
767.66533447,0.00039203
769.59414185,0.00054856
771.52294922,0.00048133
773.45175659,0.00053167
775.38056396,0.00038257
777.30937134,0.00071032
779.23817871,0.00049693
781.16698608,0.00067233
783.09579346,0.00074919
785.02460083,0.00030574
786.95340820,0.00048369
788.88221558,0.00040609
790.81102295,0.00056633
792.73983032,0.00071595
794.66863770,0.00088805
796.59744507,0.00066132
798.52625244,0.00067252
800.45505981,0.00121169
802.38386719,0.00075060
804.31267456,0.00106895
806.24148193,0.00122582
808.17028931,0.00044813
810.09909668,0.00058250
812.02790405,0.00067146
813.95671143,0.00055418
815.88551880,0.00069547
817.81432617,0.00044186
819.74313354,0.00032309
821.67194092,0.00061660
823.60074829,0.00057700
825.52955566,0.00076362
827.45836304,0.00095354
829.38717041,0.00094733
831.31597778,0.00142829
833.24478516,0.00178535
835.17359253,0.00205952
837.10239990,0.00229760
839.03120728,0.00225143
840.96001465,0.00204338
842.88882202,0.00182664
844.81762939,0.00176982
846.74643677,0.00160885
848.67524414,0.00165908
850.60405151,0.00168237
852.53285889,0.00120155
854.46166626,0.00136356
856.39047363,0.00158446
858.31928101,0.00083000
860.24808838,0.00062626
862.17689575,0.00075196
864.10570313,0.00076400
866.03451050,0.00089730
867.96331787,0.00068725
869.89212524,0.00069517
871.82093262,0.00051095
873.74973999,0.00031474
875.67854736,0.00046446
877.60735474,0.00055412
879.53616211,0.00058080
881.46496948,0.00033445
883.39377686,0.00026619
885.32258423,0.00033269
887.25139160,0.00047432
889.18019897,0.00055121
891.10900635,0.00036845
893.03781372,0.00035790
894.96662109,0.00048534
896.89542847,0.00071034
898.82423584,0.00065317
900.75304321,0.00071427
902.68185059,0.00070292
904.61065796,0.00037637
906.53946533,0.00063673
908.46827271,0.00079188
910.39708008,0.00081891
912.32588745,0.00094195
914.25469482,0.00115692
916.18350220,0.00137605
918.11230957,0.00132773
920.04111694,0.00169192
921.96992432,0.00174041
923.89873169,0.00172917
925.82753906,0.00219247
927.75634644,0.00230397
929.68515381,0.00236552
931.61396118,0.00273610
933.54276855,0.00309148
935.47157593,0.00313606
937.40038330,0.00325211
939.32919067,0.00346920
941.25799805,0.00363074
943.18680542,0.00368476
945.11561279,0.00366072
947.04442017,0.00375142
948.97322754,0.00355928
950.90203491,0.00359606
952.83084229,0.00380610
954.75964966,0.00357504
956.68845703,0.00356268
958.61726440,0.00340829
960.54607178,0.00329927
962.47487915,0.00377653
964.40368652,0.00364155
966.33249390,0.00363551
968.26130127,0.00414825
970.19010864,0.00405163
972.11891602,0.00428795
974.04772339,0.00457400
975.97653076,0.00467110
977.90533813,0.00525855
979.83414551,0.00578187
981.76295288,0.00648009
983.69176025,0.00707887
985.62056763,0.00781412
987.54937500,0.00896601
989.47818237,0.00972858
991.40698975,0.01073538
993.33579712,0.01185494
995.26460449,0.01286915
997.19341187,0.01421896
999.12221924,0.01531985
1001.05102661,0.01641942
1002.97983398,0.01754998
1004.90864136,0.01869724
1006.83744873,0.02024515
1008.76625610,0.02126693
1010.69506348,0.02231039
1012.62387085,0.02379921
1014.55267822,0.02480661
1016.48148560,0.02606263
1018.41029297,0.02763265
1020.33910034,0.02885158
1022.26790771,0.02978085
1024.19671509,0.03081951
1026.12552246,0.03216844
1028.05432983,0.03357114
1029.98313721,0.03462509
1031.91194458,0.03509416
1033.84075195,0.03583097
1035.76955933,0.03650284
1037.69836670,0.03674838
1039.62717407,0.03697933
1041.55598145,0.03682687
1043.48478882,0.03666666
1045.41359619,0.03620610
1047.34240356,0.03560611
1049.27121094,0.03513736
1051.20001831,0.03449122
1053.12882568,0.03404817
1055.05763306,0.03333711
1056.98644043,0.03252624
1058.91524780,0.03169017
1060.84405518,0.03071019
1062.77286255,0.02984608
1064.70166992,0.02871352
1066.63047729,0.02768203
1068.55928467,0.02672321
1070.48809204,0.02548201
1072.41689941,0.02421995
1074.34570679,0.02294681
1076.27451416,0.02178537
1078.20332153,0.02096235
1080.13212891,0.02012644
1082.06093628,0.01906895
1083.98974365,0.01813801
1085.91855103,0.01731363
1087.84735840,0.01649953
1089.77616577,0.01563312
1091.70497314,0.01493535
1093.63378052,0.01445678
1095.56258789,0.01380135
1097.49139526,0.01350638
1099.42020264,0.01320348
1101.34901001,0.01239218
1103.27781738,0.01231870
1105.20662476,0.01244779
1107.13543213,0.01210342
1109.06423950,0.01194746
1110.99304687,0.01159114
1112.92185425,0.01136757
1114.85066162,0.01131257
1116.77946899,0.01119202
1118.70827637,0.01125109
1120.63708374,0.01109956
1122.56589111,0.01125286
1124.49469849,0.01161984
1126.42350586,0.01171900
1128.35231323,0.01189158
1130.28112061,0.01220879
1132.20992798,0.01244804
1134.13873535,0.01288763
1136.06754272,0.01364432
1137.99635010,0.01399831
1139.92515747,0.01472015
1141.85396484,0.01578405
1143.78277222,0.01669072
1145.71157959,0.01798197
1147.64038696,0.01912640
1149.56919434,0.02016141
1151.49800171,0.02118085
1153.42680908,0.02230692
1155.35561646,0.02326334
1157.28442383,0.02404711
1159.21323120,0.02514734
1161.14203857,0.02599677
1163.07084595,0.02695978
1164.99965332,0.02786180
1166.92846069,0.02881686
1168.85726807,0.03017807
1170.78607544,0.03122085
1172.71488281,0.03215450
1174.64369019,0.03338852
1176.57249756,0.03490504
1178.50130493,0.03618247
1180.43011230,0.03739718
1182.35891968,0.03889211
1184.28772705,0.04067653
1186.21653442,0.04267032
1188.14534180,0.04448612
1190.07414917,0.04648411
1192.00295654,0.04873387
1193.93176392,0.05088484
1195.86057129,0.05303573
1197.78937866,0.05570427
1199.71818604,0.05824997
1201.64699341,0.06052651
1203.57580078,0.06303458
1205.50460815,0.06518751
1207.43341553,0.06759581
1209.36222290,0.06993163
1211.29103027,0.07191536
1213.21983765,0.07408807
1215.14864502,0.07597880
1217.07745239,0.07754721
1219.00625977,0.07876655
1220.93506714,0.07992467
1222.86387451,0.08087392
1224.79268188,0.08162638
1226.72148926,0.08225987
1228.65029663,0.08267447
1230.57910400,0.08319746
1232.50791138,0.08327508
1234.43671875,0.08307770
1236.36552612,0.08300872
1238.29433350,0.08288595
1240.22314087,0.08273105
1242.15194824,0.08252769
1244.08075562,0.08220604
1246.00956299,0.08173209
1247.93837036,0.08108456
1249.86717773,0.08050346
1251.79598511,0.07994762
1253.72479248,0.07896625
1255.65359985,0.07818543
1257.58240723,0.07706706
1259.51121460,0.07550761
1261.44002197,0.07463174
1263.36882935,0.07368923
1265.29763672,0.07258313
1267.22644409,0.07167104
1269.15525146,0.07070914
1271.08405884,0.06962333
1273.01286621,0.06871890
1274.94167358,0.06755836
1276.87048096,0.06602557
1278.79928833,0.06485187
1280.72809570,0.06349134
1282.65690308,0.06234067
1284.58571045,0.06113101
1286.51451782,0.05964419
1288.44332520,0.05877447
1290.37213257,0.05806518
1292.30093994,0.05747634
1294.22974731,0.05694026
1296.15855469,0.05646794
1298.08736206,0.05638473
1300.01616943,0.05665573
1301.94497681,0.05678342
1303.87378418,0.05708858
1305.80259155,0.05779229
1307.73139893,0.05846249
1309.66020630,0.05964151
1311.58901367,0.06037094
1313.51782104,0.06126695
1315.44662842,0.06310979
1317.37543579,0.06431640
1319.30424316,0.06574126
1321.23305054,0.06806682
1323.16185791,0.07017212
1325.09066528,0.07197130
1327.01947266,0.07410725
1328.94828003,0.07597685
1330.87708740,0.07794267
1332.80589478,0.08002210
1334.73470215,0.08121727
1336.66350952,0.08201367
1338.59231689,0.08143641
1340.52112427,0.08237668
1342.44993164,0.08570305
1344.37873901,0.08624174
1346.30754639,0.08606705
1348.23635376,0.08611442
1350.16516113,0.08533639
1352.09396851,0.08526336
1354.02277588,0.08416510
1355.95158325,0.08326584
1357.88039062,0.08287147
1359.80919800,0.08154251
1361.73800537,0.07812732
1363.66681274,0.07692420
1365.59562012,0.08044775
1367.52442749,0.07865287
1369.45323486,0.07772479
1371.38204224,0.07908222
1373.31084961,0.07492454
1375.23965698,0.07541548
1377.16846436,0.07720446
1379.09727173,0.07674778
1381.02607910,0.07687534
1382.95488647,0.07670739
1384.88369385,0.07668011
1386.81250122,0.07319570
1388.74130859,0.07427640
1390.67011597,0.08007689
1392.59892334,0.07802499
1394.52773071,0.07333969
1396.45653809,0.07658632
1398.38534546,0.07657708
1400.31415283,0.07624947
1402.24296021,0.08203834
1404.17176758,0.07763091
1406.10057495,0.07803240
1408.02938232,0.08105762
1409.95818970,0.07797994
1411.88699707,0.07950022
1413.81580444,0.07686287
1415.74461182,0.07807472
1417.67341919,0.07064904
1419.60222656,0.06341167
1421.53103394,0.07252292
1423.45984131,0.07013641
1425.38864868,0.06802128
1427.31745605,0.06890599
1429.24626343,0.06363729
1431.17507080,0.06179171
1433.10387817,0.06274150
1435.03268555,0.05710318
1436.96149292,0.04853915
1438.89030029,0.05496066
1440.81910767,0.05619309
1442.74791504,0.05228258
1444.67672241,0.05452085
1446.60552979,0.05009429
1448.53433716,0.05092335
1450.46314453,0.05238792
1452.39195190,0.05336324
1454.32075928,0.05547246
1456.24956665,0.04615030
1458.17837402,0.04808474
1460.10718140,0.06352371
1462.03598877,0.06751668
1463.96479614,0.06711537
1465.89360352,0.06988772
1467.82241089,0.07948189
1469.75121826,0.08545305
1471.68002563,0.07652894
1473.60883301,0.08065364
1475.53764038,0.09136758
1477.46644775,0.09830494
1479.39525513,0.10781483
1481.32406250,0.10925996
1483.25286987,0.11609690
1485.18167725,0.11961688
1487.11048462,0.11809418
1489.03929199,0.11754081
1490.96809937,0.11827764
1492.89690674,0.13683733
1494.82571411,0.13355026
1496.75452148,0.12087424
1498.68332886,0.13598479
1500.61213623,0.14009053
1502.54094360,0.14983664
1504.46975098,0.14175707
1506.39855835,0.10478473
1508.32736572,0.12691283
1510.25617310,0.14772952
1512.18498047,0.14288302
1514.11378784,0.15448093
1516.04259521,0.13964500
1517.97140259,0.14530191
1519.90020996,0.14013088
1521.82901733,0.12208175
1523.75782471,0.14798898
1525.68663208,0.14496481
1527.61543945,0.14460076
1529.54424683,0.15853205
1531.47305420,0.15226081
1533.40186157,0.14000292
1535.33066895,0.14774880
1537.25947632,0.15742040
1539.18828369,0.11380844
1541.11709106,0.11879510
1543.04589844,0.14111015
1544.97470581,0.13537914
1546.90351318,0.15849489
1548.83232056,0.14780372
1550.76112793,0.15208650
1552.68993530,0.15042590
1554.61874268,0.13688041
1556.54755005,0.14559403
1558.47635742,0.10397060
1560.40516479,0.11172146
1562.33397217,0.15557909
1564.26277954,0.14676577
1566.19158691,0.15050668
1568.12039429,0.14830631
1570.04920166,0.13148680
1571.97800903,0.15026441
1573.90681641,0.15092793
1575.83562378,0.12011454
1577.76443115,0.13477716
1579.69323853,0.15112370
1581.62204590,0.14346120
1583.55085327,0.14585346
1585.47966064,0.14318210
1587.40846802,0.14295238
1589.33727539,0.14093159
1591.26608276,0.13977337
1593.19489014,0.13894787
1595.12369751,0.13628075
1597.05250488,0.13679256
1598.98131226,0.13490033
1600.91011963,0.13430521
1602.83892700,0.13088381
1604.76773437,0.13169234
1606.69654175,0.12863299
1608.62534912,0.12721427
1610.55415649,0.12572947
1612.48296387,0.12538473
1614.41177124,0.12588674
1616.34057861,0.10287821
1618.26938599,0.11015620
1620.19819336,0.12637785
1622.12700073,0.11204616
1624.05580811,0.11192513
1625.98461548,0.11654311
1627.91342285,0.11566930
1629.84223022,0.11477972
1631.77103760,0.12224795
1633.69984497,0.11288793
1635.62865234,0.09422319
1637.55745972,0.10947409
1639.48626709,0.12049735
1641.41507446,0.11844004
1643.34388184,0.12236191
1645.27268921,0.11153381
1647.20149658,0.09918316
1649.13030396,0.12391476
1651.05911133,0.11823116
1652.98791870,0.07805555
1654.91672607,0.10623586
1656.84553345,0.13333529
1658.77434082,0.12907565
1660.70314819,0.13395271
1662.63195557,0.12350185
1664.56076294,0.13131717
1666.48957031,0.14235279
1668.41837769,0.12610175
1670.34718506,0.12400676
1672.27599243,0.14140871
1674.20479980,0.13214791
1676.13360718,0.12854037
1678.06241455,0.14845608
1679.99122192,0.14461516
1681.92002930,0.14431590
1683.84883667,0.11963516
1685.77764404,0.11967394
1687.70645142,0.16348341
1689.63525879,0.14402354
1691.56406616,0.15872608
1693.49287354,0.16308646
1695.42168091,0.12135737
1697.35048828,0.14997986
1699.27929565,0.13351738
1701.20810303,0.12159626
1703.13691040,0.16518036
1705.06571777,0.15273660
1706.99452515,0.15499169
1708.92333252,0.16859137
1710.85213989,0.16327442
1712.78094727,0.16703674
1714.70975464,0.15609132
1716.63856201,0.14129749
1718.56736938,0.13965154
1720.49617676,0.16538569
1722.42498413,0.17170274
1724.35379150,0.16090226
1726.28259888,0.17460814
1728.21140625,0.16202949
1730.14021362,0.16434315
1732.06902100,0.16018760
1733.99782837,0.12399460
1735.92663574,0.15298770
1737.85544312,0.16897658
1739.78425049,0.15125966
1741.71305786,0.16469507
1743.64186523,0.16745749
1745.57067261,0.16769892
1747.49947998,0.16973336
1749.42828735,0.16287328
1751.35709473,0.15636319
1753.28590210,0.17252955
1755.21470947,0.18048391
1757.14351685,0.16554670
1759.07232422,0.18138364
1761.00113159,0.17116317
1762.92993896,0.16543666
1764.85874634,0.18865880
1766.78755371,0.17034721
1768.71636108,0.17205933
1770.64516846,0.17116435
1772.57397583,0.15446630
1774.50278320,0.17206231
1776.43159058,0.18113685
1778.36039795,0.17882316
1780.28920532,0.17691715
1782.21801270,0.17830107
1784.14682007,0.17798121
1786.07562744,0.17462565
1788.00443481,0.18354051
1789.93324219,0.17913437
1791.86204956,0.16284680
1793.79085693,0.16931275
1795.71966431,0.18147793
1797.64847168,0.17911682
1799.57727905,0.17617612
1801.50608643,0.17354700
1803.43489380,0.17893529
1805.36370117,0.18267468
1807.29250854,0.18021193
1809.22131592,0.18090482
1811.15012329,0.17633404
1813.07893066,0.18153957
1815.00773804,0.18215069
1816.93654541,0.18010202
1818.86535278,0.18172184
1820.79416016,0.18076286
1822.72296753,0.18341079
1824.65177490,0.17192896
1826.58058228,0.17772557
1828.50938965,0.17787454
1830.43819702,0.16724974
1832.36700439,0.18157646
1834.29581177,0.18039276
1836.22461914,0.18013884
1838.15342651,0.17932561
1840.08223389,0.18030997
1842.01104126,0.18044633
1843.93984863,0.16090110
1845.86865601,0.17108038
1847.79746338,0.17997277
1849.72627075,0.17629680
1851.65507812,0.18108109
1853.58388550,0.17755228
1855.51269287,0.17937118
1857.44150024,0.17806961
1859.37030762,0.17693651
1861.29911499,0.17814411
1863.22792236,0.17610946
1865.15672974,0.17782468
1867.08553711,0.17204638
1869.01434448,0.16523784
1870.94315186,0.17137359
1872.87195923,0.17729844
1874.80076660,0.17452046
1876.72957397,0.17527510
1878.65838135,0.17465550
1880.58718872,0.17379406
1882.51599609,0.17500928
1884.44480347,0.17227066
1886.37361084,0.17455280
1888.30241821,0.17078340
1890.23122559,0.16761288
1892.16003296,0.17335279
1894.08884033,0.17105438
1896.01764771,0.17019060
1897.94645508,0.17176725
1899.87526245,0.17092812
1901.80406982,0.17119235
1903.73287720,0.17003638
1905.66168457,0.17072111
1907.59049194,0.16901073
1909.51929932,0.16792382
1911.44810669,0.16881679
1913.37691406,0.16874981
1915.30572144,0.17009810
1917.23452881,0.16290155
1919.16333618,0.16305634
1921.09214355,0.16882004
1923.02095093,0.16355771
1924.94975830,0.16675919
1926.87856567,0.16809779
1928.80737305,0.16619578
1930.73618042,0.16793254
1932.66498779,0.16547704
1934.59379517,0.16705301
1936.52260254,0.16561179
1938.45140991,0.16633235
1940.38021729,0.16609830
1942.30902466,0.16075647
1944.23783203,0.16357610
1946.16663940,0.16481951
1948.09544678,0.16463426
1950.02425415,0.16503322
1951.95306152,0.16450210
1953.88186890,0.16452157
1955.81067627,0.16348346
1957.73948364,0.16404518
1959.66829102,0.16351402
1961.59709839,0.16319489
1963.52590576,0.16355640
1965.45471313,0.16232640
1967.38352051,0.16076794
1969.31232788,0.16195709
1971.24113525,0.16280794
1973.16994263,0.16153382
1975.09875000,0.16213092
1977.02755737,0.16127034
1978.95636475,0.16111201
1980.88517212,0.16083199
1982.81397949,0.16008836
1984.74278687,0.16058218
1986.67159424,0.15912521
1988.60040161,0.15927905
1990.52920898,0.15784860
1992.45801636,0.15621462
1994.38682373,0.15815377
1996.31563110,0.15815052
1998.24443848,0.15713863
2000.17324585,0.15716901
2002.10205322,0.15676665
2004.03086060,0.15625080
2005.95966797,0.15595430
2007.88847534,0.15532814
2009.81728271,0.15527199
2011.74609009,0.15467238
2013.67489746,0.15431532
2015.60370483,0.15354592
2017.53251221,0.15195855
2019.46131958,0.15279292
2021.39012695,0.15256575
2023.31893433,0.15186206
2025.24774170,0.15176947
2027.17654907,0.15106751
2029.10535645,0.15088110
2031.03416382,0.15015288
2032.96297119,0.14992669
2034.89177856,0.14955790
2036.82058594,0.14921466
2038.74939331,0.14879552
2040.67820068,0.14781171
2042.60700806,0.14765731
2044.53581543,0.14755076
2046.46462280,0.14727244
2048.39343018,0.14672494
2050.32223755,0.14633830
2052.25104492,0.14605024
2054.17985229,0.14568074
2056.10865967,0.14529541
2058.03746704,0.14488140
2059.96627441,0.14454564
2061.89508179,0.14419034
2063.82388916,0.14358954
2065.75269653,0.14277951
2067.68150391,0.14306292
2069.61031128,0.14284588
2071.53911865,0.14237633
2073.46792603,0.14213873
2075.39673340,0.14155459
2077.32554077,0.14162460
2079.25434814,0.14097837
2081.18315552,0.14069313
2083.11196289,0.14053011
2085.04077026,0.14008689
2086.96957764,0.13995297
2088.89838501,0.13928765
2090.82719238,0.13892668
2092.75599976,0.13874789
2094.68480713,0.13869430
2096.61361450,0.13827160
2098.54242187,0.13806981
2100.47122925,0.13789512
2102.40003662,0.13743153
2104.32884399,0.13729921
2106.25765137,0.13683690
2108.18645874,0.13674074
2110.11526611,0.13641202
2112.04407349,0.13619849
2113.97288086,0.13590083
2115.90168823,0.13544479
2117.83049561,0.13552569
2119.75930298,0.13518575
2121.68811035,0.13507849
2123.61691772,0.13486761
2125.54572510,0.13466723
2127.47453247,0.13453366
2129.40333984,0.13435966
2131.33214722,0.13414982
2133.26095459,0.13386962
2135.18976196,0.13383076
2137.11856934,0.13343954
2139.04737671,0.13342585
2140.97618408,0.13320886
2142.90499146,0.13304514
2144.83379883,0.13289148
2146.76260620,0.13264591
2148.69141357,0.13278523
2150.62022095,0.13227299
2152.54902832,0.13223922
2154.47783569,0.13206127
2156.40664307,0.13190416
2158.33545044,0.13194811
2160.26425781,0.13157719
2162.19306519,0.13157380
2164.12187256,0.13129921
2166.05067993,0.13126650
2167.97948730,0.13111261
2169.90829468,0.13088433
2171.83710205,0.13080780
2173.76590942,0.13066183
2175.69471680,0.13058300
2177.62352417,0.13039088
2179.55233154,0.13044807
2181.48113892,0.13024938
2183.40994629,0.13016915
2185.33875366,0.12988937
2187.26756104,0.12970969
2189.19636841,0.12976861
2191.12517578,0.12963659
2193.05398315,0.12963834
2194.98279053,0.12928812
2196.91159790,0.12942034
2198.84040527,0.12916508
2200.76921265,0.12887725
2202.69802002,0.12906852
2204.62682739,0.12881178
2206.55563477,0.12880567
2208.48444214,0.12856688
2210.41324951,0.12839279
2212.34205688,0.12829372
2214.27086426,0.12828404
2216.19967163,0.12816197
2218.12847900,0.12779774
2220.05728638,0.12788378
2221.98609375,0.12776279
2223.91490112,0.12751472
2225.84370850,0.12735668
2227.77251587,0.12727255
2229.70132324,0.12697028
2231.63013062,0.12686904
2233.55893799,0.12676518
2235.48774536,0.12645873
2237.41655273,0.12653759
2239.34536011,0.12629318
2241.27416748,0.12621891
2243.20297485,0.12596369
2245.13178223,0.12576312
2247.06058960,0.12586364
2248.98939697,0.12547442
2250.91820435,0.12524790
2252.84701172,0.12509920
2254.77581909,0.12497573
2256.70462646,0.12475723
2258.63343384,0.12466821
2260.56224121,0.12451857
2262.49104858,0.12428667
2264.41985596,0.12419459
2266.34866333,0.12403302
2268.27747070,0.12402390
2270.20627808,0.12378471
2272.13508545,0.12384501
2274.06389282,0.12363957
2275.99270020,0.12329278
2277.92150757,0.12340900
2279.85031494,0.12328701
2281.77912231,0.12317705
2283.70792969,0.12296201
2285.63673706,0.12287958
2287.56554443,0.12260291
2289.49435181,0.12225032
2291.42315918,0.12198211
2293.35196655,0.12167287
2295.28077393,0.12145013
2297.20958130,0.12102337
2299.13838867,0.12065250
2301.06719604,0.12006420
2302.99600342,0.11970837
2304.92481079,0.11902472
2306.85361816,0.11815187
2308.78242554,0.11748865
2310.71123291,0.11633946
2312.64004028,0.11530941
2314.56884766,0.11413683
2316.49765503,0.11291372
2318.42646240,0.11133665
2320.35526978,0.10987031
2322.28407715,0.10833760
2324.21288452,0.10668378
2326.14169189,0.10573176
2328.07049927,0.10431810
2329.99930664,0.10302209
2331.92811401,0.10207667
2333.85692139,0.10180808
2335.78572876,0.10133196
2337.71453613,0.10095154
2339.64334351,0.10117522
2341.57215088,0.10129774
2343.50095825,0.10311140
2345.42976562,0.10485475
2347.35857300,0.10939794
2349.28738037,0.11335103
2351.21618774,0.10905185
2353.14499512,0.10349986
2355.07380249,0.09963664
2357.00260986,0.09641218
2358.93141724,0.09438351
2360.86022461,0.09342887
2362.78903198,0.09353030
2364.71783936,0.09372371
2366.64664673,0.09514368
2368.57545410,0.09700751
2370.50426147,0.09947371
2372.43306885,0.10251277
2374.36187622,0.10544480
2376.29068359,0.10843439
2378.21949097,0.11073273
2380.14829834,0.11278346
2382.07710571,0.11403354
2384.00591309,0.11480007
2385.93472046,0.11517885
2387.86352783,0.11515919
2389.79233521,0.11531188
2391.72114258,0.11506554
2393.64994995,0.11485405
2395.57875732,0.11473764
2397.50756470,0.11455303
2399.43637207,0.11426368
2401.36517944,0.11405928
2403.29398682,0.11406128
2405.22279419,0.11405198
2407.15160156,0.11385439
2409.08040894,0.11355416
2411.00921631,0.11351386
2412.93802368,0.11329736
2414.86683105,0.11309764
2416.79563843,0.11298904
2418.72444580,0.11276703
2420.65325317,0.11262172
2422.58206055,0.11254791
2424.51086792,0.11246222
2426.43967529,0.11231729
2428.36848267,0.11214264
2430.29729004,0.11192011
2432.22609741,0.11176172
2434.15490479,0.11146556
2436.08371216,0.11145191
2438.01251953,0.11137952
2439.94132690,0.11108430
2441.87013428,0.11096272
2443.79894165,0.11072139
2445.72774902,0.11076805
2447.65655640,0.11060808
2449.58536377,0.11049818
2451.51417114,0.11027883
2453.44297852,0.10994403
2455.37178589,0.10998449
2457.30059326,0.10968001
2459.22940063,0.10965656
2461.15820801,0.10941915
2463.08701538,0.10919756
2465.01582275,0.10920076
2466.94463013,0.10890207
2468.87343750,0.10880404
2470.80224487,0.10871017
2472.73105225,0.10861512
2474.65985962,0.10825039
2476.58866699,0.10822715
2478.51747437,0.10803089
2480.44628174,0.10772772
2482.37508911,0.10779460
2484.30389648,0.10748006
2486.23270386,0.10746560
2488.16151123,0.10722762
2490.09031860,0.10714921
2492.01912598,0.10702218
2493.94793335,0.10669585
2495.87674072,0.10673195
2497.80554810,0.10649718
2499.73435547,0.10649987
2501.66316284,0.10615656
2503.59197021,0.10599756
2505.52077759,0.10593626
2507.44958496,0.10559666
2509.37839233,0.10566463
2511.30719971,0.10543962
2513.23600708,0.10526025
2515.16481445,0.10512249
2517.09362183,0.10503793
2519.02242920,0.10484556
2520.95123657,0.10468881
2522.88004395,0.10460171
2524.80885132,0.10429507
2526.73765869,0.10431626
2528.66646606,0.10416410
2530.59527344,0.10396884
2532.52408081,0.10367829
2534.45288818,0.10357313
2536.38169556,0.10352442
2538.31050293,0.10324207
2540.23931030,0.10325846
2542.16811768,0.10294320
2544.09692505,0.10280199
2546.02573242,0.10270533
2547.95453979,0.10248330
2549.88334717,0.10236219
2551.81215454,0.10219450
2553.74096191,0.10218887
2555.66976929,0.10191464
2557.59857666,0.10167548
2559.52738403,0.10148251
2561.45619141,0.10144837
2563.38499878,0.10132486
2565.31380615,0.10102411
2567.24261353,0.10097587
2569.17142090,0.10076086
2571.10022827,0.10055810
2573.02903564,0.10038072
2574.95784302,0.10030454
2576.88665039,0.10012411
2578.81545776,0.09995856
2580.74426514,0.09983958
2582.67307251,0.09961446
2584.60187988,0.09958985
2586.53068726,0.09928142
2588.45949463,0.09913540
2590.38830200,0.09901024
2592.31710937,0.09878872
2594.24591675,0.09871091
2596.17472412,0.09849621
2598.10353149,0.09828093
2600.03233887,0.09796749
2601.96114624,0.09807748
2603.88995361,0.09797307
2605.81876099,0.09759893
2607.74756836,0.09758559
2609.67637573,0.09736754
2611.60518311,0.09716269
2613.53399048,0.09690211
2615.46279785,0.09670687
2617.39160522,0.09671257
2619.32041260,0.09655766
2621.24921997,0.09628499
2623.17802734,0.09608241
2625.10683472,0.09593669
2627.03564209,0.09583403
2628.96444946,0.09571883
2630.89325684,0.09538789
2632.82206421,0.09528349
2634.75087158,0.09523664
2636.67967895,0.09498103
2638.60848633,0.09473963
2640.53729370,0.09453155
2642.46610107,0.09442156
2644.39490845,0.09425039
2646.32371582,0.09407228
2648.25252319,0.09387507
2650.18133057,0.09374827
2652.11013794,0.09356974
2654.03894531,0.09333816
2655.96775269,0.09322613
2657.89656006,0.09302074
2659.82536743,0.09285602
2661.75417480,0.09262009
2663.68298218,0.09246901
2665.61178955,0.09241333
2667.54059692,0.09214602
2669.46940430,0.09194369
2671.39821167,0.09185141
2673.32701904,0.09164928
2675.25582642,0.09147435
2677.18463379,0.09134740
2679.11344116,0.09109404
2681.04224854,0.09097359
2682.97105591,0.09075154
2684.89986328,0.09050828
2686.82867065,0.09041847
2688.75747803,0.09021538
2690.68628540,0.09005255
2692.61509277,0.08980918
2694.54390015,0.08963048
2696.47270752,0.08946455
2698.40151489,0.08925979
2700.33032227,0.08902298
2702.25912964,0.08892131
2704.18793701,0.08886212
2706.11674438,0.08846588
2708.04555176,0.08835198
2709.97435913,0.08814308
2711.90316650,0.08800168
2713.83197388,0.08788378
2715.76078125,0.08748101
2717.68958862,0.08745174
2719.61839600,0.08713298
2721.54720337,0.08694045
2723.47601074,0.08684180
2725.40481812,0.08657324
2727.33362549,0.08649488
2729.26243286,0.08616576
2731.19124023,0.08608915
2733.12004761,0.08595444
2735.04885498,0.08555120
2736.97766235,0.08544634
2738.90646973,0.08540105
2740.83527710,0.08512972
2742.76408447,0.08494213
2744.69289185,0.08474635
2746.62169922,0.08445102
2748.55050659,0.08440516
2750.47931396,0.08405176
2752.40812134,0.08385066
2754.33692871,0.08376751
2756.26573608,0.08339420
2758.19454346,0.08334296
2760.12335083,0.08311784
2762.05215820,0.08278792
2763.98096558,0.08263888
2765.90977295,0.08256373
2767.83858032,0.08230640
2769.76738770,0.08195893
2771.69619507,0.08178506
2773.62500244,0.08154891
2775.55380981,0.08147275
2777.48261719,0.08117589
2779.41142456,0.08091312
2781.34023193,0.08082685
2783.26903931,0.08044843
2785.19784668,0.08026623
2787.12665405,0.08006898
2789.05546143,0.07980914
2790.98426880,0.07966331
2792.91307617,0.07940401
2794.84188354,0.07922740
2796.77069092,0.07898758
2798.69949829,0.07863012
2800.62830566,0.07849076
2802.55711304,0.07824372
2804.48592041,0.07797126
2806.41472778,0.07783830
2808.34353516,0.07755458
2810.27234253,0.07738727
2812.20114990,0.07709713
2814.12995728,0.07678659
2816.05876465,0.07661112
2817.98757202,0.07641373
2819.91637939,0.07620001
2821.84518677,0.07576646
2823.77399414,0.07559117
2825.70280151,0.07535394
2827.63160889,0.07506366
2829.56041626,0.07496212
2831.48922363,0.07458830
2833.41803101,0.07427666
2835.34683838,0.07404011
2837.27564575,0.07384345
2839.20445312,0.07357037
2841.13326050,0.07322868
2843.06206787,0.07285610
2844.99087524,0.07245846
2846.91968262,0.07202248
2848.84848999,0.07141857
2850.77729736,0.07116643
2852.70610474,0.07089029
2854.63491211,0.07067312
2856.56371948,0.07057555
2858.49252686,0.07023281
2860.42133423,0.07011712
2862.35014160,0.06998213
2864.27894897,0.06978367
2866.20775635,0.06947967
2868.13656372,0.06923553
2870.06537109,0.06902636
2871.99417847,0.06869593
2873.92298584,0.06857090
2875.85179321,0.06831323
2877.78060059,0.06812900
2879.70940796,0.06792505
2881.63821533,0.06766953
2883.56702270,0.06745900
2885.49583008,0.06710894
2887.42463745,0.06694312
2889.35344482,0.06666020
2891.28225220,0.06638849
2893.21105957,0.06615472
2895.13986694,0.06579350
2897.06867432,0.06552747
2898.99748169,0.06524038
2900.92628906,0.06495813
2902.85509644,0.06458303
2904.78390381,0.06427462
2906.71271118,0.06401467
2908.64151855,0.06361437
2910.57032593,0.06315538
2912.49913330,0.06265550
2914.42794067,0.06227565
2916.35674805,0.06186106
2918.28555542,0.06143716
2920.21436279,0.06121169
2922.14317017,0.06106046
2924.07197754,0.06087491
2926.00078491,0.06054192
2927.92959229,0.06021774
2929.85839966,0.06005440
2931.78720703,0.05988920
2933.71601440,0.05978742
2935.64482178,0.05968335
2937.57362915,0.05944464
2939.50243652,0.05925141
2941.43124390,0.05900560
2943.36005127,0.05876582
2945.28885864,0.05864383
2947.21766602,0.05841003
2949.14647339,0.05809288
2951.07528076,0.05775417
2953.00408813,0.05741225
2954.93289551,0.05712650
2956.86170288,0.05679117
2958.79051025,0.05643393
2960.71931763,0.05620021
2962.64812500,0.05592799
2964.57693237,0.05551516
2966.50573975,0.05519578
2968.43454712,0.05509032
2970.36335449,0.05498480
2972.29216187,0.05483259
2974.22096924,0.05469346
2976.14977661,0.05444882
2978.07858398,0.05428110
2980.00739136,0.05402811
2981.93619873,0.05380698
2983.86500610,0.05374043
2985.79381348,0.05332735
2987.72262085,0.05305634
2989.65142822,0.05288697
2991.58023560,0.05252373
2993.50904297,0.05226180
2995.43785034,0.05196820
2997.36665771,0.05168898
2999.29546509,0.05141133
3001.22427246,0.05115265
3003.15307983,0.05078578
3005.08188721,0.05047499
3007.01069458,0.05027237
3008.93950195,0.04987394
3010.86830933,0.04948178
3012.79711670,0.04906920
3014.72592407,0.04881550
3016.65473145,0.04860611
3018.58353882,0.04830968
3020.51234619,0.04798556
3022.44115356,0.04761060
3024.36996094,0.04742906
3026.29876831,0.04710454
3028.22757568,0.04677435
3030.15638306,0.04642993
3032.08519043,0.04599696
3034.01399780,0.04573863
3035.94280518,0.04543352
3037.87161255,0.04520837
3039.80041992,0.04488115
3041.72922729,0.04456051
3043.65803467,0.04426865
3045.58684204,0.04387449
3047.51564941,0.04365442
3049.44445679,0.04320161
3051.37326416,0.04287212
3053.30207153,0.04278890
3055.23087891,0.04237062
3057.15968628,0.04204031
3059.08849365,0.04184707
3061.01730103,0.04150938
3062.94610840,0.04116079
3064.87491577,0.04074251
3066.80372314,0.04035003
3068.73253052,0.04017007
3070.66133789,0.03997200
3072.59014526,0.03958954
3074.51895264,0.03927955
3076.44776001,0.03906899
3078.37656738,0.03868102
3080.30537476,0.03837696
3082.23418213,0.03820441
3084.16298950,0.03785742
3086.09179687,0.03755599
3088.02060425,0.03731324
3089.94941162,0.03702741
3091.87821899,0.03678715
3093.80702637,0.03649338
3095.73583374,0.03615770
3097.66464111,0.03589414
3099.59344849,0.03553092
3101.52225586,0.03519281
3103.45106323,0.03495336
3105.37987061,0.03463909
3107.30867798,0.03447749
3109.23748535,0.03409159
3111.16629272,0.03370855
3113.09510010,0.03359557
3115.02390747,0.03319743
3116.95271484,0.03285969
3118.88152222,0.03256230
3120.81032959,0.03230693
3122.73913696,0.03208676
3124.66794434,0.03179046
3126.59675171,0.03155204
3128.52555908,0.03127635
3130.45436645,0.03115793
3132.38317383,0.03086108
3134.31198120,0.03058012
3136.24078857,0.03037360
3138.16959595,0.03005758
3140.09840332,0.02979604
3142.02721069,0.02947367
3143.95601807,0.02937167
3145.88482544,0.02907483
3147.81363281,0.02879788
3149.74244019,0.02859188
3151.67124756,0.02825079
3153.60005493,0.02810554
3155.52886230,0.02780645
3157.45766968,0.02766463
3159.38647705,0.02743899
3161.31528442,0.02721014
3163.24409180,0.02705655
3165.17289917,0.02685205
3167.10170654,0.02679756
3169.03051392,0.02634277
3170.95932129,0.02622374
3172.88812866,0.02623048
3174.81693604,0.02591700
3176.74574341,0.02568623
3178.67455078,0.02548321
3180.60335815,0.02541413
3182.53216553,0.02517180
3184.46097290,0.02508535
3186.38978027,0.02494242
3188.31858765,0.02477241
3190.24739502,0.02468657
3192.17620239,0.02442310
3194.10500977,0.02438384
3196.03381714,0.02417845
3197.96262451,0.02401494
3199.89143188,0.02390200
3201.82023926,0.02383147
3203.74904663,0.02380421
3205.67785400,0.02361182
3207.60666138,0.02362201
3209.53546875,0.02343948
3211.46427612,0.02334686
3213.39308350,0.02328077
3215.32189087,0.02312941
3217.25069824,0.02311460
3219.17950562,0.02292575
3221.10831299,0.02285366
3223.03712036,0.02286919
3224.96592773,0.02286944
3226.89473511,0.02276341
3228.82354248,0.02277714
3230.75234985,0.02276533
3232.68115723,0.02258399
3234.60996460,0.02258058
3236.53877197,0.02253295
3238.46757935,0.02256199
3240.39638672,0.02245867
3242.32519409,0.02238555
3244.25400146,0.02242244
3246.18280884,0.02238403
3248.11161621,0.02239524
3250.04042358,0.02229764
3251.96923096,0.02232356
3253.89803833,0.02230150
3255.82684570,0.02237091
3257.75565308,0.02233800
3259.68446045,0.02221600
3261.61326782,0.02230991
3263.54207520,0.02220503
3265.47088257,0.02223821
3267.39968994,0.02219045
3269.32849731,0.02221552
3271.25730469,0.02235754
3273.18611206,0.02231386
3275.11491943,0.02238985
3277.04372681,0.02226728
3278.97253418,0.02219679
3280.90134155,0.02223855
3282.83014893,0.02222783
3284.75895630,0.02227844
3286.68776367,0.02230550
3288.61657104,0.02227809
3290.54537842,0.02222880
3292.47418579,0.02224937
3294.40299316,0.02228563
3296.33180054,0.02230542
3298.26060791,0.02223305
3300.18941528,0.02228666
3302.11822266,0.02229906
3304.04703003,0.02220696
3305.97583740,0.02209534
3307.90464478,0.02203617
3309.83345215,0.02223504
3311.76225952,0.02220830
3313.69106689,0.02218477
3315.61987427,0.02214834
3317.54868164,0.02218236
3319.47748901,0.02225783
3321.40629639,0.02213318
3323.33510376,0.02225357
3325.26391113,0.02217063
3327.19271851,0.02216231
3329.12152588,0.02218260
3331.05033325,0.02215052
3332.97914062,0.02218993
3334.90794800,0.02208454
3336.83675537,0.02213830
3338.76556274,0.02204626
3340.69437012,0.02219583
3342.62317749,0.02223984
3344.55198486,0.02213434
3346.48079224,0.02219628
3348.40959961,0.02212708
3350.33840698,0.02223330
3352.26721436,0.02222828
3354.19602173,0.02227868
3356.12482910,0.02218226
3358.05363647,0.02220137
3359.98244385,0.02233867
3361.91125122,0.02232680
3363.84005859,0.02242561
3365.76886597,0.02231107
3367.69767334,0.02241950
3369.62648071,0.02230879
3371.55528809,0.02241627
3373.48409546,0.02264939
3375.41290283,0.02251567
3377.34171020,0.02266125
3379.27051758,0.02257260
3381.19932495,0.02261133
3383.12813232,0.02265448
3385.05693970,0.02274385
3386.98574707,0.02280272
3388.91455444,0.02283696
3390.84336182,0.02293798
3392.77216919,0.02276488
3394.70097656,0.02297517
3396.62978394,0.02294683
3398.55859131,0.02312081
3400.48739868,0.02318444
3402.41620605,0.02309643
3404.34501343,0.02343741
3406.27382080,0.02335528
3408.20262817,0.02352491
3410.13143555,0.02352552
3412.06024292,0.02371995
3413.98905029,0.02389752
3415.91785767,0.02378058
3417.84666504,0.02399250
3419.77547241,0.02390460
3421.70427979,0.02410696
3423.63308716,0.02415597
3425.56189453,0.02422757
3427.49070190,0.02434906
3429.41950928,0.02426928
3431.34831665,0.02442468
3433.27712402,0.02461742
3435.20593140,0.02475320
3437.13473877,0.02463715
3439.06354614,0.02501306
3440.99235352,0.02491880
3442.92116089,0.02486806
3444.84996826,0.02525737
3446.77877563,0.02499058
3448.70758301,0.02530520
3450.63639038,0.02561038
3452.56519775,0.02562190
3454.49400513,0.02564299
3456.42281250,0.02578541
3458.35161987,0.02592171
3460.28042725,0.02586842
3462.20923462,0.02608839
3464.13804199,0.02619524
3466.06684937,0.02637248
3467.99565674,0.02628845
3469.92446411,0.02641574
3471.85327148,0.02666459
3473.78207886,0.02674905
3475.71088623,0.02693563
3477.63969360,0.02693551
3479.56850098,0.02710032
3481.49730835,0.02692830
3483.42611572,0.02724671
3485.35492310,0.02751981
3487.28373047,0.02743537
3489.21253784,0.02771804
3491.14134521,0.02771150
3493.07015259,0.02797898
3494.99895996,0.02802240
3496.92776733,0.02808015
3498.85657471,0.02831347
3500.78538208,0.02838323
3502.71418945,0.02814386
3504.64299683,0.02825220
3506.57180420,0.02898503
3508.50061157,0.02861585
3510.42941895,0.02867192
3512.35822632,0.02916695
3514.28703369,0.02930965
3516.21584106,0.02948399
3518.14464844,0.02936821
3520.07345581,0.02972276
3522.00226318,0.02959196
3523.93107056,0.02934732
3525.85987793,0.02970420
3527.78868530,0.02985059
3529.71749268,0.02987605
3531.64630005,0.03034912
3533.57510742,0.03072938
3535.50391479,0.03050875
3537.43272217,0.03060341
3539.36152954,0.03093235
3541.29033691,0.03122135
3543.21914429,0.03107200
3545.14795166,0.03053207
3547.07675903,0.03035072
3549.00556641,0.03128352
3550.93437378,0.03164914
3552.86318115,0.03112928
3554.79198853,0.03199161
3556.72079590,0.03210341
3558.64960327,0.03199216
3560.57841064,0.03215702
3562.50721802,0.03213560
3564.43602539,0.03234579
3566.36483276,0.03045860
3568.29364014,0.02997871
3570.22244751,0.03224603
3572.15125488,0.03324693
3574.08006226,0.03302443
3576.00886963,0.03318612
3577.93767700,0.03327758
3579.86648437,0.03330627
3581.79529175,0.03350375
3583.72409912,0.03376913
3585.65290649,0.03330898
3587.58171387,0.03081017
3589.51052124,0.03179480
3591.43932861,0.03449139
3593.36813599,0.03355261
3595.29694336,0.03324297
3597.22575073,0.03389905
3599.15455811,0.03432372
3601.08336548,0.03414324
3603.01217285,0.03456638
3604.94098022,0.03527022
3606.86978760,0.03414223
3608.79859497,0.03246822
3610.72740234,0.03326600
3612.65620972,0.03412868
3614.58501709,0.03322430
3616.51382446,0.03566805
3618.44263184,0.03334656
3620.37143921,0.03228918
3622.30024658,0.03639061
3624.22905395,0.03542580
3626.15786133,0.03711556
3628.08666870,0.03198984
3630.01547607,0.02930395
3631.94428345,0.03657868
3633.87309082,0.03584754
3635.80189819,0.03648236
3637.73070557,0.03735004
3639.65951294,0.03703253
3641.58832031,0.03753677
3643.51712769,0.03723040
3645.44593506,0.03775521
3647.37474243,0.03428801
3649.30354980,0.03180317
3651.23235718,0.03223562
3653.16116455,0.03798841
3655.08997192,0.03775271
3657.01877930,0.03420073
3658.94758667,0.03913618
3660.87639404,0.03854357
3662.80520142,0.03931805
3664.73400879,0.03931644
3666.66281616,0.03908645
3668.59162354,0.03822762
3670.52043091,0.03166137
3672.44923828,0.03800780
3674.37804565,0.03650705
3676.30685303,0.03075047
3678.23566040,0.03833120
3680.16446777,0.03923078
3682.09327515,0.03934213
3684.02208252,0.04052721
3685.95088989,0.03993747
3687.87969727,0.03629986
3689.80850464,0.03359772
3691.73731201,0.03822261
3693.66611938,0.03920841
3695.59492676,0.04019184
3697.52373413,0.04033171
3699.45254150,0.03986511
3701.38134888,0.03908455
3703.31015625,0.03762555
3705.23896362,0.04127487
3707.16777100,0.03945947
3709.09657837,0.03855006
3711.02538574,0.03655586
3712.95419312,0.03429779
3714.88300049,0.03999391
3716.81180786,0.03937177
3718.74061523,0.03965335
3720.66942261,0.03898548
3722.59822998,0.03765028
3724.52703735,0.03909223
3726.45584473,0.03638773
3728.38465210,0.03926283
3730.31345947,0.03879548
3732.24226685,0.03591589
3734.17107422,0.03521074
3736.09988159,0.03346793
3738.02868896,0.03531494
3739.95749634,0.03796908
3741.88630371,0.03981033
3743.81511108,0.03129486
3745.74391846,0.02949375
3747.67272583,0.03797617
3749.60153320,0.03289317
3751.53034058,0.03037419
3753.45914795,0.03465223
3755.38795532,0.03709645
3757.31676270,0.03842866
3759.24557007,0.03577805
3761.17437744,0.03701301
3763.10318481,0.03916609
3765.03199219,0.03673692
3766.96079956,0.03743413
3768.88960693,0.03711139
3770.81841431,0.03540429
3772.74722168,0.03819461
3774.67602905,0.03836996
3776.60483643,0.03810951
3778.53364380,0.03717450
3780.46245117,0.03589577
3782.39125854,0.03811177
3784.32006592,0.03726108
3786.24887329,0.03698455
3788.17768066,0.03775618
3790.10648804,0.03752466
3792.03529541,0.03726260
3793.96410278,0.03788417
3795.89291016,0.03586977
3797.82171753,0.03541393
3799.75052490,0.03711513
3801.67933228,0.02973064
3803.60813965,0.03449731
3805.53694702,0.03739940
3807.46575439,0.03075935
3809.39456177,0.03699580
3811.32336914,0.03625254
3813.25217651,0.03731614
3815.18098389,0.03407048
3817.10979126,0.02992119
3819.03859863,0.03728200
3820.96740601,0.03061076
3822.89621338,0.03204262
3824.82502075,0.03710287
3826.75382812,0.03364104
3828.68263550,0.03619552
3830.61144287,0.03480614
3832.54025024,0.03358068
3834.46905762,0.03443370
3836.39786499,0.03277871
3838.32667236,0.02971516
3840.25547974,0.03200253
3842.18428711,0.03440652
3844.11309448,0.03293730
3846.04190186,0.03533949
3847.97070923,0.03494496
3849.89951660,0.03501805
3851.82832397,0.03157368
3853.75713135,0.02408005
3855.68593872,0.02808379
3857.61474609,0.03489375
3859.54355347,0.03401207
3861.47236084,0.03360273
3863.40116821,0.03303304
3865.32997559,0.03071983
3867.25878296,0.03411491
3869.18759033,0.03131133
3871.11639770,0.02909106
3873.04520508,0.03416537
3874.97401245,0.03145167
3876.90281982,0.03384033
3878.83162720,0.03446208
3880.76043457,0.02985388
3882.68924194,0.03399158
3884.61804932,0.03186530
3886.54685669,0.02931028
3888.47566406,0.03400452
3890.40447144,0.03236713
3892.33327881,0.03030407
3894.26208618,0.03306685
3896.19089355,0.03351385
3898.11970093,0.03200658
3900.04850830,0.03049475
3901.97731567,0.03007562
3903.90612305,0.02985272
3905.83493042,0.03024141
3907.76373779,0.03289904
3909.69254517,0.03280687
3911.62135254,0.03249517
3913.55015991,0.03303621
3915.47896728,0.03187871
3917.40777466,0.03122280
3919.33658203,0.03095582
3921.26538940,0.03200259
3923.19419678,0.03188269
3925.12300415,0.03120367
3927.05181152,0.03175299
3928.98061890,0.03200679
3930.90942627,0.03140351
3932.83823364,0.03040227
3934.76704102,0.03152850
3936.69584839,0.03175433
3938.62465576,0.03149344
3940.55346313,0.03181940
3942.48227051,0.03073001
3944.41107788,0.03090009
3946.33988525,0.03131755
3948.26869263,0.03069493
3950.19750000,0.03062725
3952.12630737,0.03107319
3954.05511475,0.03101561
3955.98392212,0.03091771
3957.91272949,0.03090055
3959.84153687,0.03069415
3961.77034424,0.03054265
3963.69915161,0.03045134
3965.62795898,0.03078055
3967.55676636,0.03058688
3969.48557373,0.03049896
3971.41438110,0.03043016
3973.34318848,0.03021804
3975.27199585,0.03024693
3977.20080322,0.03008443
3979.12961060,0.03030517
3981.05841797,0.03009448
3982.98722534,0.03004235
3984.91603271,0.02995036
3986.84484009,0.02987722
3988.77364746,0.02996561
3990.70245483,0.02955981
3992.63126221,0.02973228
3994.56006958,0.02963783
3996.48887695,0.02952407
3998.41768433,0.02948249
4000.34649170,0.02948098
4002.27529907,0.02950745
4004.20410645,0.02929251
4006.13291382,0.02928277
4008.06172119,0.02900733
4009.99052856,0.02913428
4011.91933594,0.02905449
4013.84814331,0.02898066
4015.77695068,0.02895504
4017.70575806,0.02878284
4019.63456543,0.02882994
4021.56337280,0.02857120
4023.49218018,0.02869249
4025.42098755,0.02846510
4027.34979492,0.02847328
4029.27860229,0.02847935
4031.20740967,0.02830138
4033.13621704,0.02849750
4035.06502441,0.02816276
4036.99383179,0.02822759
4038.92263916,0.02816249
4040.85144653,0.02814378
4042.78025391,0.02803634
4044.70906128,0.02778444
4046.63786865,0.02796043
4048.56667603,0.02776079
4050.49548340,0.02776363
4052.42429077,0.02766920
4054.35309814,0.02761551
4056.28190552,0.02760941
4058.21071289,0.02753073
4060.13952026,0.02743476
4062.06832764,0.02738284
4063.99713501,0.02744365
4065.92594238,0.02714310
4067.85474976,0.02726976
4069.78355713,0.02714398
4071.71236450,0.02700370
4073.64117187,0.02702674
4075.56997925,0.02686962
4077.49878662,0.02690823
4079.42759399,0.02669591
4081.35640137,0.02679768
4083.28520874,0.02673578
4085.21401611,0.02665637
4087.14282349,0.02658181
4089.07163086,0.02651122
4091.00043823,0.02658446
4092.92924561,0.02635896
4094.85805298,0.02639258
4096.78686035,0.02623003
4098.71566772,0.02631530
4100.64447510,0.02622816
4102.57328247,0.02600066
4104.50208984,0.02611840
4106.43089722,0.02592809
4108.35970459,0.02594778
4110.28851196,0.02582933
4112.21731934,0.02579102
4114.14612671,0.02577023
4116.07493408,0.02572295
4118.00374145,0.02565356
4119.93254883,0.02547133
4121.86135620,0.02551182
4123.79016357,0.02542688
4125.71897095,0.02548414
4127.64777832,0.02525217
4129.57658569,0.02518868
4131.50539307,0.02523173
4133.43420044,0.02508394
4135.36300781,0.02510409
4137.29181519,0.02493845
4139.22062256,0.02502475
4141.14942993,0.02492498
4143.07823730,0.02486414
4145.00704468,0.02478261
4146.93585205,0.02465998
4148.86465942,0.02466146
4150.79346680,0.02448964
4152.72227417,0.02463822
4154.65108154,0.02447154
4156.57988892,0.02438823
4158.50869629,0.02441831
4160.43750366,0.02434742
4162.36631103,0.02434692
4164.29511841,0.02415867
4166.22392578,0.02410426
4168.15273315,0.02400154
4170.08154053,0.02408496
4172.01034790,0.02394324
4173.93915527,0.02378322
4175.86796265,0.02385191
4177.79677002,0.02383337
4179.72557739,0.02384627
4181.65438477,0.02364468
4183.58319214,0.02364328
4185.51199951,0.02359488
4187.44080688,0.02351050
4189.36961426,0.02343480
4191.29842163,0.02341378
4193.22722900,0.02338921
4195.15603638,0.02321376
4197.08484375,0.02338770
4199.01365112,0.02330527
4200.94245850,0.02318857
4202.87126587,0.02312599
4204.80007324,0.02299795
4206.72888062,0.02299945
4208.65768799,0.02290521
4210.58649536,0.02282887
4212.51530273,0.02278218
4214.44411011,0.02277863
4216.37291748,0.02260499
4218.30172485,0.02271249
4220.23053223,0.02262360
4222.15933960,0.02242347
4224.08814697,0.02252165
4226.01695435,0.02237210
4227.94576172,0.02245270
4229.87456909,0.02231273
4231.80337646,0.02226167
4233.73218384,0.02223701
4235.66099121,0.02204838
4237.58979858,0.02208513
4239.51860596,0.02196563
4241.44741333,0.02204358
4243.37622070,0.02197654
4245.30502808,0.02197174
4247.23383545,0.02194663
4249.16264282,0.02183200
4251.09145020,0.02176406
4253.02025757,0.02156595
4254.94906494,0.02167833
4256.87787231,0.02156352
4258.80667969,0.02151570
4260.73548706,0.02152229
4262.66429443,0.02146638
4264.59310181,0.02145456
4266.52190918,0.02130590
4268.45071655,0.02135861
4270.37952393,0.02124269
4272.30833130,0.02118474
4274.23713867,0.02112803
4276.16594604,0.02107926
4278.09475342,0.02109069
4280.02356079,0.02096233
4281.95236816,0.02094878
4283.88117554,0.02087513
4285.80998291,0.02078088
4287.73879028,0.02071572
4289.66759766,0.02073572
4291.59640503,0.02062900
4293.52521240,0.02060039
4295.45401978,0.02059614
4297.38282715,0.02052002
4299.31163452,0.02051493
4301.24044189,0.02032773
4303.16924927,0.02037739
4305.09805664,0.02028615
4307.02686401,0.02024217
4308.95567139,0.02027202
4310.88447876,0.02016158
4312.81328613,0.02018201
4314.74209351,0.02003650
4316.67090088,0.02006155
4318.59970825,0.01995101
4320.52851562,0.01990728
4322.45732300,0.01987965
4324.38613037,0.01978211
4326.31493774,0.01984765
4328.24374512,0.01974818
4330.17255249,0.01980353
4332.10135986,0.01965352
4334.03016724,0.01958661
4335.95897461,0.01955883
4337.88778198,0.01949342
4339.81658936,0.01951406
4341.74539673,0.01938223
4343.67420410,0.01941238
4345.60301147,0.01928648
4347.53181885,0.01931871
4349.46062622,0.01924401
4351.38943359,0.01918722
4353.31824097,0.01918233
4355.24704834,0.01899130
4357.17585571,0.01909826
4359.10466309,0.01898230
4361.03347046,0.01899154
4362.96227783,0.01888020
4364.89108520,0.01877076
4366.81989258,0.01884374
4368.74869995,0.01868521
4370.67750732,0.01868659
4372.60631470,0.01860397
4374.53512207,0.01861124
4376.46392944,0.01850536
4378.39273682,0.01848865
4380.32154419,0.01853147
4382.25035156,0.01842719
4384.17915894,0.01843038
4386.10796631,0.01830332
4388.03677368,0.01830571
4389.96558105,0.01821170
4391.89438843,0.01818314
4393.82319580,0.01813247
4395.75200317,0.01814386
4397.68081055,0.01813746
4399.60961792,0.01793426
4401.53842529,0.01800380
4403.46723267,0.01791473
4405.39604004,0.01798414
4407.32484741,0.01788009
4409.25365478,0.01778350
4411.18246216,0.01779983
4413.11126953,0.01765034
4415.04007690,0.01780114
4416.96888428,0.01758616
4418.89769165,0.01757499
4420.82649902,0.01756682
4422.75530640,0.01746004
4424.68411377,0.01747990
4426.61292114,0.01726950
4428.54172852,0.01740879
4430.47053589,0.01733569
4432.39934326,0.01723694
4434.32815063,0.01724545
4436.25695801,0.01714480
4438.18576538,0.01710933
4440.11457275,0.01707285
4442.04338013,0.01704301
4443.97218750,0.01698155
4445.90099487,0.01704725
4447.82980225,0.01687340
4449.75860962,0.01685022
4451.68741699,0.01688793
4453.61622437,0.01681363
4455.54503174,0.01679085
4457.47383911,0.01664282
4459.40264648,0.01667772
4461.33145386,0.01661595
4463.26026123,0.01666020
4465.18906860,0.01651382
4467.11787598,0.01635853
4469.04668335,0.01646372
4470.97549072,0.01637353
4472.90429810,0.01642808
4474.83310547,0.01636067
4476.76191284,0.01633959
4478.69072021,0.01625403
4480.61952759,0.01615794
4482.54833496,0.01617474
4484.47714233,0.01609861
4486.40594971,0.01610486
4488.33475708,0.01600419
4490.26356445,0.01610261
4492.19237183,0.01604928
4494.12117920,0.01591348
4496.04998657,0.01584565
4497.97879395,0.01577643
4499.90760132,0.01585044
4501.83640869,0.01572881
4503.76521606,0.01574215
4505.69402344,0.01568336
4507.62283081,0.01566397
4509.55163818,0.01560654
4511.48044556,0.01547919
4513.40925293,0.01558795
4515.33806030,0.01550697
4517.26686768,0.01547919
4519.19567505,0.01543596
4521.12448242,0.01539369
4523.05328979,0.01529686
4524.98209717,0.01525662
4526.91090454,0.01532643
4528.83971191,0.01522041
4530.76851929,0.01519070
4532.69732666,0.01502162
4534.62613403,0.01503503
4536.55494141,0.01514010
4538.48374878,0.01506877
4540.41255615,0.01498761
4542.34136353,0.01492168
4544.27017090,0.01496270
4546.19897827,0.01483069
4548.12778564,0.01482770
4550.05659302,0.01482701
4551.98540039,0.01471687
4553.91420776,0.01469081
4555.84301514,0.01462751
4557.77182251,0.01466682
4559.70062988,0.01461105
4561.62943726,0.01450605
4563.55824463,0.01451124
4565.48705200,0.01451690
4567.41585937,0.01449356
4569.34466675,0.01445441
4571.27347412,0.01431338
4573.20228149,0.01427340
4575.13108887,0.01428414
4577.05989624,0.01419760
4578.98870361,0.01424269
4580.91751099,0.01419868
4582.84631836,0.01415770
4584.77512573,0.01410606
4586.70393311,0.01411202
4588.63274048,0.01409202
4590.56154785,0.01395260
4592.49035522,0.01398266
4594.41916260,0.01389041
4596.34796997,0.01393760
4598.27677734,0.01391339
4600.20558472,0.01379582
4602.13439209,0.01376653
4604.06319946,0.01371268
4605.99200684,0.01379008
4607.92081421,0.01357650
4609.84962158,0.01354615
4611.77842895,0.01362305
4613.70723633,0.01360962
4615.63604370,0.01361019
4617.56485107,0.01342976
4619.49365845,0.01348001
4621.42246582,0.01344945
4623.35127319,0.01335366
4625.28008057,0.01329780
4627.20888794,0.01328638
4629.13769531,0.01329540
4631.06650269,0.01326543
4632.99531006,0.01326959
4634.92411743,0.01312965
4636.85292480,0.01315212
4638.78173218,0.01307274
4640.71053955,0.01302823
4642.63934692,0.01307436
4644.56815430,0.01296846
4646.49696167,0.01296177
4648.42576904,0.01289277
4650.35457642,0.01288579
4652.28338379,0.01282095
4654.21219116,0.01280165
4656.14099853,0.01277970
4658.06980591,0.01271031
4659.99861328,0.01272874
4661.92742065,0.01269021
4663.85622803,0.01277179
4665.78503540,0.01264583
4667.71384277,0.01253298
4669.64265015,0.01251404
4671.57145752,0.01248539
4673.50026489,0.01257210
4675.42907227,0.01247818
4677.35787964,0.01244106
4679.28668701,0.01238281
4681.21549438,0.01229407
4683.14430176,0.01231885
4685.07310913,0.01231408
4687.00191650,0.01225485
4688.93072388,0.01226392
4690.85953125,0.01228916
4692.78833862,0.01215959
4694.71714600,0.01215036
4696.64595337,0.01212824
4698.57476074,0.01201832
4700.50356812,0.01200226
4702.43237549,0.01200334
4704.36118286,0.01198169
4706.28999023,0.01196337
4708.21879761,0.01192284
4710.14760498,0.01186255
4712.07641235,0.01182212
4714.00521973,0.01180142
4715.93402710,0.01187891
4717.86283447,0.01171722
4719.79164185,0.01166198
4721.72044922,0.01172932
4723.64925659,0.01160672
4725.57806396,0.01171834
4727.50687134,0.01164250
4729.43567871,0.01162142
4731.36448608,0.01160892
4733.29329346,0.01148611
4735.22210083,0.01153653
4737.15090820,0.01137924
4739.07971558,0.01138774
4741.00852295,0.01142871
4742.93733032,0.01142083
4744.86613770,0.01132879
4746.79494507,0.01123594
4748.72375244,0.01134093
4750.65255981,0.01123812
4752.58136719,0.01123010
4754.51017456,0.01121758
4756.43898193,0.01116814
4758.36778931,0.01116848
4760.29659668,0.01115540
4762.22540405,0.01117575
4764.15421143,0.01112986
4766.08301880,0.01106186
4768.01182617,0.01095474
4769.94063354,0.01105020
4771.86944092,0.01103775
4773.79824829,0.01097512
4775.72705566,0.01093687
4777.65586304,0.01084010
4779.58467041,0.01093371
4781.51347778,0.01080615
4783.44228516,0.01077972
4785.37109253,0.01081982
4787.29989990,0.01069845
4789.22870728,0.01066295
4791.15751465,0.01061904
4793.08632202,0.01062053
4795.01512939,0.01061832
4796.94393677,0.01062326
4798.87274414,0.01055447
4800.80155151,0.01048682
4802.73035889,0.01042028
4804.65916626,0.01045860
4806.58797363,0.01047644
4808.51678101,0.01033346
4810.44558838,0.01041340
4812.37439575,0.01038191
4814.30320312,0.01031556
4816.23201050,0.01030646
4818.16081787,0.01027857
4820.08962524,0.01028890
4822.01843262,0.01017078
4823.94723999,0.01018649
4825.87604736,0.01020973
4827.80485474,0.01017591
4829.73366211,0.01013153
4831.66246948,0.01010908
4833.59127686,0.01007629
4835.52008423,0.01000203
4837.44889160,0.01007771
4839.37769897,0.01002856
4841.30650635,0.00993296
4843.23531372,0.00992468
4845.16412109,0.00985136
4847.09292847,0.00986689
4849.02173584,0.00995105
4850.95054321,0.00981384
4852.87935059,0.00974235
4854.80815796,0.00979619
4856.73696533,0.00969568
4858.66577270,0.00975747
4860.59458008,0.00971569
4862.52338745,0.00963351
4864.45219482,0.00970168
4866.38100220,0.00960928
4868.30980957,0.00952877
4870.23861694,0.00953656
4872.16742432,0.00954846
4874.09623169,0.00947822
4876.02503906,0.00951143
4877.95384644,0.00947196
4879.88265381,0.00937300
4881.81146118,0.00938348
4883.74026855,0.00931032
4885.66907593,0.00934066
4887.59788330,0.00931917
4889.52669067,0.00933941
4891.45549805,0.00933011
4893.38430542,0.00921306
4895.31311279,0.00927339
4897.24192017,0.00928758
4899.17072754,0.00917243
4901.09953491,0.00910191
4903.02834228,0.00913750
4904.95714966,0.00905902
4906.88595703,0.00906418
4908.81476440,0.00906702
4910.74357178,0.00901965
4912.67237915,0.00903696
4914.60118652,0.00894210
4916.52999390,0.00898036
4918.45880127,0.00890206
4920.38760864,0.00892468
4922.31641602,0.00895317
4924.24522339,0.00882950
4926.17403076,0.00885699
4928.10283813,0.00879246
4930.03164551,0.00884518
4931.96045288,0.00877057
4933.88926025,0.00871474
4935.81806763,0.00872853
4937.74687500,0.00870476
4939.67568237,0.00869633
4941.60448975,0.00853924
4943.53329712,0.00865688
4945.46210449,0.00855519
4947.39091187,0.00851985
4949.31971924,0.00866663
4951.24852661,0.00852219
4953.17733398,0.00851761
4955.10614136,0.00843570
4957.03494873,0.00841430
4958.96375610,0.00842525
4960.89256348,0.00837981
4962.82137085,0.00837631
4964.75017822,0.00835302
4966.67898560,0.00832494
4968.60779297,0.00824743
4970.53660034,0.00828282
4972.46540771,0.00824676
4974.39421509,0.00820518
4976.32302246,0.00816947
4978.25182983,0.00818701
4980.18063721,0.00819228
4982.10944458,0.00811277
4984.03825195,0.00812341
4985.96705933,0.00805578
4987.89586670,0.00813216
4989.82467407,0.00809046
4991.75348145,0.00801717
4993.68228882,0.00803998
4995.61109619,0.00793719
4997.53990356,0.00794688
4999.46871094,0.00789201
5001.39751831,0.00792523
5003.32632568,0.00791253
5005.25513306,0.00784381
5007.18394043,0.00781596
5009.11274780,0.00775786
5011.04155518,0.00782858
5012.97036255,0.00777283
5014.89916992,0.00773716
5016.82797729,0.00771465
5018.75678467,0.00769247
5020.68559204,0.00766664
5022.61439941,0.00762130
5024.54320679,0.00766746
5026.47201416,0.00762731
5028.40082153,0.00761957
5030.32962891,0.00758984
5032.25843628,0.00761032
5034.18724365,0.00759915
5036.11605103,0.00751901
5038.04485840,0.00748533
5039.97366577,0.00745025
5041.90247314,0.00751104
5043.83128052,0.00740224
5045.76008789,0.00735917
5047.68889526,0.00740990
5049.61770264,0.00737323
5051.54651001,0.00738577
5053.47531738,0.00733394
5055.40412476,0.00731547
5057.33293213,0.00729303
5059.26173950,0.00729012
5061.19054687,0.00723532
5063.11935425,0.00723829
5065.04816162,0.00731833
5066.97696899,0.00721588
5068.90577637,0.00722711
5070.83458374,0.00718975
5072.76339111,0.00707763
5074.69219849,0.00716809
5076.62100586,0.00715994
5078.54981323,0.00707051
5080.47862061,0.00709237
5082.40742798,0.00707316
5084.33623535,0.00702824
5086.26504272,0.00701921
5088.19385010,0.00695971
5090.12265747,0.00694113
5092.05146484,0.00693630
5093.98027222,0.00688610
5095.90907959,0.00689292
5097.83788696,0.00686844
5099.76669434,0.00679543
5101.69550171,0.00687074
5103.62430908,0.00687941
5105.55311645,0.00673960
5107.48192383,0.00675519
5109.41073120,0.00679305
5111.33953857,0.00674858
5113.26834595,0.00665824
5115.19715332,0.00671413
5117.12596069,0.00679743
5119.05476807,0.00668583
5120.98357544,0.00669066
5122.91238281,0.00663128
5124.84119019,0.00657608
5126.76999756,0.00661343
5128.69880493,0.00654752
5130.62761230,0.00656509
5132.55641968,0.00655137
5134.48522705,0.00652471
5136.41403442,0.00653192
5138.34284180,0.00650905
5140.27164917,0.00648134
5142.20045654,0.00642826
5144.12926392,0.00645470
5146.05807129,0.00647645
5147.98687866,0.00642325
5149.91568603,0.00642866
5151.84449341,0.00635352
5153.77330078,0.00625514
5155.70210815,0.00629767
5157.63091553,0.00626644
5159.55972290,0.00632080
5161.48853027,0.00632678
5163.41733765,0.00623923
5165.34614502,0.00624691
5167.27495239,0.00617933
5169.20375977,0.00622333
5171.13256714,0.00618783
5173.06137451,0.00620288
5174.99018188,0.00620238
5176.91898926,0.00606015
5178.84779663,0.00610337
5180.77660400,0.00607985
5182.70541138,0.00617228
5184.63421875,0.00606803
5186.56302612,0.00596694
5188.49183350,0.00610136
5190.42064087,0.00601237
5192.34944824,0.00606797
5194.27825562,0.00600911
5196.20706299,0.00593184
5198.13587036,0.00593476
5200.06467773,0.00591920
5201.99348511,0.00595320
5203.92229248,0.00584921
5205.85109985,0.00581771
5207.77990723,0.00571977
5209.70871460,0.00577784
5211.63752197,0.00586744
5213.56632935,0.00586557
5215.49513672,0.00593484
5217.42394409,0.00579202
5219.35275146,0.00573209
5221.28155884,0.00575862
5223.21036621,0.00575952
5225.13917358,0.00564842
5227.06798096,0.00562634
5228.99678833,0.00577861
5230.92559570,0.00569182
5232.85440308,0.00563655
5234.78321045,0.00566873
5236.71201782,0.00565755
5238.64082520,0.00564347
5240.56963257,0.00567376
5242.49843994,0.00566780
5244.42724731,0.00558421
5246.35605469,0.00556789
5248.28486206,0.00550419
5250.21366943,0.00552307
5252.14247681,0.00560890
5254.07128418,0.00547643
5256.00009155,0.00532079
5257.92889893,0.00542227
5259.85770630,0.00547943
5261.78651367,0.00538743
5263.71532104,0.00529923
5265.64412842,0.00528560
5267.57293579,0.00540131
5269.50174316,0.00538516
5271.43055054,0.00545878
5273.35935791,0.00543687
5275.28816528,0.00531596
5277.21697266,0.00543833
5279.14578003,0.00532811
5281.07458740,0.00531371
5283.00339478,0.00533762
5284.93220215,0.00519460
5286.86100952,0.00531852
5288.78981689,0.00534415
5290.71862427,0.00517090
5292.64743164,0.00518562
5294.57623901,0.00530736
5296.50504639,0.00522163
5298.43385376,0.00512592
5300.36266113,0.00517652
5302.29146851,0.00519418
5304.22027588,0.00517770
5306.14908325,0.00517057
5308.07789062,0.00517231
5310.00669800,0.00519498
5311.93550537,0.00519030
5313.86431274,0.00511637
5315.79312012,0.00510041
5317.72192749,0.00506557
5319.65073486,0.00508994
5321.57954224,0.00508564
5323.50834961,0.00499482
5325.43715698,0.00503420
5327.36596436,0.00493427
5329.29477173,0.00490327
5331.22357910,0.00496608
5333.15238647,0.00495091
5335.08119385,0.00500983
5337.01000122,0.00493537
5338.93880859,0.00475220
5340.86761597,0.00484339
5342.79642334,0.00498899
5344.72523071,0.00472916
5346.65403809,0.00470170
5348.58284546,0.00481584
5350.51165283,0.00481754
5352.44046020,0.00483057
5354.36926758,0.00463321
5356.29807495,0.00478006
5358.22688232,0.00482438
5360.15568970,0.00472821
5362.08449707,0.00476990
5364.01330444,0.00469239
5365.94211182,0.00477377
5367.87091919,0.00474381
5369.79972656,0.00478615
5371.72853394,0.00476186
5373.65734131,0.00469804
5375.58614868,0.00469497
5377.51495605,0.00451344
5379.44376343,0.00455360
5381.37257080,0.00459471
5383.30137817,0.00465664
5385.23018555,0.00461489
5387.15899292,0.00453779
5389.08780029,0.00462561
5391.01660767,0.00457277
5392.94541504,0.00448927
5394.87422241,0.00440619
5396.80302978,0.00448937
5398.73183716,0.00447640
5400.66064453,0.00448892
5402.58945190,0.00455149
5404.51825928,0.00441395
5406.44706665,0.00452330
5408.37587402,0.00448403
5410.30468140,0.00433797
5412.23348877,0.00434520
5414.16229614,0.00425642
5416.09110352,0.00431074
5418.01991089,0.00447343
5419.94871826,0.00442433
5421.87752563,0.00431531
5423.80633301,0.00436081
5425.73514038,0.00437586
5427.66394775,0.00430873
5429.59275513,0.00414882
5431.52156250,0.00421708
5433.45036987,0.00430880
5435.37917725,0.00412003
5437.30798462,0.00425170
5439.23679199,0.00427442
5441.16559936,0.00407887
5443.09440674,0.00418368
5445.02321411,0.00419290
5446.95202148,0.00410525
5448.88082886,0.00413864
5450.80963623,0.00414607
5452.73844360,0.00416414
5454.66725098,0.00415320
5456.59605835,0.00412623
5458.52486572,0.00415464
5460.45367310,0.00408963
5462.38248047,0.00407083
5464.31128784,0.00402290
5466.24009521,0.00404963
5468.16890259,0.00413786
5470.09770996,0.00401555
5472.02651733,0.00408591
5473.95532471,0.00404464
5475.88413208,0.00393356
5477.81293945,0.00398816
5479.74174683,0.00396239
5481.67055420,0.00402140
5483.59936157,0.00396411
5485.52816895,0.00398064
5487.45697632,0.00399273
5489.38578369,0.00392001
5491.31459106,0.00392803
5493.24339844,0.00378439
5495.17220581,0.00385624
5497.10101318,0.00399631
5499.02982056,0.00392828
5500.95862793,0.00386718
5502.88743530,0.00386457
5504.81624268,0.00387633
5506.74505005,0.00379856
5508.67385742,0.00379039
5510.60266479,0.00382135
5512.53147217,0.00380086
5514.46027954,0.00384053
5516.38908691,0.00380246
5518.31789429,0.00374512
5520.24670166,0.00381839
5522.17550903,0.00376573
5524.10431641,0.00372829
5526.03312378,0.00375777
5527.96193115,0.00366545
5529.89073853,0.00370070
5531.81954590,0.00372889
5533.74835327,0.00371294
5535.67716064,0.00371055
5537.60596802,0.00362445
5539.53477539,0.00360804
5541.46358276,0.00367493
5543.39239014,0.00366887
5545.32119751,0.00359091
5547.25000488,0.00363976
5549.17881226,0.00363045
5551.10761963,0.00359186
5553.03642700,0.00361768
5554.96523437,0.00359497
5556.89404175,0.00359893
5558.82284912,0.00360509
5560.75165649,0.00362832
5562.68046387,0.00350236
5564.60927124,0.00349613
5566.53807861,0.00357113
5568.46688599,0.00348485
5570.39569336,0.00352129
5572.32450073,0.00351057
5574.25330811,0.00347920
5576.18211548,0.00347694
5578.11092285,0.00353283
5580.03973022,0.00349804
5581.96853760,0.00344130
5583.89734497,0.00353978
5585.82615234,0.00344275
5587.75495972,0.00339240
5589.68376709,0.00336024
5591.61257446,0.00339740
5593.54138184,0.00343266
5595.47018921,0.00336053
5597.39899658,0.00344663
5599.32780395,0.00333595
5601.25661133,0.00331188
5603.18541870,0.00333112
5605.11422607,0.00330375
5607.04303345,0.00337883
5608.97184082,0.00330573
5610.90064819,0.00338354
5612.82945557,0.00339987
5614.75826294,0.00334092
5616.68707031,0.00336357
5618.61587769,0.00327391
5620.54468506,0.00326803
5622.47349243,0.00330502
5624.40229980,0.00326476
5626.33110718,0.00322841
5628.25991455,0.00323707
5630.18872192,0.00324188
5632.11752930,0.00320580
5634.04633667,0.00316439
5635.97514404,0.00319676
5637.90395142,0.00317491
5639.83275879,0.00317574
5641.76156616,0.00322853
5643.69037353,0.00316270
5645.61918091,0.00318842
5647.54798828,0.00313472
5649.47679565,0.00312573
5651.40560303,0.00317609
5653.33441040,0.00306009
5655.26321777,0.00310581
5657.19202515,0.00309049
5659.12083252,0.00306503
5661.04963989,0.00311455
5662.97844727,0.00306472
5664.90725464,0.00304999
5666.83606201,0.00299716
5668.76486938,0.00299781
5670.69367676,0.00305517
5672.62248413,0.00301830
5674.55129150,0.00293473
5676.48009888,0.00297813
5678.40890625,0.00303858
5680.33771362,0.00296977
5682.26652100,0.00294620
5684.19532837,0.00294093
5686.12413574,0.00296501
5688.05294311,0.00304002
5689.98175049,0.00302125
5691.91055786,0.00290516
5693.83936523,0.00288553
5695.76817261,0.00293699
5697.69697998,0.00292012
5699.62578735,0.00288819
5701.55459473,0.00283032
5703.48340210,0.00287430
5705.41220947,0.00292853
5707.34101685,0.00287808
5709.26982422,0.00280469
5711.19863159,0.00270954
5713.12743896,0.00278811
5715.05624634,0.00284753
5716.98505371,0.00278571
5718.91386108,0.00280841
5720.84266846,0.00279196
5722.77147583,0.00278298
5724.70028320,0.00278748
5726.62909058,0.00274535
5728.55789795,0.00272672
5730.48670532,0.00273170
5732.41551270,0.00278374
5734.34432007,0.00284940
5736.27312744,0.00283331
5738.20193481,0.00268497
5740.13074219,0.00264960
5742.05954956,0.00271339
5743.98835693,0.00266533
5745.91716431,0.00269397
5747.84597168,0.00266986
5749.77477905,0.00263943
5751.70358643,0.00266903
5753.63239380,0.00261861
5755.56120117,0.00262896
5757.49000854,0.00258784
5759.41881592,0.00263876
5761.34762329,0.00263440
5763.27643066,0.00252943
5765.20523804,0.00261559
5767.13404541,0.00261164
5769.06285278,0.00258568
5770.99166016,0.00252771
5772.92046753,0.00251789
5774.84927490,0.00256001
5776.77808228,0.00250920
5778.70688965,0.00257123
5780.63569702,0.00254572
5782.56450439,0.00248942
5784.49331177,0.00249758
5786.42211914,0.00252919
5788.35092651,0.00248489
5790.27973389,0.00243024
5792.20854126,0.00250345
5794.13734863,0.00242512
5796.06615601,0.00240304
5797.99496338,0.00243707
5799.92377075,0.00245128
5801.85257812,0.00243407
5803.78138550,0.00240606
5805.71019287,0.00254297
5807.63900024,0.00252033
5809.56780762,0.00245228
5811.49661499,0.00240078
5813.42542236,0.00237668
5815.35422974,0.00241766
5817.28303711,0.00235645
5819.21184448,0.00237359
5821.14065186,0.00240557
5823.06945923,0.00236901
5824.99826660,0.00232012
5826.92707397,0.00237789
5828.85588135,0.00239476
5830.78468872,0.00236026
5832.71349609,0.00237640
5834.64230347,0.00227928
5836.57111084,0.00228245
5838.49991821,0.00229105
5840.42872559,0.00226465
5842.35753296,0.00229735
5844.28634033,0.00233079
5846.21514770,0.00233254
5848.14395508,0.00226958
5850.07276245,0.00227364
5852.00156982,0.00222939
5853.93037720,0.00225178
5855.85918457,0.00228845
5857.78799194,0.00223748
5859.71679932,0.00221120
5861.64560669,0.00219240
5863.57441406,0.00228069
5865.50322144,0.00225792
5867.43202881,0.00219644
5869.36083618,0.00219007
5871.28964355,0.00216794
5873.21845093,0.00222251
5875.14725830,0.00221232
5877.07606567,0.00214391
5879.00487305,0.00212838
5880.93368042,0.00214399
5882.86248779,0.00212607
5884.79129517,0.00212781
5886.72010254,0.00206707
5888.64890991,0.00205395
5890.57771728,0.00213028
5892.50652466,0.00209820
5894.43533203,0.00208017
5896.36413940,0.00205308
5898.29294678,0.00209960
5900.22175415,0.00210683
5902.15056152,0.00209457
5904.07936890,0.00216966
5906.00817627,0.00212651
5907.93698364,0.00211855
5909.86579102,0.00205110
5911.79459839,0.00203100
5913.72340576,0.00208984
5915.65221313,0.00202334
5917.58102051,0.00199647
5919.50982788,0.00201376
5921.43863525,0.00202090
5923.36744263,0.00201113
5925.29625000,0.00202991
5927.22505737,0.00199009
5929.15386475,0.00200755
5931.08267212,0.00201707
5933.01147949,0.00193588
5934.94028686,0.00201312
5936.86909424,0.00199596
5938.79790161,0.00195211
5940.72670898,0.00195485
5942.65551636,0.00192478
5944.58432373,0.00195712
5946.51313110,0.00192440
5948.44193848,0.00190572
5950.37074585,0.00190092
5952.29955322,0.00190695
5954.22836060,0.00193741
5956.15716797,0.00192138
5958.08597534,0.00191043
5960.01478271,0.00188998
5961.94359009,0.00184579
5963.87239746,0.00185835
5965.80120483,0.00187648
5967.73001221,0.00183207
5969.65881958,0.00182117
5971.58762695,0.00181194
5973.51643433,0.00182616
5975.44524170,0.00182576
5977.37404907,0.00181452
5979.30285645,0.00182263
5981.23166382,0.00181719
5983.16047119,0.00187262
5985.08927856,0.00182551
5987.01808594,0.00175720
5988.94689331,0.00175903
5990.87570068,0.00180111
5992.80450806,0.00179904
5994.73331543,0.00173634
5996.66212280,0.00176227
5998.59093018,0.00170736
6000.51973755,0.00170653
