399.26312622,0.00138794
401.19193359,0.00050612
403.12074097,0.00051759
405.04954834,0.00095597
406.97835571,0.00086217
408.90716309,0.00132413
410.83597046,0.00090871
412.76477783,0.00094390
414.69358521,0.00103825
416.62239258,0.00099306
418.55119995,0.00064035
420.48000732,0.00048473
422.40881470,0.00138931
424.33762207,0.00078375
426.26642944,0.00040324
428.19523682,0.00104195
430.12404419,0.00117576
432.05285156,0.00108657
433.98165894,0.00109240
435.91046631,0.00110184
437.83927368,0.00079715
439.76808105,0.00103733
441.69688843,0.00086332
443.62569580,0.00074391
445.55450317,0.00092690
447.48331055,0.00069869
449.41211792,0.00070365
451.34092529,0.00054272
453.26973267,0.00104174
455.19854004,0.00098548
457.12734741,0.00072949
459.05615479,0.00114274
460.98496216,0.00082712
462.91376953,0.00078562
464.84257690,0.00060833
466.77138428,0.00040225
468.70019165,0.00055276
470.62899902,0.00065979
472.55780640,0.00098284
474.48661377,0.00090158
476.41542114,0.00035502
478.34422852,0.00021880
480.27303589,0.00062295
482.20184326,0.00053773
484.13065063,0.00039421
486.05945801,0.00056307
487.98826538,0.00039075
489.91707275,0.00027455
491.84588013,0.00052264
493.77468750,0.00054791
495.70349487,0.00025858
497.63230225,0.00014967
499.56110962,0.00018371
501.48991699,0.00019652
503.41872437,0.00026486
505.34753174,0.00056743
507.27633911,0.00047722
509.20514648,0.00035948
511.13395386,0.00036249
513.06276123,0.00009107
514.99156860,0.00033976
516.92037598,0.00034380
518.84918335,0.00036766
520.77799072,0.00052733
522.70679810,0.00043929
524.63560547,0.00063351
526.56441284,0.00047977
528.49322021,0.00040886
530.42202759,0.00051115
532.35083496,0.00060927
534.27964233,0.00044769
536.20844971,0.00017489
538.13725708,0.00054307
540.06606445,0.00056391
541.99487183,0.00049125
543.92367920,0.00060651
545.85248657,0.00026081
547.78129395,0.00006040
549.71010132,0.00038988
551.63890869,0.00038072
553.56771606,0.00037408
555.49652344,0.00057970
557.42533081,0.00005807
559.35413818,0.00006260
561.28294556,0.00022550
563.21175293,0.00051062
565.14056030,0.00093137
567.06936768,0.00019724
568.99817505,0.00000884
570.92698242,-0.00007545
572.85578979,0.00000529
574.78459717,0.00031218
576.71340454,0.00001619
578.64221191,0.00029858
580.57101929,0.00029821
582.49982666,0.00036368
584.42863403,0.00051124
586.35744141,-0.00001266
588.28624878,0.00007814
590.21505615,0.00058442
592.14386353,0.00053978
594.07267090,0.00019242
596.00147827,0.00004678
597.93028564,0.00015111
599.85909302,-0.00001179
601.78790039,0.00022126
603.71670776,0.00061537
605.64551514,0.00022791
607.57432251,0.00033226
609.50312988,0.00013750
611.43193726,0.00029149
613.36074463,0.00025049
615.28955200,-0.00015462
617.21835938,0.00026129
619.14716675,-0.00005184
621.07597412,0.00017651
623.00478149,0.00035404
624.93358887,0.00002257
626.86239624,-0.00003464
628.79120361,-0.00018136
630.72001099,0.00010066
632.64881836,0.00081154
634.57762573,0.00084650
636.50643311,0.00081507
638.43524048,0.00136183
640.36404785,0.00112997
642.29285522,0.00115972
644.22166260,0.00156268
646.15046997,0.00161803
648.07927734,0.00159626
650.00808472,0.00197321
651.93689209,0.00232075
653.86569946,0.00178910
655.79450684,0.00211003
657.72331421,0.00241938
659.65212158,0.00237878
661.58092896,0.00252781
663.50973633,0.00267472
665.43854370,0.00298346
667.36735107,0.00227198
669.29615845,0.00267296
671.22496582,0.00304355
673.15377319,0.00266696
675.08258057,0.00348973
677.01138794,0.00359540
678.94019531,0.00385972
680.86900269,0.00361749
682.79781006,0.00330463
684.72661743,0.00390802
686.65542480,0.00332122
688.58423218,0.00353396
690.51303955,0.00386704
692.44184692,0.00364979
694.37065430,0.00423830
696.29946167,0.00449179
698.22826904,0.00532165
700.15707642,0.00604014
702.08588379,0.00566693
704.01469116,0.00561096
705.94349854,0.00511221
707.87230591,0.00406236
709.80111328,0.00349668
711.72992065,0.00236239
713.65872803,0.00090862
715.58753540,0.00055730
717.51634277,0.00043824
719.44515015,0.00023617
721.37395752,0.00010432
723.30276489,-0.00013240
725.23157227,0.00007309
727.16037964,0.00009294
729.08918701,0.00009022
731.01799438,0.00027301
732.94680176,0.00018291
734.87560913,0.00023351
736.80441650,-0.00007851
738.73322388,-0.00008302
740.66203125,0.00009299
742.59083862,0.00004665
744.51964600,0.00021531
746.44845337,0.00003709
748.37726074,0.00022015
750.30606812,0.00030030
752.23487549,0.00030632
754.16368286,0.00047780
756.09249023,0.00031655
758.02129761,0.00035219
759.95010498,0.00015824
761.87891235,0.00011632
763.80771973,0.00037633
765.73652710,0.00040265
767.66533447,0.00025082
769.59414185,0.00023431
771.52294922,0.00035672
773.45175659,0.00032742
775.38056396,0.00038356
777.30937134,0.00022826
779.23817871,0.00043974
781.16698608,0.00066753
783.09579346,0.00048001
785.02460083,0.00056250
786.95340820,0.00048266
788.88221558,0.00053717
790.81102295,0.00039190
792.73983032,0.00051460
794.66863770,0.00077835
796.59744507,0.00049963
798.52625244,0.00083076
800.45505981,0.00097416
802.38386719,0.00077144
804.31267456,0.00069509
806.24148193,0.00079632
808.17028931,0.00076149
810.09909668,0.00038240
812.02790405,0.00057102
813.95671143,0.00066799
815.88551880,0.00064727
817.81432617,0.00062697
819.74313354,0.00045573
821.67194092,0.00041304
823.60074829,0.00028811
825.52955566,0.00053574
827.45836304,0.00107458
829.38717041,0.00122553
831.31597778,0.00113853
833.24478516,0.00165863
835.17359253,0.00187803
837.10239990,0.00182351
839.03120728,0.00206883
840.96001465,0.00170756
842.88882202,0.00166822
844.81762939,0.00165651
846.74643677,0.00151372
848.67524414,0.00135699
850.60405151,0.00131646
852.53285889,0.00165212
854.46166626,0.00088419
856.39047363,0.00065984
858.31928101,0.00100115
860.24808838,0.00082743
862.17689575,0.00091207
864.10570313,0.00072838
866.03451050,0.00051952
867.96331787,0.00038509
869.89212524,0.00039707
871.82093262,0.00024099
873.74973999,0.00048996
875.67854736,0.00076475
877.60735474,0.00033774
879.53616211,0.00051738
881.46496948,0.00039138
883.39377686,0.00019751
885.32258423,0.00037605
887.25139160,0.00030052
889.18019897,0.00030125
891.10900635,0.00036001
893.03781372,0.00055790
894.96662109,0.00064742
896.89542847,0.00061963
898.82423584,0.00041429
900.75304321,0.00043311
902.68185059,0.00056767
904.61065796,0.00038756
906.53946533,0.00066529
908.46827271,0.00072683
910.39708008,0.00059637
912.32588745,0.00087998
914.25469482,0.00118499
916.18350220,0.00144768
918.11230957,0.00140338
920.04111694,0.00156745
921.96992432,0.00187106
923.89873169,0.00198196
925.82753906,0.00214281
927.75634644,0.00214195
929.68515381,0.00256145
931.61396118,0.00273967
933.54276855,0.00242671
935.47157593,0.00301173
937.40038330,0.00331083
939.32919067,0.00333504
941.25799805,0.00373216
943.18680542,0.00357464
945.11561279,0.00385585
947.04442017,0.00384171
948.97322754,0.00334010
950.90203491,0.00341404
952.83084229,0.00315603
954.75964966,0.00319295
956.68845703,0.00344851
958.61726440,0.00340274
960.54607178,0.00329941
962.47487915,0.00320842
964.40368652,0.00343703
966.33249390,0.00364883
968.26130127,0.00395669
970.19010864,0.00409278
972.11891602,0.00426580
974.04772339,0.00455420
975.97653076,0.00478958
977.90533813,0.00544598
979.83414551,0.00568302
981.76295288,0.00604950
983.69176025,0.00700018
985.62056763,0.00780072
987.54937500,0.00859015
989.47818237,0.00944315
991.40698975,0.01051649
993.33579712,0.01127855
995.26460449,0.01209637
997.19341187,0.01353182
999.12221924,0.01464703
1001.05102661,0.01566714
1002.97983398,0.01691735
1004.90864136,0.01788011
1006.83744873,0.01894723
1008.76625610,0.02012720
1010.69506348,0.02113117
1012.62387085,0.02246879
1014.55267822,0.02364120
1016.48148560,0.02481421
1018.41029297,0.02630148
1020.33910034,0.02718694
1022.26790771,0.02820628
1024.19671509,0.02947794
1026.12552246,0.03063296
1028.05432983,0.03185418
1029.98313721,0.03237559
1031.91194458,0.03291255
1033.84075195,0.03389409
1035.76955933,0.03446768
1037.69836670,0.03477757
1039.62717407,0.03476845
1041.55598145,0.03467732
1043.48478882,0.03465101
1045.41359619,0.03412182
1047.34240356,0.03370806
1049.27121094,0.03326207
1051.20001831,0.03242914
1053.12882568,0.03191649
1055.05763306,0.03117143
1056.98644043,0.03048044
1058.91524780,0.02996951
1060.84405518,0.02888068
1062.77286255,0.02810256
1064.70166992,0.02740712
1066.63047729,0.02623453
1068.55928467,0.02511848
1070.48809204,0.02393611
1072.41689941,0.02283820
1074.34570679,0.02194622
1076.27451416,0.02085292
1078.20332153,0.01975187
1080.13212891,0.01893450
1082.06093628,0.01801013
1083.98974365,0.01706085
1085.91855103,0.01640422
1087.84735840,0.01565631
1089.77616577,0.01477758
1091.70497314,0.01414617
1093.63378052,0.01371035
1095.56258789,0.01320386
1097.49139526,0.01286988
1099.42020264,0.01257225
1101.34901001,0.01202851
1103.27781738,0.01178013
1105.20662476,0.01148405
1107.13543213,0.01110481
1109.06423950,0.01115389
1110.99304687,0.01108718
1112.92185425,0.01094649
1114.85066162,0.01081015
1116.77946899,0.01072448
1118.70827637,0.01077433
1120.63708374,0.01077957
1122.56589111,0.01099781
1124.49469849,0.01103964
1126.42350586,0.01116332
1128.35231323,0.01146387
1130.28112061,0.01149906
1132.20992798,0.01177892
1134.13873535,0.01213668
1136.06754272,0.01263531
1137.99635010,0.01327909
1139.92515747,0.01408463
1141.85396484,0.01509544
1143.78277222,0.01593663
1145.71157959,0.01710591
1147.64038696,0.01804734
1149.56919434,0.01891795
1151.49800171,0.02005959
1153.42680908,0.02086807
1155.35561646,0.02194751
1157.28442383,0.02284928
1159.21323120,0.02381762
1161.14203857,0.02482120
1163.07084595,0.02525404
1164.99965332,0.02629809
1166.92846069,0.02732122
1168.85726807,0.02820735
1170.78607544,0.02938675
1172.71488281,0.03039143
1174.64369019,0.03162530
1176.57249756,0.03266014
1178.50130493,0.03383500
1180.43011230,0.03517662
1182.35891968,0.03648605
1184.28772705,0.03826978
1186.21653442,0.03973951
1188.14534180,0.04149643
1190.07414917,0.04370578
1192.00295654,0.04554168
1193.93176392,0.04755909
1195.86057129,0.04983976
1197.78937866,0.05207547
1199.71818604,0.05416901
1201.64699341,0.05654641
1203.57580078,0.05901125
1205.50460815,0.06105527
1207.43341553,0.06319439
1209.36222290,0.06529804
1211.29103027,0.06706463
1213.21983765,0.06895034
1215.14864502,0.07076948
1217.07745239,0.07209589
1219.00625977,0.07332379
1220.93506714,0.07447749
1222.86387451,0.07553045
1224.79268188,0.07619093
1226.72148926,0.07651725
1228.65029663,0.07707728
1230.57910400,0.07740813
1232.50791138,0.07769832
1234.43671875,0.07759926
1236.36552612,0.07744212
1238.29433350,0.07749277
1240.22314087,0.07699481
1242.15194824,0.07690896
1244.08075562,0.07654068
1246.00956299,0.07594797
1247.93837036,0.07567430
1249.86717773,0.07516502
1251.79598511,0.07458153
1253.72479248,0.07353485
1255.65359985,0.07274340
1257.58240723,0.07176884
1259.51121460,0.07050104
1261.44002197,0.06957062
1263.36882935,0.06861471
1265.29763672,0.06777801
1267.22644409,0.06678547
1269.15525146,0.06600966
1271.08405884,0.06492075
1273.01286621,0.06365881
1274.94167358,0.06271601
1276.87048096,0.06143668
1278.79928833,0.06027360
1280.72809570,0.05915937
1282.65690308,0.05798492
1284.58571045,0.05685820
1286.51451782,0.05593012
1288.44332520,0.05487694
1290.37213257,0.05400518
1292.30093994,0.05363313
1294.22974731,0.05301176
1296.15855469,0.05276510
1298.08736206,0.05281788
1300.01616943,0.05281946
1301.94497681,0.05290280
1303.87378418,0.05337346
1305.80259155,0.05385810
1307.73139893,0.05429416
1309.66020630,0.05551256
1311.58901367,0.05622203
1313.51782104,0.05712679
1315.44662842,0.05874637
1317.37543579,0.05987329
1319.30424316,0.06144327
1321.23305054,0.06359465
1323.16185791,0.06555092
1325.09066528,0.06723125
1327.01947266,0.06911744
1328.94828003,0.07090238
1330.87708740,0.07253361
1332.80589478,0.07429932
1334.73470215,0.07574063
1336.66350952,0.07629221
1338.59231689,0.07569170
1340.52112427,0.07676986
1342.44993164,0.07956772
1344.37873901,0.08025912
1346.30754639,0.08005147
1348.23635376,0.07984901
1350.16516113,0.07926157
1352.09396851,0.07915607
1354.02277588,0.07812776
1355.95158325,0.07721913
1357.88039062,0.07688946
1359.80919800,0.07565653
1361.73800537,0.07248634
1363.66681274,0.07135260
1365.59562012,0.07458432
1367.52442749,0.07309912
1369.45323486,0.07207042
1371.38204224,0.07322892
1373.31084961,0.06949309
1375.23965698,0.07001957
1377.16846436,0.07166938
1379.09727173,0.07128179
1381.02607910,0.07136719
1382.95488647,0.07091571
1384.88369385,0.07123071
1386.81250122,0.06821409
1388.74130859,0.06886520
1390.67011597,0.07428487
1392.59892334,0.07248995
1394.52773071,0.06816847
1396.45653809,0.07128940
1398.38534546,0.07116611
1400.31415283,0.07067764
1402.24296021,0.07615189
1404.17176758,0.07196143
1406.10057495,0.07236864
1408.02938232,0.07523638
1409.95818970,0.07235743
1411.88699707,0.07400542
1413.81580444,0.07113089
1415.74461182,0.07236358
1417.67341919,0.06581022
1419.60222656,0.05873877
1421.53103394,0.06722614
1423.45984131,0.06494319
1425.38864868,0.06322163
1427.31745605,0.06412891
1429.24626343,0.05906933
1431.17507080,0.05757075
1433.10387817,0.05838887
1435.03268555,0.05324954
1436.96149292,0.04529323
1438.89030029,0.05118176
1440.81910767,0.05214028
1442.74791504,0.04840310
1444.67672241,0.05082151
1446.60552979,0.04654052
1448.53433716,0.04725314
1450.46314453,0.04880341
1452.39195190,0.04969127
1454.32075928,0.05148433
1456.24956665,0.04278813
1458.17837402,0.04484487
1460.10718140,0.05900122
1462.03598877,0.06265733
1463.96479614,0.06234505
1465.89360352,0.06470636
1467.82241089,0.07357100
1469.75121826,0.07910410
1471.68002563,0.07088119
1473.60883301,0.07470252
1475.53764038,0.08467415
1477.46644775,0.09106050
1479.39525513,0.09964702
1481.32406250,0.10086332
1483.25286987,0.10716981
1485.18167725,0.11043923
1487.11048462,0.10897487
1489.03929199,0.10851451
1490.96809937,0.10919355
1492.89690674,0.12628530
1494.82571411,0.12309942
1496.75452148,0.11138585
1498.68332886,0.12548955
1500.61213623,0.12899026
1502.54094360,0.13780251
1504.46975098,0.13028198
1506.39855835,0.09637263
1508.32736572,0.11688824
1510.25617310,0.13578543
1512.18498047,0.13143885
1514.11378784,0.14193814
1516.04259521,0.12828544
1517.97140259,0.13359827
1519.90020996,0.12856187
1521.82901733,0.11212967
1523.75782471,0.13585727
1525.68663208,0.13307267
1527.61543945,0.13277242
1529.54424683,0.14548960
1531.47305420,0.13996638
1533.40186157,0.12870924
1535.33066895,0.13561633
1537.25947632,0.14409149
1539.18828369,0.10440312
1541.11709106,0.10917962
1543.04589844,0.12918724
1544.97470581,0.12417920
1546.90351318,0.14525634
1548.83232056,0.13543582
1550.76112793,0.13941425
1552.68993530,0.13770431
1554.61874268,0.12562883
1556.54755005,0.13331005
1558.47635742,0.09513362
1560.40516479,0.10239066
1562.33397217,0.14230871
1564.26277954,0.13429877
1566.19158691,0.13730171
1568.12039429,0.13514391
1570.04920166,0.12013733
1571.97800903,0.13731933
1573.90681641,0.13769493
1575.83562378,0.10954554
1577.76443115,0.12289573
1579.69323853,0.13732132
1581.62204590,0.13069119
1583.55085327,0.13315096
1585.47966064,0.13029955
1587.40846802,0.13032094
1589.33727539,0.12842199
1591.26608276,0.12730461
1593.19489014,0.12651587
1595.12369751,0.12371722
1597.05250488,0.12434626
1598.98131226,0.12259869
1600.91011963,0.12192798
1602.83892700,0.11893897
1604.76773437,0.11966254
1606.69654175,0.11694925
1608.62534912,0.11565544
1610.55415649,0.11426851
1612.48296387,0.11403607
1614.41177124,0.11432450
1616.34057861,0.09338329
1618.26938599,0.10045747
1620.19819336,0.11525185
1622.12700073,0.10198957
1624.05580811,0.10202086
1625.98461548,0.10634666
1627.91342285,0.10564201
1629.84223022,0.10507619
1631.77103760,0.11192429
1633.69984497,0.10349381
1635.62865234,0.08684471
1637.55745972,0.10065766
1639.48626709,0.11074263
1641.41507446,0.10916920
1643.34388184,0.11270678
1645.27268921,0.10297137
1647.20149658,0.09182028
1649.13030396,0.11442992
1651.05911133,0.10918170
1652.98791870,0.07258008
1654.91672607,0.09880005
1656.84553345,0.12361316
1658.77434082,0.11981737
1660.70314819,0.12446394
1662.63195557,0.11496583
1664.56076294,0.12233922
1666.48957031,0.13246816
1668.41837769,0.11763339
1670.34718506,0.11583005
1672.27599243,0.13201419
1674.20479980,0.12361253
1676.13360718,0.12029758
1678.06241455,0.13885574
1679.99122192,0.13551021
1681.92002930,0.13527891
1683.84883667,0.11218597
1685.77764404,0.11224179
1687.70645142,0.15309960
1689.63525879,0.13525274
1691.56406616,0.14925000
1693.49287354,0.15313876
1695.42168091,0.11416722
1697.35048828,0.14097065
1699.27929565,0.12559420
1701.20810303,0.11473238
1703.13691040,0.15549684
1705.06571777,0.14365700
1706.99452515,0.14597601
1708.92333252,0.15882529
1710.85213989,0.15377150
1712.78094727,0.15736143
1714.70975464,0.14710394
1716.63856201,0.13302955
1718.56736938,0.13139096
1720.49617676,0.15582740
1722.42498413,0.16165508
1724.35379150,0.15133733
1726.28259888,0.16453345
1728.21140625,0.15278825
1730.14021362,0.15492214
1732.06902100,0.15082151
1733.99782837,0.11675964
1735.92663574,0.14424632
1737.85544312,0.15922999
1739.78425049,0.14258930
1741.71305786,0.15501468
1743.64186523,0.15754211
1745.57067261,0.15797549
1747.49947998,0.15973046
1749.42828735,0.15315878
1751.35709473,0.14719163
1753.28590210,0.16253749
1755.21470947,0.16976008
1757.14351685,0.15560003
1759.07232422,0.17049286
1761.00113159,0.16088325
1762.92993896,0.15569563
1764.85874634,0.17731240
1766.78755371,0.16015595
1768.71636108,0.16178359
1770.64516846,0.16086474
1772.57397583,0.14544873
1774.50278320,0.16164677
1776.43159058,0.17011073
1778.36039795,0.16800773
1780.28920532,0.16595861
1782.21801270,0.16745713
1784.14682007,0.16723132
1786.07562744,0.16403641
1788.00443481,0.17229328
1789.93324219,0.16800985
1791.86204956,0.15278128
1793.79085693,0.15878589
1795.71966431,0.17008477
1797.64847168,0.16784272
1799.57727905,0.16526994
1801.50608643,0.16279164
1803.43489380,0.16765888
1805.36370117,0.17127427
1807.29250854,0.16890657
1809.22131592,0.16947529
1811.15012329,0.16520900
1813.07893066,0.17000335
1815.00773804,0.17063442
1816.93654541,0.16861251
1818.86535278,0.17016101
1820.79416016,0.16948077
1822.72296753,0.17168939
1824.65177490,0.16091529
1826.58058228,0.16651058
1828.50938965,0.16655770
1830.43819702,0.15675288
1832.36700439,0.16998866
1834.29581177,0.16866395
1836.22461914,0.16849269
1838.15342651,0.16761285
1840.08223389,0.16857001
1842.01104126,0.16877252
1843.93984863,0.15060814
1845.86865601,0.16020337
1847.79746338,0.16825244
1849.72627075,0.16458133
1851.65507812,0.16913381
1853.58388550,0.16595873
1855.51269287,0.16749872
1857.44150024,0.16630304
1859.37030762,0.16531146
1861.29911499,0.16631068
1863.22792236,0.16432855
1865.15672974,0.16592464
1867.08553711,0.16063306
1869.01434448,0.15415649
1870.94315186,0.15994246
1872.87195923,0.16554064
1874.80076660,0.16291949
1876.72957397,0.16384847
1878.65838135,0.16306219
1880.58718872,0.16212031
1882.51599609,0.16334251
1884.44480347,0.16084389
1886.37361084,0.16301179
1888.30241821,0.15926898
1890.23122559,0.15616639
1892.16003296,0.16148296
1894.08884033,0.15945244
1896.01764771,0.15862334
1897.94645508,0.16003942
1899.87526245,0.15932953
1901.80406982,0.15967235
1903.73287720,0.15865114
1905.66168457,0.15904093
1907.59049194,0.15752748
1909.51929932,0.15646973
1911.44810669,0.15736949
1913.37691406,0.15737639
1915.30572144,0.15813345
1917.23452881,0.15169524
1919.16333618,0.15188012
1921.09214355,0.15710188
1923.02095093,0.15239164
1924.94975830,0.15517113
1926.87856567,0.15645036
1928.80737305,0.15457126
1930.73618042,0.15618637
1932.66498779,0.15399630
1934.59379517,0.15544383
1936.52260254,0.15422863
1938.45140991,0.15467715
1940.38021729,0.15433905
1942.30902466,0.14942390
1944.23783203,0.15215431
1946.16663940,0.15336071
1948.09544678,0.15308067
1950.02425415,0.15331516
1951.95306152,0.15261382
1953.88186890,0.15281083
1955.81067627,0.15195909
1957.73948364,0.15229619
1959.66829102,0.15187347
1961.59709839,0.15160638
1963.52590576,0.15178616
1965.45471313,0.15073657
1967.38352051,0.14940512
1969.31232788,0.15026826
1971.24113525,0.15103501
1973.16994263,0.14989288
1975.09875000,0.15020561
1977.02755737,0.14949930
1978.95636475,0.14941730
1980.88517212,0.14909214
1982.81397949,0.14864434
1984.74278687,0.14895500
1986.67159424,0.14749523
1988.60040161,0.14780679
1990.52920898,0.14619656
1992.45801636,0.14463085
1994.38682373,0.14646463
1996.31563110,0.14657578
1998.24443848,0.14593112
2000.17324585,0.14563410
2002.10205322,0.14513443
2004.03086060,0.14483517
2005.95966797,0.14449504
2007.88847534,0.14381574
2009.81728271,0.14357634
2011.74609009,0.14304081
2013.67489746,0.14293297
2015.60370483,0.14217597
2017.53251221,0.14058684
2019.46131958,0.14141253
2021.39012695,0.14116572
2023.31893433,0.14055853
2025.24774170,0.14045633
2027.17654907,0.13973138
2029.10535645,0.13960829
2031.03416382,0.13888076
2032.96297119,0.13877660
2034.89177856,0.13827783
2036.82058594,0.13788959
2038.74939331,0.13771075
2040.67820068,0.13662982
2042.60700806,0.13646731
2044.53581543,0.13639674
2046.46462280,0.13618788
2048.39343018,0.13566715
2050.32223755,0.13516805
2052.25104492,0.13489136
2054.17985229,0.13452190
2056.10865967,0.13436586
2058.03746704,0.13395877
2059.96627441,0.13351583
2061.89508179,0.13321295
2063.82388916,0.13264540
2065.75269653,0.13202935
2067.68150391,0.13228229
2069.61031128,0.13202617
2071.53911865,0.13151602
2073.46792603,0.13135983
2075.39673340,0.13083737
2077.32554077,0.13069765
2079.25434814,0.13036028
2081.18315552,0.13015422
2083.11196289,0.12970863
2085.04077026,0.12936768
2086.96957764,0.12928280
2088.89838501,0.12869683
2090.82719238,0.12846005
2092.75599976,0.12816674
2094.68480713,0.12818162
2096.61361450,0.12792698
2098.54242187,0.12748866
2100.47122925,0.12717614
2102.40003662,0.12689182
2104.32884399,0.12690251
2106.25765137,0.12641957
2108.18645874,0.12635323
2110.11526611,0.12611426
2112.04407349,0.12574111
2113.97288086,0.12560493
2115.90168823,0.12531042
2117.83049561,0.12514573
2119.75930298,0.12482859
2121.68811035,0.12478298
2123.61691772,0.12457027
2125.54572510,0.12442937
2127.47453247,0.12419968
2129.40333984,0.12391370
2131.33214722,0.12379226
2133.26095459,0.12354572
2135.18976196,0.12349580
2137.11856934,0.12315249
2139.04737671,0.12306680
2140.97618408,0.12302143
2142.90499146,0.12293157
2144.83379883,0.12261011
2146.76260620,0.12244071
2148.69141357,0.12269226
2150.62022095,0.12228368
2152.54902832,0.12217522
2154.47783569,0.12188284
2156.40664307,0.12169300
2158.33545044,0.12171654
2160.26425781,0.12158128
2162.19306519,0.12161088
2164.12187256,0.12128900
2166.05067993,0.12130363
2167.97948730,0.12104281
2169.90829468,0.12101267
2171.83710205,0.12100077
2173.76590942,0.12068222
2175.69471680,0.12068434
2177.62352417,0.12044400
2179.55233154,0.12051499
2181.48113892,0.12030756
2183.40994629,0.12014231
2185.33875366,0.12000252
2187.26756104,0.11987211
2189.19636841,0.11990924
2191.12517578,0.11959732
2193.05398315,0.11971862
2194.98279053,0.11956286
2196.91159790,0.11934635
2198.84040527,0.11930730
2200.76921265,0.11932088
2202.69802002,0.11930804
2204.62682739,0.11895400
2206.55563477,0.11874197
2208.48444214,0.11864704
2210.41324951,0.11867089
2212.34205688,0.11839554
2214.27086426,0.11849830
2216.19967163,0.11845700
2218.12847900,0.11812058
2220.05728638,0.11810706
2221.98609375,0.11778310
2223.91490112,0.11783707
2225.84370850,0.11761267
2227.77251587,0.11743778
2229.70132324,0.11743999
2231.63013062,0.11708768
2233.55893799,0.11704282
2235.48774536,0.11696678
2237.41655273,0.11687113
2239.34536011,0.11661879
2241.27416748,0.11652091
2243.20297485,0.11638731
2245.13178223,0.11619620
2247.06058960,0.11613008
2248.98939697,0.11589825
2250.91820435,0.11568966
2252.84701172,0.11547077
2254.77581909,0.11544807
2256.70462646,0.11525434
2258.63343384,0.11521676
2260.56224121,0.11505589
2262.49104858,0.11479108
2264.41985596,0.11479981
2266.34866333,0.11463670
2268.27747070,0.11466892
2270.20627808,0.11438322
2272.13508545,0.11418855
2274.06389282,0.11403809
2275.99270020,0.11398920
2277.92150757,0.11404583
2279.85031494,0.11377758
2281.77912231,0.11391638
2283.70792969,0.11371958
2285.63673706,0.11359663
2287.56554443,0.11336273
2289.49435181,0.11293046
2291.42315918,0.11280996
2293.35196655,0.11238189
2295.28077393,0.11210825
2297.20958130,0.11177996
2299.13838867,0.11148141
2301.06719604,0.11096901
2302.99600342,0.11034101
2304.92481079,0.10987655
2306.85361816,0.10923320
2308.78242554,0.10848358
2310.71123291,0.10741314
2312.64004028,0.10634141
2314.56884766,0.10531718
2316.49765503,0.10424926
2318.42646240,0.10266469
2320.35526978,0.10129036
2322.28407715,0.10007234
2324.21288452,0.09856009
2326.14169189,0.09764901
2328.07049927,0.09631643
2329.99930664,0.09500822
2331.92811401,0.09432244
2333.85692139,0.09390569
2335.78572876,0.09343904
2337.71453613,0.09336906
2339.64334351,0.09348610
2341.57215088,0.09353115
2343.50095825,0.09503090
2345.42976562,0.09678531
2347.35857300,0.10106979
2349.28738037,0.10448231
2351.21618774,0.10063036
2353.14499512,0.09549059
2355.07380249,0.09181412
2357.00260986,0.08890444
2358.93141724,0.08710718
2360.86022461,0.08609149
2362.78903198,0.08614874
2364.71783936,0.08649632
2366.64664673,0.08783148
2368.57545410,0.08966672
2370.50426147,0.09188320
2372.43306885,0.09457876
2374.36187622,0.09725937
2376.29068359,0.09993336
2378.21949097,0.10209808
2380.14829834,0.10391172
2382.07710571,0.10511746
2384.00591309,0.10581981
2385.93472046,0.10612367
2387.86352783,0.10626448
2389.79233521,0.10617164
2391.72114258,0.10598192
2393.64994995,0.10600072
2395.57875732,0.10565700
2397.50756470,0.10559045
2399.43637207,0.10554120
2401.36517944,0.10533700
2403.29398682,0.10517590
2405.22279419,0.10485679
2407.15160156,0.10474864
2409.08040894,0.10465963
2411.00921631,0.10451287
2412.93802368,0.10436106
2414.86683105,0.10430907
2416.79563843,0.10411965
2418.72444580,0.10393502
2420.65325317,0.10382125
2422.58206055,0.10368381
2424.51086792,0.10361822
2426.43967529,0.10334603
2428.36848267,0.10316972
2430.29729004,0.10305252
2432.22609741,0.10295103
2434.15490479,0.10268098
2436.08371216,0.10257452
2438.01251953,0.10263871
2439.94132690,0.10235462
2441.87013428,0.10219368
2443.79894165,0.10202610
2445.72774902,0.10199825
2447.65655640,0.10176025
2449.58536377,0.10156670
2451.51417114,0.10160670
2453.44297852,0.10140020
2455.37178589,0.10142371
2457.30059326,0.10110229
2459.22940063,0.10090881
2461.15820801,0.10084262
2463.08701538,0.10053300
2465.01582275,0.10050908
2466.94463013,0.10023298
2468.87343750,0.10000214
2470.80224487,0.10005217
2472.73105225,0.09991760
2474.65985962,0.09964703
2476.58866699,0.09951478
2478.51747437,0.09928183
2480.44628174,0.09917715
2482.37508911,0.09910773
2484.30389648,0.09890171
2486.23270386,0.09897105
2488.16151123,0.09864458
2490.09031860,0.09840533
2492.01912598,0.09839839
2493.94793335,0.09814373
2495.87674072,0.09800465
2497.80554810,0.09800056
2499.73435547,0.09790345
2501.66316284,0.09762597
2503.59197021,0.09758769
2505.52077759,0.09727760
2507.44958496,0.09709802
2509.37839233,0.09709924
2511.30719971,0.09683989
2513.23600708,0.09683384
2515.16481445,0.09661546
2517.09362183,0.09654965
2519.02242920,0.09638973
2520.95123657,0.09612561
2522.88004395,0.09605718
2524.80885132,0.09586503
2526.73765869,0.09578697
2528.66646606,0.09555735
2530.59527344,0.09541301
2532.52408081,0.09518541
2534.45288818,0.09507250
2536.38169556,0.09505950
2538.31050293,0.09486441
2540.23931030,0.09473563
2542.16811768,0.09449032
2544.09692505,0.09447043
2546.02573242,0.09427638
2547.95453979,0.09403589
2549.88334717,0.09390972
2551.81215454,0.09376369
2553.74096191,0.09368121
2555.66976929,0.09347113
2557.59857666,0.09333913
2559.52738403,0.09300599
2561.45619141,0.09300001
2563.38499878,0.09294175
2565.31380615,0.09259917
2567.24261353,0.09255509
2569.17142090,0.09238891
2571.10022827,0.09233341
2573.02903564,0.09212177
2574.95784302,0.09186347
2576.88665039,0.09175342
2578.81545776,0.09162069
2580.74426514,0.09144819
2582.67307251,0.09123721
2584.60187988,0.09121069
2586.53068726,0.09099957
2588.45949463,0.09081289
2590.38830200,0.09063116
2592.31710937,0.09046985
2594.24591675,0.09045667
2596.17472412,0.09029816
2598.10353149,0.09008399
2600.03233887,0.08985622
2601.96114624,0.08972346
2603.88995361,0.08957754
2605.81876099,0.08947600
2607.74756836,0.08929008
2609.67637573,0.08916133
2611.60518311,0.08901520
2613.53399048,0.08864442
2615.46279785,0.08849314
2617.39160522,0.08833861
2619.32041260,0.08832368
2621.24921997,0.08817324
2623.17802734,0.08786327
2625.10683472,0.08779413
2627.03564209,0.08765075
2628.96444946,0.08747966
2630.89325684,0.08725931
2632.82206421,0.08711594
2634.75087158,0.08691467
2636.67967895,0.08675666
2638.60848633,0.08665656
2640.53729370,0.08644937
2642.46610107,0.08625977
2644.39490845,0.08605213
2646.32371582,0.08596682
2648.25252319,0.08570901
2650.18133057,0.08557404
2652.11013794,0.08548358
2654.03894531,0.08524214
2655.96775269,0.08511380
2657.89656006,0.08492397
2659.82536743,0.08485095
2661.75417480,0.08465563
2663.68298218,0.08454667
2665.61178955,0.08437450
2667.54059692,0.08403890
2669.46940430,0.08394195
2671.39821167,0.08368921
2673.32701904,0.08352555
2675.25582642,0.08346097
2677.18463379,0.08329590
2679.11344116,0.08312458
2681.04224854,0.08299571
2682.97105591,0.08275094
2684.89986328,0.08247954
2686.82867065,0.08248290
2688.75747803,0.08227630
2690.68628540,0.08196658
2692.61509277,0.08187214
2694.54390015,0.08182661
2696.47270752,0.08154747
2698.40151489,0.08120094
2700.33032227,0.08112086
2702.25912964,0.08103430
2704.18793701,0.08086884
2706.11674438,0.08060418
2708.04555176,0.08035344
2709.97435913,0.08024767
2711.90316650,0.08024139
2713.83197388,0.08001782
2715.76078125,0.07969249
2717.68958862,0.07956792
2719.61839600,0.07936256
2721.54720337,0.07917657
2723.47601074,0.07897841
2725.40481812,0.07884359
2727.33362549,0.07861226
2729.26243286,0.07843557
2731.19124023,0.07843629
2733.12004761,0.07810116
2735.04885498,0.07796292
2736.97766235,0.07781396
2738.90646973,0.07739818
2740.83527710,0.07717787
2742.76408447,0.07714306
2744.69289185,0.07696529
2746.62169922,0.07669976
2748.55050659,0.07665434
2750.47931396,0.07638678
2752.40812134,0.07620052
2754.33692871,0.07603942
2756.26573608,0.07573201
2758.19454346,0.07554004
2760.12335083,0.07528300
2762.05215820,0.07517640
2763.98096558,0.07494612
2765.90977295,0.07471828
2767.83858032,0.07458305
2769.76738770,0.07437207
2771.69619507,0.07420623
2773.62500244,0.07407649
2775.55380981,0.07384764
2777.48261719,0.07344993
2779.41142456,0.07336250
2781.34023193,0.07316130
2783.26903931,0.07289352
2785.19784668,0.07271754
2787.12665405,0.07240912
2789.05546143,0.07226309
2790.98426880,0.07195760
2792.91307617,0.07173114
2794.84188354,0.07157843
2796.77069092,0.07137549
2798.69949829,0.07110161
2800.62830566,0.07084657
2802.55711304,0.07080223
2804.48592041,0.07052392
2806.41472778,0.07026450
2808.34353516,0.07005039
2810.27234253,0.06987144
2812.20114990,0.06959214
2814.12995728,0.06931587
2816.05876465,0.06917337
2817.98757202,0.06877938
2819.91637939,0.06864129
2821.84518677,0.06847380
2823.77399414,0.06821360
2825.70280151,0.06805071
2827.63160889,0.06780310
2829.56041626,0.06754324
2831.48922363,0.06725374
2833.41803101,0.06714214
2835.34683838,0.06673355
2837.27564575,0.06639916
2839.20445312,0.06627154
2841.13326050,0.06590165
2843.06206787,0.06565371
2844.99087524,0.06527475
2846.91968262,0.06472212
2848.84848999,0.06422372
2850.77729736,0.06398518
2852.70610474,0.06382789
2854.63491211,0.06359856
2856.56371948,0.06338792
2858.49252686,0.06310245
2860.42133423,0.06301586
2862.35014160,0.06288899
2864.27894897,0.06260335
2866.20775635,0.06237923
2868.13656372,0.06220795
2870.06537109,0.06200973
2871.99417847,0.06171723
2873.92298584,0.06143776
2875.85179321,0.06126071
2877.78060059,0.06116060
2879.70940796,0.06087680
2881.63821533,0.06060938
2883.56702270,0.06052617
2885.49583008,0.06033953
2887.42463745,0.05999101
2889.35344482,0.05970484
2891.28225220,0.05944626
2893.21105957,0.05911523
2895.13986694,0.05892485
2897.06867432,0.05859469
2898.99748169,0.05828159
2900.92628906,0.05808303
2902.85509644,0.05780930
2904.78390381,0.05757223
2906.71271118,0.05715179
2908.64151855,0.05684344
2910.57032593,0.05651708
2912.49913330,0.05602031
2914.42794067,0.05555193
2916.35674805,0.05515615
2918.28555542,0.05499941
2920.21436279,0.05468816
2922.14317017,0.05440726
2924.07197754,0.05424684
2926.00078491,0.05392724
2927.92959229,0.05371165
2929.85839966,0.05352878
2931.78720703,0.05334105
2933.71601440,0.05326959
2935.64482178,0.05311733
2937.57362915,0.05292749
2939.50243652,0.05284879
2941.43124390,0.05253419
2943.36005127,0.05224345
2945.28885864,0.05211019
2947.21766602,0.05181371
2949.14647339,0.05163649
2951.07528076,0.05133906
2953.00408813,0.05094146
2954.93289551,0.05077465
2956.86170288,0.05045852
2958.79051025,0.05001477
2960.71931763,0.04978576
2962.64812500,0.04948709
2964.57693237,0.04912693
2966.50573975,0.04901754
2968.43454712,0.04883007
2970.36335449,0.04868664
2972.29216187,0.04855723
2974.22096924,0.04831785
2976.14977661,0.04825372
2978.07858398,0.04803696
2980.00739136,0.04777772
2981.93619873,0.04760339
2983.86500610,0.04739067
2985.79381348,0.04726089
2987.72262085,0.04697861
2989.65142822,0.04667181
2991.58023560,0.04645163
2993.50904297,0.04609450
2995.43785034,0.04584692
2997.36665771,0.04558654
2999.29546509,0.04525845
3001.22427246,0.04512118
3003.15307983,0.04474931
3005.08188721,0.04441679
3007.01069458,0.04427997
3008.93950195,0.04393139
3010.86830933,0.04360867
3012.79711670,0.04324909
3014.72592407,0.04291008
3016.65473145,0.04271122
3018.58353882,0.04253124
3020.51234619,0.04225110
3022.44115356,0.04190736
3024.36996094,0.04158671
3026.29876831,0.04128959
3028.22757568,0.04110622
3030.15638306,0.04074386
3032.08519043,0.04042958
3034.01399780,0.04012038
3035.94280518,0.03976739
3037.87161255,0.03966200
3039.80041992,0.03934078
3041.72922729,0.03901977
3043.65803467,0.03876323
3045.58684204,0.03850633
3047.51564941,0.03825145
3049.44445679,0.03788770
3051.37326416,0.03762372
3053.30207153,0.03735504
3055.23087891,0.03709218
3057.15968628,0.03667228
3059.08849365,0.03645937
3061.01730103,0.03636452
3062.94610840,0.03606321
3064.87491577,0.03578420
3066.80372314,0.03532163
3068.73253052,0.03510946
3070.66133789,0.03493410
3072.59014526,0.03463706
3074.51895264,0.03441618
3076.44776001,0.03409856
3078.37656738,0.03382592
3080.30537476,0.03348053
3082.23418213,0.03329704
3084.16298950,0.03307449
3086.09179687,0.03286283
3088.02060425,0.03265199
3089.94941162,0.03223464
3091.87821899,0.03205071
3093.80702637,0.03175891
3095.73583374,0.03153063
3097.66464111,0.03134054
3099.59344849,0.03100243
3101.52225586,0.03081629
3103.45106323,0.03052491
3105.37987061,0.03025512
3107.30867798,0.02999979
3109.23748535,0.02971654
3111.16629272,0.02945756
3113.09510010,0.02921079
3115.02390747,0.02906801
3116.95271484,0.02876715
3118.88152222,0.02842218
3120.81032959,0.02829952
3122.73913696,0.02807082
3124.66794434,0.02780425
3126.59675171,0.02759917
3128.52555908,0.02725046
3130.45436645,0.02721616
3132.38317383,0.02705017
3134.31198120,0.02660605
3136.24078857,0.02644377
3138.16959595,0.02617856
3140.09840332,0.02605253
3142.02721069,0.02587482
3143.95601807,0.02553221
3145.88482544,0.02539220
3147.81363281,0.02526204
3149.74244019,0.02508693
3151.67124756,0.02476627
3153.60005493,0.02459846
3155.52886230,0.02443293
3157.45766968,0.02422910
3159.38647705,0.02410215
3161.31528442,0.02384421
3163.24409180,0.02374977
3165.17289917,0.02363407
3167.10170654,0.02337261
3169.03051392,0.02316122
3170.95932129,0.02311249
3172.88812866,0.02295558
3174.81693604,0.02272308
3176.74574341,0.02262749
3178.67455078,0.02241519
3180.60335815,0.02237127
3182.53216553,0.02223973
3184.46097290,0.02204910
3186.38978027,0.02202593
3188.31858765,0.02184150
3190.24739502,0.02168082
3192.17620239,0.02152452
3194.10500977,0.02144752
3196.03381714,0.02138904
3197.96262451,0.02128146
3199.89143188,0.02124178
3201.82023926,0.02116136
3203.74904663,0.02105235
3205.67785400,0.02100223
3207.60666138,0.02094005
3209.53546875,0.02078087
3211.46427612,0.02073770
3213.39308350,0.02060763
3215.32189087,0.02058098
3217.25069824,0.02059544
3219.17950562,0.02039373
3221.10831299,0.02051937
3223.03712036,0.02049374
3224.96592773,0.02030342
3226.89473511,0.02036341
3228.82354248,0.02033126
3230.75234985,0.02018895
3232.68115723,0.02018594
3234.60996460,0.02024540
3236.53877197,0.02015793
3238.46757935,0.02019138
3240.39638672,0.02016695
3242.32519409,0.02011022
3244.25400146,0.02011875
3246.18280884,0.02009846
3248.11161621,0.02014815
3250.04042358,0.02009486
3251.96923096,0.02012365
3253.89803833,0.02008244
3255.82684570,0.02004924
3257.75565308,0.02006132
3259.68446045,0.02011075
3261.61326782,0.02025026
3263.54207520,0.02010334
3265.47088257,0.02011283
3267.39968994,0.02015372
3269.32849731,0.02009673
3271.25730469,0.02004339
3273.18611206,0.02001228
3275.11491943,0.02011095
3277.04372681,0.02004933
3278.97253418,0.02018167
3280.90134155,0.02023780
3282.83014893,0.02015460
3284.75895630,0.02016723
3286.68776367,0.02014998
3288.61657104,0.02021981
3290.54537842,0.02016573
3292.47418579,0.02013858
3294.40299316,0.02014531
3296.33180054,0.02016884
3298.26060791,0.02013781
3300.18941528,0.02021142
3302.11822266,0.02035057
3304.04703003,0.02021348
3305.97583740,0.02023190
3307.90464478,0.02019248
3309.83345215,0.02015046
3311.76225952,0.02023445
3313.69106689,0.02022265
3315.61987427,0.02019775
3317.54868164,0.02021118
3319.47748901,0.02031662
3321.40629639,0.02024464
3323.33510376,0.02023224
3325.26391113,0.02022597
3327.19271851,0.02021636
3329.12152588,0.02033000
3331.05033325,0.02025822
3332.97914062,0.02028170
3334.90794800,0.02038804
3336.83675537,0.02030938
3338.76556274,0.02022086
3340.69437012,0.02036336
3342.62317749,0.02035550
3344.55198486,0.02031641
3346.48079224,0.02044163
3348.40959961,0.02036157
3350.33840698,0.02036348
3352.26721436,0.02040349
3354.19602173,0.02042773
3356.12482910,0.02046451
3358.05363647,0.02046872
3359.98244385,0.02046415
3361.91125122,0.02053572
3363.84005859,0.02059799
3365.76886597,0.02050104
3367.69767334,0.02056063
3369.62648071,0.02051804
3371.55528809,0.02064986
3373.48409546,0.02080775
3375.41290283,0.02072402
3377.34171020,0.02081678
3379.27051758,0.02086179
3381.19932495,0.02097352
3383.12813232,0.02092464
3385.05693970,0.02093585
3386.98574707,0.02105518
3388.91455444,0.02112071
3390.84336182,0.02112533
3392.77216919,0.02105331
3394.70097656,0.02133088
3396.62978394,0.02128544
3398.55859131,0.02135158
3400.48739868,0.02151208
3402.41620605,0.02144221
3404.34501343,0.02169787
3406.27382080,0.02174931
3408.20262817,0.02181327
3410.13143555,0.02199478
3412.06024292,0.02207733
3413.98905029,0.02197850
3415.91785767,0.02216478
3417.84666504,0.02236721
3419.77547241,0.02221967
3421.70427979,0.02236998
3423.63308716,0.02239860
3425.56189453,0.02259548
3427.49070190,0.02265300
3429.41950928,0.02266259
3431.34831665,0.02288938
3433.27712402,0.02289610
3435.20593140,0.02307606
3437.13473877,0.02300178
3439.06354614,0.02320834
3440.99235352,0.02339563
3442.92116089,0.02334780
3444.84996826,0.02348457
3446.77877563,0.02334442
3448.70758301,0.02354499
3450.63639038,0.02383237
3452.56519775,0.02399634
3454.49400513,0.02408994
3456.42281250,0.02408231
3458.35161987,0.02424212
3460.28042725,0.02435840
3462.20923462,0.02436742
3464.13804199,0.02457026
3466.06684937,0.02470868
3467.99565674,0.02460960
3469.92446411,0.02495107
3471.85327148,0.02502500
3473.78207886,0.02504388
3475.71088623,0.02524617
3477.63969360,0.02531564
3479.56850098,0.02549354
3481.49730835,0.02530658
3483.42611572,0.02562217
3485.35492310,0.02585037
3487.28373047,0.02580790
3489.21253784,0.02602227
3491.14134521,0.02610452
3493.07015259,0.02637883
3494.99895996,0.02629926
3496.92776733,0.02634835
3498.85657471,0.02668465
3500.78538208,0.02677885
3502.71418945,0.02639742
3504.64299683,0.02662096
3506.57180420,0.02738266
3508.50061157,0.02710705
3510.42941895,0.02717713
3512.35822632,0.02749359
3514.28703369,0.02772433
3516.21584106,0.02785388
3518.14464844,0.02784403
3520.07345581,0.02819716
3522.00226318,0.02791173
3523.93107056,0.02779857
3525.85987793,0.02806994
3527.78868530,0.02814127
3529.71749268,0.02825702
3531.64630005,0.02869653
3533.57510742,0.02902237
3535.50391479,0.02880106
3537.43272217,0.02892810
3539.36152954,0.02932313
3541.29033691,0.02948649
3543.21914429,0.02931708
3545.14795166,0.02899356
3547.07675903,0.02881334
3549.00556641,0.02978396
3550.93437378,0.03009816
3552.86318115,0.02953577
3554.79198853,0.03045847
3556.72079590,0.03050730
3558.64960327,0.03045784
3560.57841064,0.03053242
3562.50721802,0.03046357
3564.43602539,0.03079978
3566.36483276,0.02899482
3568.29364014,0.02849202
3570.22244751,0.03065912
3572.15125488,0.03166870
3574.08006226,0.03137793
3576.00886963,0.03168833
3577.93767700,0.03182912
3579.86648437,0.03169762
3581.79529175,0.03200207
3583.72409912,0.03210837
3585.65290649,0.03162865
3587.58171387,0.02942689
3589.51052124,0.03028067
3591.43932861,0.03283715
3593.36813599,0.03207684
3595.29694336,0.03178466
3597.22575073,0.03235359
3599.15455811,0.03279343
3601.08336548,0.03254212
3603.01217285,0.03297496
3604.94098022,0.03379291
3606.86978760,0.03272681
3608.79859497,0.03112597
3610.72740234,0.03185723
3612.65620972,0.03268704
3614.58501709,0.03188082
3616.51382446,0.03418075
3618.44263184,0.03188959
3620.37143921,0.03097339
3622.30024658,0.03482852
3624.22905395,0.03387570
3626.15786133,0.03569795
3628.08666870,0.03071314
3630.01547607,0.02818760
3631.94428345,0.03515576
3633.87309082,0.03435715
3635.80189819,0.03505169
3637.73070557,0.03586626
3639.65951294,0.03566730
3641.58832031,0.03608249
3643.51712769,0.03577247
3645.44593506,0.03640135
3647.37474243,0.03297288
3649.30354980,0.03063162
3651.23235718,0.03112146
3653.16116455,0.03674980
3655.08997192,0.03649032
3657.01877930,0.03302242
3658.94758667,0.03789394
3660.87639404,0.03729268
3662.80520142,0.03802365
3664.73400879,0.03800628
3666.66281616,0.03789651
3668.59162354,0.03713644
3670.52043091,0.03067931
3672.44923828,0.03692334
3674.37804565,0.03556602
3676.30685303,0.02989381
3678.23566040,0.03718043
3680.16446777,0.03813562
3682.09327515,0.03824424
3684.02208252,0.03949741
3685.95088989,0.03903862
3687.87969727,0.03535084
3689.80850464,0.03274005
3691.73731201,0.03728104
3693.66611938,0.03832236
3695.59492676,0.03926241
3697.52373413,0.03927983
3699.45254150,0.03906715
3701.38134888,0.03826845
3703.31015625,0.03668306
3705.23896362,0.04028327
3707.16777100,0.03851764
3709.09657837,0.03767779
3711.02538574,0.03565913
3712.95419312,0.03346106
3714.88300049,0.03905357
3716.81180786,0.03844760
3718.74061523,0.03871880
3720.66942261,0.03802204
3722.59822998,0.03681358
3724.52703735,0.03813525
3726.45584473,0.03541698
3728.38465210,0.03835332
3730.31345947,0.03787152
3732.24226685,0.03497557
3734.17107422,0.03432686
3736.09988159,0.03260943
3738.02868896,0.03433160
3739.95749634,0.03696438
3741.88630371,0.03870301
3743.81511108,0.03044632
3745.74391846,0.02880472
3747.67272583,0.03687774
3749.60153320,0.03192105
3751.53034058,0.02957634
3753.45914795,0.03366299
3755.38795532,0.03608170
3757.31676270,0.03746283
3759.24557007,0.03479303
3761.17437744,0.03589011
3763.10318481,0.03798609
3765.03199219,0.03567077
3766.96079956,0.03635386
3768.88960693,0.03591859
3770.81841431,0.03430185
3772.74722168,0.03704046
3774.67602905,0.03705916
3776.60483643,0.03691415
3778.53364380,0.03605713
3780.46245117,0.03472116
3782.39125854,0.03686549
3784.32006592,0.03606293
3786.24887329,0.03581993
3788.17768066,0.03644218
3790.10648804,0.03622400
3792.03529541,0.03603729
3793.96410278,0.03654665
3795.89291016,0.03457413
3797.82171753,0.03405484
3799.75052490,0.03578497
3801.67933228,0.02878570
3803.60813965,0.03315120
3805.53694702,0.03593036
3807.46575439,0.02969077
3809.39456177,0.03555937
3811.32336914,0.03489551
3813.25217651,0.03602120
3815.18098389,0.03274279
3817.10979126,0.02889600
3819.03859863,0.03596134
3820.96740601,0.02940960
3822.89621338,0.03088274
3824.82502075,0.03561784
3826.75382812,0.03234439
3828.68263550,0.03473427
3830.61144287,0.03334936
3832.54025024,0.03237265
3834.46905762,0.03303542
3836.39786499,0.03151670
3838.32667236,0.02854933
3840.25547974,0.03067555
3842.18428711,0.03309229
3844.11309448,0.03149012
3846.04190186,0.03382029
3847.97070923,0.03341779
3849.89951660,0.03355359
3851.82832397,0.03031134
3853.75713135,0.02297870
3855.68593872,0.02697418
3857.61474609,0.03350073
3859.54355347,0.03267102
3861.47236084,0.03221665
3863.40116821,0.03157110
3865.32997559,0.02945476
3867.25878296,0.03260826
3869.18759033,0.02997656
3871.11639770,0.02784603
3873.04520508,0.03264640
3874.97401245,0.03014947
3876.90281982,0.03235330
3878.83162720,0.03280113
3880.76043457,0.02848861
3882.68924194,0.03255808
3884.61804932,0.03045845
3886.54685669,0.02808467
3888.47566406,0.03239075
3890.40447144,0.03078545
3892.33327881,0.02900949
3894.26208618,0.03156231
3896.19089355,0.03213998
3898.11970093,0.03069355
3900.04850830,0.02916290
3901.97731567,0.02868475
3903.90612305,0.02842333
3905.83493042,0.02895837
3907.76373779,0.03138553
3909.69254517,0.03137916
3911.62135254,0.03099075
3913.55015991,0.03144529
3915.47896728,0.03053074
3917.40777466,0.02971569
3919.33658203,0.02954826
3921.26538940,0.03052662
3923.19419678,0.03033111
3925.12300415,0.02979155
3927.05181152,0.03019706
3928.98061890,0.03047960
3930.90942627,0.02990815
3932.83823364,0.02895486
3934.76704102,0.03008130
3936.69584839,0.03024216
3938.62465576,0.03002275
3940.55346313,0.03028124
3942.48227051,0.02911817
3944.41107788,0.02937339
3946.33988525,0.02985775
3948.26869263,0.02914855
3950.19750000,0.02911476
3952.12630737,0.02953953
3954.05511475,0.02944382
3955.98392212,0.02944628
3957.91272949,0.02945702
3959.84153687,0.02929763
3961.77034424,0.02916641
3963.69915161,0.02903827
3965.62795898,0.02928211
3967.55676636,0.02911294
3969.48557373,0.02901961
3971.41438110,0.02891985
3973.34318848,0.02877169
3975.27199585,0.02872694
3977.20080322,0.02864654
3979.12961060,0.02883752
3981.05841797,0.02852197
3982.98722534,0.02857380
3984.91603271,0.02846216
3986.84484009,0.02835431
3988.77364746,0.02843507
3990.70245483,0.02815503
3992.63126221,0.02830975
3994.56006958,0.02806625
3996.48887695,0.02809643
3998.41768433,0.02811293
4000.34649170,0.02801262
4002.27529907,0.02794517
4004.20410645,0.02773331
4006.13291382,0.02784177
4008.06172119,0.02759136
4009.99052856,0.02766724
4011.91933594,0.02752452
4013.84814331,0.02742485
4015.77695068,0.02746834
4017.70575806,0.02731753
4019.63456543,0.02734640
4021.56337280,0.02711281
4023.49218018,0.02719049
4025.42098755,0.02703105
4027.34979492,0.02707573
4029.27860229,0.02705414
4031.20740967,0.02693420
4033.13621704,0.02700474
4035.06502441,0.02672723
4036.99383179,0.02685374
4038.92263916,0.02660688
4040.85144653,0.02660208
4042.78025391,0.02660756
4044.70906128,0.02643722
4046.63786865,0.02651708
4048.56667603,0.02631356
4050.49548340,0.02639314
4052.42429077,0.02624140
4054.35309814,0.02626186
4056.28190552,0.02615733
4058.21071289,0.02607304
4060.13952026,0.02609272
4062.06832764,0.02582332
4063.99713501,0.02586779
4065.92594238,0.02569024
4067.85474976,0.02577003
4069.78355713,0.02568073
4071.71236450,0.02564588
4073.64117187,0.02570026
4075.56997925,0.02544549
4077.49878662,0.02546276
4079.42759399,0.02533047
4081.35640137,0.02538140
4083.28520874,0.02526096
4085.21401611,0.02520824
4087.14282349,0.02514381
4089.07163086,0.02499321
4091.00043823,0.02502728
4092.92924561,0.02489840
4094.85805298,0.02496146
4096.78686035,0.02481838
4098.71566772,0.02487423
4100.64447510,0.02475026
4102.57328247,0.02461777
4104.50208984,0.02467497
4106.43089722,0.02448846
4108.35970459,0.02458998
4110.28851196,0.02442122
4112.21731934,0.02443941
4114.14612671,0.02436804
4116.07493408,0.02424103
4118.00374145,0.02426363
4119.93254883,0.02407147
4121.86135620,0.02403746
4123.79016357,0.02397229
4125.71897095,0.02406871
4127.64777832,0.02378853
4129.57658569,0.02381175
4131.50539307,0.02394917
4133.43420044,0.02365351
4135.36300781,0.02371986
4137.29181519,0.02360157
4139.22062256,0.02359462
4141.14942993,0.02353469
4143.07823730,0.02342165
4145.00704468,0.02341240
4146.93585205,0.02329036
4148.86465942,0.02322265
4150.79346680,0.02317544
4152.72227417,0.02314329
4154.65108154,0.02298963
4156.57988892,0.02302105
4158.50869629,0.02296067
4160.43750366,0.02299251
4162.36631103,0.02292139
4164.29511841,0.02280388
4166.22392578,0.02287376
4168.15273315,0.02262360
4170.08154053,0.02264163
4172.01034790,0.02260371
4173.93915527,0.02261582
4175.86796265,0.02255829
4177.79677002,0.02248414
4179.72557739,0.02251682
4181.65438477,0.02228841
4183.58319214,0.02237309
4185.51199951,0.02220883
4187.44080688,0.02217897
4189.36961426,0.02212538
4191.29842163,0.02197457
4193.22722900,0.02200110
4195.15603638,0.02187344
4197.08484375,0.02196485
4199.01365112,0.02177430
4200.94245850,0.02183045
4202.87126587,0.02178580
4204.80007324,0.02165805
4206.72888062,0.02170793
4208.65768799,0.02151063
4210.58649536,0.02159736
4212.51530273,0.02146667
4214.44411011,0.02143951
4216.37291748,0.02134476
4218.30172485,0.02128783
4220.23053223,0.02131614
4222.15933960,0.02115991
4224.08814697,0.02126829
4226.01695435,0.02113251
4227.94576172,0.02111661
4229.87456909,0.02103670
4231.80337646,0.02102937
4233.73218384,0.02105725
4235.66099121,0.02088889
4237.58979858,0.02083262
4239.51860596,0.02071708
4241.44741333,0.02083947
4243.37622070,0.02062272
4245.30502808,0.02057655
4247.23383545,0.02060730
4249.16264282,0.02043860
4251.09145020,0.02056503
4253.02025757,0.02041471
4254.94906494,0.02033610
4256.87787231,0.02027982
4258.80667969,0.02023544
4260.73548706,0.02018811
4262.66429443,0.02022220
4264.59310181,0.02022111
4266.52190918,0.02003232
4268.45071655,0.02005048
4270.37952393,0.02000786
4272.30833130,0.02007598
4274.23713867,0.01992214
4276.16594604,0.01984421
4278.09475342,0.01986456
4280.02356079,0.01975953
4281.95236816,0.01971852
4283.88117554,0.01956006
4285.80998291,0.01972811
4287.73879028,0.01952196
4289.66759766,0.01941945
4291.59640503,0.01956479
4293.52521240,0.01942809
4295.45401978,0.01942848
4297.38282715,0.01925988
4299.31163452,0.01927455
4301.24044189,0.01922189
4303.16924927,0.01918416
4305.09805664,0.01917828
4307.02686401,0.01899335
4308.95567139,0.01895253
4310.88447876,0.01895888
4312.81328613,0.01900120
4314.74209351,0.01883376
4316.67090088,0.01883553
4318.59970825,0.01879268
4320.52851562,0.01870109
4322.45732300,0.01872440
4324.38613037,0.01862491
4326.31493774,0.01865566
4328.24374512,0.01859607
4330.17255249,0.01856541
4332.10135986,0.01842680
4334.03016724,0.01835467
4335.95897461,0.01839901
4337.88778198,0.01840167
4339.81658936,0.01838398
4341.74539673,0.01827724
4343.67420410,0.01828792
4345.60301147,0.01814123
4347.53181885,0.01817304
4349.46062622,0.01807657
4351.38943359,0.01796205
4353.31824097,0.01801747
4355.24704834,0.01786573
4357.17585571,0.01788155
4359.10466309,0.01772133
4361.03347046,0.01780351
4362.96227783,0.01777729
4364.89108520,0.01759358
4366.81989258,0.01774001
4368.74869995,0.01764372
4370.67750732,0.01759204
4372.60631470,0.01750087
4374.53512207,0.01750195
4376.46392944,0.01748338
4378.39273682,0.01740215
4380.32154419,0.01739867
4382.25035156,0.01731689
4384.17915894,0.01734865
4386.10796631,0.01726002
4388.03677368,0.01724812
4389.96558105,0.01716170
4391.89438843,0.01704550
4393.82319580,0.01703649
4395.75200317,0.01692817
4397.68081055,0.01690530
4399.60961792,0.01688592
4401.53842529,0.01682654
4403.46723267,0.01677648
4405.39604004,0.01679410
4407.32484741,0.01671212
4409.25365478,0.01670984
4411.18246216,0.01664858
4413.11126953,0.01658388
4415.04007690,0.01660885
4416.96888428,0.01648141
4418.89769165,0.01652175
4420.82649902,0.01636388
4422.75530640,0.01639207
4424.68411377,0.01635487
4426.61292114,0.01617010
4428.54172852,0.01633937
4430.47053589,0.01621807
4432.39934326,0.01626236
4434.32815063,0.01616792
4436.25695801,0.01603273
4438.18576538,0.01611209
4440.11457275,0.01598746
4442.04338013,0.01599035
4443.97218750,0.01594587
4445.90099487,0.01595412
4447.82980225,0.01587353
4449.75860962,0.01578106
4451.68741699,0.01579802
4453.61622437,0.01578204
4455.54503174,0.01569360
4457.47383911,0.01562624
4459.40264648,0.01563292
4461.33145386,0.01548674
4463.26026123,0.01554471
4465.18906860,0.01540752
4467.11787598,0.01537458
4469.04668335,0.01545574
4470.97549072,0.01530794
4472.90429810,0.01539352
4474.83310547,0.01522718
4476.76191284,0.01525874
4478.69072021,0.01523231
4480.61952759,0.01512942
4482.54833496,0.01527150
4484.47714233,0.01506783
4486.40594971,0.01504442
4488.33475708,0.01501303
4490.26356445,0.01495750
4492.19237183,0.01497171
4494.12117920,0.01488253
4496.04998657,0.01493252
4497.97879395,0.01485779
4499.90760132,0.01471228
4501.83640869,0.01474850
4503.76521606,0.01472487
4505.69402344,0.01460964
4507.62283081,0.01466605
4509.55163818,0.01457361
4511.48044556,0.01453038
4513.40925293,0.01453970
4515.33806030,0.01443669
4517.26686768,0.01447607
4519.19567505,0.01438035
4521.12448242,0.01435664
4523.05328979,0.01435196
4524.98209717,0.01433279
4526.91090454,0.01429878
4528.83971191,0.01422012
4530.76851929,0.01420356
4532.69732666,0.01409865
4534.62613403,0.01412592
4536.55494141,0.01412503
4538.48374878,0.01411663
4540.41255615,0.01404416
4542.34136353,0.01402333
4544.27017090,0.01400277
4546.19897827,0.01384514
4548.12778564,0.01389281
4550.05659302,0.01381189
4551.98540039,0.01381815
4553.91420776,0.01377769
4555.84301514,0.01373204
4557.77182251,0.01373120
4559.70062988,0.01358406
4561.62943726,0.01366864
4563.55824463,0.01355662
4565.48705200,0.01352982
4567.41585937,0.01355860
4569.34466675,0.01345143
4571.27347412,0.01340515
4573.20228149,0.01339206
4575.13108887,0.01344283
4577.05989624,0.01331045
4578.98870361,0.01331190
4580.91751099,0.01323420
4582.84631836,0.01320807
4584.77512573,0.01322394
4586.70393311,0.01313335
4588.63274048,0.01313865
4590.56154785,0.01297859
4592.49035522,0.01309065
4594.41916260,0.01303450
4596.34796997,0.01292178
4598.27677734,0.01298907
4600.20558472,0.01287572
4602.13439209,0.01293108
4604.06319946,0.01285203
4605.99200684,0.01278336
4607.92081421,0.01274552
4609.84962158,0.01270663
4611.77842895,0.01271589
4613.70723633,0.01259748
4615.63604370,0.01259969
4617.56485107,0.01264718
4619.49365845,0.01261560
4621.42246582,0.01254884
4623.35127319,0.01253349
4625.28008057,0.01240275
4627.20888794,0.01238350
4629.13769531,0.01241921
4631.06650269,0.01233326
4632.99531006,0.01237729
4634.92411743,0.01228703
4636.85292480,0.01220449
4638.78173218,0.01214073
4640.71053955,0.01213084
4642.63934692,0.01217837
4644.56815430,0.01212658
4646.49696167,0.01214249
4648.42576904,0.01209756
4650.35457642,0.01202564
4652.28338379,0.01198324
4654.21219116,0.01197489
4656.14099853,0.01192602
4658.06980591,0.01192343
4659.99861328,0.01188505
4661.92742065,0.01183166
4663.85622803,0.01184647
4665.78503540,0.01173713
4667.71384277,0.01177236
4669.64265015,0.01170887
4671.57145752,0.01169877
4673.50026489,0.01170923
4675.42907227,0.01157829
4677.35787964,0.01166632
4679.28668701,0.01159064
4681.21549438,0.01152028
4683.14430176,0.01152675
4685.07310913,0.01152360
4687.00191650,0.01144599
4688.93072388,0.01137868
4690.85953125,0.01145305
4692.78833862,0.01130652
4694.71714600,0.01127114
4696.64595337,0.01131290
4698.57476074,0.01130421
4700.50356812,0.01124090
4702.43237549,0.01117715
4704.36118286,0.01120677
4706.28999023,0.01115690
4708.21879761,0.01117925
4710.14760498,0.01113057
4712.07641235,0.01112593
4714.00521973,0.01106219
4715.93402710,0.01093916
4717.86283447,0.01092940
4719.79164185,0.01089281
4721.72044922,0.01092182
4723.64925659,0.01086100
4725.57806396,0.01088007
4727.50687134,0.01085616
4729.43567871,0.01078944
4731.36448608,0.01082471
4733.29329346,0.01076098
4735.22210083,0.01072646
4737.15090820,0.01066946
4739.07971558,0.01065553
4741.00852295,0.01071435
4742.93733032,0.01071788
4744.86613770,0.01059015
4746.79494507,0.01058917
4748.72375244,0.01059329
4750.65255981,0.01050250
4752.58136719,0.01051894
4754.51017456,0.01039789
4756.43898193,0.01045583
4758.36778931,0.01041623
4760.29659668,0.01029630
4762.22540405,0.01036270
4764.15421143,0.01029456
4766.08301880,0.01029683
4768.01182617,0.01026420
4769.94063354,0.01031737
4771.86944092,0.01023655
4773.79824829,0.01013638
4775.72705566,0.01024639
4777.65586304,0.01015744
4779.58467041,0.01006924
4781.51347778,0.01004094
4783.44228516,0.01013478
4785.37109253,0.01005749
4787.29989990,0.00991648
4789.22870728,0.00994562
4791.15751465,0.00992315
4793.08632202,0.00994406
4795.01512939,0.00986083
4796.94393677,0.00986765
4798.87274414,0.00985047
4800.80155151,0.00979028
4802.73035889,0.00980222
4804.65916626,0.00970408
4806.58797363,0.00970077
4808.51678101,0.00972453
4810.44558838,0.00968779
4812.37439575,0.00961122
4814.30320312,0.00961079
4816.23201050,0.00958629
4818.16081787,0.00950237
4820.08962524,0.00951638
4822.01843262,0.00956707
4823.94723999,0.00956372
4825.87604736,0.00943743
4827.80485474,0.00943182
4829.73366211,0.00944336
4831.66246948,0.00941085
4833.59127686,0.00939278
4835.52008423,0.00936092
4837.44889160,0.00935073
4839.37769897,0.00925840
4841.30650635,0.00923379
4843.23531372,0.00919994
4845.16412109,0.00917067
4847.09292847,0.00913060
4849.02173584,0.00912586
4850.95054321,0.00918497
4852.87935059,0.00911585
4854.80815796,0.00909139
4856.73696533,0.00904087
4858.66577270,0.00899113
4860.59458008,0.00893941
4862.52338745,0.00900923
4864.45219482,0.00904703
4866.38100220,0.00888001
4868.30980957,0.00895188
4870.23861694,0.00887486
4872.16742432,0.00876522
4874.09623169,0.00884699
4876.02503906,0.00878519
4877.95384644,0.00878687
4879.88265381,0.00878969
4881.81146118,0.00873906
4883.74026855,0.00870124
4885.66907593,0.00869264
4887.59788330,0.00869807
4889.52669067,0.00864713
4891.45549805,0.00862982
4893.38430542,0.00859161
4895.31311279,0.00852564
4897.24192017,0.00857530
4899.17072754,0.00854729
4901.09953491,0.00851218
4903.02834228,0.00859164
4904.95714966,0.00849265
4906.88595703,0.00843266
4908.81476440,0.00844771
4910.74357178,0.00843857
4912.67237915,0.00837229
4914.60118652,0.00832219
4916.52999390,0.00840426
4918.45880127,0.00825340
4920.38760864,0.00821089
4922.31641602,0.00826865
4924.24522339,0.00824709
4926.17403076,0.00823531
4928.10283813,0.00809334
4930.03164551,0.00817682
4931.96045288,0.00822627
4933.88926025,0.00810614
4935.81806763,0.00804887
4937.74687500,0.00807498
4939.67568237,0.00810947
4941.60448975,0.00806707
4943.53329712,0.00805923
4945.46210449,0.00797308
4947.39091187,0.00794303
4949.31971924,0.00793299
4951.24852661,0.00793539
4953.17733398,0.00793901
4955.10614136,0.00790188
4957.03494873,0.00788063
4958.96375610,0.00776966
4960.89256348,0.00783633
4962.82137085,0.00783740
4964.75017822,0.00776626
4966.67898560,0.00774597
4968.60779297,0.00763961
4970.53660034,0.00770271
4972.46540771,0.00774600
4974.39421509,0.00762853
4976.32302246,0.00759951
4978.25182983,0.00769608
4980.18063721,0.00760682
4982.10944458,0.00756040
4984.03825195,0.00757855
4985.96705933,0.00749743
4987.89586670,0.00746042
4989.82467407,0.00735906
4991.75348145,0.00750051
4993.68228882,0.00751857
4995.61109619,0.00736819
4997.53990356,0.00737449
4999.46871094,0.00734341
5001.39751831,0.00735983
5003.32632568,0.00728172
5005.25513306,0.00725594
5007.18394043,0.00719317
5009.11274780,0.00716432
5011.04155518,0.00727020
5012.97036255,0.00725740
5014.89916992,0.00719048
5016.82797729,0.00714085
5018.75678467,0.00716991
5020.68559204,0.00711872
5022.61439941,0.00714048
5024.54320679,0.00709694
5026.47201416,0.00710022
5028.40082153,0.00710734
5030.32962891,0.00696016
5032.25843628,0.00706652
5034.18724365,0.00693318
5036.11605103,0.00691324
5038.04485840,0.00703583
5039.97366577,0.00696309
5041.90247314,0.00694317
5043.83128052,0.00686331
5045.76008789,0.00689279
5047.68889526,0.00677524
5049.61770264,0.00682502
5051.54651001,0.00689130
5053.47531738,0.00679992
5055.40412476,0.00683857
5057.33293213,0.00672856
5059.26173950,0.00676339
5061.19054687,0.00672186
5063.11935425,0.00665844
5065.04816162,0.00666131
5066.97696899,0.00666140
5068.90577637,0.00669865
5070.83458374,0.00660884
5072.76339111,0.00668238
5074.69219849,0.00664814
5076.62100586,0.00657465
5078.54981323,0.00660002
5080.47862061,0.00655978
5082.40742798,0.00654271
5084.33623535,0.00656648
5086.26504272,0.00654149
5088.19385010,0.00648357
5090.12265747,0.00653261
5092.05146484,0.00640941
5093.98027222,0.00635614
5095.90907959,0.00635441
5097.83788696,0.00635376
5099.76669434,0.00640767
5101.69550171,0.00634243
5103.62430908,0.00636882
5105.55311645,0.00622855
5107.48192383,0.00625031
5109.41073120,0.00625987
5111.33953857,0.00616719
5113.26834595,0.00625508
5115.19715332,0.00620083
5117.12596069,0.00627641
5119.05476807,0.00615312
5120.98357544,0.00609682
5122.91238281,0.00619945
5124.84119019,0.00613064
5126.76999756,0.00616108
5128.69880493,0.00607750
5130.62761230,0.00605454
5132.55641968,0.00601367
5134.48522705,0.00603126
5136.41403442,0.00610031
5138.34284180,0.00601869
5140.27164917,0.00599813
5142.20045654,0.00598938
5144.12926392,0.00601166
5146.05807129,0.00595476
5147.98687866,0.00595156
5149.91568603,0.00590251
5151.84449341,0.00583150
5153.77330078,0.00593343
5155.70210815,0.00589553
5157.63091553,0.00584432
5159.55972290,0.00582775
5161.48853027,0.00580937
5163.41733765,0.00582734
5165.34614502,0.00579045
5167.27495239,0.00579252
5169.20375977,0.00579371
5171.13256714,0.00565394
5173.06137451,0.00568394
5174.99018188,0.00578576
5176.91898926,0.00569920
5178.84779663,0.00572777
5180.77660400,0.00567097
5182.70541138,0.00561434
5184.63421875,0.00554902
5186.56302612,0.00549527
5188.49183350,0.00562061
5190.42064087,0.00553687
5192.34944824,0.00558961
5194.27825562,0.00560710
5196.20706299,0.00545110
5198.13587036,0.00544490
5200.06467773,0.00545438
5201.99348511,0.00551702
5203.92229248,0.00548613
5205.85109985,0.00539886
5207.77990723,0.00531196
5209.70871460,0.00537384
5211.63752197,0.00544270
5213.56632935,0.00536387
5215.49513672,0.00539473
5217.42394409,0.00533464
5219.35275146,0.00529916
5221.28155884,0.00539502
5223.21036621,0.00537014
5225.13917358,0.00522048
5227.06798096,0.00524572
5228.99678833,0.00528653
5230.92559570,0.00521851
5232.85440308,0.00527440
5234.78321045,0.00520146
5236.71201782,0.00522578
5238.64082520,0.00527425
5240.56963257,0.00522995
5242.49843994,0.00525029
5244.42724731,0.00513531
5246.35605469,0.00516442
5248.28486206,0.00513136
5250.21366943,0.00508374
5252.14247681,0.00515644
5254.07128418,0.00500185
5256.00009155,0.00504010
5257.92889893,0.00515740
5259.85770630,0.00505312
5261.78651367,0.00503446
5263.71532104,0.00499310
5265.64412842,0.00498711
5267.57293579,0.00507583
5269.50174316,0.00498799
5271.43055054,0.00498513
5273.35935791,0.00506486
5275.28816528,0.00496314
5277.21697266,0.00489079
5279.14578003,0.00491044
5281.07458740,0.00494518
5283.00339478,0.00492815
5284.93220215,0.00485654
5286.86100952,0.00486822
5288.78981689,0.00491034
5290.71862427,0.00485023
5292.64743164,0.00486737
5294.57623901,0.00487892
5296.50504639,0.00483824
5298.43385376,0.00487011
5300.36266113,0.00476027
5302.29146851,0.00478189
5304.22027588,0.00484344
5306.14908325,0.00476885
5308.07789062,0.00473397
5310.00669800,0.00466935
5311.93550537,0.00475584
5313.86431274,0.00473250
5315.79312012,0.00465860
5317.72192749,0.00472231
5319.65073486,0.00470010
5321.57954224,0.00466227
5323.50834961,0.00465145
5325.43715698,0.00464048
5327.36596436,0.00452888
5329.29477173,0.00450665
5331.22357910,0.00455262
5333.15238647,0.00455469
5335.08119385,0.00456638
5337.01000122,0.00454739
5338.93880859,0.00447304
5340.86761597,0.00445991
5342.79642334,0.00455024
5344.72523071,0.00435032
5346.65403809,0.00434857
5348.58284546,0.00450654
5350.51165283,0.00446005
5352.44046020,0.00445075
5354.36926758,0.00427424
5356.29807495,0.00435665
5358.22688232,0.00447503
5360.15568970,0.00448243
5362.08449707,0.00446310
5364.01330444,0.00427737
5365.94211182,0.00435374
5367.87091919,0.00440214
5369.79972656,0.00436154
5371.72853394,0.00431045
5373.65734131,0.00437009
5375.58614868,0.00432264
5377.51495605,0.00417918
5379.44376343,0.00430542
5381.37257080,0.00423684
5383.30137817,0.00426882
5385.23018555,0.00425584
5387.15899292,0.00416398
5389.08780029,0.00427013
5391.01660767,0.00428489
5392.94541504,0.00423510
5394.87422241,0.00410389
5396.80302978,0.00418230
5398.73183716,0.00415464
5400.66064453,0.00412409
5402.58945190,0.00415982
5404.51825928,0.00404971
5406.44706665,0.00417651
5408.37587402,0.00407040
5410.30468140,0.00398495
5412.23348877,0.00403307
5414.16229614,0.00393904
5416.09110352,0.00399259
5418.01991089,0.00405773
5419.94871826,0.00406592
5421.87752563,0.00400697
5423.80633301,0.00406660
5425.73514038,0.00412120
5427.66394775,0.00398658
5429.59275513,0.00388979
5431.52156250,0.00395923
5433.45036987,0.00396987
5435.37917725,0.00384114
5437.30798462,0.00397389
5439.23679199,0.00401748
5441.16559936,0.00381141
5443.09440674,0.00378257
5445.02321411,0.00383548
5446.95202148,0.00386920
5448.88082886,0.00385836
5450.80963623,0.00377360
5452.73844360,0.00382817
5454.66725098,0.00387589
5456.59605835,0.00375893
5458.52486572,0.00382389
5460.45367310,0.00380363
5462.38248047,0.00370128
5464.31128784,0.00373334
5466.24009521,0.00373376
5468.16890259,0.00383256
5470.09770996,0.00375407
5472.02651733,0.00371052
5473.95532471,0.00379120
5475.88413208,0.00360578
5477.81293945,0.00358211
5479.74174683,0.00373478
5481.67055420,0.00368880
5483.59936157,0.00364551
5485.52816895,0.00366738
5487.45697632,0.00357672
5489.38578369,0.00359080
5491.31459106,0.00361870
5493.24339844,0.00356005
5495.17220581,0.00358259
5497.10101318,0.00357636
5499.02982056,0.00359525
5500.95862793,0.00363292
5502.88743530,0.00359599
5504.81624268,0.00349271
5506.74505005,0.00351798
5508.67385742,0.00357785
5510.60266479,0.00355978
5512.53147217,0.00355413
5514.46027954,0.00349043
5516.38908691,0.00353069
5518.31789429,0.00348761
5520.24670166,0.00346351
5522.17550903,0.00349512
5524.10431641,0.00343778
5526.03312378,0.00347456
5527.96193115,0.00342671
5529.89073853,0.00344776
5531.81954590,0.00347075
5533.74835327,0.00344441
5535.67716064,0.00337990
5537.60596802,0.00334370
5539.53477539,0.00343674
5541.46358276,0.00333571
5543.39239014,0.00333313
5545.32119751,0.00336207
5547.25000488,0.00334376
5549.17881226,0.00331831
5551.10761963,0.00326977
5553.03642700,0.00335502
5554.96523437,0.00328903
5556.89404175,0.00327362
5558.82284912,0.00328829
5560.75165649,0.00327246
5562.68046387,0.00329896
5564.60927124,0.00331866
5566.53807861,0.00330566
5568.46688599,0.00318318
5570.39569336,0.00322122
5572.32450073,0.00320201
5574.25330811,0.00319088
5576.18211548,0.00320689
5578.11092285,0.00316976
5580.03973022,0.00321045
5581.96853760,0.00312103
5583.89734497,0.00318621
5585.82615234,0.00319748
5587.75495972,0.00309302
5589.68376709,0.00316608
5591.61257446,0.00319032
5593.54138184,0.00312105
5595.47018921,0.00311028
5597.39899658,0.00316342
5599.32780395,0.00305630
5601.25661133,0.00306713
5603.18541870,0.00315348
5605.11422607,0.00306023
5607.04303345,0.00304977
5608.97184082,0.00305344
5610.90064819,0.00297566
5612.82945557,0.00298067
5614.75826294,0.00302393
5616.68707031,0.00298524
5618.61587769,0.00304104
5620.54468506,0.00298941
5622.47349243,0.00294344
5624.40229980,0.00301126
5626.33110718,0.00288399
5628.25991455,0.00288042
5630.18872192,0.00292855
5632.11752930,0.00294439
5634.04633667,0.00288361
5635.97514404,0.00280862
5637.90395142,0.00283086
5639.83275879,0.00279814
5641.76156616,0.00293399
5643.69037353,0.00293029
5645.61918091,0.00291083
5647.54798828,0.00290226
5649.47679565,0.00276439
5651.40560303,0.00287637
5653.33441040,0.00283659
5655.26321777,0.00277190
5657.19202515,0.00285575
5659.12083252,0.00286127
5661.04963989,0.00283139
5662.97844727,0.00278070
5664.90725464,0.00282874
5666.83606201,0.00277019
5668.76486938,0.00268040
5670.69367676,0.00275580
5672.62248413,0.00277223
5674.55129150,0.00273564
5676.48009888,0.00277118
5678.40890625,0.00277076
5680.33771362,0.00271051
5682.26652100,0.00269032
5684.19532837,0.00272846
5686.12413574,0.00271986
5688.05294311,0.00266134
5689.98175049,0.00270316
5691.91055786,0.00266924
5693.83936523,0.00267204
5695.76817261,0.00267770
5697.69697998,0.00256846
5699.62578735,0.00267331
5701.55459473,0.00268036
5703.48340210,0.00262352
5705.41220947,0.00264441
5707.34101685,0.00259555
5709.26982422,0.00259882
5711.19863159,0.00254315
5713.12743896,0.00254411
5715.05624634,0.00259199
5716.98505371,0.00256459
5718.91386108,0.00252629
5720.84266846,0.00253531
5722.77147583,0.00257240
5724.70028320,0.00257368
5726.62909058,0.00251727
5728.55789795,0.00244344
5730.48670532,0.00258035
5732.41551270,0.00260395
5734.34432007,0.00246486
5736.27312744,0.00245896
5738.20193481,0.00248155
5740.13074219,0.00253211
5742.05954956,0.00246915
5743.98835693,0.00247007
5745.91716431,0.00246671
5747.84597168,0.00239397
5749.77477905,0.00244448
5751.70358643,0.00239953
5753.63239380,0.00246257
5755.56120117,0.00245882
5757.49000854,0.00235820
5759.41881592,0.00241318
5761.34762329,0.00234232
5763.27643066,0.00233277
5765.20523804,0.00237749
5767.13404541,0.00236895
5769.06285278,0.00238167
5770.99166016,0.00234778
5772.92046753,0.00232358
5774.84927490,0.00228854
5776.77808228,0.00233557
5778.70688965,0.00232149
5780.63569702,0.00223892
5782.56450439,0.00228655
5784.49331177,0.00228439
5786.42211914,0.00227571
5788.35092651,0.00226236
5790.27973389,0.00224965
5792.20854126,0.00228370
5794.13734863,0.00224750
5796.06615601,0.00222780
5797.99496338,0.00222590
5799.92377075,0.00224352
5801.85257812,0.00225677
5803.78138550,0.00227086
5805.71019287,0.00225816
5807.63900024,0.00218496
5809.56780762,0.00223630
5811.49661499,0.00222284
5813.42542236,0.00218250
5815.35422974,0.00222488
5817.28303711,0.00216306
5819.21184448,0.00215550
5821.14065186,0.00216161
5823.06945923,0.00216737
5824.99826660,0.00216762
5826.92707397,0.00209319
5828.85588135,0.00215261
5830.78468872,0.00216157
5832.71349609,0.00211939
5834.64230347,0.00213505
5836.57111084,0.00204536
5838.49991821,0.00212370
5840.42872559,0.00216919
5842.35753296,0.00202233
5844.28634033,0.00206294
5846.21514770,0.00210156
5848.14395508,0.00209034
5850.07276245,0.00205760
5852.00156982,0.00205903
5853.93037720,0.00209188
5855.85918457,0.00197917
5857.78799194,0.00203794
5859.71679932,0.00208124
5861.64560669,0.00202579
5863.57441406,0.00206193
5865.50322144,0.00201675
5867.43202881,0.00196575
5869.36083618,0.00193300
5871.28964355,0.00197555
5873.21845093,0.00201353
5875.14725830,0.00207174
5877.07606567,0.00206403
5879.00487305,0.00196913
5880.93368042,0.00204534
5882.86248779,0.00200683
5884.79129517,0.00198211
5886.72010254,0.00195031
5888.64890991,0.00188083
5890.57771728,0.00194640
5892.50652466,0.00189856
5894.43533203,0.00193742
5896.36413940,0.00191085
5898.29294678,0.00183842
5900.22175415,0.00188824
5902.15056152,0.00189492
5904.07936890,0.00194484
5906.00817627,0.00186939
5907.93698364,0.00184396
5909.86579102,0.00188392
5911.79459839,0.00181930
5913.72340576,0.00185248
5915.65221313,0.00185189
5917.58102051,0.00181601
5919.50982788,0.00188408
5921.43863525,0.00189938
5923.36744263,0.00181254
5925.29625000,0.00179617
5927.22505737,0.00179392
5929.15386475,0.00175374
5931.08267212,0.00179645
5933.01147949,0.00182925
5934.94028686,0.00181434
5936.86909424,0.00181765
5938.79790161,0.00177189
5940.72670898,0.00172642
5942.65551636,0.00173008
5944.58432373,0.00171455
5946.51313110,0.00177774
5948.44193848,0.00183123
5950.37074585,0.00177768
5952.29955322,0.00171675
5954.22836060,0.00171952
5956.15716797,0.00175492
5958.08597534,0.00169388
5960.01478271,0.00169754
5961.94359009,0.00170273
5963.87239746,0.00168550
5965.80120483,0.00170034
5967.73001221,0.00163003
5969.65881958,0.00165991
5971.58762695,0.00165634
5973.51643433,0.00167011
5975.44524170,0.00174131
5977.37404907,0.00163989
5979.30285645,0.00157862
5981.23166382,0.00162812
5983.16047119,0.00164300
5985.08927856,0.00162437
5987.01808594,0.00166068
5988.94689331,0.00166485
5990.87570068,0.00164844
5992.80450806,0.00158428
5994.73331543,0.00155962
5996.66212280,0.00162517
5998.59093018,0.00155985
6000.51973755,0.00159614
