399.26312622,0.00085515
401.19193359,0.00030768
403.12074097,0.00038380
405.04954834,0.00083548
406.97835571,0.00041475
408.90716309,0.00044545
410.83597046,0.00081360
412.76477783,0.00070397
414.69358521,0.00102808
416.62239258,0.00129579
418.55119995,0.00090263
420.48000732,0.00052169
422.40881470,0.00081863
424.33762207,0.00095858
426.26642944,0.00070720
428.19523682,0.00114317
430.12404419,0.00112734
432.05285156,0.00065638
433.98165894,0.00087266
435.91046631,0.00112602
437.83927368,0.00082675
439.76808105,0.00066527
441.69688843,0.00083683
443.62569580,0.00066087
445.55450317,0.00107978
447.48331055,0.00104100
449.41211792,0.00019550
451.34092529,0.00040809
453.26973267,0.00061752
455.19854004,0.00080105
457.12734741,0.00062966
459.05615479,-0.00001460
460.98496216,0.00035928
462.91376953,0.00064167
464.84257690,0.00059850
466.77138428,0.00068702
468.70019165,0.00057424
470.62899902,0.00051176
472.55780640,0.00031126
474.48661377,0.00032280
476.41542114,0.00021168
478.34422852,0.00000941
480.27303589,0.00060752
482.20184326,0.00032016
484.13065063,0.00015290
486.05945801,0.00097378
487.98826538,0.00014815
489.91707275,-0.00019508
491.84588013,0.00031405
493.77468750,0.00019033
495.70349487,0.00060065
497.63230225,0.00036797
499.56110962,0.00010673
501.48991699,0.00056379
503.41872437,0.00061761
505.34753174,0.00048094
507.27633911,0.00049670
509.20514648,0.00032659
511.13395386,0.00004647
513.06276123,0.00043545
514.99156860,0.00037604
516.92037598,-0.00022207
518.84918335,-0.00019407
520.77799072,-0.00010190
522.70679810,-0.00005321
524.63560547,0.00013729
526.56441284,0.00022299
528.49322021,0.00033415
530.42202759,0.00054593
532.35083496,0.00013792
534.27964233,0.00010855
536.20844971,0.00021492
538.13725708,-0.00019910
540.06606445,0.00017798
541.99487183,0.00056297
543.92367920,0.00010598
545.85248657,-0.00003294
547.78129395,0.00040344
549.71010132,0.00035835
551.63890869,0.00010550
553.56771606,0.00027872
555.49652344,0.00048595
557.42533081,0.00060092
559.35413818,0.00029904
561.28294556,-0.00002216
563.21175293,0.00022828
565.14056030,0.00019627
567.06936768,0.00011775
568.99817505,0.00036552
570.92698242,0.00034085
572.85578979,0.00031851
574.78459717,0.00005547
576.71340454,-0.00003256
578.64221191,0.00019993
580.57101929,0.00016750
582.49982666,0.00007051
584.42863403,-0.00003044
586.35744141,0.00041274
588.28624878,0.00038887
590.21505615,0.00006443
592.14386353,0.00008607
594.07267090,-0.00000194
596.00147827,0.00031804
597.93028564,0.00020203
599.85909302,0.00014355
601.78790039,0.00034790
603.71670776,0.00016487
605.64551514,0.00023622
607.57432251,0.00010748
609.50312988,0.00004899
611.43193726,-0.00001542
613.36074463,-0.00024764
615.28955200,-0.00013792
617.21835938,-0.00012031
619.14716675,-0.00003015
621.07597412,0.00000935
623.00478149,-0.00003945
624.93358887,0.00017691
626.86239624,0.00019893
628.79120361,0.00006292
630.72001099,0.00024633
632.64881836,0.00059071
634.57762573,0.00044024
636.50643311,0.00053155
638.43524048,0.00063529
640.36404785,0.00075376
642.29285522,0.00134047
644.22166260,0.00082215
646.15046997,0.00101389
648.07927734,0.00149747
650.00808472,0.00113157
651.93689209,0.00157369
653.86569946,0.00154195
655.79450684,0.00153575
657.72331421,0.00163540
659.65212158,0.00177768
661.58092896,0.00201497
663.50973633,0.00168904
665.43854370,0.00184577
667.36735107,0.00165983
669.29615845,0.00186723
671.22496582,0.00226232
673.15377319,0.00197995
675.08258057,0.00225826
677.01138794,0.00250557
678.94019531,0.00252511
680.86900269,0.00235997
682.79781006,0.00246359
684.72661743,0.00264279
686.65542480,0.00240142
688.58423218,0.00233311
690.51303955,0.00242745
692.44184692,0.00258464
694.37065430,0.00244375
696.29946167,0.00288962
698.22826904,0.00381100
700.15707642,0.00404937
702.08588379,0.00397883
704.01469116,0.00353110
705.94349854,0.00300524
707.87230591,0.00262534
709.80111328,0.00212655
711.72992065,0.00162374
713.65872803,0.00113381
715.58753540,0.00076670
717.51634277,0.00037178
719.44515015,0.00026987
721.37395752,0.00047752
723.30276489,0.00021882
725.23157227,0.00026919
727.16037964,0.00036904
729.08918701,-0.00007829
731.01799438,0.00011537
732.94680176,0.00041425
734.87560913,0.00031400
736.80441650,0.00026697
738.73322388,0.00023014
740.66203125,0.00002398
742.59083862,0.00012080
744.51964600,0.00043389
746.44845337,0.00023778
748.37726074,0.00032344
750.30606812,0.00043131
752.23487549,0.00029449
754.16368286,0.00047196
756.09249023,0.00041802
758.02129761,0.00035677
759.95010498,0.00042743
761.87891235,0.00034285
763.80771973,0.00022405
765.73652710,0.00040196
767.66533447,0.00030409
769.59414185,0.00011168
771.52294922,0.00074295
773.45175659,0.00051128
775.38056396,0.00034257
777.30937134,0.00052859
779.23817871,0.00030034
781.16698608,0.00086127
783.09579346,0.00058164
785.02460083,0.00025314
786.95340820,0.00028685
788.88221558,0.00043195
790.81102295,0.00079583
792.73983032,0.00041920
794.66863770,0.00056366
796.59744507,0.00047105
798.52625244,0.00072568
800.45505981,0.00112716
802.38386719,0.00074511
804.31267456,0.00083106
806.24148193,0.00056099
808.17028931,0.00049529
810.09909668,0.00055081
812.02790405,0.00052287
813.95671143,0.00059248
815.88551880,0.00026612
817.81432617,0.00038692
819.74313354,0.00052002
821.67194092,0.00041106
823.60074829,0.00042558
825.52955566,0.00069657
827.45836304,0.00079639
829.38717041,0.00061381
831.31597778,0.00084489
833.24478516,0.00111762
835.17359253,0.00124540
837.10239990,0.00128557
839.03120728,0.00119850
840.96001465,0.00124310
842.88882202,0.00134726
844.81762939,0.00108772
846.74643677,0.00092663
848.67524414,0.00095926
850.60405151,0.00084563
852.53285889,0.00082304
854.46166626,0.00083898
856.39047363,0.00095212
858.31928101,0.00070069
860.24808838,0.00063548
862.17689575,0.00051274
864.10570313,0.00026938
866.03451050,0.00064547
867.96331787,0.00047229
869.89212524,0.00045663
871.82093262,0.00046426
873.74973999,0.00036679
875.67854736,0.00060158
877.60735474,0.00031135
879.53616211,0.00026916
881.46496948,0.00019398
883.39377686,0.00022858
885.32258423,0.00060918
887.25139160,0.00054465
889.18019897,0.00045785
891.10900635,0.00055310
893.03781372,0.00048462
894.96662109,0.00034287
896.89542847,0.00061294
898.82423584,0.00050574
900.75304321,0.00035804
902.68185059,0.00061154
904.61065796,0.00043354
906.53946533,0.00029373
908.46827271,0.00025687
910.39708008,0.00041846
912.32588745,0.00059690
914.25469482,0.00072237
916.18350220,0.00086735
918.11230957,0.00072757
920.04111694,0.00079826
921.96992432,0.00088299
923.89873169,0.00093269
925.82753906,0.00092200
927.75634644,0.00110818
929.68515381,0.00146963
931.61396118,0.00152447
933.54276855,0.00158342
935.47157593,0.00158017
937.40038330,0.00163483
939.32919067,0.00176999
941.25799805,0.00194771
943.18680542,0.00195248
945.11561279,0.00177840
947.04442017,0.00184110
948.97322754,0.00207481
950.90203491,0.00198459
952.83084229,0.00149746
954.75964966,0.00163925
956.68845703,0.00179368
958.61726440,0.00161119
960.54607178,0.00194022
962.47487915,0.00217417
964.40368652,0.00186097
966.33249390,0.00180794
968.26130127,0.00215800
970.19010864,0.00198338
972.11891602,0.00205693
974.04772339,0.00218777
975.97653076,0.00233023
977.90533813,0.00281719
979.83414551,0.00262825
981.76295288,0.00305594
983.69176025,0.00356626
985.62056763,0.00362608
987.54937500,0.00409663
989.47818237,0.00446911
991.40698975,0.00488020
993.33579712,0.00517239
995.26460449,0.00571462
997.19341187,0.00632933
999.12221924,0.00689701
1001.05102661,0.00741955
1002.97983398,0.00785353
1004.90864136,0.00862964
1006.83744873,0.00882267
1008.76625610,0.00908767
1010.69506348,0.00978004
1012.62387085,0.01024162
1014.55267822,0.01082830
1016.48148560,0.01147677
1018.41029297,0.01197572
1020.33910034,0.01225143
1022.26790771,0.01277732
1024.19671509,0.01328374
1026.12552246,0.01368774
1028.05432983,0.01420292
1029.98313721,0.01447725
1031.91194458,0.01501139
1033.84075195,0.01536607
1035.76955933,0.01539130
1037.69836670,0.01572245
1039.62717407,0.01562884
1041.55598145,0.01530311
1043.48478882,0.01524575
1045.41359619,0.01523840
1047.34240356,0.01530851
1049.27121094,0.01478636
1051.20001831,0.01422790
1053.12882568,0.01405947
1055.05763306,0.01367436
1056.98644043,0.01341515
1058.91524780,0.01302779
1060.84405518,0.01275634
1062.77286255,0.01244243
1064.70166992,0.01187368
1066.63047729,0.01145205
1068.55928467,0.01097807
1070.48809204,0.01067617
1072.41689941,0.01008849
1074.34570679,0.00954082
1076.27451416,0.00892012
1078.20332153,0.00846135
1080.13212891,0.00862058
1082.06093628,0.00792418
1083.98974365,0.00731630
1085.91855103,0.00707587
1087.84735840,0.00675915
1089.77616577,0.00657597
1091.70497314,0.00611696
1093.63378052,0.00600854
1095.56258789,0.00575178
1097.49139526,0.00549863
1099.42020264,0.00550108
1101.34901001,0.00527345
1103.27781738,0.00512290
1105.20662476,0.00498777
1107.13543213,0.00495656
1109.06423950,0.00479181
1110.99304687,0.00462351
1112.92185425,0.00467071
1114.85066162,0.00471485
1116.77946899,0.00488195
1118.70827637,0.00493165
1120.63708374,0.00478525
1122.56589111,0.00485015
1124.49469849,0.00494181
1126.42350586,0.00486618
1128.35231323,0.00500651
1130.28112061,0.00500587
1132.20992798,0.00501878
1134.13873535,0.00532191
1136.06754272,0.00556553
1137.99635010,0.00591977
1139.92515747,0.00608686
1141.85396484,0.00634248
1143.78277222,0.00691712
1145.71157959,0.00727723
1147.64038696,0.00759702
1149.56919434,0.00801882
1151.49800171,0.00841931
1153.42680908,0.00884551
1155.35561646,0.00918831
1157.28442383,0.00951460
1159.21323120,0.00997936
1161.14203857,0.01016218
1163.07084595,0.01054126
1164.99965332,0.01104576
1166.92846069,0.01116052
1168.85726807,0.01164931
1170.78607544,0.01218859
1172.71488281,0.01268191
1174.64369019,0.01311717
1176.57249756,0.01351479
1178.50130493,0.01408496
1180.43011230,0.01428077
1182.35891968,0.01488555
1184.28772705,0.01578887
1186.21653442,0.01642994
1188.14534180,0.01701859
1190.07414917,0.01763907
1192.00295654,0.01855863
1193.93176392,0.01931968
1195.86057129,0.02022810
1197.78937866,0.02110781
1199.71818604,0.02171600
1201.64699341,0.02281513
1203.57580078,0.02382359
1205.50460815,0.02456882
1207.43341553,0.02541157
1209.36222290,0.02622499
1211.29103027,0.02699482
1213.21983765,0.02775810
1215.14864502,0.02848533
1217.07745239,0.02901651
1219.00625977,0.02945815
1220.93506714,0.02984687
1222.86387451,0.03019479
1224.79268188,0.03045361
1226.72148926,0.03067867
1228.65029663,0.03077459
1230.57910400,0.03073242
1232.50791138,0.03092873
1234.43671875,0.03079974
1236.36552612,0.03080669
1238.29433350,0.03099999
1240.22314087,0.03059572
1242.15194824,0.03054435
1244.08075562,0.03031052
1246.00956299,0.02992650
1247.93837036,0.02994729
1249.86717773,0.02959450
1251.79598511,0.02946038
1253.72479248,0.02936016
1255.65359985,0.02891353
1257.58240723,0.02833784
1259.51121460,0.02789688
1261.44002197,0.02766428
1263.36882935,0.02708615
1265.29763672,0.02664486
1267.22644409,0.02645381
1269.15525146,0.02609479
1271.08405884,0.02560194
1273.01286621,0.02531750
1274.94167358,0.02488476
1276.87048096,0.02421031
1278.79928833,0.02381235
1280.72809570,0.02319587
1282.65690308,0.02284409
1284.58571045,0.02245079
1286.51451782,0.02197241
1288.44332520,0.02182240
1290.37213257,0.02132327
1292.30093994,0.02126447
1294.22974731,0.02109956
1296.15855469,0.02077334
1298.08736206,0.02082852
1300.01616943,0.02067467
1301.94497681,0.02065253
1303.87378418,0.02091930
1305.80259155,0.02130019
1307.73139893,0.02126159
1309.66020630,0.02167241
1311.58901367,0.02229931
1313.51782104,0.02246805
1315.44662842,0.02311052
1317.37543579,0.02345305
1319.30424316,0.02392699
1321.23305054,0.02493660
1323.16185791,0.02568882
1325.09066528,0.02616656
1327.01947266,0.02688006
1328.94828003,0.02772445
1330.87708740,0.02816331
1332.80589478,0.02888905
1334.73470215,0.02926251
1336.66350952,0.02951435
1338.59231689,0.02954395
1340.52112427,0.02952828
1342.44993164,0.03084665
1344.37873901,0.03107084
1346.30754639,0.03092602
1348.23635376,0.03114380
1350.16516113,0.03057802
1352.09396851,0.03061167
1354.02277588,0.03032345
1355.95158325,0.03004454
1357.88039062,0.02986663
1359.80919800,0.02917892
1361.73800537,0.02808874
1363.66681274,0.02753348
1365.59562012,0.02872251
1367.52442749,0.02829542
1369.45323486,0.02781932
1371.38204224,0.02826353
1373.31084961,0.02699751
1375.23965698,0.02705631
1377.16846436,0.02764405
1379.09727173,0.02756855
1381.02607910,0.02746213
1382.95488647,0.02735273
1384.88369385,0.02740831
1386.81250122,0.02623271
1388.74130859,0.02662075
1390.67011597,0.02860069
1392.59892334,0.02775685
1394.52773071,0.02613864
1396.45653809,0.02736760
1398.38534546,0.02721325
1400.31415283,0.02708223
1402.24296021,0.02916170
1404.17176758,0.02756508
1406.10057495,0.02773552
1408.02938232,0.02883046
1409.95818970,0.02770460
1411.88699707,0.02827310
1413.81580444,0.02732554
1415.74461182,0.02751933
1417.67341919,0.02498414
1419.60222656,0.02260466
1421.53103394,0.02568711
1423.45984131,0.02477668
1425.38864868,0.02418248
1427.31745605,0.02444803
1429.24626343,0.02254509
1431.17507080,0.02207152
1433.10387817,0.02215339
1435.03268555,0.02032552
1436.96149292,0.01756571
1438.89030029,0.01939866
1440.81910767,0.01985938
1442.74791504,0.01864126
1444.67672241,0.01930176
1446.60552979,0.01783531
1448.53433716,0.01833864
1450.46314453,0.01881345
1452.39195190,0.01907269
1454.32075928,0.01967806
1456.24956665,0.01645973
1458.17837402,0.01736977
1460.10718140,0.02243438
1462.03598877,0.02382139
1463.96479614,0.02377317
1465.89360352,0.02459715
1467.82241089,0.02796554
1469.75121826,0.02983870
1471.68002563,0.02681459
1473.60883301,0.02826433
1475.53764038,0.03180711
1477.46644775,0.03408489
1479.39525513,0.03731905
1481.32406250,0.03786443
1483.25286987,0.04005834
1485.18167725,0.04112905
1487.11048462,0.04063138
1489.03929199,0.04054812
1490.96809937,0.04064638
1492.89690674,0.04687349
1494.82571411,0.04561362
1496.75452148,0.04139484
1498.68332886,0.04666151
1500.61213623,0.04770633
1502.54094360,0.05108442
1504.46975098,0.04800642
1506.39855835,0.03559940
1508.32736572,0.04342967
1510.25617310,0.04995448
1512.18498047,0.04846857
1514.11378784,0.05229557
1516.04259521,0.04723988
1517.97140259,0.04915972
1519.90020996,0.04720825
1521.82901733,0.04142314
1523.75782471,0.05002176
1525.68663208,0.04888487
1527.61543945,0.04867243
1529.54424683,0.05337832
1531.47305420,0.05137607
1533.40186157,0.04726913
1535.33066895,0.04996838
1537.25947632,0.05268797
1539.18828369,0.03816754
1541.11709106,0.04031584
1543.04589844,0.04746309
1544.97470581,0.04549281
1546.90351318,0.05319801
1548.83232056,0.04959288
1550.76112793,0.05128659
1552.68993530,0.05058739
1554.61874268,0.04604933
1556.54755005,0.04893805
1558.47635742,0.03493820
1560.40516479,0.03787049
1562.33397217,0.05252264
1564.26277954,0.04953841
1566.19158691,0.05068254
1568.12039429,0.04984213
1570.04920166,0.04459209
1571.97800903,0.05084956
1573.90681641,0.05091809
1575.83562378,0.04081218
1577.76443115,0.04580123
1579.69323853,0.05123877
1581.62204590,0.04907231
1583.55085327,0.04996809
1585.47966064,0.04889183
1587.40846802,0.04922070
1589.33727539,0.04880738
1591.26608276,0.04844264
1593.19489014,0.04823184
1595.12369751,0.04778522
1597.05250488,0.04810493
1598.98131226,0.04762041
1600.91011963,0.04794422
1602.83892700,0.04681301
1604.76773437,0.04758454
1606.69654175,0.04681277
1608.62534912,0.04661201
1610.55415649,0.04643387
1612.48296387,0.04664724
1614.41177124,0.04735367
1616.34057861,0.03883284
1618.26938599,0.04226112
1620.19819336,0.04896091
1622.12700073,0.04367068
1624.05580811,0.04425906
1625.98461548,0.04659150
1627.91342285,0.04665092
1629.84223022,0.04661737
1631.77103760,0.05005908
1633.69984497,0.04658118
1635.62865234,0.03946707
1637.55745972,0.04614875
1639.48626709,0.05079458
1641.41507446,0.05020897
1643.34388184,0.05194690
1645.27268921,0.04748831
1647.20149658,0.04267839
1649.13030396,0.05328456
1651.05911133,0.05052846
1652.98791870,0.03373674
1654.91672607,0.04621433
1656.84553345,0.05761194
1658.77434082,0.05584618
1660.70314819,0.05780426
1662.63195557,0.05324207
1664.56076294,0.05673909
1666.48957031,0.06117487
1668.41837769,0.05418691
1670.34718506,0.05360590
1672.27599243,0.06071590
1674.20479980,0.05639927
1676.13360718,0.05512150
1678.06241455,0.06323442
1679.99122192,0.06142014
1681.92002930,0.06118790
1683.84883667,0.05034642
1685.77764404,0.05085233
1687.70645142,0.06857035
1689.63525879,0.06004892
1691.56406616,0.06667884
1693.49287354,0.06770755
1695.42168091,0.05056037
1697.35048828,0.06207345
1699.27929565,0.05476867
1701.20810303,0.05043191
1703.13691040,0.06748779
1705.06571777,0.06201803
1706.99452515,0.06313357
1708.92333252,0.06821609
1710.85213989,0.06578604
1712.78094727,0.06693552
1714.70975464,0.06242582
1716.63856201,0.05632420
1718.56736938,0.05552965
1720.49617676,0.06582028
1722.42498413,0.06760679
1724.35379150,0.06307171
1726.28259888,0.06853142
1728.21140625,0.06329240
1730.14021362,0.06410389
1732.06902100,0.06193927
1733.99782837,0.04808768
1735.92663574,0.05949136
1737.85544312,0.06498139
1739.78425049,0.05825757
1741.71305786,0.06310407
1743.64186523,0.06390734
1745.57067261,0.06404187
1747.49947998,0.06439845
1749.42828735,0.06150295
1751.35709473,0.05914523
1753.28590210,0.06533279
1755.21470947,0.06755356
1757.14351685,0.06199425
1759.07232422,0.06794759
1761.00113159,0.06357247
1762.92993896,0.06166659
1764.85874634,0.06998679
1766.78755371,0.06327944
1768.71636108,0.06382811
1770.64516846,0.06297463
1772.57397583,0.05708688
1774.50278320,0.06320214
1776.43159058,0.06622870
1778.36039795,0.06542936
1780.28920532,0.06454517
1782.21801270,0.06503963
1784.14682007,0.06483823
1786.07562744,0.06359960
1788.00443481,0.06673923
1789.93324219,0.06471724
1791.86204956,0.05885033
1793.79085693,0.06129416
1795.71966431,0.06521322
1797.64847168,0.06417418
1799.57727905,0.06321510
1801.50608643,0.06238502
1803.43489380,0.06415115
1805.36370117,0.06526551
1807.29250854,0.06437376
1809.22131592,0.06426308
1811.15012329,0.06273061
1813.07893066,0.06462473
1815.00773804,0.06454860
1816.93654541,0.06387168
1818.86535278,0.06429335
1820.79416016,0.06384377
1822.72296753,0.06472896
1824.65177490,0.06070800
1826.58058228,0.06255990
1828.50938965,0.06245750
1830.43819702,0.05897458
1832.36700439,0.06371841
1834.29581177,0.06315318
1836.22461914,0.06308444
1838.15342651,0.06254302
1840.08223389,0.06282791
1842.01104126,0.06283000
1843.93984863,0.05607869
1845.86865601,0.05960139
1847.79746338,0.06255791
1849.72627075,0.06116319
1851.65507812,0.06272537
1853.58388550,0.06158175
1855.51269287,0.06202493
1857.44150024,0.06144720
1859.37030762,0.06106678
1861.29911499,0.06117529
1863.22792236,0.06047143
1865.15672974,0.06108980
1867.08553711,0.05891499
1869.01434448,0.05665105
1870.94315186,0.05877125
1872.87195923,0.06067904
1874.80076660,0.05958391
1876.72957397,0.05983473
1878.65838135,0.05964685
1880.58718872,0.05920303
1882.51599609,0.05955512
1884.44480347,0.05860589
1886.37361084,0.05923615
1888.30241821,0.05781436
1890.23122559,0.05685858
1892.16003296,0.05878692
1894.08884033,0.05784091
1896.01764771,0.05754852
1897.94645508,0.05806616
1899.87526245,0.05771110
1901.80406982,0.05762727
1903.73287720,0.05731305
1905.66168457,0.05745674
1907.59049194,0.05669245
1909.51929932,0.05645272
1911.44810669,0.05664659
1913.37691406,0.05666662
1915.30572144,0.05695757
1917.23452881,0.05433390
1919.16333618,0.05458413
1921.09214355,0.05643136
1923.02095093,0.05464620
1924.94975830,0.05572884
1926.87856567,0.05601633
1928.80737305,0.05530828
1930.73618042,0.05601509
1932.66498779,0.05519164
1934.59379517,0.05553494
1936.52260254,0.05498654
1938.45140991,0.05507148
1940.38021729,0.05505221
1942.30902466,0.05320089
1944.23783203,0.05411097
1946.16663940,0.05464270
1948.09544678,0.05430806
1950.02425415,0.05460040
1951.95306152,0.05434610
1953.88186890,0.05415497
1955.81067627,0.05413166
1957.73948364,0.05411024
1959.66829102,0.05385719
1961.59709839,0.05385520
1963.52590576,0.05378904
1965.45471313,0.05336538
1967.38352051,0.05278953
1969.31232788,0.05304521
1971.24113525,0.05328798
1973.16994263,0.05306681
1975.09875000,0.05320266
1977.02755737,0.05268389
1978.95636475,0.05283133
1980.88517212,0.05263673
1982.81397949,0.05222335
1984.74278687,0.05250893
1986.67159424,0.05201333
1988.60040161,0.05209679
1990.52920898,0.05151840
1992.45801636,0.05084798
1994.38682373,0.05149253
1996.31563110,0.05160090
1998.24443848,0.05135071
2000.17324585,0.05117550
2002.10205322,0.05106614
2004.03086060,0.05089739
2005.95966797,0.05062303
2007.88847534,0.05036074
2009.81728271,0.05024035
2011.74609009,0.05013186
2013.67489746,0.05010801
2015.60370483,0.04972159
2017.53251221,0.04917051
2019.46131958,0.04944652
2021.39012695,0.04936260
2023.31893433,0.04922884
2025.24774170,0.04914299
2027.17654907,0.04885132
2029.10535645,0.04879632
2031.03416382,0.04843764
2032.96297119,0.04847168
2034.89177856,0.04839740
2036.82058594,0.04820235
2038.74939331,0.04805326
2040.67820068,0.04772881
2042.60700806,0.04788834
2044.53581543,0.04778259
2046.46462280,0.04749149
2048.39343018,0.04734882
2050.32223755,0.04725724
2052.25104492,0.04707559
2054.17985229,0.04683955
2056.10865967,0.04681944
2058.03746704,0.04663709
2059.96627441,0.04654309
2061.89508179,0.04655647
2063.82388916,0.04629947
2065.75269653,0.04594694
2067.68150391,0.04595845
2069.61031128,0.04604751
2071.53911865,0.04586745
2073.46792603,0.04570674
2075.39673340,0.04550432
2077.32554077,0.04542280
2079.25434814,0.04540917
2081.18315552,0.04532053
2083.11196289,0.04526018
2085.04077026,0.04511458
2086.96957764,0.04493128
2088.89838501,0.04478582
2090.82719238,0.04462032
2092.75599976,0.04464805
2094.68480713,0.04467518
2096.61361450,0.04443102
2098.54242187,0.04439469
2100.47122925,0.04425794
2102.40003662,0.04415291
2104.32884399,0.04418196
2106.25765137,0.04392572
2108.18645874,0.04397767
2110.11526611,0.04400564
2112.04407349,0.04375764
2113.97288086,0.04369981
2115.90168823,0.04374135
2117.83049561,0.04351987
2119.75930298,0.04331277
2121.68811035,0.04331736
2123.61691772,0.04324843
2125.54572510,0.04337955
2127.47453247,0.04326916
2129.40333984,0.04310443
2131.33214722,0.04312516
2133.26095459,0.04294476
2135.18976196,0.04290269
2137.11856934,0.04284422
2139.04737671,0.04278589
2140.97618408,0.04271867
2142.90499146,0.04270368
2144.83379883,0.04263387
2146.76260620,0.04246297
2148.69141357,0.04248933
2150.62022095,0.04241069
2152.54902832,0.04236188
2154.47783569,0.04231287
2156.40664307,0.04232621
2158.33545044,0.04232028
2160.26425781,0.04213072
2162.19306519,0.04208206
2164.12187256,0.04202001
2166.05067993,0.04201803
2167.97948730,0.04202168
2169.90829468,0.04192314
2171.83710205,0.04177546
2173.76590942,0.04170547
2175.69471680,0.04183453
2177.62352417,0.04184666
2179.55233154,0.04178594
2181.48113892,0.04177268
2183.40994629,0.04163933
2185.33875366,0.04150783
2187.26756104,0.04142814
2189.19636841,0.04135935
2191.12517578,0.04143613
2193.05398315,0.04129007
2194.98279053,0.04118052
2196.91159790,0.04125033
2198.84040527,0.04115256
2200.76921265,0.04121989
2202.69802002,0.04115640
2204.62682739,0.04110606
2206.55563477,0.04098472
2208.48444214,0.04083807
2210.41324951,0.04098050
2212.34205688,0.04080278
2214.27086426,0.04069424
2216.19967163,0.04072475
2218.12847900,0.04077040
2220.05728638,0.04062215
2221.98609375,0.04035700
2223.91490112,0.04051545
2225.84370850,0.04052167
2227.77251587,0.04030552
2229.70132324,0.04015788
2231.63013062,0.04016239
2233.55893799,0.04011332
2235.48774536,0.04003062
2237.41655273,0.03988031
2239.34536011,0.03984822
2241.27416748,0.04004457
2243.20297485,0.03976327
2245.13178223,0.03957908
2247.06058960,0.03960676
2248.98939697,0.03965024
2250.91820435,0.03948376
2252.84701172,0.03932005
2254.77581909,0.03950742
2256.70462646,0.03930474
2258.63343384,0.03934887
2260.56224121,0.03919066
2262.49104858,0.03899534
2264.41985596,0.03910040
2266.34866333,0.03880177
2268.27747070,0.03892005
2270.20627808,0.03889727
2272.13508545,0.03871896
2274.06389282,0.03874930
2275.99270020,0.03870662
2277.92150757,0.03860708
2279.85031494,0.03848175
2281.77912231,0.03855346
2283.70792969,0.03850161
2285.63673706,0.03842691
2287.56554443,0.03831970
2289.49435181,0.03827880
2291.42315918,0.03804772
2293.35196655,0.03780257
2295.28077393,0.03777044
2297.20958130,0.03760504
2299.13838867,0.03760926
2301.06719604,0.03730035
2302.99600342,0.03718068
2304.92481079,0.03703978
2306.85361816,0.03666257
2308.78242554,0.03652105
2310.71123291,0.03599904
2312.64004028,0.03567601
2314.56884766,0.03535325
2316.49765503,0.03485150
2318.42646240,0.03440360
2320.35526978,0.03392138
2322.28407715,0.03338286
2324.21288452,0.03296057
2326.14169189,0.03265546
2328.07049927,0.03199370
2329.99930664,0.03162133
2331.92811401,0.03129131
2333.85692139,0.03125826
2335.78572876,0.03117824
2337.71453613,0.03084102
2339.64334351,0.03104917
2341.57215088,0.03104556
2343.50095825,0.03156636
2345.42976562,0.03226379
2347.35857300,0.03354409
2349.28738037,0.03466945
2351.21618774,0.03338175
2353.14499512,0.03169225
2355.07380249,0.03032360
2357.00260986,0.02938705
2358.93141724,0.02884068
2360.86022461,0.02846788
2362.78903198,0.02855085
2364.71783936,0.02848293
2366.64664673,0.02882856
2368.57545410,0.02956123
2370.50426147,0.03043660
2372.43306885,0.03118271
2374.36187622,0.03203347
2376.29068359,0.03300983
2378.21949097,0.03367656
2380.14829834,0.03433883
2382.07710571,0.03466617
2384.00591309,0.03490077
2385.93472046,0.03497262
2387.86352783,0.03499200
2389.79233521,0.03498738
2391.72114258,0.03487576
2393.64994995,0.03487603
2395.57875732,0.03472672
2397.50756470,0.03474771
2399.43637207,0.03458542
2401.36517944,0.03460614
2403.29398682,0.03469254
2405.22279419,0.03441974
2407.15160156,0.03434351
2409.08040894,0.03426866
2411.00921631,0.03431823
2412.93802368,0.03428237
2414.86683105,0.03417258
2416.79563843,0.03395517
2418.72444580,0.03391086
2420.65325317,0.03397844
2422.58206055,0.03376657
2424.51086792,0.03384627
2426.43967529,0.03370798
2428.36848267,0.03359354
2430.29729004,0.03356435
2432.22609741,0.03354603
2434.15490479,0.03366476
2436.08371216,0.03340401
2438.01251953,0.03326695
2439.94132690,0.03316527
2441.87013428,0.03313338
2443.79894165,0.03305165
2445.72774902,0.03296342
2447.65655640,0.03309976
2449.58536377,0.03304310
2451.51417114,0.03296075
2453.44297852,0.03276957
2455.37178589,0.03270229
2457.30059326,0.03259618
2459.22940063,0.03252975
2461.15820801,0.03268553
2463.08701538,0.03255263
2465.01582275,0.03246862
2466.94463013,0.03240778
2468.87343750,0.03229005
2470.80224487,0.03225284
2472.73105225,0.03222497
2474.65985962,0.03210061
2476.58866699,0.03196424
2478.51747437,0.03195236
2480.44628174,0.03196030
2482.37508911,0.03192244
2484.30389648,0.03172731
2486.23270386,0.03162860
2488.16151123,0.03158021
2490.09031860,0.03155937
2492.01912598,0.03144553
2493.94793335,0.03137588
2495.87674072,0.03148246
2497.80554810,0.03122259
2499.73435547,0.03124001
2501.66316284,0.03125443
2503.59197021,0.03101417
2505.52077759,0.03108941
2507.44958496,0.03097705
2509.37839233,0.03092657
2511.30719971,0.03094369
2513.23600708,0.03082773
2515.16481445,0.03079463
2517.09362183,0.03073457
2519.02242920,0.03066803
2520.95123657,0.03056230
2522.88004395,0.03043732
2524.80885132,0.03044081
2526.73765869,0.03041844
2528.66646606,0.03022244
2530.59527344,0.03019956
2532.52408081,0.03022385
2534.45288818,0.03012999
2536.38169556,0.03004360
2538.31050293,0.02990696
2540.23931030,0.02976769
2542.16811768,0.02965499
2544.09692505,0.02974280
2546.02573242,0.02970963
2547.95453979,0.02956158
2549.88334717,0.02961081
2551.81215454,0.02954702
2553.74096191,0.02946460
2555.66976929,0.02941997
2557.59857666,0.02936654
2559.52738403,0.02934239
2561.45619141,0.02915622
2563.38499878,0.02896181
2565.31380615,0.02899237
2567.24261353,0.02900204
2569.17142090,0.02897337
2571.10022827,0.02887586
2573.02903564,0.02869837
2574.95784302,0.02874830
2576.88665039,0.02868509
2578.81545776,0.02857703
2580.74426514,0.02853943
2582.67307251,0.02839564
2584.60187988,0.02838207
2586.53068726,0.02831234
2588.45949463,0.02819756
2590.38830200,0.02816261
2592.31710937,0.02813712
2594.24591675,0.02803754
2596.17472412,0.02796162
2598.10353149,0.02793987
2600.03233887,0.02788754
2601.96114624,0.02792005
2603.88995361,0.02779134
2605.81876099,0.02762277
2607.74756836,0.02752864
2609.67637573,0.02746579
2611.60518311,0.02748086
2613.53399048,0.02736353
2615.46279785,0.02718802
2617.39160522,0.02716086
2619.32041260,0.02717278
2621.24921997,0.02697014
2623.17802734,0.02694120
2625.10683472,0.02691548
2627.03564209,0.02682463
2628.96444946,0.02695465
2630.89325684,0.02685105
2632.82206421,0.02677306
2634.75087158,0.02663955
2636.67967895,0.02649403
2638.60848633,0.02648151
2640.53729370,0.02639100
2642.46610107,0.02639460
2644.39490845,0.02631099
2646.32371582,0.02622082
2648.25252319,0.02603455
2650.18133057,0.02606678
2652.11013794,0.02615376
2654.03894531,0.02594236
2655.96775269,0.02589431
2657.89656006,0.02578307
2659.82536743,0.02583056
2661.75417480,0.02574625
2663.68298218,0.02556575
2665.61178955,0.02564939
2667.54059692,0.02544304
2669.46940430,0.02533801
2671.39821167,0.02533974
2673.32701904,0.02521319
2675.25582642,0.02515958
2677.18463379,0.02520165
2679.11344116,0.02517649
2681.04224854,0.02505710
2682.97105591,0.02495504
2684.89986328,0.02476312
2686.82867065,0.02475875
2688.75747803,0.02471429
2690.68628540,0.02462192
2692.61509277,0.02468119
2694.54390015,0.02455145
2696.47270752,0.02447830
2698.40151489,0.02438087
2700.33032227,0.02429931
2702.25912964,0.02436159
2704.18793701,0.02420525
2706.11674438,0.02414764
2708.04555176,0.02411325
2709.97435913,0.02392033
2711.90316650,0.02392382
2713.83197388,0.02378309
2715.76078125,0.02367553
2717.68958862,0.02371253
2719.61839600,0.02355017
2721.54720337,0.02352461
2723.47601074,0.02341688
2725.40481812,0.02333777
2727.33362549,0.02330490
2729.26243286,0.02315265
2731.19124023,0.02318628
2733.12004761,0.02312100
2735.04885498,0.02309459
2736.97766235,0.02296834
2738.90646973,0.02286155
2740.83527710,0.02295708
2742.76408447,0.02284728
2744.69289185,0.02279064
2746.62169922,0.02263940
2748.55050659,0.02255423
2750.47931396,0.02256473
2752.40812134,0.02241308
2754.33692871,0.02234730
2756.26573608,0.02223840
2758.19454346,0.02218491
2760.12335083,0.02222872
2762.05215820,0.02216171
2763.98096558,0.02200757
2765.90977295,0.02196325
2767.83858032,0.02185065
2769.76738770,0.02170987
2771.69619507,0.02180789
2773.62500244,0.02177599
2775.55380981,0.02165756
2777.48261719,0.02163124
2779.41142456,0.02159158
2781.34023193,0.02137842
2783.26903931,0.02127391
2785.19784668,0.02132546
2787.12665405,0.02109723
2789.05546143,0.02101890
2790.98426880,0.02103523
2792.91307617,0.02093174
2794.84188354,0.02089182
2796.77069092,0.02082491
2798.69949829,0.02075101
2800.62830566,0.02066358
2802.55711304,0.02060266
2804.48592041,0.02045656
2806.41472778,0.02032219
2808.34353516,0.02028980
2810.27234253,0.02023924
2812.20114990,0.02020612
2814.12995728,0.02027289
2816.05876465,0.02021826
2817.98757202,0.01996845
2819.91637939,0.02000730
2821.84518677,0.01987893
2823.77399414,0.01962679
2825.70280151,0.01970205
2827.63160889,0.01963287
2829.56041626,0.01960986
2831.48922363,0.01952704
2833.41803101,0.01939005
2835.34683838,0.01939937
2837.27564575,0.01925645
2839.20445312,0.01923185
2841.13326050,0.01921385
2843.06206787,0.01903050
2844.99087524,0.01892509
2846.91968262,0.01875514
2848.84848999,0.01862501
2850.77729736,0.01865065
2852.70610474,0.01854595
2854.63491211,0.01845602
2856.56371948,0.01843236
2858.49252686,0.01828337
2860.42133423,0.01823388
2862.35014160,0.01828533
2864.27894897,0.01817796
2866.20775635,0.01801334
2868.13656372,0.01805279
2870.06537109,0.01799783
2871.99417847,0.01785791
2873.92298584,0.01789323
2875.85179321,0.01778428
2877.78060059,0.01777677
2879.70940796,0.01781196
2881.63821533,0.01761614
2883.56702270,0.01756782
2885.49583008,0.01753839
2887.42463745,0.01745389
2889.35344482,0.01735894
2891.28225220,0.01722215
2893.21105957,0.01727318
2895.13986694,0.01728015
2897.06867432,0.01708857
2898.99748169,0.01702403
2900.92628906,0.01702655
2902.85509644,0.01692183
2904.78390381,0.01683480
2906.71271118,0.01671111
2908.64151855,0.01654254
2910.57032593,0.01652407
2912.49913330,0.01645036
2914.42794067,0.01632866
2916.35674805,0.01628562
2918.28555542,0.01614909
2920.21436279,0.01619656
2922.14317017,0.01617796
2924.07197754,0.01605225
2926.00078491,0.01613451
2927.92959229,0.01601595
2929.85839966,0.01594187
2931.78720703,0.01589969
2933.71601440,0.01581733
2935.64482178,0.01579784
2937.57362915,0.01571282
2939.50243652,0.01575122
2941.43124390,0.01568489
2943.36005127,0.01570089
2945.28885864,0.01562280
2947.21766602,0.01549524
2949.14647339,0.01558322
2951.07528076,0.01541135
2953.00408813,0.01541151
2954.93289551,0.01538902
2956.86170288,0.01522311
2958.79051025,0.01526221
2960.71931763,0.01515666
2962.64812500,0.01503169
2964.57693237,0.01501629
2966.50573975,0.01493471
2968.43454712,0.01487407
2970.36335449,0.01502263
2972.29216187,0.01499336
2974.22096924,0.01490767
2976.14977661,0.01489956
2978.07858398,0.01479114
2980.00739136,0.01486112
2981.93619873,0.01485410
2983.86500610,0.01478131
2985.79381348,0.01466723
2987.72262085,0.01462565
2989.65142822,0.01462589
2991.58023560,0.01458200
2993.50904297,0.01466797
2995.43785034,0.01449612
2997.36665771,0.01442539
2999.29546509,0.01441443
3001.22427246,0.01434603
3003.15307983,0.01434971
3005.08188721,0.01425069
3007.01069458,0.01421321
3008.93950195,0.01411878
3010.86830933,0.01415047
3012.79711670,0.01405761
3014.72592407,0.01392034
3016.65473145,0.01389331
3018.58353882,0.01385027
3020.51234619,0.01391811
3022.44115356,0.01379119
3024.36996094,0.01373382
3026.29876831,0.01369469
3028.22757568,0.01371764
3030.15638306,0.01361861
3032.08519043,0.01347052
3034.01399780,0.01353186
3035.94280518,0.01338073
3037.87161255,0.01343331
3039.80041992,0.01331028
3041.72922729,0.01326421
3043.65803467,0.01327196
3045.58684204,0.01309334
3047.51564941,0.01326052
3049.44445679,0.01303088
3051.37326416,0.01295837
3053.30207153,0.01303380
3055.23087891,0.01288976
3057.15968628,0.01287475
3059.08849365,0.01288266
3061.01730103,0.01294767
3062.94610840,0.01272188
3064.87491577,0.01265849
3066.80372314,0.01269262
3068.73253052,0.01267598
3070.66133789,0.01263430
3072.59014526,0.01254350
3074.51895264,0.01255170
3076.44776001,0.01235892
3078.37656738,0.01243420
3080.30537476,0.01239510
3082.23418213,0.01228366
3084.16298950,0.01231285
3086.09179687,0.01222794
3088.02060425,0.01230694
3089.94941162,0.01216085
3091.87821899,0.01205787
3093.80702637,0.01203183
3095.73583374,0.01203972
3097.66464111,0.01204132
3099.59344849,0.01191981
3101.52225586,0.01188287
3103.45106323,0.01182820
3105.37987061,0.01195280
3107.30867798,0.01187375
3109.23748535,0.01175735
3111.16629272,0.01172701
3113.09510010,0.01165070
3115.02390747,0.01162428
3116.95271484,0.01147501
3118.88152222,0.01156583
3120.81032959,0.01157243
3122.73913696,0.01151945
3124.66794434,0.01140676
3126.59675171,0.01123660
3128.52555908,0.01134504
3130.45436645,0.01134737
3132.38317383,0.01133866
3134.31198120,0.01124955
3136.24078857,0.01119986
3138.16959595,0.01120718
3140.09840332,0.01112791
3142.02721069,0.01111855
3143.95601807,0.01110585
3145.88482544,0.01111744
3147.81363281,0.01101069
3149.74244019,0.01092494
3151.67124756,0.01091154
3153.60005493,0.01091126
3155.52886230,0.01077718
3157.45766968,0.01073936
3159.38647705,0.01090922
3161.31528442,0.01076440
3163.24409180,0.01071143
3165.17289917,0.01076330
3167.10170654,0.01072867
3169.03051392,0.01069896
3170.95932129,0.01061095
3172.88812866,0.01057825
3174.81693604,0.01055952
3176.74574341,0.01051507
3178.67455078,0.01046630
3180.60335815,0.01055205
3182.53216553,0.01050060
3184.46097290,0.01049501
3186.38978027,0.01051851
3188.31858765,0.01039419
3190.24739502,0.01045832
3192.17620239,0.01041520
3194.10500977,0.01039334
3196.03381714,0.01036741
3197.96262451,0.01037125
3199.89143188,0.01036584
3201.82023926,0.01029813
3203.74904663,0.01037805
3205.67785400,0.01032338
3207.60666138,0.01042051
3209.53546875,0.01038413
3211.46427612,0.01031665
3213.39308350,0.01036723
3215.32189087,0.01031594
3217.25069824,0.01036925
3219.17950562,0.01031869
3221.10831299,0.01044314
3223.03712036,0.01036575
3224.96592773,0.01028619
3226.89473511,0.01037949
3228.82354248,0.01030491
3230.75234985,0.01037894
3232.68115723,0.01027436
3234.60996460,0.01032036
3236.53877197,0.01034622
3238.46757935,0.01035594
3240.39638672,0.01050501
3242.32519409,0.01042314
3244.25400146,0.01049385
3246.18280884,0.01042686
3248.11161621,0.01041833
3250.04042358,0.01055504
3251.96923096,0.01049213
3253.89803833,0.01037871
3255.82684570,0.01044472
3257.75565308,0.01060891
3259.68446045,0.01049832
3261.61326782,0.01058718
3263.54207520,0.01069176
3265.47088257,0.01064126
3267.39968994,0.01066403
3269.32849731,0.01062449
3271.25730469,0.01068160
3273.18611206,0.01061647
3275.11491943,0.01060072
3277.04372681,0.01074216
3278.97253418,0.01079848
3280.90134155,0.01077937
3282.83014893,0.01074600
3284.75895630,0.01076063
3286.68776367,0.01076584
3288.61657104,0.01082732
3290.54537842,0.01080994
3292.47418579,0.01074371
3294.40299316,0.01078059
3296.33180054,0.01083814
3298.26060791,0.01087622
3300.18941528,0.01086385
3302.11822266,0.01082565
3304.04703003,0.01080541
3305.97583740,0.01084560
3307.90464478,0.01087753
3309.83345215,0.01087194
3311.76225952,0.01095833
3313.69106689,0.01103153
3315.61987427,0.01093781
3317.54868164,0.01095629
3319.47748901,0.01095296
3321.40629639,0.01097242
3323.33510376,0.01115887
3325.26391113,0.01101517
3327.19271851,0.01105679
3329.12152588,0.01121145
3331.05033325,0.01105320
3332.97914062,0.01114685
3334.90794800,0.01123822
3336.83675537,0.01113872
3338.76556274,0.01114976
3340.69437012,0.01121590
3342.62317749,0.01124988
3344.55198486,0.01134750
3346.48079224,0.01130646
3348.40959961,0.01124468
3350.33840698,0.01131041
3352.26721436,0.01137771
3354.19602173,0.01152417
3356.12482910,0.01144149
3358.05363647,0.01144969
3359.98244385,0.01147720
3361.91125122,0.01149120
3363.84005859,0.01163892
3365.76886597,0.01152075
3367.69767334,0.01163212
3369.62648071,0.01167800
3371.55528809,0.01163439
3373.48409546,0.01168369
3375.41290283,0.01173210
3377.34171020,0.01182579
3379.27051758,0.01173146
3381.19932495,0.01192375
3383.12813232,0.01186546
3385.05693970,0.01183387
3386.98574707,0.01213473
3388.91455444,0.01210267
3390.84336182,0.01214475
3392.77216919,0.01211721
3394.70097656,0.01206001
3396.62978394,0.01211256
3398.55859131,0.01227418
3400.48739868,0.01230858
3402.41620605,0.01221471
3404.34501343,0.01233854
3406.27382080,0.01246706
3408.20262817,0.01258917
3410.13143555,0.01249614
3412.06024292,0.01253966
3413.98905029,0.01265653
3415.91785767,0.01271379
3417.84666504,0.01278400
3419.77547241,0.01266893
3421.70427979,0.01282302
3423.63308716,0.01288866
3425.56189453,0.01293121
3427.49070190,0.01298495
3429.41950928,0.01301866
3431.34831665,0.01314124
3433.27712402,0.01307858
3435.20593140,0.01323024
3437.13473877,0.01327879
3439.06354614,0.01328977
3440.99235352,0.01328272
3442.92116089,0.01327653
3444.84996826,0.01342897
3446.77877563,0.01330921
3448.70758301,0.01350117
3450.63639038,0.01372632
3452.56519775,0.01365095
3454.49400513,0.01375382
3456.42281250,0.01385606
3458.35161987,0.01391636
3460.28042725,0.01395785
3462.20923462,0.01390979
3464.13804199,0.01392764
3466.06684937,0.01399459
3467.99565674,0.01401296
3469.92446411,0.01405796
3471.85327148,0.01409831
3473.78207886,0.01432088
3475.71088623,0.01440649
3477.63969360,0.01439166
3479.56850098,0.01447081
3481.49730835,0.01436082
3483.42611572,0.01449889
3485.35492310,0.01455008
3487.28373047,0.01455912
3489.21253784,0.01467503
3491.14134521,0.01469615
3493.07015259,0.01489572
3494.99895996,0.01491887
3496.92776733,0.01485642
3498.85657471,0.01490639
3500.78538208,0.01501591
3502.71418945,0.01486404
3504.64299683,0.01497326
3506.57180420,0.01538122
3508.50061157,0.01521710
3510.42941895,0.01520745
3512.35822632,0.01533171
3514.28703369,0.01549618
3516.21584106,0.01561598
3518.14464844,0.01551150
3520.07345581,0.01561830
3522.00226318,0.01557252
3523.93107056,0.01548762
3525.85987793,0.01555419
3527.78868530,0.01566676
3529.71749268,0.01575429
3531.64630005,0.01592305
3533.57510742,0.01600282
3535.50391479,0.01595936
3537.43272217,0.01607478
3539.36152954,0.01620780
3541.29033691,0.01635480
3543.21914429,0.01627384
3545.14795166,0.01600332
3547.07675903,0.01578202
3549.00556641,0.01630656
3550.93437378,0.01655253
3552.86318115,0.01614984
3554.79198853,0.01654609
3556.72079590,0.01654983
3558.64960327,0.01659033
3560.57841064,0.01660644
3562.50721802,0.01648566
3564.43602539,0.01672210
3566.36483276,0.01568842
3568.29364014,0.01551076
3570.22244751,0.01666473
3572.15125488,0.01697274
3574.08006226,0.01693338
3576.00886963,0.01704195
3577.93767700,0.01710096
3579.86648437,0.01709461
3581.79529175,0.01710784
3583.72409912,0.01732262
3585.65290649,0.01700238
3587.58171387,0.01566362
3589.51052124,0.01616064
3591.43932861,0.01748247
3593.36813599,0.01705218
3595.29694336,0.01684452
3597.22575073,0.01723425
3599.15455811,0.01744584
3601.08336548,0.01729161
3603.01217285,0.01755748
3604.94098022,0.01784863
3606.86978760,0.01727731
3608.79859497,0.01643912
3610.72740234,0.01682714
3612.65620972,0.01721078
3614.58501709,0.01677849
3616.51382446,0.01797859
3618.44263184,0.01666581
3620.37143921,0.01626328
3622.30024658,0.01829986
3624.22905395,0.01783725
3626.15786133,0.01870368
3628.08666870,0.01599091
3630.01547607,0.01483770
3631.94428345,0.01842579
3633.87309082,0.01795107
3635.80189819,0.01837796
3637.73070557,0.01872337
3639.65951294,0.01849203
3641.58832031,0.01881761
3643.51712769,0.01870093
3645.44593506,0.01889921
3647.37474243,0.01714945
3649.30354980,0.01581129
3651.23235718,0.01614498
3653.16116455,0.01909544
3655.08997192,0.01878279
3657.01877930,0.01710448
3658.94758667,0.01946896
3660.87639404,0.01920133
3662.80520142,0.01967966
3664.73400879,0.01944799
3666.66281616,0.01945827
3668.59162354,0.01903770
3670.52043091,0.01584005
3672.44923828,0.01903250
3674.37804565,0.01800424
3676.30685303,0.01522838
3678.23566040,0.01901748
3680.16446777,0.01946349
3682.09327515,0.01943000
3684.02208252,0.01990981
3685.95088989,0.01975292
3687.87969727,0.01782429
3689.80850464,0.01644885
3691.73731201,0.01872292
3693.66611938,0.01909279
3695.59492676,0.01948833
3697.52373413,0.01956164
3699.45254150,0.01934535
3701.38134888,0.01891013
3703.31015625,0.01831397
3705.23896362,0.01983238
3707.16777100,0.01891942
3709.09657837,0.01857749
3711.02538574,0.01742324
3712.95419312,0.01640343
3714.88300049,0.01884598
3716.81180786,0.01859004
3718.74061523,0.01877631
3720.66942261,0.01824786
3722.59822998,0.01780800
3724.52703735,0.01826195
3726.45584473,0.01697017
3728.38465210,0.01835129
3730.31345947,0.01797292
3732.24226685,0.01668006
3734.17107422,0.01626375
3736.09988159,0.01546721
3738.02868896,0.01620677
3739.95749634,0.01742407
3741.88630371,0.01820130
3743.81511108,0.01424892
3745.74391846,0.01370157
3747.67272583,0.01731949
3749.60153320,0.01486423
3751.53034058,0.01389387
3753.45914795,0.01573001
3755.38795532,0.01677666
3757.31676270,0.01732606
3759.24557007,0.01608533
3761.17437744,0.01660850
3763.10318481,0.01742241
3765.03199219,0.01629835
3766.96079956,0.01658867
3768.88960693,0.01637576
3770.81841431,0.01565787
3772.74722168,0.01680616
3774.67602905,0.01694782
3776.60483643,0.01686662
3778.53364380,0.01627969
3780.46245117,0.01577633
3782.39125854,0.01662755
3784.32006592,0.01619898
3786.24887329,0.01617419
3788.17768066,0.01638101
3790.10648804,0.01626692
3792.03529541,0.01614381
3793.96410278,0.01626245
3795.89291016,0.01543560
3797.82171753,0.01529745
3799.75052490,0.01580939
3801.67933228,0.01278524
3803.60813965,0.01486829
3805.53694702,0.01585520
3807.46575439,0.01319770
3809.39456177,0.01569334
3811.32336914,0.01537331
3813.25217651,0.01599409
3815.18098389,0.01438260
3817.10979126,0.01277121
3819.03859863,0.01581208
3820.96740601,0.01289342
3822.89621338,0.01367474
3824.82502075,0.01568904
3826.75382812,0.01423151
3828.68263550,0.01520344
3830.61144287,0.01449914
3832.54025024,0.01413749
3834.46905762,0.01441373
3836.39786499,0.01363727
3838.32667236,0.01243885
3840.25547974,0.01331532
3842.18428711,0.01430166
3844.11309448,0.01372993
3846.04190186,0.01462991
3847.97070923,0.01445719
3849.89951660,0.01451621
3851.82832397,0.01304112
3853.75713135,0.00999017
3855.68593872,0.01170606
3857.61474609,0.01441183
3859.54355347,0.01399039
3861.47236084,0.01381942
3863.40116821,0.01350613
3865.32997559,0.01259729
3867.25878296,0.01403246
3869.18759033,0.01280313
3871.11639770,0.01188803
3873.04520508,0.01397136
3874.97401245,0.01282819
3876.90281982,0.01377494
3878.83162720,0.01395619
3880.76043457,0.01214253
3882.68924194,0.01389077
3884.61804932,0.01293454
3886.54685669,0.01190531
3888.47566406,0.01376075
3890.40447144,0.01311195
3892.33327881,0.01228813
3894.26208618,0.01332049
3896.19089355,0.01358831
3898.11970093,0.01288594
3900.04850830,0.01222262
3901.97731567,0.01200476
3903.90612305,0.01182793
3905.83493042,0.01213645
3907.76373779,0.01314028
3909.69254517,0.01312334
3911.62135254,0.01299663
3913.55015991,0.01310521
3915.47896728,0.01276542
3917.40777466,0.01242572
3919.33658203,0.01228844
3921.26538940,0.01274429
3923.19419678,0.01263697
3925.12300415,0.01241316
3927.05181152,0.01254455
3928.98061890,0.01255847
3930.90942627,0.01238483
3932.83823364,0.01198344
3934.76704102,0.01242727
3936.69584839,0.01255818
3938.62465576,0.01238993
3940.55346313,0.01248980
3942.48227051,0.01212825
3944.41107788,0.01219737
3946.33988525,0.01227589
3948.26869263,0.01201375
3950.19750000,0.01201048
3952.12630737,0.01205054
3954.05511475,0.01205304
3955.98392212,0.01212816
3957.91272949,0.01208899
3959.84153687,0.01208031
3961.77034424,0.01193624
3963.69915161,0.01175062
3965.62795898,0.01191148
3967.55676636,0.01186154
3969.48557373,0.01188499
3971.41438110,0.01179091
3973.34318848,0.01163168
3975.27199585,0.01173336
3977.20080322,0.01164944
3979.12961060,0.01173370
3981.05841797,0.01166553
3982.98722534,0.01155929
3984.91603271,0.01159826
3986.84484009,0.01161197
3988.77364746,0.01154946
3990.70245483,0.01141811
3992.63126221,0.01152494
3994.56006958,0.01139578
3996.48887695,0.01130628
3998.41768433,0.01137113
4000.34649170,0.01134687
4002.27529907,0.01130064
4004.20410645,0.01127511
4006.13291382,0.01129911
4008.06172119,0.01110378
4009.99052856,0.01108379
4011.91933594,0.01109813
4013.84814331,0.01100349
4015.77695068,0.01102687
4017.70575806,0.01109476
4019.63456543,0.01104229
4021.56337280,0.01090832
4023.49218018,0.01091867
4025.42098755,0.01085247
4027.34979492,0.01089131
4029.27860229,0.01082074
4031.20740967,0.01077639
4033.13621704,0.01082200
4035.06502441,0.01067670
4036.99383179,0.01069253
4038.92263916,0.01060392
4040.85144653,0.01063815
4042.78025391,0.01065668
4044.70906128,0.01052289
4046.63786865,0.01053943
4048.56667603,0.01054089
4050.49548340,0.01048957
4052.42429077,0.01041472
4054.35309814,0.01046210
4056.28190552,0.01039728
4058.21071289,0.01041751
4060.13952026,0.01034567
4062.06832764,0.01029192
4063.99713501,0.01034766
4065.92594238,0.01016257
4067.85474976,0.01032448
4069.78355713,0.01028827
4071.71236450,0.01021410
4073.64117187,0.01022957
4075.56997925,0.01007081
4077.49878662,0.01015907
4079.42759399,0.01009775
4081.35640137,0.01015707
4083.28520874,0.01008433
4085.21401611,0.00990668
4087.14282349,0.00993727
4089.07163086,0.00986119
4091.00043823,0.00987240
4092.92924561,0.00986106
4094.85805298,0.00986969
4096.78686035,0.00985428
4098.71566772,0.00978810
4100.64447510,0.00971772
4102.57328247,0.00968152
4104.50208984,0.00969164
4106.43089722,0.00968922
4108.35970459,0.00967726
4110.28851196,0.00961613
4112.21731934,0.00964223
4114.14612671,0.00953411
4116.07493408,0.00953771
4118.00374145,0.00953436
4119.93254883,0.00941519
4121.86135620,0.00949434
4123.79016357,0.00940583
4125.71897095,0.00939208
4127.64777832,0.00940190
4129.57658569,0.00931635
4131.50539307,0.00928790
4133.43420044,0.00926806
4135.36300781,0.00922944
4137.29181519,0.00923870
4139.22062256,0.00931578
4141.14942993,0.00914202
4143.07823730,0.00918515
4145.00704468,0.00923202
4146.93585205,0.00909428
4148.86465942,0.00914620
4150.79346680,0.00902675
4152.72227417,0.00897519
4154.65108154,0.00899704
4156.57988892,0.00897024
4158.50869629,0.00897606
4160.43750366,0.00895887
4162.36631103,0.00893401
4164.29511841,0.00890994
4166.22392578,0.00885869
4168.15273315,0.00877094
4170.08154053,0.00887915
4172.01034790,0.00882614
4173.93915527,0.00869310
4175.86796265,0.00876998
4177.79677002,0.00872347
4179.72557739,0.00864367
4181.65438477,0.00864688
4183.58319214,0.00870270
4185.51199951,0.00869391
4187.44080688,0.00858937
4189.36961426,0.00856343
4191.29842163,0.00858154
4193.22722900,0.00849284
4195.15603638,0.00852204
4197.08484375,0.00846623
4199.01365112,0.00832765
4200.94245850,0.00849683
4202.87126587,0.00841391
4204.80007324,0.00833787
4206.72888062,0.00838921
4208.65768799,0.00831655
4210.58649536,0.00838631
4212.51530273,0.00832556
4214.44411011,0.00828373
4216.37291748,0.00827427
4218.30172485,0.00821972
4220.23053223,0.00814032
4222.15933960,0.00809479
4224.08814697,0.00810530
4226.01695435,0.00805186
4227.94576172,0.00813626
4229.87456909,0.00809246
4231.80337646,0.00799232
4233.73218384,0.00798127
4235.66099121,0.00804466
4237.58979858,0.00803575
4239.51860596,0.00788725
4241.44741333,0.00799678
4243.37622070,0.00797560
4245.30502808,0.00792733
4247.23383545,0.00792801
4249.16264282,0.00777020
4251.09145020,0.00785574
4253.02025757,0.00789265
4254.94906494,0.00778804
4256.87787231,0.00778408
4258.80667969,0.00768317
4260.73548706,0.00766761
4262.66429443,0.00779601
4264.59310181,0.00768041
4266.52190918,0.00760794
4268.45071655,0.00763621
4270.37952393,0.00762819
4272.30833130,0.00766158
4274.23713867,0.00759842
4276.16594604,0.00756306
4278.09475342,0.00750838
4280.02356079,0.00758953
4281.95236816,0.00754882
4283.88117554,0.00738967
4285.80998291,0.00741825
4287.73879028,0.00737802
4289.66759766,0.00742266
4291.59640503,0.00734480
4293.52521240,0.00739607
4295.45401978,0.00740985
4297.38282715,0.00727783
4299.31163452,0.00735608
4301.24044189,0.00723038
4303.16924927,0.00724032
4305.09805664,0.00720312
4307.02686401,0.00720137
4308.95567139,0.00727786
4310.88447876,0.00717625
4312.81328613,0.00717581
4314.74209351,0.00707733
4316.67090088,0.00719622
4318.59970825,0.00718507
4320.52851562,0.00706392
4322.45732300,0.00710823
4324.38613037,0.00703704
4326.31493774,0.00701332
4328.24374512,0.00696932
4330.17255249,0.00700941
4332.10135986,0.00695088
4334.03016724,0.00701300
4335.95897461,0.00699621
4337.88778198,0.00679801
4339.81658936,0.00690778
4341.74539673,0.00688156
4343.67420410,0.00687066
4345.60301147,0.00683426
4347.53181885,0.00678046
4349.46062622,0.00683616
4351.38943359,0.00681321
4353.31824097,0.00679500
4355.24704834,0.00671100
4357.17585571,0.00673748
4359.10466309,0.00667971
4361.03347046,0.00665221
4362.96227783,0.00667818
4364.89108520,0.00657467
4366.81989258,0.00665156
4368.74869995,0.00667948
4370.67750732,0.00659428
4372.60631470,0.00656012
4374.53512207,0.00655632
4376.46392944,0.00650537
4378.39273682,0.00647342
4380.32154419,0.00654789
4382.25035156,0.00653202
4384.17915894,0.00641593
4386.10796631,0.00640886
4388.03677368,0.00640090
4389.96558105,0.00636847
4391.89438843,0.00642836
4393.82319580,0.00631124
4395.75200317,0.00630738
4397.68081055,0.00638145
4399.60961792,0.00631492
4401.53842529,0.00629929
4403.46723267,0.00620916
4405.39604004,0.00626367
4407.32484741,0.00628728
4409.25365478,0.00627214
4411.18246216,0.00622758
4413.11126953,0.00613652
4415.04007690,0.00621387
4416.96888428,0.00614335
4418.89769165,0.00618117
4420.82649902,0.00619622
4422.75530640,0.00608201
4424.68411377,0.00612531
4426.61292114,0.00612973
4428.54172852,0.00602245
4430.47053589,0.00598827
4432.39934326,0.00609421
4434.32815063,0.00600265
4436.25695801,0.00597589
4438.18576538,0.00599513
4440.11457275,0.00597333
4442.04338013,0.00600847
4443.97218750,0.00587902
4445.90099487,0.00587236
4447.82980225,0.00588134
4449.75860962,0.00591138
4451.68741699,0.00586919
4453.61622437,0.00581862
4455.54503174,0.00589675
4457.47383911,0.00574891
4459.40264648,0.00574382
4461.33145386,0.00581600
4463.26026123,0.00574489
4465.18906860,0.00571387
4467.11787598,0.00572560
4469.04668335,0.00565594
4470.97549072,0.00570621
4472.90429810,0.00584341
4474.83310547,0.00570178
4476.76191284,0.00568577
4478.69072021,0.00565853
4480.61952759,0.00561426
4482.54833496,0.00566301
4484.47714233,0.00561500
4486.40594971,0.00557252
4488.33475708,0.00548177
4490.26356445,0.00559158
4492.19237183,0.00551108
4494.12117920,0.00542718
4496.04998657,0.00555520
4497.97879395,0.00545680
4499.90760132,0.00552947
4501.83640869,0.00553276
4503.76521606,0.00545870
4505.69402344,0.00547822
4507.62283081,0.00532342
4509.55163818,0.00529296
4511.48044556,0.00544913
4513.40925293,0.00543973
4515.33806030,0.00534673
4517.26686768,0.00532401
4519.19567505,0.00528010
4521.12448242,0.00536722
4523.05328979,0.00532181
4524.98209717,0.00525090
4526.91090454,0.00527506
4528.83971191,0.00517641
4530.76851929,0.00524910
4532.69732666,0.00518630
4534.62613403,0.00516483
4536.55494141,0.00526757
4538.48374878,0.00514709
4540.41255615,0.00515861
4542.34136353,0.00519244
4544.27017090,0.00518218
4546.19897827,0.00514052
4548.12778564,0.00510838
4550.05659302,0.00511827
4551.98540039,0.00496062
4553.91420776,0.00500990
4555.84301514,0.00511528
4557.77182251,0.00500220
4559.70062988,0.00507557
4561.62943726,0.00503436
4563.55824463,0.00491522
4565.48705200,0.00497999
4567.41585937,0.00494815
4569.34466675,0.00503860
4571.27347412,0.00502644
4573.20228149,0.00489593
4575.13108887,0.00489351
4577.05989624,0.00482545
4578.98870361,0.00484963
4580.91751099,0.00483484
4582.84631836,0.00484031
4584.77512573,0.00482124
4586.70393311,0.00476521
4588.63274048,0.00483055
4590.56154785,0.00475852
4592.49035522,0.00477455
4594.41916260,0.00478797
4596.34796997,0.00474212
4598.27677734,0.00476761
4600.20558472,0.00472361
4602.13439209,0.00474713
4604.06319946,0.00472366
4605.99200684,0.00461135
4607.92081421,0.00462761
4609.84962158,0.00471118
4611.77842895,0.00468367
4613.70723633,0.00469306
4615.63604370,0.00466857
4617.56485107,0.00455623
4619.49365845,0.00453043
4621.42246582,0.00450819
4623.35127319,0.00457732
4625.28008057,0.00454567
4627.20888794,0.00448565
4629.13769531,0.00460771
4631.06650269,0.00459454
4632.99531006,0.00450931
4634.92411743,0.00449468
4636.85292480,0.00446101
4638.78173218,0.00444046
4640.71053955,0.00449327
4642.63934692,0.00447118
4644.56815430,0.00442653
4646.49696167,0.00440404
4648.42576904,0.00438432
4650.35457642,0.00438829
4652.28338379,0.00434659
4654.21219116,0.00441179
4656.14099853,0.00438195
4658.06980591,0.00431744
4659.99861328,0.00433897
4661.92742065,0.00425734
4663.85622803,0.00421918
4665.78503540,0.00425447
4667.71384277,0.00429639
4669.64265015,0.00424401
4671.57145752,0.00428141
4673.50026489,0.00425587
4675.42907227,0.00416450
4677.35787964,0.00424860
4679.28668701,0.00418612
4681.21549438,0.00419528
4683.14430176,0.00418792
4685.07310913,0.00413646
4687.00191650,0.00423282
4688.93072388,0.00419111
4690.85953125,0.00416216
4692.78833862,0.00420083
4694.71714600,0.00415561
4696.64595337,0.00408062
4698.57476074,0.00412004
4700.50356812,0.00405397
4702.43237549,0.00400088
4704.36118286,0.00413933
4706.28999023,0.00404030
4708.21879761,0.00394167
4710.14760498,0.00401403
4712.07641235,0.00403317
4714.00521973,0.00395416
4715.93402710,0.00388174
4717.86283447,0.00390848
4719.79164185,0.00395278
4721.72044922,0.00402222
4723.64925659,0.00396835
4725.57806396,0.00392725
4727.50687134,0.00399920
4729.43567871,0.00394513
4731.36448608,0.00391485
4733.29329346,0.00396166
4735.22210083,0.00393473
4737.15090820,0.00391722
4739.07971558,0.00389545
4741.00852295,0.00387216
4742.93733032,0.00386830
4744.86613770,0.00380083
4746.79494507,0.00382548
4748.72375244,0.00382457
4750.65255981,0.00378573
4752.58136719,0.00381117
4754.51017456,0.00382806
4756.43898193,0.00385588
4758.36778931,0.00372348
4760.29659668,0.00370853
4762.22540405,0.00375419
4764.15421143,0.00369601
4766.08301880,0.00372636
4768.01182617,0.00366358
4769.94063354,0.00365218
4771.86944092,0.00373520
4773.79824829,0.00373985
4775.72705566,0.00366966
4777.65586304,0.00370437
4779.58467041,0.00363383
4781.51347778,0.00350520
4783.44228516,0.00362447
4785.37109253,0.00359871
4787.29989990,0.00358386
4789.22870728,0.00357224
4791.15751465,0.00356920
4793.08632202,0.00356620
4795.01512939,0.00352827
4796.94393677,0.00368825
4798.87274414,0.00356721
4800.80155151,0.00351725
4802.73035889,0.00354111
4804.65916626,0.00347610
4806.58797363,0.00351641
4808.51678101,0.00346285
4810.44558838,0.00351728
4812.37439575,0.00346267
4814.30320312,0.00355776
4816.23201050,0.00353384
4818.16081787,0.00329994
4820.08962524,0.00342472
4822.01843262,0.00340296
4823.94723999,0.00340511
4825.87604736,0.00343041
4827.80485474,0.00334140
4829.73366211,0.00340358
4831.66246948,0.00344077
4833.59127686,0.00336664
4835.52008423,0.00330141
4837.44889160,0.00330801
4839.37769897,0.00330744
4841.30650635,0.00336285
4843.23531372,0.00330071
4845.16412109,0.00325234
4847.09292847,0.00325856
4849.02173584,0.00325668
4850.95054321,0.00337182
4852.87935059,0.00330258
4854.80815796,0.00320734
4856.73696533,0.00318723
4858.66577270,0.00322483
4860.59458008,0.00319882
4862.52338745,0.00315299
4864.45219482,0.00320779
4866.38100220,0.00315610
4868.30980957,0.00320000
4870.23861694,0.00315765
4872.16742432,0.00315885
4874.09623169,0.00319483
4876.02503906,0.00311176
4877.95384644,0.00317452
4879.88265381,0.00314732
4881.81146118,0.00313418
4883.74026855,0.00312029
4885.66907593,0.00309759
4887.59788330,0.00307900
4889.52669067,0.00307364
4891.45549805,0.00309740
4893.38430542,0.00303094
4895.31311279,0.00312888
4897.24192017,0.00310679
4899.17072754,0.00303427
4901.09953491,0.00299076
4903.02834228,0.00295492
4904.95714966,0.00306766
4906.88595703,0.00301155
4908.81476440,0.00303240
4910.74357178,0.00302891
4912.67237915,0.00300742
4914.60118652,0.00301928
4916.52999390,0.00293885
4918.45880127,0.00303144
4920.38760864,0.00297983
4922.31641602,0.00293756
4924.24522339,0.00295353
4926.17403076,0.00290362
4928.10283813,0.00302269
4930.03164551,0.00300307
4931.96045288,0.00294205
4933.88926025,0.00291495
4935.81806763,0.00285366
4937.74687500,0.00294908
4939.67568237,0.00291118
4941.60448975,0.00280049
4943.53329712,0.00284447
4945.46210449,0.00283369
4947.39091187,0.00281250
4949.31971924,0.00276191
4951.24852661,0.00276850
4953.17733398,0.00284936
4955.10614136,0.00279369
4957.03494873,0.00281344
4958.96375610,0.00283137
4960.89256348,0.00278398
4962.82137085,0.00279194
4964.75017822,0.00279312
4966.67898560,0.00276398
4968.60779297,0.00269634
4970.53660034,0.00272355
4972.46540771,0.00269759
4974.39421509,0.00268825
4976.32302246,0.00269846
4978.25182983,0.00258703
4980.18063721,0.00270067
4982.10944458,0.00275823
4984.03825195,0.00267310
4985.96705933,0.00270534
4987.89586670,0.00265386
4989.82467407,0.00262467
4991.75348145,0.00266137
4993.68228882,0.00264211
4995.61109619,0.00259106
4997.53990356,0.00262545
4999.46871094,0.00268985
5001.39751831,0.00264225
5003.32632568,0.00262966
5005.25513306,0.00257956
5007.18394043,0.00257176
5009.11274780,0.00265489
5011.04155518,0.00257366
5012.97036255,0.00252849
5014.89916992,0.00251264
5016.82797729,0.00248881
5018.75678467,0.00252721
5020.68559204,0.00256736
5022.61439941,0.00260933
5024.54320679,0.00249421
5026.47201416,0.00250544
5028.40082153,0.00253709
5030.32962891,0.00243401
5032.25843628,0.00249558
5034.18724365,0.00245724
5036.11605103,0.00242430
5038.04485840,0.00249308
5039.97366577,0.00250810
5041.90247314,0.00245992
5043.83128052,0.00238777
5045.76008789,0.00241477
5047.68889526,0.00243631
5049.61770264,0.00243651
5051.54651001,0.00238661
5053.47531738,0.00241694
5055.40412476,0.00240714
5057.33293213,0.00237311
5059.26173950,0.00247420
5061.19054687,0.00238947
5063.11935425,0.00238192
5065.04816162,0.00241285
5066.97696899,0.00231916
5068.90577637,0.00225961
5070.83458374,0.00230381
5072.76339111,0.00240092
5074.69219849,0.00232550
5076.62100586,0.00235614
5078.54981323,0.00235627
5080.47862061,0.00231238
5082.40742798,0.00231419
5084.33623535,0.00226488
5086.26504272,0.00234612
5088.19385010,0.00229713
5090.12265747,0.00227774
5092.05146484,0.00229608
5093.98027222,0.00229822
5095.90907959,0.00232998
5097.83788696,0.00224151
5099.76669434,0.00222401
5101.69550171,0.00219251
5103.62430908,0.00229024
5105.55311645,0.00227734
5107.48192383,0.00214185
5109.41073120,0.00226703
5111.33953857,0.00221017
5113.26834595,0.00216319
5115.19715332,0.00226806
5117.12596069,0.00219903
5119.05476807,0.00216861
5120.98357544,0.00218752
5122.91238281,0.00214419
5124.84119019,0.00215841
5126.76999756,0.00210216
5128.69880493,0.00208813
5130.62761230,0.00220105
5132.55641968,0.00213505
5134.48522705,0.00212490
5136.41403442,0.00215950
5138.34284180,0.00209892
5140.27164917,0.00210114
5142.20045654,0.00210673
5144.12926392,0.00211588
5146.05807129,0.00208798
5147.98687866,0.00208031
5149.91568603,0.00206110
5151.84449341,0.00206172
5153.77330078,0.00208628
5155.70210815,0.00209157
5157.63091553,0.00210888
5159.55972290,0.00201874
5161.48853027,0.00201315
5163.41733765,0.00202989
5165.34614502,0.00201544
5167.27495239,0.00199092
5169.20375977,0.00201629
5171.13256714,0.00212294
5173.06137451,0.00194750
5174.99018188,0.00190757
5176.91898926,0.00200496
5178.84779663,0.00194128
5180.77660400,0.00196524
5182.70541138,0.00197479
5184.63421875,0.00202713
5186.56302612,0.00198946
5188.49183350,0.00191039
5190.42064087,0.00195959
5192.34944824,0.00196392
5194.27825562,0.00198490
5196.20706299,0.00193017
5198.13587036,0.00188335
5200.06467773,0.00195002
5201.99348511,0.00194743
5203.92229248,0.00196436
5205.85109985,0.00195145
5207.77990723,0.00186450
5209.70871460,0.00189158
5211.63752197,0.00189838
5213.56632935,0.00189884
5215.49513672,0.00191186
5217.42394409,0.00186442
5219.35275146,0.00189429
5221.28155884,0.00187097
5223.21036621,0.00189940
5225.13917358,0.00186430
5227.06798096,0.00177039
5228.99678833,0.00191334
5230.92559570,0.00182592
5232.85440308,0.00178239
5234.78321045,0.00192131
5236.71201782,0.00181339
5238.64082520,0.00180902
5240.56963257,0.00186555
5242.49843994,0.00186674
5244.42724731,0.00187412
5246.35605469,0.00179596
5248.28486206,0.00171414
5250.21366943,0.00177979
5252.14247681,0.00190161
5254.07128418,0.00182936
5256.00009155,0.00180650
5257.92889893,0.00180213
5259.85770630,0.00175434
5261.78651367,0.00178470
5263.71532104,0.00172815
5265.64412842,0.00179858
5267.57293579,0.00178554
5269.50174316,0.00170951
5271.43055054,0.00184422
5273.35935791,0.00180696
5275.28816528,0.00174581
5277.21697266,0.00176050
5279.14578003,0.00175337
5281.07458740,0.00172312
5283.00339478,0.00172394
5284.93220215,0.00179607
5286.86100952,0.00177001
5288.78981689,0.00178419
5290.71862427,0.00169455
5292.64743164,0.00169785
5294.57623901,0.00179128
5296.50504639,0.00164614
5298.43385376,0.00169626
5300.36266113,0.00172581
5302.29146851,0.00169453
5304.22027588,0.00170129
5306.14908325,0.00163376
5308.07789062,0.00169428
5310.00669800,0.00168925
5311.93550537,0.00170309
5313.86431274,0.00169464
5315.79312012,0.00165280
5317.72192749,0.00166708
5319.65073486,0.00162163
5321.57954224,0.00165261
5323.50834961,0.00169469
5325.43715698,0.00167654
5327.36596436,0.00157002
5329.29477173,0.00158851
5331.22357910,0.00167281
5333.15238647,0.00155690
5335.08119385,0.00152871
5337.01000122,0.00157497
5338.93880859,0.00155282
5340.86761597,0.00161800
5342.79642334,0.00167058
5344.72523071,0.00151844
5346.65403809,0.00151375
5348.58284546,0.00158737
5350.51165283,0.00152230
5352.44046020,0.00153419
5354.36926758,0.00149028
5356.29807495,0.00154653
5358.22688232,0.00161189
5360.15568970,0.00161487
5362.08449707,0.00164978
5364.01330444,0.00155072
5365.94211182,0.00155592
5367.87091919,0.00161524
5369.79972656,0.00158452
5371.72853394,0.00151285
5373.65734131,0.00156993
5375.58614868,0.00152337
5377.51495605,0.00140009
5379.44376343,0.00152570
5381.37257080,0.00145390
5383.30137817,0.00151225
5385.23018555,0.00159747
5387.15899292,0.00142994
5389.08780029,0.00150510
5391.01660767,0.00154055
5392.94541504,0.00147776
5394.87422241,0.00145488
5396.80302978,0.00147541
5398.73183716,0.00145260
5400.66064453,0.00143954
5402.58945190,0.00148588
5404.51825928,0.00144493
5406.44706665,0.00146909
5408.37587402,0.00142631
5410.30468140,0.00144089
5412.23348877,0.00143113
5414.16229614,0.00139203
5416.09110352,0.00150073
5418.01991089,0.00141028
5419.94871826,0.00139944
5421.87752563,0.00140325
5423.80633301,0.00134860
5425.73514038,0.00142293
5427.66394775,0.00140881
5429.59275513,0.00140433
5431.52156250,0.00142015
5433.45036987,0.00144570
5435.37917725,0.00136975
5437.30798462,0.00137367
5439.23679199,0.00143463
5441.16559936,0.00129254
5443.09440674,0.00137833
5445.02321411,0.00139059
5446.95202148,0.00130827
5448.88082886,0.00139823
5450.80963623,0.00127955
5452.73844360,0.00127821
5454.66725098,0.00135314
5456.59605835,0.00132794
5458.52486572,0.00137086
5460.45367310,0.00133264
5462.38248047,0.00133456
5464.31128784,0.00133732
5466.24009521,0.00133668
5468.16890259,0.00131715
5470.09770996,0.00127202
5472.02651733,0.00134372
5473.95532471,0.00129522
5475.88413208,0.00122502
5477.81293945,0.00125979
5479.74174683,0.00137606
5481.67055420,0.00139499
5483.59936157,0.00129273
5485.52816895,0.00134758
5487.45697632,0.00125541
5489.38578369,0.00124723
5491.31459106,0.00134154
5493.24339844,0.00123476
5495.17220581,0.00124565
5497.10101318,0.00123960
5499.02982056,0.00125524
5500.95862793,0.00128156
5502.88743530,0.00127174
5504.81624268,0.00127442
5506.74505005,0.00119346
5508.67385742,0.00120124
5510.60266479,0.00119092
5512.53147217,0.00124306
5514.46027954,0.00128013
5516.38908691,0.00122450
5518.31789429,0.00122356
5520.24670166,0.00116749
5522.17550903,0.00121565
5524.10431641,0.00120519
5526.03312378,0.00115650
5527.96193115,0.00123187
5529.89073853,0.00123947
5531.81954590,0.00118433
5533.74835327,0.00114509
5535.67716064,0.00121104
5537.60596802,0.00116680
5539.53477539,0.00115407
5541.46358276,0.00123485
5543.39239014,0.00115373
5545.32119751,0.00117698
5547.25000488,0.00120937
5549.17881226,0.00121810
5551.10761963,0.00122916
5553.03642700,0.00113932
5554.96523437,0.00114600
5556.89404175,0.00117901
5558.82284912,0.00120524
5560.75165649,0.00116716
5562.68046387,0.00111896
5564.60927124,0.00113497
5566.53807861,0.00109739
5568.46688599,0.00112035
5570.39569336,0.00112235
5572.32450073,0.00113966
5574.25330811,0.00117152
5576.18211548,0.00111511
5578.11092285,0.00112404
5580.03973022,0.00109196
5581.96853760,0.00106532
5583.89734497,0.00111479
5585.82615234,0.00108736
5587.75495972,0.00107209
5589.68376709,0.00114771
5591.61257446,0.00115284
5593.54138184,0.00111200
5595.47018921,0.00113490
5597.39899658,0.00109564
5599.32780395,0.00109185
5601.25661133,0.00110358
5603.18541870,0.00108667
5605.11422607,0.00113778
5607.04303345,0.00111835
5608.97184082,0.00107440
5610.90064819,0.00108430
5612.82945557,0.00110482
5614.75826294,0.00105217
5616.68707031,0.00107406
5618.61587769,0.00111952
5620.54468506,0.00103535
5622.47349243,0.00106603
5624.40229980,0.00105146
5626.33110718,0.00104247
5628.25991455,0.00108791
5630.18872192,0.00102994
5632.11752930,0.00100395
5634.04633667,0.00103492
5635.97514404,0.00110604
5637.90395142,0.00103176
5639.83275879,0.00098864
5641.76156616,0.00102752
5643.69037353,0.00104109
5645.61918091,0.00106042
5647.54798828,0.00098266
5649.47679565,0.00100402
5651.40560303,0.00097968
5653.33441040,0.00101188
5655.26321777,0.00107553
5657.19202515,0.00095515
5659.12083252,0.00099044
5661.04963989,0.00107237
5662.97844727,0.00109061
5664.90725464,0.00103289
5666.83606201,0.00099190
5668.76486938,0.00098344
5670.69367676,0.00091609
5672.62248413,0.00097841
5674.55129150,0.00105262
5676.48009888,0.00099653
5678.40890625,0.00095872
5680.33771362,0.00099572
5682.26652100,0.00088393
5684.19532837,0.00089977
5686.12413574,0.00098273
5688.05294311,0.00091166
5689.98175049,0.00100238
5691.91055786,0.00096052
5693.83936523,0.00094604
5695.76817261,0.00097750
5697.69697998,0.00095507
5699.62578735,0.00099892
5701.55459473,0.00092041
5703.48340210,0.00096720
5705.41220947,0.00091017
5707.34101685,0.00088457
5709.26982422,0.00097731
5711.19863159,0.00096099
5713.12743896,0.00097688
5715.05624634,0.00087204
5716.98505371,0.00091646
5718.91386108,0.00093224
5720.84266846,0.00083776
5722.77147583,0.00090169
5724.70028320,0.00091996
5726.62909058,0.00089843
5728.55789795,0.00088737
5730.48670532,0.00091792
5732.41551270,0.00086368
5734.34432007,0.00084650
5736.27312744,0.00087083
5738.20193481,0.00085377
5740.13074219,0.00093080
5742.05954956,0.00091315
5743.98835693,0.00086484
5745.91716431,0.00087438
5747.84597168,0.00086846
5749.77477905,0.00084255
5751.70358643,0.00088735
5753.63239380,0.00088257
5755.56120117,0.00084316
5757.49000854,0.00092587
5759.41881592,0.00086610
5761.34762329,0.00086040
5763.27643066,0.00089736
5765.20523804,0.00084153
5767.13404541,0.00083120
5769.06285278,0.00081177
5770.99166016,0.00088172
5772.92046753,0.00086369
5774.84927490,0.00078005
5776.77808228,0.00079267
5778.70688965,0.00082804
5780.63569702,0.00081693
5782.56450439,0.00083254
5784.49331177,0.00087024
5786.42211914,0.00077090
5788.35092651,0.00079547
5790.27973389,0.00080662
5792.20854126,0.00078297
5794.13734863,0.00080203
5796.06615601,0.00068984
5797.99496338,0.00076316
5799.92377075,0.00077978
5801.85257812,0.00076181
5803.78138550,0.00084652
5805.71019287,0.00074829
5807.63900024,0.00080421
5809.56780762,0.00088853
5811.49661499,0.00080200
5813.42542236,0.00079395
5815.35422974,0.00080048
5817.28303711,0.00075806
5819.21184448,0.00075014
5821.14065186,0.00080216
5823.06945923,0.00082281
5824.99826660,0.00084572
5826.92707397,0.00084479
5828.85588135,0.00078340
5830.78468872,0.00078235
5832.71349609,0.00074045
5834.64230347,0.00069221
5836.57111084,0.00071885
5838.49991821,0.00073215
5840.42872559,0.00075915
5842.35753296,0.00074684
5844.28634033,0.00073145
5846.21514770,0.00074159
5848.14395508,0.00073542
5850.07276245,0.00075634
5852.00156982,0.00070984
5853.93037720,0.00069004
5855.85918457,0.00077454
5857.78799194,0.00076206
5859.71679932,0.00072362
5861.64560669,0.00076836
5863.57441406,0.00073739
5865.50322144,0.00069418
5867.43202881,0.00074172
5869.36083618,0.00073211
5871.28964355,0.00069011
5873.21845093,0.00072248
5875.14725830,0.00075349
5877.07606567,0.00065543
5879.00487305,0.00065108
5880.93368042,0.00077889
5882.86248779,0.00072077
5884.79129517,0.00071900
5886.72010254,0.00075201
5888.64890991,0.00065020
5890.57771728,0.00063526
5892.50652466,0.00062940
5894.43533203,0.00063773
5896.36413940,0.00068902
5898.29294678,0.00073825
5900.22175415,0.00071630
5902.15056152,0.00063831
5904.07936890,0.00065927
5906.00817627,0.00065758
5907.93698364,0.00070602
5909.86579102,0.00074049
5911.79459839,0.00060770
5913.72340576,0.00065106
5915.65221313,0.00069039
5917.58102051,0.00061405
5919.50982788,0.00070824
5921.43863525,0.00064032
5923.36744263,0.00060094
5925.29625000,0.00073547
5927.22505737,0.00062309
5929.15386475,0.00061472
5931.08267212,0.00069150
5933.01147949,0.00063826
5934.94028686,0.00063210
5936.86909424,0.00059274
5938.79790161,0.00060755
5940.72670898,0.00062879
5942.65551636,0.00060398
5944.58432373,0.00064976
5946.51313110,0.00065806
5948.44193848,0.00063742
5950.37074585,0.00067116
5952.29955322,0.00060878
5954.22836060,0.00058125
5956.15716797,0.00067059
5958.08597534,0.00063740
5960.01478271,0.00065592
5961.94359009,0.00063116
5963.87239746,0.00063007
5965.80120483,0.00071884
5967.73001221,0.00058958
5969.65881958,0.00064476
5971.58762695,0.00068963
5973.51643433,0.00054651
5975.44524170,0.00056720
5977.37404907,0.00056098
5979.30285645,0.00056271
5981.23166382,0.00061876
5983.16047119,0.00065036
5985.08927856,0.00061855
5987.01808594,0.00059332
5988.94689331,0.00063145
5990.87570068,0.00061075
5992.80450806,0.00058644
5994.73331543,0.00060024
5996.66212280,0.00058880
5998.59093018,0.00055472
6000.51973755,0.00058870
