399.26312622,0.00163883
401.19193359,0.00164359
403.12074097,0.00143625
405.04954834,0.00169747
406.97835571,0.00142313
408.90716309,0.00166879
410.83597046,0.00157754
412.76477783,0.00166198
414.69358521,0.00180443
416.62239258,0.00151370
418.55119995,0.00138656
420.48000732,0.00146991
422.40881470,0.00243288
424.33762207,0.00223825
426.26642944,0.00194227
428.19523682,0.00242047
430.12404419,0.00200785
432.05285156,0.00240889
433.98165894,0.00249235
435.91046631,0.00191329
437.83927368,0.00190162
439.76808105,0.00209222
441.69688843,0.00224081
443.62569580,0.00136083
445.55450317,0.00134519
447.48331055,0.00189242
449.41211792,0.00154785
451.34092529,0.00152580
453.26973267,0.00129054
455.19854004,0.00146494
457.12734741,0.00154979
459.05615479,0.00096964
460.98496216,0.00079650
462.91376953,0.00102601
464.84257690,0.00134116
466.77138428,0.00111803
468.70019165,0.00105636
470.62899902,0.00089657
472.55780640,0.00097721
474.48661377,0.00106559
476.41542114,0.00027941
478.34422852,0.00063112
480.27303589,0.00092002
482.20184326,0.00041469
484.13065063,0.00041522
486.05945801,0.00068595
487.98826538,0.00050427
489.91707275,0.00012148
491.84588013,0.00070512
493.77468750,0.00067857
495.70349487,0.00051782
497.63230225,0.00059303
499.56110962,0.00028443
501.48991699,0.00074499
503.41872437,0.00038867
505.34753174,-0.00000569
507.27633911,0.00040727
509.20514648,0.00020991
511.13395386,0.00031886
513.06276123,0.00064715
514.99156860,0.00046147
516.92037598,0.00049046
518.84918335,0.00070352
520.77799072,0.00034907
522.70679810,0.00021413
524.63560547,0.00059277
526.56441284,0.00036767
528.49322021,0.00004231
530.42202759,0.00032924
532.35083496,0.00029832
534.27964233,0.00015166
536.20844971,0.00020433
538.13725708,0.00006051
540.06606445,0.00010353
541.99487183,0.00046702
543.92367920,0.00042113
545.85248657,-0.00004628
547.78129395,0.00041516
549.71010132,0.00043601
551.63890869,-0.00002341
553.56771606,0.00047540
555.49652344,0.00059702
557.42533081,0.00037232
559.35413818,0.00037309
561.28294556,0.00039885
563.21175293,0.00032667
565.14056030,0.00017110
567.06936768,0.00030454
568.99817505,0.00048889
570.92698242,0.00035202
572.85578979,0.00033523
574.78459717,0.00027119
576.71340454,-0.00014347
578.64221191,0.00029042
580.57101929,0.00065973
582.49982666,0.00010175
584.42863403,0.00007341
586.35744141,0.00047464
588.28624878,0.00059813
590.21505615,0.00049816
592.14386353,0.00015789
594.07267090,0.00022570
596.00147827,0.00060963
597.93028564,0.00016886
599.85909302,0.00023824
601.78790039,0.00047441
603.71670776,0.00020426
605.64551514,0.00037083
607.57432251,0.00028609
609.50312988,0.00016681
611.43193726,0.00015448
613.36074463,0.00019963
615.28955200,-0.00018867
617.21835938,0.00021657
619.14716675,0.00013961
621.07597412,-0.00011443
623.00478149,0.00043512
624.93358887,0.00020760
626.86239624,0.00020018
628.79120361,-0.00004818
630.72001099,0.00059541
632.64881836,0.00111590
634.57762573,0.00119714
636.50643311,0.00154750
638.43524048,0.00143941
640.36404785,0.00193688
642.29285522,0.00178978
644.22166260,0.00217364
646.15046997,0.00260467
648.07927734,0.00237173
650.00808472,0.00290548
651.93689209,0.00278482
653.86569946,0.00294544
655.79450684,0.00296669
657.72331421,0.00290137
659.65212158,0.00338655
661.58092896,0.00344645
663.50973633,0.00370272
665.43854370,0.00353310
667.36735107,0.00318622
669.29615845,0.00371335
671.22496582,0.00424032
673.15377319,0.00404619
675.08258057,0.00432762
677.01138794,0.00466827
678.94019531,0.00447787
680.86900269,0.00481321
682.79781006,0.00466066
684.72661743,0.00448977
686.65542480,0.00487333
688.58423218,0.00502133
690.51303955,0.00511086
692.44184692,0.00521623
694.37065430,0.00573479
696.29946167,0.00651710
698.22826904,0.00741681
700.15707642,0.00788305
702.08588379,0.00775203
704.01469116,0.00743596
705.94349854,0.00642014
707.87230591,0.00543695
709.80111328,0.00468429
711.72992065,0.00345492
713.65872803,0.00210795
715.58753540,0.00089713
717.51634277,0.00044225
719.44515015,0.00061000
721.37395752,0.00040174
723.30276489,0.00017254
725.23157227,-0.00008075
727.16037964,-0.00009572
729.08918701,0.00022625
731.01799438,-0.00013216
732.94680176,-0.00020888
734.87560913,-0.00002024
736.80441650,-0.00007751
738.73322388,0.00011695
740.66203125,-0.00013933
742.59083862,-0.00027252
744.51964600,0.00006770
746.44845337,0.00029007
748.37726074,0.00026848
750.30606812,0.00014874
752.23487549,0.00045483
754.16368286,0.00020826
756.09249023,-0.00025111
758.02129761,0.00011426
759.95010498,0.00018584
761.87891235,0.00016772
763.80771973,0.00015957
765.73652710,0.00031081
767.66533447,0.00051812
769.59414185,0.00028579
771.52294922,0.00068975
773.45175659,0.00059448
775.38056396,0.00028186
777.30937134,0.00063315
779.23817871,0.00044742
781.16698608,0.00057764
783.09579346,0.00064236
785.02460083,0.00051837
786.95340820,0.00060282
788.88221558,0.00041194
790.81102295,0.00052824
792.73983032,0.00055858
794.66863770,0.00061514
796.59744507,0.00063209
798.52625244,0.00103097
800.45505981,0.00165842
802.38386719,0.00135902
804.31267456,0.00095263
806.24148193,0.00060521
808.17028931,0.00074032
810.09909668,0.00083505
812.02790405,0.00058631
813.95671143,0.00062936
815.88551880,0.00048288
817.81432617,0.00047618
819.74313354,0.00019396
821.67194092,0.00034179
823.60074829,0.00064367
825.52955566,0.00046664
827.45836304,0.00090785
829.38717041,0.00114990
831.31597778,0.00131953
833.24478516,0.00169740
835.17359253,0.00206698
837.10239990,0.00214317
839.03120728,0.00186345
840.96001465,0.00193926
842.88882202,0.00185638
844.81762939,0.00175602
846.74643677,0.00158196
848.67524414,0.00137765
850.60405151,0.00165641
852.53285889,0.00155273
854.46166626,0.00112734
856.39047363,0.00089599
858.31928101,0.00068098
860.24808838,0.00077098
862.17689575,0.00072206
864.10570313,0.00041799
866.03451050,0.00057231
867.96331787,0.00029193
869.89212524,0.00028865
871.82093262,0.00071699
873.74973999,0.00033101
875.67854736,0.00065939
877.60735474,0.00086388
879.53616211,0.00042542
881.46496948,0.00042476
883.39377686,0.00022377
885.32258423,0.00023765
887.25139160,0.00036935
889.18019897,0.00050793
891.10900635,0.00061273
893.03781372,0.00052276
894.96662109,0.00060925
896.89542847,0.00037920
898.82423584,0.00036581
900.75304321,0.00062963
902.68185059,0.00039296
904.61065796,0.00058667
906.53946533,0.00064897
908.46827271,0.00025890
910.39708008,0.00071593
912.32588745,0.00084490
914.25469482,0.00064920
916.18350220,0.00116632
918.11230957,0.00137567
920.04111694,0.00146806
921.96992432,0.00165164
923.89873169,0.00167625
925.82753906,0.00219529
927.75634644,0.00226068
929.68515381,0.00190696
931.61396118,0.00250303
933.54276855,0.00284703
935.47157593,0.00299777
937.40038330,0.00334180
939.32919067,0.00333712
941.25799805,0.00361286
943.18680542,0.00355859
945.11561279,0.00369106
947.04442017,0.00365554
948.97322754,0.00316783
950.90203491,0.00357729
952.83084229,0.00328582
954.75964966,0.00308625
956.68845703,0.00364034
958.61726440,0.00326843
960.54607178,0.00324702
962.47487915,0.00357614
964.40368652,0.00344863
966.33249390,0.00355429
968.26130127,0.00358187
970.19010864,0.00382797
972.11891602,0.00444994
974.04772339,0.00447352
975.97653076,0.00468681
977.90533813,0.00503873
979.83414551,0.00532966
981.76295288,0.00609105
983.69176025,0.00647477
985.62056763,0.00726509
987.54937500,0.00831815
989.47818237,0.00930650
991.40698975,0.01047051
993.33579712,0.01124123
995.26460449,0.01245308
997.19341187,0.01343677
999.12221924,0.01426808
1001.05102661,0.01541720
1002.97983398,0.01639405
1004.90864136,0.01767598
1006.83744873,0.01879481
1008.76625610,0.01988108
1010.69506348,0.02112109
1012.62387085,0.02235776
1014.55267822,0.02356166
1016.48148560,0.02480616
1018.41029297,0.02609086
1020.33910034,0.02705209
1022.26790771,0.02822632
1024.19671509,0.02936636
1026.12552246,0.03037839
1028.05432983,0.03140763
1029.98313721,0.03232852
1031.91194458,0.03320601
1033.84075195,0.03381149
1035.76955933,0.03459771
1037.69836670,0.03495350
1039.62717407,0.03491972
1041.55598145,0.03513145
1043.48478882,0.03475536
1045.41359619,0.03416793
1047.34240356,0.03375744
1049.27121094,0.03326809
1051.20001831,0.03272116
1053.12882568,0.03207451
1055.05763306,0.03157649
1056.98644043,0.03090238
1058.91524780,0.03001999
1060.84405518,0.02931242
1062.77286255,0.02846403
1064.70166992,0.02762584
1066.63047729,0.02658491
1068.55928467,0.02531598
1070.48809204,0.02422660
1072.41689941,0.02294443
1074.34570679,0.02206312
1076.27451416,0.02129868
1078.20332153,0.02009077
1080.13212891,0.01908804
1082.06093628,0.01815325
1083.98974365,0.01737732
1085.91855103,0.01651567
1087.84735840,0.01562106
1089.77616577,0.01529182
1091.70497314,0.01478373
1093.63378052,0.01379268
1095.56258789,0.01326590
1097.49139526,0.01302818
1099.42020264,0.01246857
1101.34901001,0.01218781
1103.27781738,0.01196797
1105.20662476,0.01175090
1107.13543213,0.01160370
1109.06423950,0.01119250
1110.99304687,0.01117567
1112.92185425,0.01095682
1114.85066162,0.01060609
1116.77946899,0.01096998
1118.70827637,0.01090670
1120.63708374,0.01067429
1122.56589111,0.01101406
1124.49469849,0.01099569
1126.42350586,0.01111859
1128.35231323,0.01162295
1130.28112061,0.01173297
1132.20992798,0.01203356
1134.13873535,0.01258714
1136.06754272,0.01303004
1137.99635010,0.01351870
1139.92515747,0.01448595
1141.85396484,0.01559715
1143.78277222,0.01644071
1145.71157959,0.01757988
1147.64038696,0.01851343
1149.56919434,0.01950864
1151.49800171,0.02060213
1153.42680908,0.02139790
1155.35561646,0.02258779
1157.28442383,0.02362249
1159.21323120,0.02433208
1161.14203857,0.02520311
1163.07084595,0.02636199
1164.99965332,0.02719693
1166.92846069,0.02794784
1168.85726807,0.02923664
1170.78607544,0.03025872
1172.71488281,0.03147213
1174.64369019,0.03271301
1176.57249756,0.03373543
1178.50130493,0.03491441
1180.43011230,0.03613167
1182.35891968,0.03811162
1184.28772705,0.03999049
1186.21653442,0.04152454
1188.14534180,0.04346498
1190.07414917,0.04526417
1192.00295654,0.04749797
1193.93176392,0.04983927
1195.86057129,0.05190704
1197.78937866,0.05458795
1199.71818604,0.05693205
1201.64699341,0.05925358
1203.57580078,0.06196336
1205.50460815,0.06428236
1207.43341553,0.06673132
1209.36222290,0.06876493
1211.29103027,0.07068872
1213.21983765,0.07266527
1215.14864502,0.07451583
1217.07745239,0.07639991
1219.00625977,0.07748222
1220.93506714,0.07875130
1222.86387451,0.07978380
1224.79268188,0.08050445
1226.72148926,0.08131959
1228.65029663,0.08161974
1230.57910400,0.08222555
1232.50791138,0.08218837
1234.43671875,0.08210334
1236.36552612,0.08231857
1238.29433350,0.08193021
1240.22314087,0.08195180
1242.15194824,0.08169192
1244.08075562,0.08107281
1246.00956299,0.08083670
1247.93837036,0.08038132
1249.86717773,0.07968757
1251.79598511,0.07926003
1253.72479248,0.07834597
1255.65359985,0.07722056
1257.58240723,0.07643206
1259.51121460,0.07493916
1261.44002197,0.07387219
1263.36882935,0.07310706
1265.29763672,0.07189173
1267.22644409,0.07122082
1269.15525146,0.07028432
1271.08405884,0.06903531
1273.01286621,0.06793036
1274.94167358,0.06662441
1276.87048096,0.06530727
1278.79928833,0.06395759
1280.72809570,0.06268884
1282.65690308,0.06168064
1284.58571045,0.06057120
1286.51451782,0.05926991
1288.44332520,0.05814751
1290.37213257,0.05750622
1292.30093994,0.05689307
1294.22974731,0.05623645
1296.15855469,0.05615261
1298.08736206,0.05593579
1300.01616943,0.05593699
1301.94497681,0.05645569
1303.87378418,0.05679347
1305.80259155,0.05731678
1307.73139893,0.05794778
1309.66020630,0.05921642
1311.58901367,0.06026066
1313.51782104,0.06096384
1315.44662842,0.06265319
1317.37543579,0.06391691
1319.30424316,0.06544369
1321.23305054,0.06791627
1323.16185791,0.06994413
1325.09066528,0.07181953
1327.01947266,0.07376210
1328.94828003,0.07569049
1330.87708740,0.07771401
1332.80589478,0.07948411
1334.73470215,0.08099222
1336.66350952,0.08194362
1338.59231689,0.08133692
1340.52112427,0.08226987
1342.44993164,0.08550148
1344.37873901,0.08609325
1346.30754639,0.08588582
1348.23635376,0.08603889
1350.16516113,0.08524029
1352.09396851,0.08517112
1354.02277588,0.08426084
1355.95158325,0.08333507
1357.88039062,0.08289741
1359.80919800,0.08158538
1361.73800537,0.07818569
1363.66681274,0.07694556
1365.59562012,0.08061808
1367.52442749,0.07891987
1369.45323486,0.07789540
1371.38204224,0.07944301
1373.31084961,0.07522209
1375.23965698,0.07550043
1377.16846436,0.07739250
1379.09727173,0.07702947
1381.02607910,0.07715730
1382.95488647,0.07686719
1384.88369385,0.07698408
1386.81250122,0.07365380
1388.74130859,0.07456253
1390.67011597,0.08046481
1392.59892334,0.07867627
1394.52773071,0.07395750
1396.45653809,0.07729550
1398.38534546,0.07737834
1400.31415283,0.07670990
1402.24296021,0.08280523
1404.17176758,0.07853660
1406.10057495,0.07868601
1408.02938232,0.08205706
1409.95818970,0.07896459
1411.88699707,0.08064738
1413.81580444,0.07769673
1415.74461182,0.07880816
1417.67341919,0.07182556
1419.60222656,0.06392208
1421.53103394,0.07323360
1423.45984131,0.07122914
1425.38864868,0.06893741
1427.31745605,0.06977704
1429.24626343,0.06460263
1431.17507080,0.06284355
1433.10387817,0.06350979
1435.03268555,0.05834889
1436.96149292,0.04934800
1438.89030029,0.05549154
1440.81910767,0.05721178
1442.74791504,0.05287523
1444.67672241,0.05544877
1446.60552979,0.05094821
1448.53433716,0.05152697
1450.46314453,0.05328005
1452.39195190,0.05421466
1454.32075928,0.05648257
1456.24956665,0.04720322
1458.17837402,0.04888324
1460.10718140,0.06437068
1462.03598877,0.06887139
1463.96479614,0.06862770
1465.89360352,0.07151961
1467.82241089,0.08105813
1469.75121826,0.08743729
1471.68002563,0.07871224
1473.60883301,0.08232379
1475.53764038,0.09384459
1477.46644775,0.10114032
1479.39525513,0.11096275
1481.32406250,0.11258696
1483.25286987,0.11930430
1485.18167725,0.12363061
1487.11048462,0.12202990
1489.03929199,0.12160273
1490.96809937,0.12247424
1492.89690674,0.14182124
1494.82571411,0.13906819
1496.75452148,0.12533674
1498.68332886,0.14133023
1500.61213623,0.14604564
1502.54094360,0.15621728
1504.46975098,0.14888054
1506.39855835,0.10977313
1508.32736572,0.13204443
1510.25617310,0.15492380
1512.18498047,0.14983146
1514.11378784,0.16213477
1516.04259521,0.14701137
1517.97140259,0.15272385
1519.90020996,0.14825997
1521.82901733,0.12872043
1523.75782471,0.15624563
1525.68663208,0.15382354
1527.61543945,0.15283060
1529.54424683,0.16843876
1531.47305420,0.16241294
1533.40186157,0.14949466
1535.33066895,0.15706956
1537.25947632,0.16865037
1539.18828369,0.12283982
1541.11709106,0.12648398
1543.04589844,0.15177484
1544.97470581,0.14540894
1546.90351318,0.17033219
1548.83232056,0.15991743
1550.76112793,0.16408122
1552.68993530,0.16358358
1554.61874268,0.14858091
1556.54755005,0.15888408
1558.47635742,0.11433986
1560.40516479,0.12089287
1562.33397217,0.17042924
1564.26277954,0.16192114
1566.19158691,0.16540755
1568.12039429,0.16448343
1570.04920166,0.14589548
1571.97800903,0.16660772
1573.90681641,0.16940872
1575.83562378,0.13493609
1577.76443115,0.15091176
1579.69323853,0.17020966
1581.62204590,0.16269781
1583.55085327,0.16652918
1585.47966064,0.16383028
1587.40846802,0.16447358
1589.33727539,0.16287300
1591.26608276,0.16236781
1593.19489014,0.16221303
1595.12369751,0.15960817
1597.05250488,0.16146398
1598.98131226,0.15996173
1600.91011963,0.16026381
1602.83892700,0.15710422
1604.76773437,0.15901886
1606.69654175,0.15628961
1608.62534912,0.15517607
1610.55415649,0.15443763
1612.48296387,0.15442595
1614.41177124,0.15621476
1616.34057861,0.12795278
1618.26938599,0.13672176
1620.19819336,0.15878284
1622.12700073,0.14100459
1624.05580811,0.14066532
1625.98461548,0.14681825
1627.91342285,0.14563134
1629.84223022,0.14420152
1631.77103760,0.15322147
1633.69984497,0.14204982
1635.62865234,0.11761767
1637.55745972,0.13557214
1639.48626709,0.14901650
1641.41507446,0.14565766
1643.34388184,0.14946851
1645.27268921,0.13579190
1647.20149658,0.11974178
1649.13030396,0.14764807
1651.05911133,0.14173093
1652.98791870,0.09246565
1654.91672607,0.12361389
1656.84553345,0.15572858
1658.77434082,0.14937639
1660.70314819,0.15430814
1662.63195557,0.14126439
1664.56076294,0.14868867
1666.48957031,0.16041467
1668.41837769,0.14157899
1670.34718506,0.13774142
1672.27599243,0.15597147
1674.20479980,0.14574310
1676.13360718,0.13974093
1678.06241455,0.16078043
1679.99122192,0.15611202
1681.92002930,0.15505865
1683.84883667,0.12828273
1685.77764404,0.12566856
1687.70645142,0.17190094
1689.63525879,0.15104024
1691.56406616,0.16473626
1693.49287354,0.17011490
1695.42168091,0.12517181
1697.35048828,0.15347788
1699.27929565,0.13742813
1701.20810303,0.12281005
1703.13691040,0.16665246
1705.06571777,0.15438518
1706.99452515,0.15500724
1708.92333252,0.16892086
1710.85213989,0.16275616
1712.78094727,0.16572018
1714.70975464,0.15507075
1716.63856201,0.13978325
1718.56736938,0.13714597
1720.49617676,0.16178787
1722.42498413,0.16850939
1724.35379150,0.15685865
1726.28259888,0.17019194
1728.21140625,0.15829404
1730.14021362,0.15940756
1732.06902100,0.15619373
1733.99782837,0.12011559
1735.92663574,0.14705865
1737.85544312,0.16338351
1739.78425049,0.14576015
1741.71305786,0.15830638
1743.64186523,0.16101998
1745.57067261,0.16124974
1747.49947998,0.16302098
1749.42828735,0.15627536
1751.35709473,0.14984578
1753.28590210,0.16497625
1755.21470947,0.17298812
1757.14351685,0.15824763
1759.07232422,0.17316371
1761.00113159,0.16403387
1762.92993896,0.15767092
1764.85874634,0.17997402
1766.78755371,0.16294478
1768.71636108,0.16398963
1770.64516846,0.16374370
1772.57397583,0.14734429
1774.50278320,0.16349232
1776.43159058,0.17261139
1778.36039795,0.17035338
1780.28920532,0.16842520
1782.21801270,0.16950366
1784.14682007,0.16954637
1786.07562744,0.16630551
1788.00443481,0.17449930
1789.93324219,0.17073655
1791.86204956,0.15483941
1793.79085693,0.16071750
1795.71966431,0.17257380
1797.64847168,0.17034459
1799.57727905,0.16772114
1801.50608643,0.16527553
1803.43489380,0.17019954
1805.36370117,0.17384994
1807.29250854,0.17158222
1809.22131592,0.17229192
1811.15012329,0.16781442
1813.07893066,0.17268847
1815.00773804,0.17371970
1816.93654541,0.17165415
1818.86535278,0.17307746
1820.79416016,0.17222179
1822.72296753,0.17501466
1824.65177490,0.16407362
1826.58058228,0.16916755
1828.50938965,0.16993955
1830.43819702,0.15948951
1832.36700439,0.17287728
1834.29581177,0.17207126
1836.22461914,0.17169058
1838.15342651,0.17136484
1840.08223389,0.17212217
1842.01104126,0.17264582
1843.93984863,0.15399769
1845.86865601,0.16313279
1847.79746338,0.17217627
1849.72627075,0.16860101
1851.65507812,0.17321439
1853.58388550,0.16987835
1855.51269287,0.17143215
1857.44150024,0.17053035
1859.37030762,0.16951998
1861.29911499,0.17056745
1863.22792236,0.16876987
1865.15672974,0.17067295
1867.08553711,0.16522215
1869.01434448,0.15853676
1870.94315186,0.16424203
1872.87195923,0.17033729
1874.80076660,0.16777712
1876.72957397,0.16848776
1878.65838135,0.16804919
1880.58718872,0.16701809
1882.51599609,0.16857499
1884.44480347,0.16591164
1886.37361084,0.16801611
1888.30241821,0.16465895
1890.23122559,0.16144279
1892.16003296,0.16720289
1894.08884033,0.16511321
1896.01764771,0.16427457
1897.94645508,0.16599192
1899.87526245,0.16523066
1901.80406982,0.16552567
1903.73287720,0.16451590
1905.66168457,0.16522235
1907.59049194,0.16360626
1909.51929932,0.16246496
1911.44810669,0.16332579
1913.37691406,0.16352648
1915.30572144,0.16494039
1917.23452881,0.15810233
1919.16333618,0.15815786
1921.09214355,0.16402648
1923.02095093,0.15895632
1924.94975830,0.16180919
1926.87856567,0.16365504
1928.80737305,0.16160133
1930.73618042,0.16351166
1932.66498779,0.16134802
1934.59379517,0.16263384
1936.52260254,0.16146931
1938.45140991,0.16185085
1940.38021729,0.16212159
1942.30902466,0.15708598
1944.23783203,0.15961181
1946.16663940,0.16109607
1948.09544678,0.16082433
1950.02425415,0.16138910
1951.95306152,0.16080584
1953.88186890,0.16116342
1955.81067627,0.16030711
1957.73948364,0.16077811
1959.66829102,0.16058093
1961.59709839,0.16009995
1963.52590576,0.16063026
1965.45471313,0.15966743
1967.38352051,0.15812574
1969.31232788,0.15931876
1971.24113525,0.16029528
1973.16994263,0.15912488
1975.09875000,0.15968883
1977.02755737,0.15902102
1978.95636475,0.15895465
1980.88517212,0.15887284
1982.81397949,0.15819235
1984.74278687,0.15880169
1986.67159424,0.15749538
1988.60040161,0.15770093
1990.52920898,0.15645850
1992.45801636,0.15469600
1994.38682373,0.15675536
1996.31563110,0.15710288
1998.24443848,0.15626891
2000.17324585,0.15621603
2002.10205322,0.15593480
2004.03086060,0.15565187
2005.95966797,0.15524073
2007.88847534,0.15472576
2009.81728271,0.15461519
2011.74609009,0.15424246
2013.67489746,0.15414801
2015.60370483,0.15326130
2017.53251221,0.15194006
2019.46131958,0.15288876
2021.39012695,0.15274435
2023.31893433,0.15210997
2025.24774170,0.15206912
2027.17654907,0.15158743
2029.10535645,0.15152031
2031.03416382,0.15099758
2032.96297119,0.15082437
2034.89177856,0.15041460
2036.82058594,0.15014017
2038.74939331,0.14973053
2040.67820068,0.14888152
2042.60700806,0.14891395
2044.53581543,0.14875600
2046.46462280,0.14847645
2048.39343018,0.14807665
2050.32223755,0.14786363
2052.25104492,0.14765841
2054.17985229,0.14728817
2056.10865967,0.14705382
2058.03746704,0.14659396
2059.96627441,0.14623308
2061.89508179,0.14604068
2063.82388916,0.14550573
2065.75269653,0.14477453
2067.68150391,0.14521208
2069.61031128,0.14513490
2071.53911865,0.14453667
2073.46792603,0.14449963
2075.39673340,0.14407074
2077.32554077,0.14386445
2079.25434814,0.14344282
2081.18315552,0.14335041
2083.11196289,0.14308852
2085.04077026,0.14265075
2086.96957764,0.14253807
2088.89838501,0.14194119
2090.82719238,0.14175135
2092.75599976,0.14161804
2094.68480713,0.14147601
2096.61361450,0.14116743
2098.54242187,0.14096439
2100.47122925,0.14080331
2102.40003662,0.14041114
2104.32884399,0.14019960
2106.25765137,0.13985446
2108.18645874,0.13989592
2110.11526611,0.13947774
2112.04407349,0.13918081
2113.97288086,0.13921070
2115.90168823,0.13890120
2117.83049561,0.13873675
2119.75930298,0.13844593
2121.68811035,0.13823453
2123.61691772,0.13790245
2125.54572510,0.13790236
2127.47453247,0.13770902
2129.40333984,0.13749290
2131.33214722,0.13744205
2133.26095459,0.13711311
2135.18976196,0.13702041
2137.11856934,0.13662691
2139.04737671,0.13662282
2140.97618408,0.13649553
2142.90499146,0.13633370
2144.83379883,0.13616118
2146.76260620,0.13577354
2148.69141357,0.13584614
2150.62022095,0.13549259
2152.54902832,0.13551968
2154.47783569,0.13536382
2156.40664307,0.13505973
2158.33545044,0.13499522
2160.26425781,0.13475995
2162.19306519,0.13474503
2164.12187256,0.13446471
2166.05067993,0.13448602
2167.97948730,0.13427792
2169.90829468,0.13408980
2171.83710205,0.13401736
2173.76590942,0.13378254
2175.69471680,0.13380414
2177.62352417,0.13358685
2179.55233154,0.13339156
2181.48113892,0.13315365
2183.40994629,0.13315943
2185.33875366,0.13296619
2187.26756104,0.13279974
2189.19636841,0.13266498
2191.12517578,0.13241240
2193.05398315,0.13246006
2194.98279053,0.13215736
2196.91159790,0.13219801
2198.84040527,0.13191575
2200.76921265,0.13171554
2202.69802002,0.13168621
2204.62682739,0.13138247
2206.55563477,0.13149984
2208.48444214,0.13124758
2210.41324951,0.13120371
2212.34205688,0.13094321
2214.27086426,0.13076413
2216.19967163,0.13072243
2218.12847900,0.13043627
2220.05728638,0.13037789
2221.98609375,0.13005543
2223.91490112,0.13006896
2225.84370850,0.12982544
2227.77251587,0.12966451
2229.70132324,0.12960157
2231.63013062,0.12932822
2233.55893799,0.12917861
2235.48774536,0.12889117
2237.41655273,0.12878081
2239.34536011,0.12834597
2241.27416748,0.12835765
2243.20297485,0.12825418
2245.13178223,0.12800640
2247.06058960,0.12799400
2248.98939697,0.12757219
2250.91820435,0.12759642
2252.84701172,0.12735680
2254.77581909,0.12704679
2256.70462646,0.12694009
2258.63343384,0.12687616
2260.56224121,0.12667078
2262.49104858,0.12647848
2264.41985596,0.12651289
2266.34866333,0.12615298
2268.27747070,0.12617378
2270.20627808,0.12587339
2272.13508545,0.12555054
2274.06389282,0.12557723
2275.99270020,0.12549993
2277.92150757,0.12547272
2279.85031494,0.12516698
2281.77912231,0.12515533
2283.70792969,0.12497828
2285.63673706,0.12490133
2287.56554443,0.12464690
2289.49435181,0.12419687
2291.42315918,0.12402614
2293.35196655,0.12358105
2295.28077393,0.12333700
2297.20958130,0.12296873
2299.13838867,0.12261294
2301.06719604,0.12204902
2302.99600342,0.12151784
2304.92481079,0.12102886
2306.85361816,0.12015325
2308.78242554,0.11944906
2310.71123291,0.11850037
2312.64004028,0.11746258
2314.56884766,0.11622445
2316.49765503,0.11506000
2318.42646240,0.11360559
2320.35526978,0.11190379
2322.28407715,0.11038120
2324.21288452,0.10890207
2326.14169189,0.10796350
2328.07049927,0.10646124
2329.99930664,0.10505510
2331.92811401,0.10432075
2333.85692139,0.10395384
2335.78572876,0.10349688
2337.71453613,0.10319960
2339.64334351,0.10333409
2341.57215088,0.10349834
2343.50095825,0.10524908
2345.42976562,0.10709876
2347.35857300,0.11136867
2349.28738037,0.11525388
2351.21618774,0.11135234
2353.14499512,0.10574841
2355.07380249,0.10180929
2357.00260986,0.09865314
2358.93141724,0.09676397
2360.86022461,0.09569939
2362.78903198,0.09566881
2364.71783936,0.09605354
2366.64664673,0.09748100
2368.57545410,0.09935922
2370.50426147,0.10192496
2372.43306885,0.10476282
2374.36187622,0.10743235
2376.29068359,0.11043468
2378.21949097,0.11279094
2380.14829834,0.11475007
2382.07710571,0.11581710
2384.00591309,0.11654649
2385.93472046,0.11709902
2387.86352783,0.11706150
2389.79233521,0.11705138
2391.72114258,0.11692157
2393.64994995,0.11687408
2395.57875732,0.11676119
2397.50756470,0.11661645
2399.43637207,0.11633681
2401.36517944,0.11620191
2403.29398682,0.11609454
2405.22279419,0.11581846
2407.15160156,0.11574022
2409.08040894,0.11568258
2411.00921631,0.11561422
2412.93802368,0.11532619
2414.86683105,0.11518621
2416.79563843,0.11500670
2418.72444580,0.11497858
2420.65325317,0.11483032
2422.58206055,0.11451528
2424.51086792,0.11463875
2426.43967529,0.11424571
2428.36848267,0.11404625
2430.29729004,0.11405687
2432.22609741,0.11399196
2434.15490479,0.11382704
2436.08371216,0.11352548
2438.01251953,0.11351861
2439.94132690,0.11320128
2441.87013428,0.11321928
2443.79894165,0.11307917
2445.72774902,0.11286145
2447.65655640,0.11289436
2449.58536377,0.11259805
2451.51417114,0.11248353
2453.44297852,0.11232851
2455.37178589,0.11231452
2457.30059326,0.11211891
2459.22940063,0.11185011
2461.15820801,0.11172482
2463.08701538,0.11161292
2465.01582275,0.11146495
2466.94463013,0.11121449
2468.87343750,0.11128066
2470.80224487,0.11103314
2472.73105225,0.11091259
2474.65985962,0.11072791
2476.58866699,0.11049625
2478.51747437,0.11049418
2480.44628174,0.11019903
2482.37508911,0.11025597
2484.30389648,0.11006141
2486.23270386,0.10990556
2488.16151123,0.10981598
2490.09031860,0.10956922
2492.01912598,0.10953504
2493.94793335,0.10928646
2495.87674072,0.10916620
2497.80554810,0.10901970
2499.73435547,0.10893441
2501.66316284,0.10870500
2503.59197021,0.10860534
2505.52077759,0.10861932
2507.44958496,0.10832514
2509.37839233,0.10828410
2511.30719971,0.10803327
2513.23600708,0.10792248
2515.16481445,0.10784283
2517.09362183,0.10772049
2519.02242920,0.10767561
2520.95123657,0.10739911
2522.88004395,0.10738650
2524.80885132,0.10714416
2526.73765869,0.10701483
2528.66646606,0.10697667
2530.59527344,0.10671893
2532.52408081,0.10669371
2534.45288818,0.10645302
2536.38169556,0.10627168
2538.31050293,0.10625536
2540.23931030,0.10608225
2542.16811768,0.10592384
2544.09692505,0.10581093
2546.02573242,0.10573302
2547.95453979,0.10553645
2549.88334717,0.10535863
2551.81215454,0.10537878
2553.74096191,0.10510591
2555.66976929,0.10497128
2557.59857666,0.10504459
2559.52738403,0.10470589
2561.45619141,0.10457930
2563.38499878,0.10442135
2565.31380615,0.10421872
2567.24261353,0.10422181
2569.17142090,0.10407679
2571.10022827,0.10392413
2573.02903564,0.10378655
2574.95784302,0.10372284
2576.88665039,0.10344613
2578.81545776,0.10334393
2580.74426514,0.10327692
2582.67307251,0.10294548
2584.60187988,0.10286078
2586.53068726,0.10277779
2588.45949463,0.10269988
2590.38830200,0.10253905
2592.31710937,0.10247752
2594.24591675,0.10230625
2596.17472412,0.10206804
2598.10353149,0.10202951
2600.03233887,0.10179925
2601.96114624,0.10172755
2603.88995361,0.10164096
2605.81876099,0.10151316
2607.74756836,0.10124658
2609.67637573,0.10103815
2611.60518311,0.10099202
2613.53399048,0.10083885
2615.46279785,0.10087441
2617.39160522,0.10067403
2619.32041260,0.10049612
2621.24921997,0.10027502
2623.17802734,0.10015559
2625.10683472,0.10009228
2627.03564209,0.09984633
2628.96444946,0.09990171
2630.89325684,0.09963119
2632.82206421,0.09954006
2634.75087158,0.09936436
2636.67967895,0.09906279
2638.60848633,0.09916653
2640.53729370,0.09894272
2642.46610107,0.09885778
2644.39490845,0.09873828
2646.32371582,0.09858866
2648.25252319,0.09856665
2650.18133057,0.09832253
2652.11013794,0.09811853
2654.03894531,0.09806933
2655.96775269,0.09784304
2657.89656006,0.09757771
2659.82536743,0.09760124
2661.75417480,0.09728087
2663.68298218,0.09724922
2665.61178955,0.09722570
2667.54059692,0.09684156
2669.46940430,0.09692077
2671.39821167,0.09674913
2673.32701904,0.09652635
2675.25582642,0.09643768
2677.18463379,0.09641670
2679.11344116,0.09624206
2681.04224854,0.09590705
2682.97105591,0.09595535
2684.89986328,0.09576829
2686.82867065,0.09554611
2688.75747803,0.09541515
2690.68628540,0.09533683
2692.61509277,0.09531428
2694.54390015,0.09505042
2696.47270752,0.09484439
2698.40151489,0.09473847
2700.33032227,0.09470694
2702.25912964,0.09454452
2704.18793701,0.09433167
2706.11674438,0.09423821
2708.04555176,0.09416343
2709.97435913,0.09399103
2711.90316650,0.09374934
2713.83197388,0.09362480
2715.76078125,0.09355591
2717.68958862,0.09339040
2719.61839600,0.09304176
2721.54720337,0.09296694
2723.47601074,0.09291896
2725.40481812,0.09267436
2727.33362549,0.09259966
2729.26243286,0.09249133
2731.19124023,0.09236623
2733.12004761,0.09216826
2735.04885498,0.09196350
2736.97766235,0.09186427
2738.90646973,0.09179682
2740.83527710,0.09161608
2742.76408447,0.09143297
2744.69289185,0.09131306
2746.62169922,0.09113406
2748.55050659,0.09112472
2750.47931396,0.09094280
2752.40812134,0.09063448
2754.33692871,0.09046866
2756.26573608,0.09045267
2758.19454346,0.09026708
2760.12335083,0.09000587
2762.05215820,0.09006198
2763.98096558,0.08978149
2765.90977295,0.08964713
2767.83858032,0.08957419
2769.76738770,0.08935341
2771.69619507,0.08925787
2773.62500244,0.08888701
2775.55380981,0.08885621
2777.48261719,0.08882161
2779.41142456,0.08858529
2781.34023193,0.08840739
2783.26903931,0.08828200
2785.19784668,0.08815867
2787.12665405,0.08787766
2789.05546143,0.08779348
2790.98426880,0.08756860
2792.91307617,0.08740512
2794.84188354,0.08725574
2796.77069092,0.08707611
2798.69949829,0.08694656
2800.62830566,0.08675298
2802.55711304,0.08673806
2804.48592041,0.08637671
2806.41472778,0.08628890
2808.34353516,0.08620699
2810.27234253,0.08587777
2812.20114990,0.08587053
2814.12995728,0.08557469
2816.05876465,0.08537474
2817.98757202,0.08523914
2819.91637939,0.08507624
2821.84518677,0.08493303
2823.77399414,0.08474815
2825.70280151,0.08463880
2827.63160889,0.08434313
2829.56041626,0.08420055
2831.48922363,0.08406636
2833.41803101,0.08377623
2835.34683838,0.08350632
2837.27564575,0.08336253
2839.20445312,0.08320841
2841.13326050,0.08293327
2843.06206787,0.08261587
2844.99087524,0.08217831
2846.91968262,0.08172816
2848.84848999,0.08115029
2850.77729736,0.08101044
2852.70610474,0.08113690
2854.63491211,0.08095121
2856.56371948,0.08077276
2858.49252686,0.08064824
2860.42133423,0.08063231
2862.35014160,0.08035381
2864.27894897,0.08016067
2866.20775635,0.08005904
2868.13656372,0.07981273
2870.06537109,0.07984444
2871.99417847,0.07966025
2873.92298584,0.07943716
2875.85179321,0.07935251
2877.78060059,0.07925004
2879.70940796,0.07917832
2881.63821533,0.07898527
2883.56702270,0.07879791
2885.49583008,0.07865795
2887.42463745,0.07855843
2889.35344482,0.07838426
2891.28225220,0.07814296
2893.21105957,0.07790180
2895.13986694,0.07774699
2897.06867432,0.07754403
2898.99748169,0.07728930
2900.92628906,0.07715839
2902.85509644,0.07683415
2904.78390381,0.07661237
2906.71271118,0.07653879
2908.64151855,0.07613957
2910.57032593,0.07573290
2912.49913330,0.07545408
2914.42794067,0.07491320
2916.35674805,0.07450332
2918.28555542,0.07441400
2920.21436279,0.07419227
2922.14317017,0.07411429
2924.07197754,0.07396789
2926.00078491,0.07370514
2927.92959229,0.07362401
2929.85839966,0.07353538
2931.78720703,0.07353317
2933.71601440,0.07345758
2935.64482178,0.07335003
2937.57362915,0.07329589
2939.50243652,0.07334334
2941.43124390,0.07331436
2943.36005127,0.07305034
2945.28885864,0.07295222
2947.21766602,0.07286000
2949.14647339,0.07267188
2951.07528076,0.07241803
2953.00408813,0.07224591
2954.93289551,0.07213528
2956.86170288,0.07184044
2958.79051025,0.07153256
2960.71931763,0.07121530
2962.64812500,0.07105892
2964.57693237,0.07094195
2966.50573975,0.07081002
2968.43454712,0.07084457
2970.36335449,0.07083868
2972.29216187,0.07080711
2974.22096924,0.07075581
2976.14977661,0.07070623
2978.07858398,0.07067308
2980.00739136,0.07064519
2981.93619873,0.07061067
2983.86500610,0.07048871
2985.79381348,0.07031263
2987.72262085,0.07014534
2989.65142822,0.07003187
2991.58023560,0.06994245
2993.50904297,0.06972930
2995.43785034,0.06948042
2997.36665771,0.06944390
2999.29546509,0.06923296
3001.22427246,0.06892407
3003.15307983,0.06882249
3005.08188721,0.06867535
3007.01069458,0.06855273
3008.93950195,0.06827974
3010.86830933,0.06794857
3012.79711670,0.06777631
3014.72592407,0.06760056
3016.65473145,0.06734343
3018.58353882,0.06710814
3020.51234619,0.06706598
3022.44115356,0.06688081
3024.36996094,0.06654243
3026.29876831,0.06630608
3028.22757568,0.06621481
3030.15638306,0.06598402
3032.08519043,0.06555632
3034.01399780,0.06539921
3035.94280518,0.06530769
3037.87161255,0.06517427
3039.80041992,0.06489034
3041.72922729,0.06455466
3043.65803467,0.06446265
3045.58684204,0.06417602
3047.51564941,0.06388184
3049.44445679,0.06373812
3051.37326416,0.06351417
3053.30207153,0.06333470
3055.23087891,0.06307319
3057.15968628,0.06280582
3059.08849365,0.06267916
3061.01730103,0.06247224
3062.94610840,0.06222101
3064.87491577,0.06188782
3066.80372314,0.06158264
3068.73253052,0.06149667
3070.66133789,0.06137208
3072.59014526,0.06120274
3074.51895264,0.06088119
3076.44776001,0.06070335
3078.37656738,0.06050694
3080.30537476,0.05998456
3082.23418213,0.05986729
3084.16298950,0.05965098
3086.09179687,0.05941799
3088.02060425,0.05937403
3089.94941162,0.05899383
3091.87821899,0.05883742
3093.80702637,0.05856690
3095.73583374,0.05811768
3097.66464111,0.05796004
3099.59344849,0.05774500
3101.52225586,0.05741284
3103.45106323,0.05721886
3105.37987061,0.05704832
3107.30867798,0.05675837
3109.23748535,0.05651025
3111.16629272,0.05620536
3113.09510010,0.05593823
3115.02390747,0.05552104
3116.95271484,0.05505041
3118.88152222,0.05493553
3120.81032959,0.05477987
3122.73913696,0.05449368
3124.66794434,0.05418538
3126.59675171,0.05393720
3128.52555908,0.05375756
3130.45436645,0.05350409
3132.38317383,0.05307990
3134.31198120,0.05285032
3136.24078857,0.05267692
3138.16959595,0.05220128
3140.09840332,0.05200225
3142.02721069,0.05170899
3143.95601807,0.05139599
3145.88482544,0.05114629
3147.81363281,0.05081417
3149.74244019,0.05068238
3151.67124756,0.05019351
3153.60005493,0.04993401
3155.52886230,0.04980085
3157.45766968,0.04947456
3159.38647705,0.04922620
3161.31528442,0.04883706
3163.24409180,0.04868425
3165.17289917,0.04837850
3167.10170654,0.04803829
3169.03051392,0.04780830
3170.95932129,0.04743160
3172.88812866,0.04722994
3174.81693604,0.04702808
3176.74574341,0.04671172
3178.67455078,0.04642341
3180.60335815,0.04619196
3182.53216553,0.04591478
3184.46097290,0.04569339
3186.38978027,0.04538068
3188.31858765,0.04514989
3190.24739502,0.04488232
3192.17620239,0.04460153
3194.10500977,0.04465703
3196.03381714,0.04421447
3197.96262451,0.04389714
3199.89143188,0.04385883
3201.82023926,0.04360257
3203.74904663,0.04340224
3205.67785400,0.04310381
3207.60666138,0.04296414
3209.53546875,0.04262431
3211.46427612,0.04243193
3213.39308350,0.04237497
3215.32189087,0.04213223
3217.25069824,0.04202804
3219.17950562,0.04179696
3221.10831299,0.04157456
3223.03712036,0.04129890
3224.96592773,0.04124966
3226.89473511,0.04114943
3228.82354248,0.04096700
3230.75234985,0.04084552
3232.68115723,0.04057278
3234.60996460,0.04064632
3236.53877197,0.04047669
3238.46757935,0.04026487
3240.39638672,0.04015653
3242.32519409,0.04000136
3244.25400146,0.03992076
3246.18280884,0.03978039
3248.11161621,0.03988251
3250.04042358,0.03971994
3251.96923096,0.03960458
3253.89803833,0.03944171
3255.82684570,0.03925350
3257.75565308,0.03929661
3259.68446045,0.03906827
3261.61326782,0.03910402
3263.54207520,0.03901320
3265.47088257,0.03884920
3267.39968994,0.03887135
3269.32849731,0.03879305
3271.25730469,0.03870889
3273.18611206,0.03854268
3275.11491943,0.03852276
3277.04372681,0.03841742
3278.97253418,0.03836147
3280.90134155,0.03835700
3282.83014893,0.03824722
3284.75895630,0.03823114
3286.68776367,0.03814659
3288.61657104,0.03801835
3290.54537842,0.03790162
3292.47418579,0.03781351
3294.40299316,0.03773195
3296.33180054,0.03771102
3298.26060791,0.03764499
3300.18941528,0.03758713
3302.11822266,0.03750513
3304.04703003,0.03741551
3305.97583740,0.03737041
3307.90464478,0.03718171
3309.83345215,0.03718683
3311.76225952,0.03715013
3313.69106689,0.03705540
3315.61987427,0.03703951
3317.54868164,0.03699928
3319.47748901,0.03690707
3321.40629639,0.03673114
3323.33510376,0.03673048
3325.26391113,0.03660650
3327.19271851,0.03655195
3329.12152588,0.03648323
3331.05033325,0.03641942
3332.97914062,0.03641297
3334.90794800,0.03616872
3336.83675537,0.03613824
3338.76556274,0.03612295
3340.69437012,0.03616349
3342.62317749,0.03602983
3344.55198486,0.03591973
3346.48079224,0.03600333
3348.40959961,0.03577215
3350.33840698,0.03565700
3352.26721436,0.03560943
3354.19602173,0.03563793
3356.12482910,0.03558502
3358.05363647,0.03553632
3359.98244385,0.03546047
3361.91125122,0.03535024
3363.84005859,0.03536016
3365.76886597,0.03514442
3367.69767334,0.03511555
3369.62648071,0.03503019
3371.55528809,0.03507213
3373.48409546,0.03511363
3375.41290283,0.03504882
3377.34171020,0.03503383
3379.27051758,0.03488901
3381.19932495,0.03508385
3383.12813232,0.03489934
3385.05693970,0.03481141
3386.98574707,0.03488642
3388.91455444,0.03484331
3390.84336182,0.03471833
3392.77216919,0.03445324
3394.70097656,0.03480533
3396.62978394,0.03471024
3398.55859131,0.03454699
3400.48739868,0.03455089
3402.41620605,0.03465541
3404.34501343,0.03478660
3406.27382080,0.03449205
3408.20262817,0.03472793
3410.13143555,0.03472569
3412.06024292,0.03476918
3413.98905029,0.03477138
3415.91785767,0.03474843
3417.84666504,0.03486242
3419.77547241,0.03458154
3421.70427979,0.03461897
3423.63308716,0.03449537
3425.56189453,0.03479215
3427.49070190,0.03480795
3429.41950928,0.03467394
3431.34831665,0.03492869
3433.27712402,0.03481404
3435.20593140,0.03495385
3437.13473877,0.03474829
3439.06354614,0.03502940
3440.99235352,0.03502880
3442.92116089,0.03472080
3444.84996826,0.03496268
3446.77877563,0.03461334
3448.70758301,0.03485805
3450.63639038,0.03521243
3452.56519775,0.03524416
3454.49400513,0.03531649
3456.42281250,0.03526849
3458.35161987,0.03528704
3460.28042725,0.03531196
3462.20923462,0.03532651
3464.13804199,0.03532941
3466.06684937,0.03555761
3467.99565674,0.03541390
3469.92446411,0.03550934
3471.85327148,0.03572951
3473.78207886,0.03566604
3475.71088623,0.03563710
3477.63969360,0.03573079
3479.56850098,0.03587902
3481.49730835,0.03545002
3483.42611572,0.03576695
3485.35492310,0.03597518
3487.28373047,0.03579766
3489.21253784,0.03605175
3491.14134521,0.03613564
3493.07015259,0.03638106
3494.99895996,0.03619750
3496.92776733,0.03626240
3498.85657471,0.03641786
3500.78538208,0.03646101
3502.71418945,0.03610252
3504.64299683,0.03605459
3506.57180420,0.03691863
3508.50061157,0.03646141
3510.42941895,0.03647471
3512.35822632,0.03689352
3514.28703369,0.03698497
3516.21584106,0.03716711
3518.14464844,0.03692845
3520.07345581,0.03735532
3522.00226318,0.03711659
3523.93107056,0.03675015
3525.85987793,0.03694513
3527.78868530,0.03692359
3529.71749268,0.03711145
3531.64630005,0.03757708
3533.57510742,0.03791587
3535.50391479,0.03757010
3537.43272217,0.03752426
3539.36152954,0.03797453
3541.29033691,0.03818225
3543.21914429,0.03785856
3545.14795166,0.03714796
3547.07675903,0.03674851
3549.00556641,0.03787447
3550.93437378,0.03838849
3552.86318115,0.03747990
3554.79198853,0.03822225
3556.72079590,0.03858663
3558.64960327,0.03849218
3560.57841064,0.03830606
3562.50721802,0.03816704
3564.43602539,0.03859166
3566.36483276,0.03624340
3568.29364014,0.03543502
3570.22244751,0.03813999
3572.15125488,0.03920664
3574.08006226,0.03881897
3576.00886963,0.03900382
3577.93767700,0.03903425
3579.86648437,0.03895629
3581.79529175,0.03911668
3583.72409912,0.03927284
3585.65290649,0.03863006
3587.58171387,0.03582241
3589.51052124,0.03676150
3591.43932861,0.03987361
3593.36813599,0.03883058
3595.29694336,0.03827526
3597.22575073,0.03894395
3599.15455811,0.03922871
3601.08336548,0.03903382
3603.01217285,0.03938299
3604.94098022,0.04025156
3606.86978760,0.03908060
3608.79859497,0.03687162
3610.72740234,0.03775097
3612.65620972,0.03863254
3614.58501709,0.03763614
3616.51382446,0.04022402
3618.44263184,0.03748721
3620.37143921,0.03621361
3622.30024658,0.04044184
3624.22905395,0.03959076
3626.15786133,0.04133127
3628.08666870,0.03554762
3630.01547607,0.03268144
3631.94428345,0.04043112
3633.87309082,0.03963160
3635.80189819,0.04025577
3637.73070557,0.04112814
3639.65951294,0.04061165
3641.58832031,0.04097538
3643.51712769,0.04061015
3645.44593506,0.04107802
3647.37474243,0.03716659
3649.30354980,0.03434719
3651.23235718,0.03489159
3653.16116455,0.04093854
3655.08997192,0.04061820
3657.01877930,0.03672029
3658.94758667,0.04179033
3660.87639404,0.04107765
3662.80520142,0.04162916
3664.73400879,0.04168389
3666.66281616,0.04137903
3668.59162354,0.04040848
3670.52043091,0.03347905
3672.44923828,0.03984946
3674.37804565,0.03837246
3676.30685303,0.03210121
3678.23566040,0.03976956
3680.16446777,0.04083427
3682.09327515,0.04079168
3684.02208252,0.04203615
3685.95088989,0.04151102
3687.87969727,0.03774127
3689.80850464,0.03468873
3691.73731201,0.03925791
3693.66611938,0.04037642
3695.59492676,0.04130209
3697.52373413,0.04149581
3699.45254150,0.04102017
3701.38134888,0.04017616
3703.31015625,0.03863313
3705.23896362,0.04210204
3707.16777100,0.04029093
3709.09657837,0.03940002
3711.02538574,0.03735552
3712.95419312,0.03506435
3714.88300049,0.04075145
3716.81180786,0.04014465
3718.74061523,0.04039861
3720.66942261,0.03974501
3722.59822998,0.03840517
3724.52703735,0.03978570
3726.45584473,0.03703723
3728.38465210,0.04004975
3730.31345947,0.03962883
3732.24226685,0.03655271
3734.17107422,0.03588302
3736.09988159,0.03411189
3738.02868896,0.03588277
3739.95749634,0.03867423
3741.88630371,0.04055687
3743.81511108,0.03200966
3745.74391846,0.03008465
3747.67272583,0.03849545
3749.60153320,0.03344475
3751.53034058,0.03092827
3753.45914795,0.03529590
3755.38795532,0.03787560
3757.31676270,0.03921165
3759.24557007,0.03651142
3761.17437744,0.03769126
3763.10318481,0.03972382
3765.03199219,0.03744566
3766.96079956,0.03813409
3768.88960693,0.03759778
3770.81841431,0.03609867
3772.74722168,0.03883135
3774.67602905,0.03890926
3776.60483643,0.03887696
3778.53364380,0.03783327
3780.46245117,0.03645511
3782.39125854,0.03871178
3784.32006592,0.03786540
3786.24887329,0.03769524
3788.17768066,0.03844023
3790.10648804,0.03820781
3792.03529541,0.03807155
3793.96410278,0.03861714
3795.89291016,0.03645612
3797.82171753,0.03595812
3799.75052490,0.03781256
3801.67933228,0.03049590
3803.60813965,0.03506754
3805.53694702,0.03803501
3807.46575439,0.03146930
3809.39456177,0.03755683
3811.32336914,0.03690859
3813.25217651,0.03809981
3815.18098389,0.03467122
3817.10979126,0.03052079
3819.03859863,0.03814629
3820.96740601,0.03142580
3822.89621338,0.03271223
3824.82502075,0.03779122
3826.75382812,0.03437907
3828.68263550,0.03691838
3830.61144287,0.03555356
3832.54025024,0.03437688
3834.46905762,0.03511731
3836.39786499,0.03347631
3838.32667236,0.03045705
3840.25547974,0.03287472
3842.18428711,0.03527741
3844.11309448,0.03362481
3846.04190186,0.03615710
3847.97070923,0.03564204
3849.89951660,0.03570449
3851.82832397,0.03239821
3853.75713135,0.02476399
3855.68593872,0.02885636
3857.61474609,0.03579967
3859.54355347,0.03494696
3861.47236084,0.03439905
3863.40116821,0.03384778
3865.32997559,0.03160458
3867.25878296,0.03491923
3869.18759033,0.03222211
3871.11639770,0.02994078
3873.04520508,0.03504330
3874.97401245,0.03236516
3876.90281982,0.03468899
3878.83162720,0.03534922
3880.76043457,0.03063002
3882.68924194,0.03485300
3884.61804932,0.03283867
3886.54685669,0.03020826
3888.47566406,0.03487409
3890.40447144,0.03329419
3892.33327881,0.03131599
3894.26208618,0.03411027
3896.19089355,0.03458179
3898.11970093,0.03297807
3900.04850830,0.03134286
3901.97731567,0.03096689
3903.90612305,0.03089253
3905.83493042,0.03126828
3907.76373779,0.03387650
3909.69254517,0.03388371
3911.62135254,0.03353447
3913.55015991,0.03411870
3915.47896728,0.03306367
3917.40777466,0.03229602
3919.33658203,0.03198667
3921.26538940,0.03306815
3923.19419678,0.03295518
3925.12300415,0.03233913
3927.05181152,0.03282575
3928.98061890,0.03300583
3930.90942627,0.03249853
3932.83823364,0.03147229
3934.76704102,0.03267326
3936.69584839,0.03301936
3938.62465576,0.03262822
3940.55346313,0.03289192
3942.48227051,0.03178360
3944.41107788,0.03201663
3946.33988525,0.03251898
3948.26869263,0.03184361
3950.19750000,0.03180623
3952.12630737,0.03229535
3954.05511475,0.03227457
3955.98392212,0.03214539
3957.91272949,0.03208767
3959.84153687,0.03202846
3961.77034424,0.03181121
3963.69915161,0.03167034
3965.62795898,0.03215713
3967.55676636,0.03182186
3969.48557373,0.03171633
3971.41438110,0.03172921
3973.34318848,0.03137302
3975.27199585,0.03139632
3977.20080322,0.03132606
3979.12961060,0.03162196
3981.05841797,0.03135075
3982.98722534,0.03131922
3984.91603271,0.03136014
3986.84484009,0.03123231
3988.77364746,0.03122661
3990.70245483,0.03086783
3992.63126221,0.03115510
3994.56006958,0.03092470
3996.48887695,0.03086638
3998.41768433,0.03090261
4000.34649170,0.03070923
4002.27529907,0.03083779
4004.20410645,0.03059359
4006.13291382,0.03061942
4008.06172119,0.03037904
4009.99052856,0.03033524
4011.91933594,0.03043803
4013.84814331,0.03041631
4015.77695068,0.03030436
4017.70575806,0.03009561
4019.63456543,0.03015985
4021.56337280,0.02998316
4023.49218018,0.03011020
4025.42098755,0.02993128
4027.34979492,0.02983771
4029.27860229,0.02984498
4031.20740967,0.02974963
4033.13621704,0.02991412
4035.06502441,0.02961936
4036.99383179,0.02967412
4038.92263916,0.02958038
4040.85144653,0.02944917
4042.78025391,0.02943831
4044.70906128,0.02930224
4046.63786865,0.02928299
4048.56667603,0.02923589
4050.49548340,0.02928477
4052.42429077,0.02902892
4054.35309814,0.02906686
4056.28190552,0.02896909
4058.21071289,0.02899011
4060.13952026,0.02898123
4062.06832764,0.02872690
4063.99713501,0.02891479
4065.92594238,0.02865573
4067.85474976,0.02868969
4069.78355713,0.02864512
4071.71236450,0.02852736
4073.64117187,0.02855621
4075.56997925,0.02840649
4077.49878662,0.02843180
4079.42759399,0.02825819
4081.35640137,0.02835235
4083.28520874,0.02815628
4085.21401611,0.02810653
4087.14282349,0.02808745
4089.07163086,0.02790989
4091.00043823,0.02800047
4092.92924561,0.02780890
4094.85805298,0.02788179
4096.78686035,0.02771904
4098.71566772,0.02771360
4100.64447510,0.02772800
4102.57328247,0.02758659
4104.50208984,0.02755259
4106.43089722,0.02734925
4108.35970459,0.02747200
4110.28851196,0.02732266
4112.21731934,0.02728066
4114.14612671,0.02720252
4116.07493408,0.02717901
4118.00374145,0.02716066
4119.93254883,0.02695896
4121.86135620,0.02707852
4123.79016357,0.02685958
4125.71897095,0.02693039
4127.64777832,0.02692103
4129.57658569,0.02685846
4131.50539307,0.02678963
4133.43420044,0.02659470
4135.36300781,0.02669582
4137.29181519,0.02646641
4139.22062256,0.02651767
4141.14942993,0.02644716
4143.07823730,0.02640935
4145.00704468,0.02635340
4146.93585205,0.02616170
4148.86465942,0.02631557
4150.79346680,0.02618080
4152.72227417,0.02616652
4154.65108154,0.02599988
4156.57988892,0.02600539
4158.50869629,0.02601714
4160.43750366,0.02582926
4162.36631103,0.02587231
4164.29511841,0.02575298
4166.22392578,0.02578105
4168.15273315,0.02565668
4170.08154053,0.02561749
4172.01034790,0.02556533
4173.93915527,0.02546559
4175.86796265,0.02548742
4177.79677002,0.02541356
4179.72557739,0.02538127
4181.65438477,0.02524728
4183.58319214,0.02531039
4185.51199951,0.02521614
4187.44080688,0.02517994
4189.36961426,0.02509523
4191.29842163,0.02497753
4193.22722900,0.02501358
4195.15603638,0.02482319
4197.08484375,0.02490139
4199.01365112,0.02477894
4200.94245850,0.02478011
4202.87126587,0.02469958
4204.80007324,0.02450535
4206.72888062,0.02467743
4208.65768799,0.02454779
4210.58649536,0.02446076
4212.51530273,0.02434164
4214.44411011,0.02434031
4216.37291748,0.02428255
4218.30172485,0.02421203
4220.23053223,0.02422060
4222.15933960,0.02410844
4224.08814697,0.02419369
4226.01695435,0.02400780
4227.94576172,0.02399256
4229.87456909,0.02396159
4231.80337646,0.02385508
4233.73218384,0.02391988
4235.66099121,0.02378780
4237.58979858,0.02371934
4239.51860596,0.02367865
4241.44741333,0.02367111
4243.37622070,0.02356010
4245.30502808,0.02359002
4247.23383545,0.02352758
4249.16264282,0.02342051
4251.09145020,0.02348173
4253.02025757,0.02336015
4254.94906494,0.02325527
4256.87787231,0.02317833
4258.80667969,0.02327099
4260.73548706,0.02310194
4262.66429443,0.02306550
4264.59310181,0.02312179
4266.52190918,0.02296508
4268.45071655,0.02302893
4270.37952393,0.02287819
4272.30833130,0.02287316
4274.23713867,0.02275870
4276.16594604,0.02272788
4278.09475342,0.02272429
4280.02356079,0.02252929
4281.95236816,0.02265900
4283.88117554,0.02258736
4285.80998291,0.02251309
4287.73879028,0.02238723
4289.66759766,0.02243663
4291.59640503,0.02241516
4293.52521240,0.02222292
4295.45401978,0.02227239
4297.38282715,0.02216791
4299.31163452,0.02217331
4301.24044189,0.02209814
4303.16924927,0.02212621
4305.09805664,0.02203977
4307.02686401,0.02195974
4308.95567139,0.02193863
4310.88447876,0.02173061
4312.81328613,0.02187655
4314.74209351,0.02175948
4316.67090088,0.02172034
4318.59970825,0.02165562
4320.52851562,0.02159264
4322.45732300,0.02167748
4324.38613037,0.02146598
4326.31493774,0.02150452
4328.24374512,0.02141443
4330.17255249,0.02134882
4332.10135986,0.02134773
4334.03016724,0.02133904
4335.95897461,0.02128340
4337.88778198,0.02120903
4339.81658936,0.02120697
4341.74539673,0.02102489
4343.67420410,0.02114503
4345.60301147,0.02101741
4347.53181885,0.02097843
4349.46062622,0.02096671
4351.38943359,0.02077947
4353.31824097,0.02091002
4355.24704834,0.02073504
4357.17585571,0.02071005
4359.10466309,0.02064680
4361.03347046,0.02060214
4362.96227783,0.02063967
4364.89108520,0.02051364
4366.81989258,0.02054480
4368.74869995,0.02050429
4370.67750732,0.02049043
4372.60631470,0.02036228
4374.53512207,0.02037168
4376.46392944,0.02028366
4378.39273682,0.02027131
4380.32154419,0.02038646
4382.25035156,0.02015827
4384.17915894,0.02017092
4386.10796631,0.02008389
4388.03677368,0.02005238
4389.96558105,0.02001182
4391.89438843,0.01987754
4393.82319580,0.01994328
4395.75200317,0.01985084
4397.68081055,0.01977760
4399.60961792,0.01969704
4401.53842529,0.01972043
4403.46723267,0.01971406
4405.39604004,0.01961298
4407.32484741,0.01953758
4409.25365478,0.01954913
4411.18246216,0.01952951
4413.11126953,0.01940338
4415.04007690,0.01947549
4416.96888428,0.01932853
4418.89769165,0.01926781
4420.82649902,0.01935549
4422.75530640,0.01929634
4424.68411377,0.01923783
4426.61292114,0.01910979
4428.54172852,0.01909305
4430.47053589,0.01909982
4432.39934326,0.01906583
4434.32815063,0.01894556
4436.25695801,0.01894247
4438.18576538,0.01888082
4440.11457275,0.01882798
4442.04338013,0.01884681
4443.97218750,0.01868809
4445.90099487,0.01874972
4447.82980225,0.01865891
4449.75860962,0.01862687
4451.68741699,0.01856654
4453.61622437,0.01840162
4455.54503174,0.01845671
4457.47383911,0.01834673
4459.40264648,0.01840572
4461.33145386,0.01836555
4463.26026123,0.01826413
4465.18906860,0.01827049
4467.11787598,0.01827013
4469.04668335,0.01821511
4470.97549072,0.01808995
4472.90429810,0.01814580
4474.83310547,0.01799464
4476.76191284,0.01798856
4478.69072021,0.01803701
4480.61952759,0.01794152
4482.54833496,0.01788621
4484.47714233,0.01785313
4486.40594971,0.01790046
4488.33475708,0.01776181
4490.26356445,0.01777814
4492.19237183,0.01770779
4494.12117920,0.01767433
4496.04998657,0.01768919
4497.97879395,0.01752086
4499.90760132,0.01750689
4501.83640869,0.01740985
4503.76521606,0.01746170
4505.69402344,0.01741794
4507.62283081,0.01736381
4509.55163818,0.01736147
4511.48044556,0.01728189
4513.40925293,0.01729048
4515.33806030,0.01717471
4517.26686768,0.01722670
4519.19567505,0.01710563
4521.12448242,0.01708869
4523.05328979,0.01717465
4524.98209717,0.01698848
4526.91090454,0.01698010
4528.83971191,0.01692593
4530.76851929,0.01686235
4532.69732666,0.01679806
4534.62613403,0.01676884
4536.55494141,0.01670261
4538.48374878,0.01669918
4540.41255615,0.01675870
4542.34136353,0.01660087
4544.27017090,0.01665421
4546.19897827,0.01664243
4548.12778564,0.01648031
4550.05659302,0.01647876
4551.98540039,0.01647254
4553.91420776,0.01639959
4555.84301514,0.01639018
4557.77182251,0.01634014
4559.70062988,0.01629996
4561.62943726,0.01638343
4563.55824463,0.01622955
4565.48705200,0.01615503
4567.41585937,0.01614625
4569.34466675,0.01610848
4571.27347412,0.01609638
4573.20228149,0.01601578
4575.13108887,0.01606381
4577.05989624,0.01594820
4578.98870361,0.01591910
4580.91751099,0.01591203
4582.84631836,0.01579040
4584.77512573,0.01580361
4586.70393311,0.01581625
4588.63274048,0.01575275
4590.56154785,0.01566500
4592.49035522,0.01571867
4594.41916260,0.01557814
4596.34796997,0.01553921
4598.27677734,0.01559296
4600.20558472,0.01547936
4602.13439209,0.01546987
4604.06319946,0.01545613
4605.99200684,0.01550549
4607.92081421,0.01538495
4609.84962158,0.01536495
4611.77842895,0.01530163
4613.70723633,0.01515442
4615.63604370,0.01522773
4617.56485107,0.01519039
4619.49365845,0.01524348
4621.42246582,0.01508364
4623.35127319,0.01503575
4625.28008057,0.01508771
4627.20888794,0.01494982
4629.13769531,0.01496735
4631.06650269,0.01488728
4632.99531006,0.01491399
4634.92411743,0.01482344
4636.85292480,0.01479380
4638.78173218,0.01485266
4640.71053955,0.01470224
4642.63934692,0.01473573
4644.56815430,0.01473398
4646.49696167,0.01467664
4648.42576904,0.01463092
4650.35457642,0.01459808
4652.28338379,0.01449657
4654.21219116,0.01450707
4656.14099853,0.01455747
4658.06980591,0.01437545
4659.99861328,0.01440432
4661.92742065,0.01439582
4663.85622803,0.01433773
4665.78503540,0.01434355
4667.71384277,0.01427102
4669.64265015,0.01426014
4671.57145752,0.01422265
4673.50026489,0.01418869
4675.42907227,0.01414119
4677.35787964,0.01411568
4679.28668701,0.01410871
4681.21549438,0.01409998
4683.14430176,0.01405401
4685.07310913,0.01401488
4687.00191650,0.01398002
4688.93072388,0.01388275
4690.85953125,0.01386376
4692.78833862,0.01382883
4694.71714600,0.01386145
4696.64595337,0.01382435
4698.57476074,0.01373339
4700.50356812,0.01373973
4702.43237549,0.01364558
4704.36118286,0.01363203
4706.28999023,0.01366359
4708.21879761,0.01367124
4710.14760498,0.01357541
4712.07641235,0.01345949
4714.00521973,0.01349897
4715.93402710,0.01349556
4717.86283447,0.01347900
4719.79164185,0.01341729
4721.72044922,0.01340796
4723.64925659,0.01342899
4725.57806396,0.01331962
4727.50687134,0.01331493
4729.43567871,0.01329196
4731.36448608,0.01315485
4733.29329346,0.01317443
4735.22210083,0.01316927
4737.15090820,0.01308382
4739.07971558,0.01314684
4741.00852295,0.01315792
4742.93733032,0.01308765
4744.86613770,0.01304622
4746.79494507,0.01302590
4748.72375244,0.01301253
4750.65255981,0.01294693
4752.58136719,0.01287918
4754.51017456,0.01286661
4756.43898193,0.01287212
4758.36778931,0.01278934
4760.29659668,0.01275117
4762.22540405,0.01274409
4764.15421143,0.01269245
4766.08301880,0.01268633
4768.01182617,0.01268085
4769.94063354,0.01263380
4771.86944092,0.01255610
4773.79824829,0.01257077
4775.72705566,0.01254263
4777.65586304,0.01255557
4779.58467041,0.01255563
4781.51347778,0.01241506
4783.44228516,0.01245025
4785.37109253,0.01243209
4787.29989990,0.01237031
4789.22870728,0.01231992
4791.15751465,0.01228171
4793.08632202,0.01234281
4795.01512939,0.01229815
4796.94393677,0.01223182
4798.87274414,0.01213775
4800.80155151,0.01215725
4802.73035889,0.01217972
4804.65916626,0.01208206
4806.58797363,0.01209136
4808.51678101,0.01205017
4810.44558838,0.01197031
4812.37439575,0.01198831
4814.30320312,0.01199751
4816.23201050,0.01195778
4818.16081787,0.01188884
4820.08962524,0.01176681
4822.01843262,0.01184994
4823.94723999,0.01184415
4825.87604736,0.01169178
4827.80485474,0.01175833
4829.73366211,0.01168739
4831.66246948,0.01170531
4833.59127686,0.01168627
4835.52008423,0.01156648
4837.44889160,0.01157940
4839.37769897,0.01156615
4841.30650635,0.01162741
4843.23531372,0.01151788
4845.16412109,0.01150233
4847.09292847,0.01145890
4849.02173584,0.01138844
4850.95054321,0.01143520
4852.87935059,0.01129813
4854.80815796,0.01140671
4856.73696533,0.01137253
4858.66577270,0.01126351
4860.59458008,0.01133957
4862.52338745,0.01130755
4864.45219482,0.01129197
4866.38100220,0.01116384
4868.30980957,0.01110010
4870.23861694,0.01115075
4872.16742432,0.01116779
4874.09623169,0.01103357
4876.02503906,0.01102468
4877.95384644,0.01108973
4879.88265381,0.01098932
4881.81146118,0.01108631
4883.74026855,0.01099643
4885.66907593,0.01084672
4887.59788330,0.01084802
4889.52669067,0.01082799
4891.45549805,0.01088795
4893.38430542,0.01083204
4895.31311279,0.01082714
4897.24192017,0.01082519
4899.17072754,0.01078887
4901.09953491,0.01077682
4903.02834228,0.01068217
4904.95714966,0.01068513
4906.88595703,0.01068702
4908.81476440,0.01056110
4910.74357178,0.01055671
4912.67237915,0.01063037
4914.60118652,0.01051849
4916.52999390,0.01043562
4918.45880127,0.01043446
4920.38760864,0.01047003
4922.31641602,0.01049994
4924.24522339,0.01042070
4926.17403076,0.01039299
4928.10283813,0.01035855
4930.03164551,0.01035508
4931.96045288,0.01031810
4933.88926025,0.01023594
4935.81806763,0.01025269
4937.74687500,0.01024496
4939.67568237,0.01020533
4941.60448975,0.01016109
4943.53329712,0.01019783
4945.46210449,0.01017213
4947.39091187,0.01005690
4949.31971924,0.01009532
4951.24852661,0.01010535
4953.17733398,0.01000004
4955.10614136,0.00998442
4957.03494873,0.00996921
4958.96375610,0.00990170
4960.89256348,0.00993231
4962.82137085,0.00989847
4964.75017822,0.00984066
4966.67898560,0.00987466
4968.60779297,0.00986709
4970.53660034,0.00984931
4972.46540771,0.00982787
4974.39421509,0.00976878
4976.32302246,0.00969240
4978.25182983,0.00971317
4980.18063721,0.00973826
4982.10944458,0.00963592
4984.03825195,0.00958970
4985.96705933,0.00958221
4987.89586670,0.00948978
4989.82467407,0.00954084
4991.75348145,0.00958624
4993.68228882,0.00943588
4995.61109619,0.00945950
4997.53990356,0.00945720
4999.46871094,0.00943120
5001.39751831,0.00943368
5003.32632568,0.00934644
5005.25513306,0.00940099
5007.18394043,0.00934510
5009.11274780,0.00935107
5011.04155518,0.00931790
5012.97036255,0.00919790
5014.89916992,0.00922284
5016.82797729,0.00913826
5018.75678467,0.00918395
5020.68559204,0.00915332
5022.61439941,0.00912925
5024.54320679,0.00918233
5026.47201416,0.00908729
5028.40082153,0.00913808
5030.32962891,0.00910108
5032.25843628,0.00901523
5034.18724365,0.00900048
5036.11605103,0.00898045
5038.04485840,0.00896717
5039.97366577,0.00897496
5041.90247314,0.00903570
5043.83128052,0.00899075
5045.76008789,0.00888905
5047.68889526,0.00884095
5049.61770264,0.00886590
5051.54651001,0.00884764
5053.47531738,0.00884609
5055.40412476,0.00881506
5057.33293213,0.00873736
5059.26173950,0.00873890
5061.19054687,0.00870767
5063.11935425,0.00874127
5065.04816162,0.00870070
5066.97696899,0.00864938
5068.90577637,0.00866756
5070.83458374,0.00862420
5072.76339111,0.00858039
5074.69219849,0.00851768
5076.62100586,0.00848924
5078.54981323,0.00846108
5080.47862061,0.00849755
5082.40742798,0.00847765
5084.33623535,0.00847932
5086.26504272,0.00842974
5088.19385010,0.00828981
5090.12265747,0.00841251
5092.05146484,0.00838513
5093.98027222,0.00835375
5095.90907959,0.00839252
5097.83788696,0.00828263
5099.76669434,0.00826320
5101.69550171,0.00823741
5103.62430908,0.00822835
5105.55311645,0.00819411
5107.48192383,0.00815816
5109.41073120,0.00811816
5111.33953857,0.00815244
5113.26834595,0.00818546
5115.19715332,0.00809909
5117.12596069,0.00813900
5119.05476807,0.00810424
5120.98357544,0.00802136
5122.91238281,0.00803739
5124.84119019,0.00807863
5126.76999756,0.00806735
5128.69880493,0.00803832
5130.62761230,0.00800914
5132.55641968,0.00800105
5134.48522705,0.00800501
5136.41403442,0.00781353
5138.34284180,0.00786208
5140.27164917,0.00792851
5142.20045654,0.00781039
5144.12926392,0.00787324
5146.05807129,0.00780284
5147.98687866,0.00777936
5149.91568603,0.00780374
5151.84449341,0.00777254
5153.77330078,0.00779157
5155.70210815,0.00773151
5157.63091553,0.00771315
5159.55972290,0.00770888
5161.48853027,0.00764010
5163.41733765,0.00760208
5165.34614502,0.00759710
5167.27495239,0.00759475
5169.20375977,0.00760547
5171.13256714,0.00748886
5173.06137451,0.00750597
5174.99018188,0.00759160
5176.91898926,0.00751660
5178.84779663,0.00750899
5180.77660400,0.00745860
5182.70541138,0.00751462
5184.63421875,0.00742468
5186.56302612,0.00728859
5188.49183350,0.00733087
5190.42064087,0.00727790
5192.34944824,0.00739436
5194.27825562,0.00736815
5196.20706299,0.00728650
5198.13587036,0.00730872
5200.06467773,0.00727642
5201.99348511,0.00728536
5203.92229248,0.00722541
5205.85109985,0.00710298
5207.77990723,0.00697836
5209.70871460,0.00709982
5211.63752197,0.00714008
5213.56632935,0.00712475
5215.49513672,0.00713671
5217.42394409,0.00705444
5219.35275146,0.00710925
5221.28155884,0.00708602
5223.21036621,0.00714446
5225.13917358,0.00698505
5227.06798096,0.00692369
5228.99678833,0.00707223
5230.92559570,0.00694193
5232.85440308,0.00705183
5234.78321045,0.00699672
5236.71201782,0.00694499
5238.64082520,0.00697480
5240.56963257,0.00690855
5242.49843994,0.00699079
5244.42724731,0.00681741
5246.35605469,0.00679180
5248.28486206,0.00676438
5250.21366943,0.00675530
5252.14247681,0.00694013
5254.07128418,0.00677946
5256.00009155,0.00671331
5257.92889893,0.00679541
5259.85770630,0.00680764
5261.78651367,0.00675684
5263.71532104,0.00661958
5265.64412842,0.00669240
5267.57293579,0.00669610
5269.50174316,0.00657071
5271.43055054,0.00666288
5273.35935791,0.00666047
5275.28816528,0.00661079
5277.21697266,0.00664777
5279.14578003,0.00659110
5281.07458740,0.00657874
5283.00339478,0.00654564
5284.93220215,0.00651122
5286.86100952,0.00653876
5288.78981689,0.00655004
5290.71862427,0.00644275
5292.64743164,0.00645672
5294.57623901,0.00660654
5296.50504639,0.00645529
5298.43385376,0.00644704
5300.36266113,0.00645150
5302.29146851,0.00634959
5304.22027588,0.00643446
5306.14908325,0.00631770
5308.07789062,0.00626577
5310.00669800,0.00634384
5311.93550537,0.00639326
5313.86431274,0.00639952
5315.79312012,0.00631903
5317.72192749,0.00628239
5319.65073486,0.00627513
5321.57954224,0.00631708
5323.50834961,0.00625905
5325.43715698,0.00621890
5327.36596436,0.00615680
5329.29477173,0.00606735
5331.22357910,0.00615287
5333.15238647,0.00612824
5335.08119385,0.00613198
5337.01000122,0.00614452
5338.93880859,0.00592235
5340.86761597,0.00598666
5342.79642334,0.00611865
5344.72523071,0.00583576
5346.65403809,0.00586366
5348.58284546,0.00603345
5350.51165283,0.00598633
5352.44046020,0.00594992
5354.36926758,0.00582706
5356.29807495,0.00596444
5358.22688232,0.00599437
5360.15568970,0.00592324
5362.08449707,0.00594526
5364.01330444,0.00581765
5365.94211182,0.00592582
5367.87091919,0.00594627
5369.79972656,0.00588529
5371.72853394,0.00587073
5373.65734131,0.00583585
5375.58614868,0.00576752
5377.51495605,0.00566329
5379.44376343,0.00582602
5381.37257080,0.00580322
5383.30137817,0.00576542
5385.23018555,0.00576194
5387.15899292,0.00561399
5389.08780029,0.00570448
5391.01660767,0.00576261
5392.94541504,0.00570727
5394.87422241,0.00557627
5396.80302978,0.00555404
5398.73183716,0.00563501
5400.66064453,0.00562274
5402.58945190,0.00559115
5404.51825928,0.00555492
5406.44706665,0.00564174
5408.37587402,0.00558530
5410.30468140,0.00545650
5412.23348877,0.00546980
5414.16229614,0.00537454
5416.09110352,0.00537833
5418.01991089,0.00554439
5419.94871826,0.00547576
5421.87752563,0.00540458
5423.80633301,0.00548550
5425.73514038,0.00541876
5427.66394775,0.00533412
5429.59275513,0.00522796
5431.52156250,0.00535169
5433.45036987,0.00546448
5435.37917725,0.00524936
5437.30798462,0.00537581
5439.23679199,0.00537879
5441.16559936,0.00519081
5443.09440674,0.00530864
5445.02321411,0.00528959
5446.95202148,0.00524052
5448.88082886,0.00526756
5450.80963623,0.00524607
5452.73844360,0.00526871
5454.66725098,0.00521758
5456.59605835,0.00517471
5458.52486572,0.00525390
5460.45367310,0.00522523
5462.38248047,0.00519880
5464.31128784,0.00522341
5466.24009521,0.00515520
5468.16890259,0.00512394
5470.09770996,0.00509348
5472.02651733,0.00514886
5473.95532471,0.00514989
5475.88413208,0.00500346
5477.81293945,0.00502489
5479.74174683,0.00512065
5481.67055420,0.00511667
5483.59936157,0.00505106
5485.52816895,0.00502898
5487.45697632,0.00500813
5489.38578369,0.00500681
5491.31459106,0.00495270
5493.24339844,0.00484201
5495.17220581,0.00496041
5497.10101318,0.00499828
5499.02982056,0.00493389
5500.95862793,0.00498921
5502.88743530,0.00490111
5504.81624268,0.00488321
5506.74505005,0.00492973
5508.67385742,0.00482744
5510.60266479,0.00485891
5512.53147217,0.00485936
5514.46027954,0.00485779
5516.38908691,0.00493979
5518.31789429,0.00480224
5520.24670166,0.00477519
5522.17550903,0.00480834
5524.10431641,0.00476379
5526.03312378,0.00477417
5527.96193115,0.00470182
5529.89073853,0.00471167
5531.81954590,0.00473486
5533.74835327,0.00472821
5535.67716064,0.00469378
5537.60596802,0.00462707
5539.53477539,0.00468538
5541.46358276,0.00470299
5543.39239014,0.00464426
5545.32119751,0.00466113
5547.25000488,0.00469251
5549.17881226,0.00465772
5551.10761963,0.00466532
5553.03642700,0.00461029
5554.96523437,0.00462739
5556.89404175,0.00463275
5558.82284912,0.00450686
5560.75165649,0.00460003
5562.68046387,0.00456295
5564.60927124,0.00457263
5566.53807861,0.00461757
5568.46688599,0.00449364
5570.39569336,0.00453798
5572.32450073,0.00448353
5574.25330811,0.00448559
5576.18211548,0.00448385
5578.11092285,0.00449406
5580.03973022,0.00454535
5581.96853760,0.00443763
5583.89734497,0.00444978
5585.82615234,0.00441880
5587.75495972,0.00439102
5589.68376709,0.00437232
5591.61257446,0.00438266
5593.54138184,0.00438448
5595.47018921,0.00431790
5597.39899658,0.00439087
5599.32780395,0.00434031
5601.25661133,0.00428861
5603.18541870,0.00431078
5605.11422607,0.00430586
5607.04303345,0.00427934
5608.97184082,0.00426770
5610.90064819,0.00429683
5612.82945557,0.00426425
5614.75826294,0.00426483
5616.68707031,0.00425525
5618.61587769,0.00428058
5620.54468506,0.00419826
5622.47349243,0.00418062
5624.40229980,0.00426569
5626.33110718,0.00421161
5628.25991455,0.00422327
5630.18872192,0.00416928
5632.11752930,0.00419530
5634.04633667,0.00416294
5635.97514404,0.00410370
5637.90395142,0.00410712
5639.83275879,0.00403477
5641.76156616,0.00414144
5643.69037353,0.00407467
5645.61918091,0.00406943
5647.54798828,0.00409736
5649.47679565,0.00402476
5651.40560303,0.00408276
5653.33441040,0.00402352
5655.26321777,0.00409925
5657.19202515,0.00410160
5659.12083252,0.00400235
5661.04963989,0.00395996
5662.97844727,0.00397120
5664.90725464,0.00402895
5666.83606201,0.00393134
5668.76486938,0.00399322
5670.69367676,0.00399770
5672.62248413,0.00389379
5674.55129150,0.00392189
5676.48009888,0.00396516
5678.40890625,0.00394968
5680.33771362,0.00387902
5682.26652100,0.00390896
5684.19532837,0.00387385
5686.12413574,0.00387148
5688.05294311,0.00388466
5689.98175049,0.00381831
5691.91055786,0.00385678
5693.83936523,0.00385810
5695.76817261,0.00377942
5697.69697998,0.00375017
5699.62578735,0.00385683
5701.55459473,0.00386068
5703.48340210,0.00379494
5705.41220947,0.00377293
5707.34101685,0.00371060
5709.26982422,0.00374031
5711.19863159,0.00371686
5713.12743896,0.00367352
5715.05624634,0.00367013
5716.98505371,0.00368868
5718.91386108,0.00371302
5720.84266846,0.00366689
5722.77147583,0.00364435
5724.70028320,0.00358593
5726.62909058,0.00364207
5728.55789795,0.00368362
5730.48670532,0.00361538
5732.41551270,0.00367102
5734.34432007,0.00359159
5736.27312744,0.00356379
5738.20193481,0.00363570
5740.13074219,0.00353542
5742.05954956,0.00354643
5743.98835693,0.00354734
5745.91716431,0.00348482
5747.84597168,0.00352963
5749.77477905,0.00357276
5751.70358643,0.00355745
5753.63239380,0.00344832
5755.56120117,0.00342566
5757.49000854,0.00344728
5759.41881592,0.00346454
5761.34762329,0.00349058
5763.27643066,0.00343726
5765.20523804,0.00349210
5767.13404541,0.00350144
5769.06285278,0.00345523
5770.99166016,0.00345137
5772.92046753,0.00341385
5774.84927490,0.00339563
5776.77808228,0.00342934
5778.70688965,0.00346023
5780.63569702,0.00330831
5782.56450439,0.00336235
5784.49331177,0.00343994
5786.42211914,0.00328236
5788.35092651,0.00334641
5790.27973389,0.00333311
5792.20854126,0.00327580
5794.13734863,0.00332507
5796.06615601,0.00333193
5797.99496338,0.00327740
5799.92377075,0.00322289
5801.85257812,0.00330379
5803.78138550,0.00323100
5805.71019287,0.00313655
5807.63900024,0.00317164
5809.56780762,0.00321753
5811.49661499,0.00320810
5813.42542236,0.00315898
5815.35422974,0.00324828
5817.28303711,0.00323386
5819.21184448,0.00317153
5821.14065186,0.00317963
5823.06945923,0.00317163
5824.99826660,0.00317543
5826.92707397,0.00313523
5828.85588135,0.00313868
5830.78468872,0.00312100
5832.71349609,0.00308827
5834.64230347,0.00314335
5836.57111084,0.00315830
5838.49991821,0.00309693
5840.42872559,0.00309631
5842.35753296,0.00308171
5844.28634033,0.00301985
5846.21514770,0.00302677
5848.14395508,0.00302195
5850.07276245,0.00304694
5852.00156982,0.00305335
5853.93037720,0.00301240
5855.85918457,0.00301069
5857.78799194,0.00301003
5859.71679932,0.00296086
5861.64560669,0.00294236
5863.57441406,0.00298489
5865.50322144,0.00292920
5867.43202881,0.00298816
5869.36083618,0.00299043
5871.28964355,0.00288801
5873.21845093,0.00296019
5875.14725830,0.00291658
5877.07606567,0.00291627
5879.00487305,0.00292367
5880.93368042,0.00290858
5882.86248779,0.00295798
5884.79129517,0.00284882
5886.72010254,0.00283563
5888.64890991,0.00283722
5890.57771728,0.00282434
5892.50652466,0.00289903
5894.43533203,0.00286524
5896.36413940,0.00281663
5898.29294678,0.00279324
5900.22175415,0.00276786
5902.15056152,0.00281735
5904.07936890,0.00286780
5906.00817627,0.00282988
5907.93698364,0.00279970
5909.86579102,0.00278822
5911.79459839,0.00279773
5913.72340576,0.00277668
5915.65221313,0.00272941
5917.58102051,0.00272654
5919.50982788,0.00273408
5921.43863525,0.00276472
5923.36744263,0.00269661
5925.29625000,0.00274283
5927.22505737,0.00278000
5929.15386475,0.00269582
5931.08267212,0.00277124
5933.01147949,0.00266889
5934.94028686,0.00260681
5936.86909424,0.00265900
5938.79790161,0.00265092
5940.72670898,0.00266161
5942.65551636,0.00258304
5944.58432373,0.00264012
5946.51313110,0.00261905
5948.44193848,0.00263885
5950.37074585,0.00266540
5952.29955322,0.00256041
5954.22836060,0.00270282
5956.15716797,0.00263739
5958.08597534,0.00260730
5960.01478271,0.00267393
5961.94359009,0.00256130
5963.87239746,0.00262281
5965.80120483,0.00256182
5967.73001221,0.00256441
5969.65881958,0.00256943
5971.58762695,0.00249900
5973.51643433,0.00262096
5975.44524170,0.00254464
5977.37404907,0.00252112
5979.30285645,0.00251030
5981.23166382,0.00242982
5983.16047119,0.00251835
5985.08927856,0.00253170
5987.01808594,0.00257324
5988.94689331,0.00252969
5990.87570068,0.00245725
5992.80450806,0.00250279
5994.73331543,0.00248440
5996.66212280,0.00246217
5998.59093018,0.00242694
6000.51973755,0.00246222
