399.26312622,0.00002552
401.19193359,0.00075940
403.12074097,0.00054859
405.04954834,0.00089904
406.97835571,0.00082541
408.90716309,0.00056781
410.83597046,0.00073749
412.76477783,0.00053077
414.69358521,0.00065075
416.62239258,0.00068663
418.55119995,0.00078680
420.48000732,0.00078367
422.40881470,0.00081130
424.33762207,0.00070256
426.26642944,0.00079649
428.19523682,0.00114295
430.12404419,0.00090969
432.05285156,0.00096261
433.98165894,0.00078176
435.91046631,0.00075019
437.83927368,0.00124835
439.76808105,0.00141039
441.69688843,0.00084928
443.62569580,0.00069014
445.55450317,0.00125251
447.48331055,0.00064356
449.41211792,0.00057522
451.34092529,0.00092694
453.26973267,0.00062873
455.19854004,0.00083952
457.12734741,0.00062195
459.05615479,0.00038602
460.98496216,0.00051860
462.91376953,0.00020309
464.84257690,-0.00018150
466.77138428,0.00043971
468.70019165,0.00055828
470.62899902,0.00035571
472.55780640,0.00073029
474.48661377,0.00024846
476.41542114,0.00058530
478.34422852,0.00076525
480.27303589,0.00040657
482.20184326,0.00011221
484.13065063,-0.00027198
486.05945801,0.00054040
487.98826538,0.00053307
489.91707275,0.00039646
491.84588013,0.00042804
493.77468750,-0.00010497
495.70349487,0.00022825
497.63230225,0.00050659
499.56110962,0.00022390
501.48991699,-0.00002973
503.41872437,-0.00005237
505.34753174,0.00019435
507.27633911,0.00050028
509.20514648,0.00023878
511.13395386,0.00031187
513.06276123,0.00078469
514.99156860,0.00033207
516.92037598,0.00021878
518.84918335,0.00053985
520.77799072,0.00012985
522.70679810,0.00007346
524.63560547,0.00023376
526.56441284,-0.00003817
528.49322021,0.00019371
530.42202759,0.00001287
532.35083496,-0.00031209
534.27964233,0.00027679
536.20844971,0.00035206
538.13725708,0.00017775
540.06606445,0.00029862
541.99487183,0.00028230
543.92367920,0.00029010
545.85248657,0.00009155
547.78129395,0.00006001
549.71010132,0.00037100
551.63890869,0.00034031
553.56771606,0.00020003
555.49652344,0.00008679
557.42533081,0.00010200
559.35413818,0.00043109
561.28294556,0.00003809
563.21175293,-0.00015463
565.14056030,0.00030092
567.06936768,-0.00011341
568.99817505,0.00019721
570.92698242,0.00060631
572.85578979,0.00007676
574.78459717,0.00019782
576.71340454,0.00000393
578.64221191,0.00001863
580.57101929,0.00045525
582.49982666,0.00020895
584.42863403,-0.00001513
586.35744141,0.00017764
588.28624878,-0.00004805
590.21505615,-0.00016670
592.14386353,0.00029670
594.07267090,0.00000027
596.00147827,0.00013625
597.93028564,0.00035863
599.85909302,0.00021611
601.78790039,0.00028560
603.71670776,0.00023144
605.64551514,0.00043022
607.57432251,0.00000565
609.50312988,0.00026675
611.43193726,0.00024804
613.36074463,-0.00016193
615.28955200,0.00002116
617.21835938,-0.00004859
619.14716675,0.00020753
621.07597412,-0.00024068
623.00478149,-0.00035279
624.93358887,0.00005861
626.86239624,-0.00025970
628.79120361,0.00015176
630.72001099,0.00035635
632.64881836,0.00044841
634.57762573,0.00090066
636.50643311,0.00074830
638.43524048,0.00107584
640.36404785,0.00094376
642.29285522,0.00083366
644.22166260,0.00121924
646.15046997,0.00098844
648.07927734,0.00125185
650.00808472,0.00153721
651.93689209,0.00144063
653.86569946,0.00147790
655.79450684,0.00165056
657.72331421,0.00163921
659.65212158,0.00169757
661.58092896,0.00210266
663.50973633,0.00218028
665.43854370,0.00229042
667.36735107,0.00203464
669.29615845,0.00226240
671.22496582,0.00295681
673.15377319,0.00255897
675.08258057,0.00272012
677.01138794,0.00284921
678.94019531,0.00257458
680.86900269,0.00290546
682.79781006,0.00267516
684.72661743,0.00266523
686.65542480,0.00323092
688.58423218,0.00324269
690.51303955,0.00307649
692.44184692,0.00330607
694.37065430,0.00345653
696.29946167,0.00384291
698.22826904,0.00454999
700.15707642,0.00455580
702.08588379,0.00463801
704.01469116,0.00473789
705.94349854,0.00430607
707.87230591,0.00374892
709.80111328,0.00286270
711.72992065,0.00209301
713.65872803,0.00130172
715.58753540,0.00073596
717.51634277,0.00060374
719.44515015,0.00032991
721.37395752,0.00037184
723.30276489,0.00034686
725.23157227,0.00011786
727.16037964,0.00005069
729.08918701,-0.00018017
731.01799438,-0.00011692
732.94680176,0.00029482
734.87560913,0.00016717
736.80441650,-0.00022815
738.73322388,0.00001082
740.66203125,0.00030055
742.59083862,0.00010506
744.51964600,0.00001844
746.44845337,0.00027384
748.37726074,0.00030426
750.30606812,0.00016607
752.23487549,0.00004988
754.16368286,0.00007616
756.09249023,0.00015634
758.02129761,0.00031464
759.95010498,0.00058100
761.87891235,-0.00000142
763.80771973,0.00019258
765.73652710,0.00054061
767.66533447,0.00035631
769.59414185,0.00028744
771.52294922,0.00018528
773.45175659,0.00043739
775.38056396,0.00049010
777.30937134,0.00042315
779.23817871,0.00070475
781.16698608,0.00053708
783.09579346,0.00045894
785.02460083,0.00076315
786.95340820,0.00046010
788.88221558,0.00031008
790.81102295,0.00045143
792.73983032,0.00034466
794.66863770,0.00037453
796.59744507,0.00051246
798.52625244,0.00048389
800.45505981,0.00047727
802.38386719,0.00100485
804.31267456,0.00075835
806.24148193,0.00045086
808.17028931,0.00080869
810.09909668,0.00047348
812.02790405,0.00053368
813.95671143,0.00048280
815.88551880,0.00032939
817.81432617,0.00052178
819.74313354,0.00037746
821.67194092,0.00069483
823.60074829,0.00063691
825.52955566,0.00044288
827.45836304,0.00083126
829.38717041,0.00097651
831.31597778,0.00116363
833.24478516,0.00156579
835.17359253,0.00150934
837.10239990,0.00157426
839.03120728,0.00193523
840.96001465,0.00148572
842.88882202,0.00144814
844.81762939,0.00145312
846.74643677,0.00106973
848.67524414,0.00106183
850.60405151,0.00090027
852.53285889,0.00136080
854.46166626,0.00111305
856.39047363,0.00064721
858.31928101,0.00105138
860.24808838,0.00099072
862.17689575,0.00078587
864.10570313,0.00046623
866.03451050,0.00070284
867.96331787,0.00065942
869.89212524,0.00036030
871.82093262,0.00048785
873.74973999,0.00009534
875.67854736,0.00023872
877.60735474,0.00040022
879.53616211,0.00033235
881.46496948,0.00039652
883.39377686,0.00028409
885.32258423,0.00044176
887.25139160,0.00046982
889.18019897,0.00057615
891.10900635,0.00060927
893.03781372,0.00037704
894.96662109,0.00038192
896.89542847,0.00031499
898.82423584,0.00050493
900.75304321,0.00075521
902.68185059,0.00044198
904.61065796,0.00053336
906.53946533,0.00069630
908.46827271,0.00050859
910.39708008,0.00074367
912.32588745,0.00074829
914.25469482,0.00099073
916.18350220,0.00126464
918.11230957,0.00099312
920.04111694,0.00129780
921.96992432,0.00145875
923.89873169,0.00147924
925.82753906,0.00175226
927.75634644,0.00178080
929.68515381,0.00182513
931.61396118,0.00205135
933.54276855,0.00238081
935.47157593,0.00232523
937.40038330,0.00230278
939.32919067,0.00269181
941.25799805,0.00292193
943.18680542,0.00279427
945.11561279,0.00268259
947.04442017,0.00271252
948.97322754,0.00264328
950.90203491,0.00266987
952.83084229,0.00263070
954.75964966,0.00263650
956.68845703,0.00286774
958.61726440,0.00278466
960.54607178,0.00243345
962.47487915,0.00258570
964.40368652,0.00282181
966.33249390,0.00278885
968.26130127,0.00326769
970.19010864,0.00345351
972.11891602,0.00350068
974.04772339,0.00357716
975.97653076,0.00341215
977.90533813,0.00420697
979.83414551,0.00472623
981.76295288,0.00471659
983.69176025,0.00553411
985.62056763,0.00623829
987.54937500,0.00649482
989.47818237,0.00731223
991.40698975,0.00823633
993.33579712,0.00895650
995.26460449,0.00988093
997.19341187,0.01044897
999.12221924,0.01126221
1001.05102661,0.01216922
1002.97983398,0.01301155
1004.90864136,0.01400941
1006.83744873,0.01473238
1008.76625610,0.01583993
1010.69506348,0.01651858
1012.62387085,0.01728575
1014.55267822,0.01833764
1016.48148560,0.01904924
1018.41029297,0.02021372
1020.33910034,0.02104382
1022.26790771,0.02202681
1024.19671509,0.02294367
1026.12552246,0.02344574
1028.05432983,0.02430623
1029.98313721,0.02506697
1031.91194458,0.02566252
1033.84075195,0.02602537
1035.76955933,0.02648439
1037.69836670,0.02675644
1039.62717407,0.02676392
1041.55598145,0.02663270
1043.48478882,0.02632504
1045.41359619,0.02623107
1047.34240356,0.02573233
1049.27121094,0.02530380
1051.20001831,0.02521302
1053.12882568,0.02461679
1055.05763306,0.02395730
1056.98644043,0.02370485
1058.91524780,0.02288543
1060.84405518,0.02201701
1062.77286255,0.02150618
1064.70166992,0.02054409
1066.63047729,0.02008432
1068.55928467,0.01918567
1070.48809204,0.01817018
1072.41689941,0.01751602
1074.34570679,0.01636441
1076.27451416,0.01603025
1078.20332153,0.01520799
1080.13212891,0.01414638
1082.06093628,0.01354127
1083.98974365,0.01292116
1085.91855103,0.01266846
1087.84735840,0.01180422
1089.77616577,0.01128446
1091.70497314,0.01081584
1093.63378052,0.01021275
1095.56258789,0.00996798
1097.49139526,0.00960653
1099.42020264,0.00957819
1101.34901001,0.00910687
1103.27781738,0.00892987
1105.20662476,0.00901512
1107.13543213,0.00864551
1109.06423950,0.00859731
1110.99304687,0.00842209
1112.92185425,0.00813782
1114.85066162,0.00807501
1116.77946899,0.00828725
1118.70827637,0.00827074
1120.63708374,0.00808830
1122.56589111,0.00820808
1124.49469849,0.00824839
1126.42350586,0.00832377
1128.35231323,0.00847206
1130.28112061,0.00873529
1132.20992798,0.00905853
1134.13873535,0.00926754
1136.06754272,0.00949414
1137.99635010,0.00998442
1139.92515747,0.01068610
1141.85396484,0.01130920
1143.78277222,0.01200462
1145.71157959,0.01286148
1147.64038696,0.01364464
1149.56919434,0.01413146
1151.49800171,0.01476703
1153.42680908,0.01558620
1155.35561646,0.01633711
1157.28442383,0.01696284
1159.21323120,0.01744077
1161.14203857,0.01821879
1163.07084595,0.01889275
1164.99965332,0.01958014
1166.92846069,0.02038634
1168.85726807,0.02101079
1170.78607544,0.02186958
1172.71488281,0.02270414
1174.64369019,0.02333941
1176.57249756,0.02403826
1178.50130493,0.02506582
1180.43011230,0.02590354
1182.35891968,0.02689758
1184.28772705,0.02831587
1186.21653442,0.02935172
1188.14534180,0.03079785
1190.07414917,0.03237045
1192.00295654,0.03369345
1193.93176392,0.03508282
1195.86057129,0.03663169
1197.78937866,0.03845841
1199.71818604,0.04002424
1201.64699341,0.04174908
1203.57580078,0.04341163
1205.50460815,0.04503020
1207.43341553,0.04653046
1209.36222290,0.04782998
1211.29103027,0.04954429
1213.21983765,0.05077660
1215.14864502,0.05193206
1217.07745239,0.05311831
1219.00625977,0.05402637
1220.93506714,0.05494022
1222.86387451,0.05548346
1224.79268188,0.05593369
1226.72148926,0.05622271
1228.65029663,0.05650062
1230.57910400,0.05679182
1232.50791138,0.05695928
1234.43671875,0.05691523
1236.36552612,0.05691496
1238.29433350,0.05685016
1240.22314087,0.05633739
1242.15194824,0.05633232
1244.08075562,0.05610387
1246.00956299,0.05575417
1247.93837036,0.05562580
1249.86717773,0.05499414
1251.79598511,0.05455596
1253.72479248,0.05403864
1255.65359985,0.05336893
1257.58240723,0.05239599
1259.51121460,0.05142010
1261.44002197,0.05078130
1263.36882935,0.05023429
1265.29763672,0.04977212
1267.22644409,0.04872648
1269.15525146,0.04798600
1271.08405884,0.04738466
1273.01286621,0.04655465
1274.94167358,0.04599965
1276.87048096,0.04506692
1278.79928833,0.04390386
1280.72809570,0.04298916
1282.65690308,0.04244536
1284.58571045,0.04150515
1286.51451782,0.04058684
1288.44332520,0.03998991
1290.37213257,0.03922788
1292.30093994,0.03907198
1294.22974731,0.03893219
1296.15855469,0.03844412
1298.08736206,0.03831150
1300.01616943,0.03847719
1301.94497681,0.03841472
1303.87378418,0.03877992
1305.80259155,0.03940529
1307.73139893,0.03963181
1309.66020630,0.04056592
1311.58901367,0.04108074
1313.51782104,0.04145650
1315.44662842,0.04289515
1317.37543579,0.04375462
1319.30424316,0.04455131
1321.23305054,0.04620383
1323.16185791,0.04776229
1325.09066528,0.04892144
1327.01947266,0.05013160
1328.94828003,0.05141263
1330.87708740,0.05281255
1332.80589478,0.05397642
1334.73470215,0.05487688
1336.66350952,0.05534279
1338.59231689,0.05463937
1340.52112427,0.05564421
1342.44993164,0.05778979
1344.37873901,0.05785507
1346.30754639,0.05800483
1348.23635376,0.05778625
1350.16516113,0.05720012
1352.09396851,0.05726495
1354.02277588,0.05641469
1355.95158325,0.05615157
1357.88039062,0.05580009
1359.80919800,0.05463600
1361.73800537,0.05251328
1363.66681274,0.05172440
1365.59562012,0.05398774
1367.52442749,0.05281052
1369.45323486,0.05222126
1371.38204224,0.05284973
1373.31084961,0.05013618
1375.23965698,0.05063510
1377.16846436,0.05173326
1379.09727173,0.05172206
1381.02607910,0.05153501
1382.95488647,0.05110203
1384.88369385,0.05137349
1386.81250122,0.04901697
1388.74130859,0.04975130
1390.67011597,0.05362272
1392.59892334,0.05209328
1394.52773071,0.04909220
1396.45653809,0.05136607
1398.38534546,0.05111768
1400.31415283,0.05087045
1402.24296021,0.05474244
1404.17176758,0.05169337
1406.10057495,0.05216234
1408.02938232,0.05400746
1409.95818970,0.05190891
1411.88699707,0.05309192
1413.81580444,0.05118765
1415.74461182,0.05198236
1417.67341919,0.04697167
1419.60222656,0.04232082
1421.53103394,0.04843636
1423.45984131,0.04670001
1425.38864868,0.04531803
1427.31745605,0.04591644
1429.24626343,0.04254688
1431.17507080,0.04108385
1433.10387817,0.04157478
1435.03268555,0.03797638
1436.96149292,0.03241198
1438.89030029,0.03676768
1440.81910767,0.03729735
1442.74791504,0.03473085
1444.67672241,0.03623851
1446.60552979,0.03315185
1448.53433716,0.03388090
1450.46314453,0.03493275
1452.39195190,0.03561015
1454.32075928,0.03679747
1456.24956665,0.03060273
1458.17837402,0.03214100
1460.10718140,0.04218663
1462.03598877,0.04474220
1463.96479614,0.04456814
1465.89360352,0.04643601
1467.82241089,0.05259170
1469.75121826,0.05631191
1471.68002563,0.05052671
1473.60883301,0.05325308
1475.53764038,0.06039428
1477.46644775,0.06476603
1479.39525513,0.07072914
1481.32406250,0.07191682
1483.25286987,0.07608815
1485.18167725,0.07807969
1487.11048462,0.07718900
1489.03929199,0.07677753
1490.96809937,0.07748178
1492.89690674,0.08939616
1494.82571411,0.08692559
1496.75452148,0.07887381
1498.68332886,0.08858608
1500.61213623,0.09113006
1502.54094360,0.09726986
1504.46975098,0.09158988
1506.39855835,0.06796566
1508.32736572,0.08246375
1510.25617310,0.09560558
1512.18498047,0.09262188
1514.11378784,0.09973626
1516.04259521,0.08996019
1517.97140259,0.09379026
1519.90020996,0.09005226
1521.82901733,0.07868208
1523.75782471,0.09556198
1525.68663208,0.09334473
1527.61543945,0.09307288
1529.54424683,0.10196364
1531.47305420,0.09784962
1533.40186157,0.08991089
1535.33066895,0.09501280
1537.25947632,0.10068324
1539.18828369,0.07283023
1541.11709106,0.07643487
1543.04589844,0.08996600
1544.97470581,0.08658057
1546.90351318,0.10121018
1548.83232056,0.09397290
1550.76112793,0.09702625
1552.68993530,0.09566303
1554.61874268,0.08735345
1556.54755005,0.09255983
1558.47635742,0.06590474
1560.40516479,0.07146859
1562.33397217,0.09868114
1564.26277954,0.09293820
1566.19158691,0.09534819
1568.12039429,0.09348559
1570.04920166,0.08308856
1571.97800903,0.09501402
1573.90681641,0.09483089
1575.83562378,0.07553191
1577.76443115,0.08501724
1579.69323853,0.09461036
1581.62204590,0.08985030
1583.55085327,0.09165382
1585.47966064,0.08989821
1587.40846802,0.08970656
1589.33727539,0.08816479
1591.26608276,0.08747944
1593.19489014,0.08694008
1595.12369751,0.08530734
1597.05250488,0.08547410
1598.98131226,0.08429389
1600.91011963,0.08416097
1602.83892700,0.08181506
1604.76773437,0.08258185
1606.69654175,0.08082393
1608.62534912,0.07996564
1610.55415649,0.07904662
1612.48296387,0.07899956
1614.41177124,0.07949969
1616.34057861,0.06500223
1618.26938599,0.07035491
1620.19819336,0.08063627
1622.12700073,0.07153875
1624.05580811,0.07211974
1625.98461548,0.07545750
1627.91342285,0.07529122
1629.84223022,0.07493745
1631.77103760,0.08014069
1633.69984497,0.07421421
1635.62865234,0.06260568
1637.55745972,0.07317948
1639.48626709,0.08052279
1641.41507446,0.07963246
1643.34388184,0.08242778
1645.27268921,0.07534684
1647.20149658,0.06756885
1649.13030396,0.08464846
1651.05911133,0.08060730
1652.98791870,0.05354663
1654.91672607,0.07350229
1656.84553345,0.09207515
1658.77434082,0.08936335
1660.70314819,0.09296690
1662.63195557,0.08590215
1664.56076294,0.09171827
1666.48957031,0.09931199
1668.41837769,0.08800381
1670.34718506,0.08708721
1672.27599243,0.09937874
1674.20479980,0.09282419
1676.13360718,0.09076370
1678.06241455,0.10477243
1679.99122192,0.10207504
1681.92002930,0.10213681
1683.84883667,0.08471772
1685.77764404,0.08516796
1687.70645142,0.11577882
1689.63525879,0.10187083
1691.56406616,0.11298278
1693.49287354,0.11568806
1695.42168091,0.08632767
1697.35048828,0.10667211
1699.27929565,0.09469236
1701.20810303,0.08696312
1703.13691040,0.11751968
1705.06571777,0.10840429
1706.99452515,0.11028600
1708.92333252,0.11989677
1710.85213989,0.11612090
1712.78094727,0.11832847
1714.70975464,0.11067747
1716.63856201,0.10033906
1718.56736938,0.09921630
1720.49617676,0.11748125
1722.42498413,0.12147942
1724.35379150,0.11401734
1726.28259888,0.12358211
1728.21140625,0.11462890
1730.14021362,0.11640558
1732.06902100,0.11287374
1733.99782837,0.08776955
1735.92663574,0.10850444
1737.85544312,0.11912756
1739.78425049,0.10673614
1741.71305786,0.11625288
1743.64186523,0.11788433
1745.57067261,0.11811431
1747.49947998,0.11949399
1749.42828735,0.11421464
1751.35709473,0.10981257
1753.28590210,0.12124355
1755.21470947,0.12633049
1757.14351685,0.11610910
1759.07232422,0.12699738
1761.00113159,0.11961892
1762.92993896,0.11594799
1764.85874634,0.13158338
1766.78755371,0.11886509
1768.71636108,0.12026966
1770.64516846,0.11919004
1772.57397583,0.10788216
1774.50278320,0.12008914
1776.43159058,0.12602317
1778.36039795,0.12431908
1780.28920532,0.12294340
1782.21801270,0.12390587
1784.14682007,0.12346297
1786.07562744,0.12120284
1788.00443481,0.12721886
1789.93324219,0.12380576
1791.86204956,0.11282176
1793.79085693,0.11739581
1795.71966431,0.12547083
1797.64847168,0.12374912
1799.57727905,0.12183148
1801.50608643,0.11988500
1803.43489380,0.12334706
1805.36370117,0.12584022
1807.29250854,0.12410063
1809.22131592,0.12448850
1811.15012329,0.12134878
1813.07893066,0.12501147
1815.00773804,0.12538323
1816.93654541,0.12383065
1818.86535278,0.12481675
1820.79416016,0.12405871
1822.72296753,0.12576540
1824.65177490,0.11802874
1826.58058228,0.12196095
1828.50938965,0.12181097
1830.43819702,0.11476970
1832.36700439,0.12434830
1834.29581177,0.12319362
1836.22461914,0.12319895
1838.15342651,0.12261204
1840.08223389,0.12323071
1842.01104126,0.12306149
1843.93984863,0.10970992
1845.86865601,0.11689104
1847.79746338,0.12276198
1849.72627075,0.12006335
1851.65507812,0.12327284
1853.58388550,0.12092856
1855.51269287,0.12199199
1857.44150024,0.12107687
1859.37030762,0.12025858
1861.29911499,0.12083615
1863.22792236,0.11968458
1865.15672974,0.12066770
1867.08553711,0.11654723
1869.01434448,0.11203724
1870.94315186,0.11612874
1872.87195923,0.12010160
1874.80076660,0.11804160
1876.72957397,0.11868250
1878.65838135,0.11810528
1880.58718872,0.11730009
1882.51599609,0.11830483
1884.44480347,0.11620975
1886.37361084,0.11764388
1888.30241821,0.11507924
1890.23122559,0.11288442
1892.16003296,0.11675781
1894.08884033,0.11506689
1896.01764771,0.11449043
1897.94645508,0.11553007
1899.87526245,0.11493742
1901.80406982,0.11506144
1903.73287720,0.11415139
1905.66168457,0.11457941
1907.59049194,0.11355096
1909.51929932,0.11270425
1911.44810669,0.11322016
1913.37691406,0.11329523
1915.30572144,0.11382912
1917.23452881,0.10903025
1919.16333618,0.10925306
1921.09214355,0.11276881
1923.02095093,0.10926946
1924.94975830,0.11149471
1926.87856567,0.11237138
1928.80737305,0.11092040
1930.73618042,0.11211461
1932.66498779,0.11050595
1934.59379517,0.11145753
1936.52260254,0.11051988
1938.45140991,0.11058754
1940.38021729,0.11037061
1942.30902466,0.10694829
1944.23783203,0.10881219
1946.16663940,0.10958538
1948.09544678,0.10921542
1950.02425415,0.10956780
1951.95306152,0.10916042
1953.88186890,0.10924573
1955.81067627,0.10858963
1957.73948364,0.10872847
1959.66829102,0.10855811
1961.59709839,0.10822167
1963.52590576,0.10821833
1965.45471313,0.10750642
1967.38352051,0.10635003
1969.31232788,0.10696007
1971.24113525,0.10771316
1973.16994263,0.10679612
1975.09875000,0.10697634
1977.02755737,0.10653327
1978.95636475,0.10628781
1980.88517212,0.10603767
1982.81397949,0.10564671
1984.74278687,0.10599093
1986.67159424,0.10502769
1988.60040161,0.10493974
1990.52920898,0.10381462
1992.45801636,0.10270782
1994.38682373,0.10398608
1996.31563110,0.10390407
1998.24443848,0.10338907
2000.17324585,0.10328121
2002.10205322,0.10291819
2004.03086060,0.10273652
2005.95966797,0.10227893
2007.88847534,0.10193736
2009.81728271,0.10177553
2011.74609009,0.10134652
2013.67489746,0.10125166
2015.60370483,0.10051183
2017.53251221,0.09967469
2019.46131958,0.09997784
2021.39012695,0.09973795
2023.31893433,0.09942921
2025.24774170,0.09916796
2027.17654907,0.09889144
2029.10535645,0.09868606
2031.03416382,0.09820746
2032.96297119,0.09808835
2034.89177856,0.09763680
2036.82058594,0.09734806
2038.74939331,0.09705405
2040.67820068,0.09654211
2042.60700806,0.09641332
2044.53581543,0.09619048
2046.46462280,0.09581183
2048.39343018,0.09547339
2050.32223755,0.09544095
2052.25104492,0.09519297
2054.17985229,0.09475848
2056.10865967,0.09453171
2058.03746704,0.09440446
2059.96627441,0.09403551
2061.89508179,0.09382379
2063.82388916,0.09347575
2065.75269653,0.09280922
2067.68150391,0.09304647
2069.61031128,0.09284203
2071.53911865,0.09250571
2073.46792603,0.09240486
2075.39673340,0.09196776
2077.32554077,0.09187827
2079.25434814,0.09152358
2081.18315552,0.09141238
2083.11196289,0.09123538
2085.04077026,0.09105380
2086.96957764,0.09087455
2088.89838501,0.09046739
2090.82719238,0.09038211
2092.75599976,0.09018409
2094.68480713,0.09012479
2096.61361450,0.08976930
2098.54242187,0.08963515
2100.47122925,0.08948673
2102.40003662,0.08910223
2104.32884399,0.08907725
2106.25765137,0.08876297
2108.18645874,0.08871651
2110.11526611,0.08853004
2112.04407349,0.08829171
2113.97288086,0.08820179
2115.90168823,0.08797689
2117.83049561,0.08781116
2119.75930298,0.08765635
2121.68811035,0.08764935
2123.61691772,0.08744104
2125.54572510,0.08737494
2127.47453247,0.08721994
2129.40333984,0.08712012
2131.33214722,0.08714535
2133.26095459,0.08693778
2135.18976196,0.08668546
2137.11856934,0.08656057
2139.04737671,0.08667997
2140.97618408,0.08633614
2142.90499146,0.08627684
2144.83379883,0.08622504
2146.76260620,0.08600675
2148.69141357,0.08599316
2150.62022095,0.08576012
2152.54902832,0.08585526
2154.47783569,0.08568147
2156.40664307,0.08561133
2158.33545044,0.08550973
2160.26425781,0.08537951
2162.19306519,0.08527213
2164.12187256,0.08497937
2166.05067993,0.08524536
2167.97948730,0.08507144
2169.90829468,0.08497280
2171.83710205,0.08489981
2173.76590942,0.08485282
2175.69471680,0.08482569
2177.62352417,0.08443771
2179.55233154,0.08462797
2181.48113892,0.08444177
2183.40994629,0.08436387
2185.33875366,0.08432773
2187.26756104,0.08425167
2189.19636841,0.08437319
2191.12517578,0.08400625
2193.05398315,0.08401300
2194.98279053,0.08396769
2196.91159790,0.08387478
2198.84040527,0.08382013
2200.76921265,0.08375181
2202.69802002,0.08366913
2204.62682739,0.08352578
2206.55563477,0.08356862
2208.48444214,0.08333212
2210.41324951,0.08329321
2212.34205688,0.08325361
2214.27086426,0.08315767
2216.19967163,0.08301792
2218.12847900,0.08290786
2220.05728638,0.08293486
2221.98609375,0.08279192
2223.91490112,0.08279814
2225.84370850,0.08257927
2227.77251587,0.08249767
2229.70132324,0.08243218
2231.63013062,0.08239815
2233.55893799,0.08228454
2235.48774536,0.08195849
2237.41655273,0.08202949
2239.34536011,0.08177705
2241.27416748,0.08169514
2243.20297485,0.08167436
2245.13178223,0.08156639
2247.06058960,0.08141756
2248.98939697,0.08114503
2250.91820435,0.08124551
2252.84701172,0.08103287
2254.77581909,0.08105090
2256.70462646,0.08094720
2258.63343384,0.08070877
2260.56224121,0.08076245
2262.49104858,0.08050573
2264.41985596,0.08051174
2266.34866333,0.08042583
2268.27747070,0.08022336
2270.20627808,0.08020277
2272.13508545,0.08005936
2274.06389282,0.07989632
2275.99270020,0.07999106
2277.92150757,0.08000230
2279.85031494,0.07984969
2281.77912231,0.07980739
2283.70792969,0.07957335
2285.63673706,0.07947344
2287.56554443,0.07927477
2289.49435181,0.07911249
2291.42315918,0.07899401
2293.35196655,0.07872874
2295.28077393,0.07859342
2297.20958130,0.07816112
2299.13838867,0.07786861
2301.06719604,0.07759400
2302.99600342,0.07725841
2304.92481079,0.07692257
2306.85361816,0.07637291
2308.78242554,0.07577188
2310.71123291,0.07517399
2312.64004028,0.07454546
2314.56884766,0.07353653
2316.49765503,0.07272105
2318.42646240,0.07177572
2320.35526978,0.07077651
2322.28407715,0.06997238
2324.21288452,0.06887154
2326.14169189,0.06807443
2328.07049927,0.06729613
2329.99930664,0.06640954
2331.92811401,0.06575257
2333.85692139,0.06559211
2335.78572876,0.06529564
2337.71453613,0.06511808
2339.64334351,0.06521127
2341.57215088,0.06525364
2343.50095825,0.06634795
2345.42976562,0.06757513
2347.35857300,0.07056177
2349.28738037,0.07294288
2351.21618774,0.07008813
2353.14499512,0.06645396
2355.07380249,0.06398895
2357.00260986,0.06194067
2358.93141724,0.06076758
2360.86022461,0.06000506
2362.78903198,0.05986787
2364.71783936,0.06031391
2366.64664673,0.06125576
2368.57545410,0.06242691
2370.50426147,0.06401554
2372.43306885,0.06577377
2374.36187622,0.06770253
2376.29068359,0.06964216
2378.21949097,0.07115409
2380.14829834,0.07239413
2382.07710571,0.07319634
2384.00591309,0.07386026
2385.93472046,0.07394918
2387.86352783,0.07390682
2389.79233521,0.07405987
2391.72114258,0.07383455
2393.64994995,0.07371406
2395.57875732,0.07361624
2397.50756470,0.07350089
2399.43637207,0.07341850
2401.36517944,0.07334208
2403.29398682,0.07317540
2405.22279419,0.07301553
2407.15160156,0.07292373
2409.08040894,0.07270755
2411.00921631,0.07266109
2412.93802368,0.07267781
2414.86683105,0.07251555
2416.79563843,0.07225130
2418.72444580,0.07217453
2420.65325317,0.07207489
2422.58206055,0.07196386
2424.51086792,0.07195252
2426.43967529,0.07184170
2428.36848267,0.07164079
2430.29729004,0.07136512
2432.22609741,0.07150677
2434.15490479,0.07145859
2436.08371216,0.07116869
2438.01251953,0.07117198
2439.94132690,0.07104986
2441.87013428,0.07083347
2443.79894165,0.07064568
2445.72774902,0.07067168
2447.65655640,0.07055129
2449.58536377,0.07042424
2451.51417114,0.07033361
2453.44297852,0.07019398
2455.37178589,0.07014329
2457.30059326,0.06988010
2459.22940063,0.06988404
2461.15820801,0.06978127
2463.08701538,0.06957337
2465.01582275,0.06953803
2466.94463013,0.06943686
2468.87343750,0.06930723
2470.80224487,0.06918780
2472.73105225,0.06911609
2474.65985962,0.06878964
2476.58866699,0.06882684
2478.51747437,0.06872457
2480.44628174,0.06847233
2482.37508911,0.06853962
2484.30389648,0.06828772
2486.23270386,0.06825606
2488.16151123,0.06814693
2490.09031860,0.06797896
2492.01912598,0.06788026
2493.94793335,0.06779287
2495.87674072,0.06770244
2497.80554810,0.06742869
2499.73435547,0.06743281
2501.66316284,0.06728064
2503.59197021,0.06719198
2505.52077759,0.06706208
2507.44958496,0.06694520
2509.37839233,0.06697586
2511.30719971,0.06671202
2513.23600708,0.06654936
2515.16481445,0.06636146
2517.09362183,0.06636744
2519.02242920,0.06627280
2520.95123657,0.06613701
2522.88004395,0.06608751
2524.80885132,0.06587745
2526.73765869,0.06580976
2528.66646606,0.06563455
2530.59527344,0.06559151
2532.52408081,0.06539816
2534.45288818,0.06530020
2536.38169556,0.06522587
2538.31050293,0.06498916
2540.23931030,0.06499305
2542.16811768,0.06474300
2544.09692505,0.06472777
2546.02573242,0.06460261
2547.95453979,0.06442693
2549.88334717,0.06448413
2551.81215454,0.06429366
2553.74096191,0.06422754
2555.66976929,0.06411374
2557.59857666,0.06389830
2559.52738403,0.06366993
2561.45619141,0.06370156
2563.38499878,0.06362942
2565.31380615,0.06338985
2567.24261353,0.06334819
2569.17142090,0.06320748
2571.10022827,0.06314183
2573.02903564,0.06300618
2574.95784302,0.06285381
2576.88665039,0.06259108
2578.81545776,0.06253883
2580.74426514,0.06253439
2582.67307251,0.06228725
2584.60187988,0.06226921
2586.53068726,0.06202167
2588.45949463,0.06202352
2590.38830200,0.06193886
2592.31710937,0.06168748
2594.24591675,0.06167642
2596.17472412,0.06142887
2598.10353149,0.06136006
2600.03233887,0.06117815
2601.96114624,0.06113145
2603.88995361,0.06106818
2605.81876099,0.06075299
2607.74756836,0.06075930
2609.67637573,0.06069269
2611.60518311,0.06048041
2613.53399048,0.06029845
2615.46279785,0.06025609
2617.39160522,0.06003679
2619.32041260,0.05988082
2621.24921997,0.05988391
2623.17802734,0.05967381
2625.10683472,0.05955268
2627.03564209,0.05941961
2628.96444946,0.05927728
2630.89325684,0.05912486
2632.82206421,0.05909960
2634.75087158,0.05894984
2636.67967895,0.05877499
2638.60848633,0.05874826
2640.53729370,0.05842842
2642.46610107,0.05845261
2644.39490845,0.05841773
2646.32371582,0.05809793
2648.25252319,0.05795617
2650.18133057,0.05786306
2652.11013794,0.05784138
2654.03894531,0.05760614
2655.96775269,0.05745482
2657.89656006,0.05730615
2659.82536743,0.05715430
2661.75417480,0.05711487
2663.68298218,0.05693803
2665.61178955,0.05690423
2667.54059692,0.05677525
2669.46940430,0.05655654
2671.39821167,0.05638911
2673.32701904,0.05635911
2675.25582642,0.05630103
2677.18463379,0.05600293
2679.11344116,0.05596709
2681.04224854,0.05585037
2682.97105591,0.05567107
2684.89986328,0.05562582
2686.82867065,0.05539478
2688.75747803,0.05528031
2690.68628540,0.05513822
2692.61509277,0.05499130
2694.54390015,0.05485822
2696.47270752,0.05463951
2698.40151489,0.05455654
2700.33032227,0.05431710
2702.25912964,0.05417211
2704.18793701,0.05411494
2706.11674438,0.05396976
2708.04555176,0.05392348
2709.97435913,0.05365462
2711.90316650,0.05348725
2713.83197388,0.05340925
2715.76078125,0.05321078
2717.68958862,0.05310442
2719.61839600,0.05297933
2721.54720337,0.05284087
2723.47601074,0.05260989
2725.40481812,0.05256394
2727.33362549,0.05249676
2729.26243286,0.05222465
2731.19124023,0.05215644
2733.12004761,0.05199751
2735.04885498,0.05186851
2736.97766235,0.05177814
2738.90646973,0.05150814
2740.83527710,0.05140137
2742.76408447,0.05131695
2744.69289185,0.05116989
2746.62169922,0.05102063
2748.55050659,0.05075910
2750.47931396,0.05070439
2752.40812134,0.05056614
2754.33692871,0.05026262
2756.26573608,0.05027309
2758.19454346,0.05010336
2760.12335083,0.04993504
2762.05215820,0.04977974
2763.98096558,0.04952481
2765.90977295,0.04952621
2767.83858032,0.04928637
2769.76738770,0.04913230
2771.69619507,0.04900054
2773.62500244,0.04875536
2775.55380981,0.04861337
2777.48261719,0.04845618
2779.41142456,0.04841498
2781.34023193,0.04810293
2783.26903931,0.04797601
2785.19784668,0.04785165
2787.12665405,0.04761847
2789.05546143,0.04761001
2790.98426880,0.04728941
2792.91307617,0.04711873
2794.84188354,0.04690630
2796.77069092,0.04675547
2798.69949829,0.04680034
2800.62830566,0.04653519
2802.55711304,0.04635971
2804.48592041,0.04616899
2806.41472778,0.04593936
2808.34353516,0.04580303
2810.27234253,0.04570942
2812.20114990,0.04553385
2814.12995728,0.04530957
2816.05876465,0.04513372
2817.98757202,0.04491717
2819.91637939,0.04471908
2821.84518677,0.04451253
2823.77399414,0.04441507
2825.70280151,0.04421263
2827.63160889,0.04404290
2829.56041626,0.04392703
2831.48922363,0.04372734
2833.41803101,0.04356957
2835.34683838,0.04325837
2837.27564575,0.04315045
2839.20445312,0.04300855
2841.13326050,0.04272668
2843.06206787,0.04249489
2844.99087524,0.04218273
2846.91968262,0.04186650
2848.84848999,0.04149773
2850.77729736,0.04136182
2852.70610474,0.04121540
2854.63491211,0.04105554
2856.56371948,0.04092075
2858.49252686,0.04070540
2860.42133423,0.04064337
2862.35014160,0.04049042
2864.27894897,0.04029901
2866.20775635,0.04013591
2868.13656372,0.03999773
2870.06537109,0.03973798
2871.99417847,0.03959556
2873.92298584,0.03952241
2875.85179321,0.03923921
2877.78060059,0.03911543
2879.70940796,0.03895965
2881.63821533,0.03885806
2883.56702270,0.03863094
2885.49583008,0.03840155
2887.42463745,0.03828423
2889.35344482,0.03812825
2891.28225220,0.03808494
2893.21105957,0.03767782
2895.13986694,0.03744300
2897.06867432,0.03722215
2898.99748169,0.03697444
2900.92628906,0.03696264
2902.85509644,0.03679258
2904.78390381,0.03667163
2906.71271118,0.03620932
2908.64151855,0.03597306
2910.57032593,0.03578659
2912.49913330,0.03545568
2914.42794067,0.03525047
2916.35674805,0.03475418
2918.28555542,0.03462373
2920.21436279,0.03441674
2922.14317017,0.03428114
2924.07197754,0.03419804
2926.00078491,0.03391580
2927.92959229,0.03391614
2929.85839966,0.03360711
2931.78720703,0.03345691
2933.71601440,0.03337999
2935.64482178,0.03326800
2937.57362915,0.03320919
2939.50243652,0.03294562
2941.43124390,0.03291408
2943.36005127,0.03270337
2945.28885864,0.03245543
2947.21766602,0.03235224
2949.14647339,0.03223406
2951.07528076,0.03204824
2953.00408813,0.03180559
2954.93289551,0.03165708
2956.86170288,0.03134656
2958.79051025,0.03118868
2960.71931763,0.03101624
2962.64812500,0.03074111
2964.57693237,0.03061076
2966.50573975,0.03039569
2968.43454712,0.03027247
2970.36335449,0.03015803
2972.29216187,0.02999742
2974.22096924,0.02989595
2976.14977661,0.02978197
2978.07858398,0.02967697
2980.00739136,0.02955553
2981.93619873,0.02938941
2983.86500610,0.02927043
2985.79381348,0.02913195
2987.72262085,0.02886249
2989.65142822,0.02869317
2991.58023560,0.02864012
2993.50904297,0.02850566
2995.43785034,0.02826580
2997.36665771,0.02805566
2999.29546509,0.02786903
3001.22427246,0.02770498
3003.15307983,0.02751938
3005.08188721,0.02723796
3007.01069458,0.02708308
3008.93950195,0.02692196
3010.86830933,0.02669135
3012.79711670,0.02643198
3014.72592407,0.02631698
3016.65473145,0.02628547
3018.58353882,0.02595561
3020.51234619,0.02579108
3022.44115356,0.02568443
3024.36996094,0.02543484
3026.29876831,0.02536370
3028.22757568,0.02515289
3030.15638306,0.02482151
3032.08519043,0.02477070
3034.01399780,0.02459819
3035.94280518,0.02420376
3037.87161255,0.02417549
3039.80041992,0.02403468
3041.72922729,0.02380111
3043.65803467,0.02370299
3045.58684204,0.02350189
3047.51564941,0.02336113
3049.44445679,0.02302055
3051.37326416,0.02298576
3053.30207153,0.02296876
3055.23087891,0.02256650
3057.15968628,0.02246169
3059.08849365,0.02238903
3061.01730103,0.02224456
3062.94610840,0.02201735
3064.87491577,0.02179372
3066.80372314,0.02161063
3068.73253052,0.02147922
3070.66133789,0.02146699
3072.59014526,0.02132632
3074.51895264,0.02110971
3076.44776001,0.02088883
3078.37656738,0.02081826
3080.30537476,0.02056723
3082.23418213,0.02039447
3084.16298950,0.02042755
3086.09179687,0.02020862
3088.02060425,0.02004151
3089.94941162,0.01991804
3091.87821899,0.01990225
3093.80702637,0.01968594
3095.73583374,0.01951218
3097.66464111,0.01943871
3099.59344849,0.01921901
3101.52225586,0.01928161
3103.45106323,0.01904095
3105.37987061,0.01889312
3107.30867798,0.01877000
3109.23748535,0.01851811
3111.16629272,0.01855956
3113.09510010,0.01833051
3115.02390747,0.01822253
3116.95271484,0.01810315
3118.88152222,0.01794116
3120.81032959,0.01780530
3122.73913696,0.01762705
3124.66794434,0.01766928
3126.59675171,0.01756002
3128.52555908,0.01750835
3130.45436645,0.01733322
3132.38317383,0.01712060
3134.31198120,0.01707413
3136.24078857,0.01696233
3138.16959595,0.01685372
3140.09840332,0.01674772
3142.02721069,0.01673467
3143.95601807,0.01650806
3145.88482544,0.01644211
3147.81363281,0.01648663
3149.74244019,0.01632416
3151.67124756,0.01620527
3153.60005493,0.01597721
3155.52886230,0.01601223
3157.45766968,0.01596928
3159.38647705,0.01579159
3161.31528442,0.01581171
3163.24409180,0.01566831
3165.17289917,0.01559925
3167.10170654,0.01550325
3169.03051392,0.01545185
3170.95932129,0.01550810
3172.88812866,0.01530369
3174.81693604,0.01521748
3176.74574341,0.01528404
3178.67455078,0.01525874
3180.60335815,0.01513593
3182.53216553,0.01493555
3184.46097290,0.01497719
3186.38978027,0.01495451
3188.31858765,0.01478944
3190.24739502,0.01482230
3192.17620239,0.01478295
3194.10500977,0.01475950
3196.03381714,0.01472143
3197.96262451,0.01469872
3199.89143188,0.01467556
3201.82023926,0.01458259
3203.74904663,0.01461117
3205.67785400,0.01447167
3207.60666138,0.01446271
3209.53546875,0.01451886
3211.46427612,0.01445206
3213.39308350,0.01447247
3215.32189087,0.01447168
3217.25069824,0.01446421
3219.17950562,0.01435074
3221.10831299,0.01446306
3223.03712036,0.01441985
3224.96592773,0.01427615
3226.89473511,0.01445026
3228.82354248,0.01436166
3230.75234985,0.01431236
3232.68115723,0.01429800
3234.60996460,0.01428914
3236.53877197,0.01436027
3238.46757935,0.01439085
3240.39638672,0.01447223
3242.32519409,0.01439388
3244.25400146,0.01438807
3246.18280884,0.01435426
3248.11161621,0.01438247
3250.04042358,0.01456124
3251.96923096,0.01455726
3253.89803833,0.01451061
3255.82684570,0.01452373
3257.75565308,0.01459848
3259.68446045,0.01454227
3261.61326782,0.01452022
3263.54207520,0.01462705
3265.47088257,0.01461837
3267.39968994,0.01461555
3269.32849731,0.01465765
3271.25730469,0.01462904
3273.18611206,0.01458198
3275.11491943,0.01464503
3277.04372681,0.01475973
3278.97253418,0.01486489
3280.90134155,0.01480441
3282.83014893,0.01474654
3284.75895630,0.01487477
3286.68776367,0.01485232
3288.61657104,0.01474727
3290.54537842,0.01482661
3292.47418579,0.01488964
3294.40299316,0.01479334
3296.33180054,0.01487638
3298.26060791,0.01497957
3300.18941528,0.01491062
3302.11822266,0.01490083
3304.04703003,0.01496762
3305.97583740,0.01496969
3307.90464478,0.01485039
3309.83345215,0.01502164
3311.76225952,0.01511439
3313.69106689,0.01498558
3315.61987427,0.01507625
3317.54868164,0.01510143
3319.47748901,0.01515245
3321.40629639,0.01517988
3323.33510376,0.01517925
3325.26391113,0.01520725
3327.19271851,0.01512960
3329.12152588,0.01519705
3331.05033325,0.01530038
3332.97914062,0.01526598
3334.90794800,0.01525258
3336.83675537,0.01531241
3338.76556274,0.01533479
3340.69437012,0.01535528
3342.62317749,0.01536795
3344.55198486,0.01538947
3346.48079224,0.01548843
3348.40959961,0.01557550
3350.33840698,0.01544134
3352.26721436,0.01542594
3354.19602173,0.01565105
3356.12482910,0.01551777
3358.05363647,0.01562586
3359.98244385,0.01569830
3361.91125122,0.01553485
3363.84005859,0.01577372
3365.76886597,0.01564820
3367.69767334,0.01564020
3369.62648071,0.01582757
3371.55528809,0.01582099
3373.48409546,0.01598815
3375.41290283,0.01599032
3377.34171020,0.01597552
3379.27051758,0.01606927
3381.19932495,0.01617090
3383.12813232,0.01623486
3385.05693970,0.01627138
3386.98574707,0.01630363
3388.91455444,0.01646204
3390.84336182,0.01645029
3392.77216919,0.01634189
3394.70097656,0.01663084
3396.62978394,0.01668766
3398.55859131,0.01667785
3400.48739868,0.01671157
3402.41620605,0.01678819
3404.34501343,0.01693431
3406.27382080,0.01696612
3408.20262817,0.01711870
3410.13143555,0.01711579
3412.06024292,0.01726836
3413.98905029,0.01727004
3415.91785767,0.01730270
3417.84666504,0.01748993
3419.77547241,0.01746826
3421.70427979,0.01765689
3423.63308716,0.01764783
3425.56189453,0.01777799
3427.49070190,0.01788559
3429.41950928,0.01798041
3431.34831665,0.01807260
3433.27712402,0.01803070
3435.20593140,0.01828054
3437.13473877,0.01824981
3439.06354614,0.01844317
3440.99235352,0.01857262
3442.92116089,0.01856988
3444.84996826,0.01863448
3446.77877563,0.01857656
3448.70758301,0.01879592
3450.63639038,0.01881498
3452.56519775,0.01895141
3454.49400513,0.01905614
3456.42281250,0.01924817
3458.35161987,0.01932979
3460.28042725,0.01923265
3462.20923462,0.01941774
3464.13804199,0.01934048
3466.06684937,0.01950834
3467.99565674,0.01957407
3469.92446411,0.01972810
3471.85327148,0.01993287
3473.78207886,0.01995733
3475.71088623,0.02017128
3477.63969360,0.02016923
3479.56850098,0.02033393
3481.49730835,0.02021906
3483.42611572,0.02038664
3485.35492310,0.02067560
3487.28373047,0.02054428
3489.21253784,0.02071059
3491.14134521,0.02089640
3493.07015259,0.02111379
3494.99895996,0.02106124
3496.92776733,0.02118140
3498.85657471,0.02137340
3500.78538208,0.02139015
3502.71418945,0.02127076
3504.64299683,0.02130032
3506.57180420,0.02183259
3508.50061157,0.02173001
3510.42941895,0.02177416
3512.35822632,0.02194212
3514.28703369,0.02207953
3516.21584106,0.02236712
3518.14464844,0.02229489
3520.07345581,0.02254288
3522.00226318,0.02241460
3523.93107056,0.02233269
3525.85987793,0.02262421
3527.78868530,0.02268637
3529.71749268,0.02281493
3531.64630005,0.02312305
3533.57510742,0.02342429
3535.50391479,0.02325786
3537.43272217,0.02325503
3539.36152954,0.02366210
3541.29033691,0.02387124
3543.21914429,0.02375603
3545.14795166,0.02345222
3547.07675903,0.02322021
3549.00556641,0.02389311
3550.93437378,0.02420645
3552.86318115,0.02383055
3554.79198853,0.02450815
3556.72079590,0.02464542
3558.64960327,0.02458716
3560.57841064,0.02461335
3562.50721802,0.02466996
3564.43602539,0.02494687
3566.36483276,0.02345114
3568.29364014,0.02309222
3570.22244751,0.02479392
3572.15125488,0.02554841
3574.08006226,0.02539891
3576.00886963,0.02555565
3577.93767700,0.02572454
3579.86648437,0.02564321
3581.79529175,0.02577674
3583.72409912,0.02599682
3585.65290649,0.02559373
3587.58171387,0.02380500
3589.51052124,0.02451654
3591.43932861,0.02659781
3593.36813599,0.02600132
3595.29694336,0.02580672
3597.22575073,0.02633107
3599.15455811,0.02651845
3601.08336548,0.02637351
3603.01217285,0.02670027
3604.94098022,0.02728024
3606.86978760,0.02658696
3608.79859497,0.02521574
3610.72740234,0.02579406
3612.65620972,0.02653836
3614.58501709,0.02589928
3616.51382446,0.02775389
3618.44263184,0.02586432
3620.37143921,0.02514481
3622.30024658,0.02825790
3624.22905395,0.02751976
3626.15786133,0.02896115
3628.08666870,0.02496117
3630.01547607,0.02306093
3631.94428345,0.02865415
3633.87309082,0.02800607
3635.80189819,0.02861743
3637.73070557,0.02922066
3639.65951294,0.02910434
3641.58832031,0.02943192
3643.51712769,0.02914242
3645.44593506,0.02968127
3647.37474243,0.02686665
3649.30354980,0.02506076
3651.23235718,0.02550355
3653.16116455,0.02999041
3655.08997192,0.02977959
3657.01877930,0.02708980
3658.94758667,0.03112697
3660.87639404,0.03056207
3662.80520142,0.03120552
3664.73400879,0.03115511
3666.66281616,0.03107003
3668.59162354,0.03053166
3670.52043091,0.02526423
3672.44923828,0.03041601
3674.37804565,0.02917932
3676.30685303,0.02456854
3678.23566040,0.03054178
3680.16446777,0.03129703
3682.09327515,0.03154158
3684.02208252,0.03243346
3685.95088989,0.03205651
3687.87969727,0.02914686
3689.80850464,0.02688535
3691.73731201,0.03053081
3693.66611938,0.03135844
3695.59492676,0.03215439
3697.52373413,0.03216258
3699.45254150,0.03177591
3701.38134888,0.03113462
3703.31015625,0.02999915
3705.23896362,0.03275821
3707.16777100,0.03135464
3709.09657837,0.03069933
3711.02538574,0.02900671
3712.95419312,0.02731833
3714.88300049,0.03161081
3716.81180786,0.03112961
3718.74061523,0.03145051
3720.66942261,0.03074411
3722.59822998,0.02973476
3724.52703735,0.03075589
3726.45584473,0.02859764
3728.38465210,0.03090741
3730.31345947,0.03045821
3732.24226685,0.02816597
3734.17107422,0.02765241
3736.09988159,0.02618938
3738.02868896,0.02750917
3739.95749634,0.02967064
3741.88630371,0.03090179
3743.81511108,0.02428200
3745.74391846,0.02308448
3747.67272583,0.02942546
3749.60153320,0.02544446
3751.53034058,0.02361114
3753.45914795,0.02686788
3755.38795532,0.02879001
3757.31676270,0.02982397
3759.24557007,0.02768337
3761.17437744,0.02853541
3763.10318481,0.03007437
3765.03199219,0.02827068
3766.96079956,0.02874505
3768.88960693,0.02835836
3770.81841431,0.02717772
3772.74722168,0.02917234
3774.67602905,0.02927149
3776.60483643,0.02918860
3778.53364380,0.02833700
3780.46245117,0.02732325
3782.39125854,0.02904096
3784.32006592,0.02844644
3786.24887329,0.02819175
3788.17768066,0.02866780
3790.10648804,0.02846729
3792.03529541,0.02835692
3793.96410278,0.02871726
3795.89291016,0.02703497
3797.82171753,0.02682703
3799.75052490,0.02801766
3801.67933228,0.02259860
3803.60813965,0.02621765
3805.53694702,0.02806140
3807.46575439,0.02323255
3809.39456177,0.02786267
3811.32336914,0.02727283
3813.25217651,0.02805610
3815.18098389,0.02541689
3817.10979126,0.02254143
3819.03859863,0.02793283
3820.96740601,0.02290677
3822.89621338,0.02408840
3824.82502075,0.02766325
3826.75382812,0.02530289
3828.68263550,0.02709697
3830.61144287,0.02584026
3832.54025024,0.02516994
3834.46905762,0.02569694
3836.39786499,0.02439075
3838.32667236,0.02224687
3840.25547974,0.02390382
3842.18428711,0.02553844
3844.11309448,0.02448647
3846.04190186,0.02633108
3847.97070923,0.02582765
3849.89951660,0.02584473
3851.82832397,0.02329662
3853.75713135,0.01783007
3855.68593872,0.02097901
3857.61474609,0.02590269
3859.54355347,0.02515709
3861.47236084,0.02477529
3863.40116821,0.02432611
3865.32997559,0.02270668
3867.25878296,0.02516499
3869.18759033,0.02304173
3871.11639770,0.02149596
3873.04520508,0.02521346
3874.97401245,0.02310474
3876.90281982,0.02494160
3878.83162720,0.02526557
3880.76043457,0.02189104
3882.68924194,0.02503876
3884.61804932,0.02328092
3886.54685669,0.02155991
3888.47566406,0.02495218
3890.40447144,0.02357965
3892.33327881,0.02220017
3894.26208618,0.02421648
3896.19089355,0.02459051
3898.11970093,0.02343581
3900.04850830,0.02228742
3901.97731567,0.02195013
3903.90612305,0.02172500
3905.83493042,0.02208666
3907.76373779,0.02395958
3909.69254517,0.02396444
3911.62135254,0.02375229
3913.55015991,0.02401955
3915.47896728,0.02327130
3917.40777466,0.02269421
3919.33658203,0.02246636
3921.26538940,0.02332506
3923.19419678,0.02310784
3925.12300415,0.02265242
3927.05181152,0.02303899
3928.98061890,0.02315454
3930.90942627,0.02282558
3932.83823364,0.02202013
3934.76704102,0.02281566
3936.69584839,0.02296628
3938.62465576,0.02269175
3940.55346313,0.02297094
3942.48227051,0.02212803
3944.41107788,0.02233975
3946.33988525,0.02269127
3948.26869263,0.02208973
3950.19750000,0.02205249
3952.12630737,0.02236870
3954.05511475,0.02234256
3955.98392212,0.02226895
3957.91272949,0.02223322
3959.84153687,0.02220541
3961.77034424,0.02202858
3963.69915161,0.02187859
3965.62795898,0.02214019
3967.55676636,0.02196309
3969.48557373,0.02194700
3971.41438110,0.02193015
3973.34318848,0.02181503
3975.27199585,0.02180387
3977.20080322,0.02154933
3979.12961060,0.02167668
3981.05841797,0.02152934
3982.98722534,0.02153028
3984.91603271,0.02150358
3986.84484009,0.02142759
3988.77364746,0.02138053
3990.70245483,0.02111855
3992.63126221,0.02128019
3994.56006958,0.02111680
3996.48887695,0.02119511
3998.41768433,0.02110605
4000.34649170,0.02103387
4002.27529907,0.02111598
4004.20410645,0.02083304
4006.13291382,0.02093601
4008.06172119,0.02066731
4009.99052856,0.02077249
4011.91933594,0.02078461
4013.84814331,0.02064404
4015.77695068,0.02080371
4017.70575806,0.02049040
4019.63456543,0.02046251
4021.56337280,0.02040421
4023.49218018,0.02046592
4025.42098755,0.02041635
4027.34979492,0.02031542
4029.27860229,0.02029363
4031.20740967,0.02010697
4033.13621704,0.02023694
4035.06502441,0.02015247
4036.99383179,0.02009123
4038.92263916,0.01996179
4040.85144653,0.01988410
4042.78025391,0.01987921
4044.70906128,0.01979932
4046.63786865,0.01981725
4048.56667603,0.01969451
4050.49548340,0.01976376
4052.42429077,0.01964685
4054.35309814,0.01961698
4056.28190552,0.01961369
4058.21071289,0.01943940
4060.13952026,0.01944897
4062.06832764,0.01938653
4063.99713501,0.01933004
4065.92594238,0.01923449
4067.85474976,0.01925119
4069.78355713,0.01922496
4071.71236450,0.01918637
4073.64117187,0.01912012
4075.56997925,0.01903304
4077.49878662,0.01894562
4079.42759399,0.01884535
4081.35640137,0.01894580
4083.28520874,0.01884024
4085.21401611,0.01890595
4087.14282349,0.01882173
4089.07163086,0.01870389
4091.00043823,0.01879230
4092.92924561,0.01857719
4094.85805298,0.01849025
4096.78686035,0.01840806
4098.71566772,0.01849492
4100.64447510,0.01842059
4102.57328247,0.01833796
4104.50208984,0.01833527
4106.43089722,0.01811559
4108.35970459,0.01823864
4110.28851196,0.01820749
4112.21731934,0.01810316
4114.14612671,0.01805762
4116.07493408,0.01809039
4118.00374145,0.01803483
4119.93254883,0.01784378
4121.86135620,0.01791030
4123.79016357,0.01789666
4125.71897095,0.01781219
4127.64777832,0.01768439
4129.57658569,0.01779234
4131.50539307,0.01769395
4133.43420044,0.01755344
4135.36300781,0.01767785
4137.29181519,0.01753249
4139.22062256,0.01753847
4141.14942993,0.01744629
4143.07823730,0.01738017
4145.00704468,0.01738217
4146.93585205,0.01733252
4148.86465942,0.01732046
4150.79346680,0.01721740
4152.72227417,0.01718421
4154.65108154,0.01712608
4156.57988892,0.01713645
4158.50869629,0.01699170
4160.43750366,0.01700321
4162.36631103,0.01705105
4164.29511841,0.01699625
4166.22392578,0.01692714
4168.15273315,0.01675961
4170.08154053,0.01685669
4172.01034790,0.01672143
4173.93915527,0.01676002
4175.86796265,0.01668551
4177.79677002,0.01654017
4179.72557739,0.01669749
4181.65438477,0.01654128
4183.58319214,0.01657433
4185.51199951,0.01645032
4187.44080688,0.01639650
4189.36961426,0.01637649
4191.29842163,0.01625586
4193.22722900,0.01632423
4195.15603638,0.01621778
4197.08484375,0.01617911
4199.01365112,0.01607201
4200.94245850,0.01616099
4202.87126587,0.01611223
4204.80007324,0.01598636
4206.72888062,0.01594192
4208.65768799,0.01586330
4210.58649536,0.01603001
4212.51530273,0.01582599
4214.44411011,0.01581023
4216.37291748,0.01582145
4218.30172485,0.01570469
4220.23053223,0.01577075
4222.15933960,0.01569734
4224.08814697,0.01563082
4226.01695435,0.01552010
4227.94576172,0.01550916
4229.87456909,0.01539968
4231.80337646,0.01547912
4233.73218384,0.01544229
4235.66099121,0.01534861
4237.58979858,0.01548022
4239.51860596,0.01526963
4241.44741333,0.01528654
4243.37622070,0.01520181
4245.30502808,0.01512595
4247.23383545,0.01513906
4249.16264282,0.01504909
4251.09145020,0.01507952
4253.02025757,0.01494788
4254.94906494,0.01502825
4256.87787231,0.01494297
4258.80667969,0.01480134
4260.73548706,0.01489968
4262.66429443,0.01490294
4264.59310181,0.01479873
4266.52190918,0.01476110
4268.45071655,0.01478281
4270.37952393,0.01468038
4272.30833130,0.01473729
4274.23713867,0.01462493
4276.16594604,0.01456120
4278.09475342,0.01454879
4280.02356079,0.01443752
4281.95236816,0.01446688
4283.88117554,0.01436209
4285.80998291,0.01434210
4287.73879028,0.01430434
4289.66759766,0.01435532
4291.59640503,0.01428521
4293.52521240,0.01424227
4295.45401978,0.01422530
4297.38282715,0.01405382
4299.31163452,0.01416890
4301.24044189,0.01401603
4303.16924927,0.01406267
4305.09805664,0.01402979
4307.02686401,0.01390322
4308.95567139,0.01403692
4310.88447876,0.01382879
4312.81328613,0.01387728
4314.74209351,0.01381887
4316.67090088,0.01375225
4318.59970825,0.01375192
4320.52851562,0.01372284
4322.45732300,0.01377411
4324.38613037,0.01356027
4326.31493774,0.01362320
4328.24374512,0.01355458
4330.17255249,0.01347435
4332.10135986,0.01354377
4334.03016724,0.01350373
4335.95897461,0.01353794
4337.88778198,0.01343149
4339.81658936,0.01338023
4341.74539673,0.01331238
4343.67420410,0.01328903
4345.60301147,0.01328636
4347.53181885,0.01323043
4349.46062622,0.01316954
4351.38943359,0.01311610
4353.31824097,0.01315598
4355.24704834,0.01310581
4357.17585571,0.01309476
4359.10466309,0.01306198
4361.03347046,0.01301969
4362.96227783,0.01297085
4364.89108520,0.01295257
4366.81989258,0.01296142
4368.74869995,0.01285575
4370.67750732,0.01278311
4372.60631470,0.01274329
4374.53512207,0.01277288
4376.46392944,0.01271864
4378.39273682,0.01271179
4380.32154419,0.01264323
4382.25035156,0.01257277
4384.17915894,0.01266310
4386.10796631,0.01256376
4388.03677368,0.01252841
4389.96558105,0.01246226
4391.89438843,0.01242378
4393.82319580,0.01239622
4395.75200317,0.01237831
4397.68081055,0.01233929
4399.60961792,0.01218810
4401.53842529,0.01240719
4403.46723267,0.01236177
4405.39604004,0.01217279
4407.32484741,0.01216806
4409.25365478,0.01214180
4411.18246216,0.01219591
4413.11126953,0.01206870
4415.04007690,0.01211204
4416.96888428,0.01206610
4418.89769165,0.01191415
4420.82649902,0.01195591
4422.75530640,0.01191586
4424.68411377,0.01191073
4426.61292114,0.01183097
4428.54172852,0.01177244
4430.47053589,0.01177896
4432.39934326,0.01175460
4434.32815063,0.01178781
4436.25695801,0.01175058
4438.18576538,0.01166967
4440.11457275,0.01169685
4442.04338013,0.01166258
4443.97218750,0.01156207
4445.90099487,0.01156873
4447.82980225,0.01154315
4449.75860962,0.01149441
4451.68741699,0.01142390
4453.61622437,0.01140376
4455.54503174,0.01141539
4457.47383911,0.01139667
4459.40264648,0.01138996
4461.33145386,0.01133762
4463.26026123,0.01130640
4465.18906860,0.01125009
4467.11787598,0.01128172
4469.04668335,0.01120214
4470.97549072,0.01112170
4472.90429810,0.01119187
4474.83310547,0.01105291
4476.76191284,0.01103248
4478.69072021,0.01106499
4480.61952759,0.01103261
4482.54833496,0.01104082
4484.47714233,0.01096562
4486.40594971,0.01087492
4488.33475708,0.01087859
4490.26356445,0.01091442
4492.19237183,0.01081135
4494.12117920,0.01085176
4496.04998657,0.01092245
4497.97879395,0.01084592
4499.90760132,0.01073626
4501.83640869,0.01064664
4503.76521606,0.01067468
4505.69402344,0.01066303
4507.62283081,0.01060909
4509.55163818,0.01048367
4511.48044556,0.01048311
4513.40925293,0.01058097
4515.33806030,0.01056045
4517.26686768,0.01051444
4519.19567505,0.01043788
4521.12448242,0.01042514
4523.05328979,0.01041538
4524.98209717,0.01042795
4526.91090454,0.01035166
4528.83971191,0.01026320
4530.76851929,0.01031905
4532.69732666,0.01027801
4534.62613403,0.01023777
4536.55494141,0.01025255
4538.48374878,0.01018007
4540.41255615,0.01010067
4542.34136353,0.01014175
4544.27017090,0.01007980
4546.19897827,0.01008192
4548.12778564,0.01011951
4550.05659302,0.00999527
4551.98540039,0.00999137
4553.91420776,0.00993367
4555.84301514,0.00991708
4557.77182251,0.00988120
4559.70062988,0.00985155
4561.62943726,0.00984960
4563.55824463,0.00978038
4565.48705200,0.00987706
4567.41585937,0.00977721
4569.34466675,0.00969418
4571.27347412,0.00971434
4573.20228149,0.00969003
4575.13108887,0.00967077
4577.05989624,0.00958698
4578.98870361,0.00958087
4580.91751099,0.00954597
4582.84631836,0.00953594
4584.77512573,0.00949834
4586.70393311,0.00950606
4588.63274048,0.00942382
4590.56154785,0.00939759
4592.49035522,0.00947484
4594.41916260,0.00936720
4596.34796997,0.00937436
4598.27677734,0.00924431
4600.20558472,0.00928807
4602.13439209,0.00930964
4604.06319946,0.00919173
4605.99200684,0.00930341
4607.92081421,0.00922891
4609.84962158,0.00925808
4611.77842895,0.00919127
4613.70723633,0.00913381
4615.63604370,0.00918029
4617.56485107,0.00910574
4619.49365845,0.00903304
4621.42246582,0.00901280
4623.35127319,0.00906254
4625.28008057,0.00892775
4627.20888794,0.00900514
4629.13769531,0.00891163
4631.06650269,0.00887199
4632.99531006,0.00896786
4634.92411743,0.00875578
4636.85292480,0.00886010
4638.78173218,0.00878719
4640.71053955,0.00878272
4642.63934692,0.00874745
4644.56815430,0.00865467
4646.49696167,0.00879331
4648.42576904,0.00862597
4650.35457642,0.00863871
4652.28338379,0.00860540
4654.21219116,0.00860628
4656.14099853,0.00863096
4658.06980591,0.00856114
4659.99861328,0.00860017
4661.92742065,0.00852005
4663.85622803,0.00856251
4665.78503540,0.00849706
4667.71384277,0.00843829
4669.64265015,0.00835809
4671.57145752,0.00836796
4673.50026489,0.00845823
4675.42907227,0.00831569
4677.35787964,0.00833145
4679.28668701,0.00830586
4681.21549438,0.00828565
4683.14430176,0.00826104
4685.07310913,0.00822732
4687.00191650,0.00821305
4688.93072388,0.00813514
4690.85953125,0.00816932
4692.78833862,0.00816692
4694.71714600,0.00809845
4696.64595337,0.00804232
4698.57476074,0.00815534
4700.50356812,0.00808989
4702.43237549,0.00803131
4704.36118286,0.00807967
4706.28999023,0.00793376
4708.21879761,0.00796858
4710.14760498,0.00802345
4712.07641235,0.00801223
4714.00521973,0.00788876
4715.93402710,0.00792625
4717.86283447,0.00793720
4719.79164185,0.00777379
4721.72044922,0.00783379
4723.64925659,0.00779921
4725.57806396,0.00780504
4727.50687134,0.00769336
4729.43567871,0.00770265
4731.36448608,0.00773013
4733.29329346,0.00762335
4735.22210083,0.00774788
4737.15090820,0.00764784
4739.07971558,0.00769986
4741.00852295,0.00767638
4742.93733032,0.00753718
4744.86613770,0.00753188
4746.79494507,0.00747823
4748.72375244,0.00754840
4750.65255981,0.00747905
4752.58136719,0.00753399
4754.51017456,0.00751149
4756.43898193,0.00744139
4758.36778931,0.00747751
4760.29659668,0.00740225
4762.22540405,0.00743137
4764.15421143,0.00737876
4766.08301880,0.00735065
4768.01182617,0.00730391
4769.94063354,0.00725749
4771.86944092,0.00730457
4773.79824829,0.00729253
4775.72705566,0.00722738
4777.65586304,0.00722125
4779.58467041,0.00723691
4781.51347778,0.00718585
4783.44228516,0.00725658
4785.37109253,0.00718039
4787.29989990,0.00713119
4789.22870728,0.00709989
4791.15751465,0.00706446
4793.08632202,0.00716451
4795.01512939,0.00706816
4796.94393677,0.00706467
4798.87274414,0.00700101
4800.80155151,0.00701789
4802.73035889,0.00701478
4804.65916626,0.00691309
4806.58797363,0.00699767
4808.51678101,0.00685977
4810.44558838,0.00686139
4812.37439575,0.00692057
4814.30320312,0.00694296
4816.23201050,0.00689146
4818.16081787,0.00680298
4820.08962524,0.00689368
4822.01843262,0.00676251
4823.94723999,0.00673181
4825.87604736,0.00674284
4827.80485474,0.00675622
4829.73366211,0.00673337
4831.66246948,0.00664541
4833.59127686,0.00671999
4835.52008423,0.00665342
4837.44889160,0.00664948
4839.37769897,0.00664365
4841.30650635,0.00662557
4843.23531372,0.00657750
4845.16412109,0.00650940
4847.09292847,0.00657869
4849.02173584,0.00653392
4850.95054321,0.00650812
4852.87935059,0.00647019
4854.80815796,0.00646722
4856.73696533,0.00642449
4858.66577270,0.00640319
4860.59458008,0.00644897
4862.52338745,0.00637233
4864.45219482,0.00639856
4866.38100220,0.00634221
4868.30980957,0.00635144
4870.23861694,0.00637467
4872.16742432,0.00626586
4874.09623169,0.00625958
4876.02503906,0.00623427
4877.95384644,0.00630176
4879.88265381,0.00625829
4881.81146118,0.00616117
4883.74026855,0.00624954
4885.66907593,0.00622368
4887.59788330,0.00617126
4889.52669067,0.00617229
4891.45549805,0.00609637
4893.38430542,0.00606537
4895.31311279,0.00608671
4897.24192017,0.00610259
4899.17072754,0.00608948
4901.09953491,0.00600247
4903.02834228,0.00600663
4904.95714966,0.00599805
4906.88595703,0.00599523
4908.81476440,0.00604395
4910.74357178,0.00594082
4912.67237915,0.00590487
4914.60118652,0.00589563
4916.52999390,0.00588583
4918.45880127,0.00594122
4920.38760864,0.00593185
4922.31641602,0.00587700
4924.24522339,0.00578551
4926.17403076,0.00581753
4928.10283813,0.00583363
4930.03164551,0.00575484
4931.96045288,0.00580137
4933.88926025,0.00577566
4935.81806763,0.00571521
4937.74687500,0.00578849
4939.67568237,0.00575154
4941.60448975,0.00569990
4943.53329712,0.00570099
4945.46210449,0.00565951
4947.39091187,0.00567254
4949.31971924,0.00557985
4951.24852661,0.00552363
4953.17733398,0.00559798
4955.10614136,0.00560789
4957.03494873,0.00553960
4958.96375610,0.00554234
4960.89256348,0.00564060
4962.82137085,0.00550903
4964.75017822,0.00545051
4966.67898560,0.00549485
4968.60779297,0.00543927
4970.53660034,0.00546397
4972.46540771,0.00539842
4974.39421509,0.00543324
4976.32302246,0.00547949
4978.25182983,0.00538952
4980.18063721,0.00538242
4982.10944458,0.00538875
4984.03825195,0.00536104
4985.96705933,0.00534449
4987.89586670,0.00535775
4989.82467407,0.00531957
4991.75348145,0.00529356
4993.68228882,0.00526518
4995.61109619,0.00525664
4997.53990356,0.00521024
4999.46871094,0.00518732
5001.39751831,0.00526554
5003.32632568,0.00519124
5005.25513306,0.00521806
5007.18394043,0.00519131
5009.11274780,0.00510128
5011.04155518,0.00519023
5012.97036255,0.00519390
5014.89916992,0.00512204
5016.82797729,0.00500586
5018.75678467,0.00505170
5020.68559204,0.00505474
5022.61439941,0.00502728
5024.54320679,0.00509331
5026.47201416,0.00498682
5028.40082153,0.00504873
5030.32962891,0.00502232
5032.25843628,0.00488885
5034.18724365,0.00499132
5036.11605103,0.00494408
5038.04485840,0.00487090
5039.97366577,0.00494531
5041.90247314,0.00487428
5043.83128052,0.00482488
5045.76008789,0.00493956
5047.68889526,0.00489532
5049.61770264,0.00483690
5051.54651001,0.00487989
5053.47531738,0.00487422
5055.40412476,0.00481121
5057.33293213,0.00470455
5059.26173950,0.00473234
5061.19054687,0.00476639
5063.11935425,0.00472279
5065.04816162,0.00471517
5066.97696899,0.00471607
5068.90577637,0.00474088
5070.83458374,0.00470663
5072.76339111,0.00464668
5074.69219849,0.00472378
5076.62100586,0.00476942
5078.54981323,0.00466578
5080.47862061,0.00463417
5082.40742798,0.00465374
5084.33623535,0.00461900
5086.26504272,0.00452215
5088.19385010,0.00454500
5090.12265747,0.00464847
5092.05146484,0.00453293
5093.98027222,0.00450747
5095.90907959,0.00458106
5097.83788696,0.00453968
5099.76669434,0.00449213
5101.69550171,0.00445875
5103.62430908,0.00443431
5105.55311645,0.00443651
5107.48192383,0.00451618
5109.41073120,0.00447470
5111.33953857,0.00440548
5113.26834595,0.00444612
5115.19715332,0.00444037
5117.12596069,0.00440272
5119.05476807,0.00433968
5120.98357544,0.00431842
5122.91238281,0.00433485
5124.84119019,0.00431406
5126.76999756,0.00426854
5128.69880493,0.00433003
5130.62761230,0.00430386
5132.55641968,0.00419384
5134.48522705,0.00428693
5136.41403442,0.00425684
5138.34284180,0.00416131
5140.27164917,0.00417159
5142.20045654,0.00418644
5144.12926392,0.00417014
5146.05807129,0.00411950
5147.98687866,0.00416020
5149.91568603,0.00418276
5151.84449341,0.00420731
5153.77330078,0.00418256
5155.70210815,0.00411461
5157.63091553,0.00412259
5159.55972290,0.00410922
5161.48853027,0.00415178
5163.41733765,0.00419011
5165.34614502,0.00414290
5167.27495239,0.00414469
5169.20375977,0.00408793
5171.13256714,0.00394640
5173.06137451,0.00401182
5174.99018188,0.00400493
5176.91898926,0.00397211
5178.84779663,0.00409105
5180.77660400,0.00395298
5182.70541138,0.00394578
5184.63421875,0.00396239
5186.56302612,0.00383358
5188.49183350,0.00390726
5190.42064087,0.00386289
5192.34944824,0.00385126
5194.27825562,0.00390953
5196.20706299,0.00381739
5198.13587036,0.00383323
5200.06467773,0.00390035
5201.99348511,0.00386579
5203.92229248,0.00384767
5205.85109985,0.00379190
5207.77990723,0.00376899
5209.70871460,0.00379793
5211.63752197,0.00376664
5213.56632935,0.00383509
5215.49513672,0.00381006
5217.42394409,0.00376087
5219.35275146,0.00376157
5221.28155884,0.00373074
5223.21036621,0.00375472
5225.13917358,0.00366525
5227.06798096,0.00368987
5228.99678833,0.00371209
5230.92559570,0.00367267
5232.85440308,0.00366602
5234.78321045,0.00365181
5236.71201782,0.00370594
5238.64082520,0.00358316
5240.56963257,0.00364653
5242.49843994,0.00373417
5244.42724731,0.00359758
5246.35605469,0.00357975
5248.28486206,0.00353100
5250.21366943,0.00360271
5252.14247681,0.00367662
5254.07128418,0.00354155
5256.00009155,0.00352439
5257.92889893,0.00361883
5259.85770630,0.00357864
5261.78651367,0.00355746
5263.71532104,0.00352594
5265.64412842,0.00350248
5267.57293579,0.00359516
5269.50174316,0.00348751
5271.43055054,0.00350975
5273.35935791,0.00356711
5275.28816528,0.00346443
5277.21697266,0.00352012
5279.14578003,0.00347875
5281.07458740,0.00345755
5283.00339478,0.00348129
5284.93220215,0.00341486
5286.86100952,0.00341092
5288.78981689,0.00340557
5290.71862427,0.00330723
5292.64743164,0.00334101
5294.57623901,0.00350589
5296.50504639,0.00344890
5298.43385376,0.00339423
5300.36266113,0.00339756
5302.29146851,0.00331669
5304.22027588,0.00330741
5306.14908325,0.00334001
5308.07789062,0.00330185
5310.00669800,0.00328110
5311.93550537,0.00330121
5313.86431274,0.00326436
5315.79312012,0.00331573
5317.72192749,0.00332814
5319.65073486,0.00324589
5321.57954224,0.00320251
5323.50834961,0.00323465
5325.43715698,0.00321564
5327.36596436,0.00312735
5329.29477173,0.00322465
5331.22357910,0.00323449
5333.15238647,0.00317874
5335.08119385,0.00318774
5337.01000122,0.00319585
5338.93880859,0.00310815
5340.86761597,0.00311590
5342.79642334,0.00323404
5344.72523071,0.00297940
5346.65403809,0.00303870
5348.58284546,0.00317545
5350.51165283,0.00313905
5352.44046020,0.00314086
5354.36926758,0.00292439
5356.29807495,0.00310362
5358.22688232,0.00312814
5360.15568970,0.00311242
5362.08449707,0.00320378
5364.01330444,0.00305402
5365.94211182,0.00312467
5367.87091919,0.00307456
5369.79972656,0.00306928
5371.72853394,0.00301910
5373.65734131,0.00302543
5375.58614868,0.00302965
5377.51495605,0.00290210
5379.44376343,0.00305529
5381.37257080,0.00294486
5383.30137817,0.00291985
5385.23018555,0.00299735
5387.15899292,0.00290532
5389.08780029,0.00293866
5391.01660767,0.00295463
5392.94541504,0.00288033
5394.87422241,0.00283549
5396.80302978,0.00295577
5398.73183716,0.00287890
5400.66064453,0.00289565
5402.58945190,0.00294418
5404.51825928,0.00288181
5406.44706665,0.00293970
5408.37587402,0.00277891
5410.30468140,0.00282406
5412.23348877,0.00285386
5414.16229614,0.00273613
5416.09110352,0.00283271
5418.01991089,0.00283865
5419.94871826,0.00280882
5421.87752563,0.00285394
5423.80633301,0.00288810
5425.73514038,0.00283532
5427.66394775,0.00277626
5429.59275513,0.00267428
5431.52156250,0.00271772
5433.45036987,0.00284082
5435.37917725,0.00272023
5437.30798462,0.00269097
5439.23679199,0.00273691
5441.16559936,0.00266192
5443.09440674,0.00268373
5445.02321411,0.00274242
5446.95202148,0.00263643
5448.88082886,0.00264864
5450.80963623,0.00262788
5452.73844360,0.00262282
5454.66725098,0.00267990
5456.59605835,0.00254761
5458.52486572,0.00270002
5460.45367310,0.00267447
5462.38248047,0.00259572
5464.31128784,0.00264853
5466.24009521,0.00256867
5468.16890259,0.00269760
5470.09770996,0.00261681
5472.02651733,0.00267922
5473.95532471,0.00262107
5475.88413208,0.00249069
5477.81293945,0.00264575
5479.74174683,0.00251684
5481.67055420,0.00257773
5483.59936157,0.00249501
5485.52816895,0.00251256
5487.45697632,0.00264303
5489.38578369,0.00242497
5491.31459106,0.00251708
5493.24339844,0.00253392
5495.17220581,0.00255369
5497.10101318,0.00263540
5499.02982056,0.00252884
5500.95862793,0.00249539
5502.88743530,0.00244892
5504.81624268,0.00241072
5506.74505005,0.00241978
5508.67385742,0.00244658
5510.60266479,0.00244444
5512.53147217,0.00248182
5514.46027954,0.00242498
5516.38908691,0.00242219
5518.31789429,0.00250018
5520.24670166,0.00238827
5522.17550903,0.00239919
5524.10431641,0.00236093
5526.03312378,0.00231347
5527.96193115,0.00240679
5529.89073853,0.00236256
5531.81954590,0.00236795
5533.74835327,0.00239643
5535.67716064,0.00236865
5537.60596802,0.00238201
5539.53477539,0.00235951
5541.46358276,0.00232462
5543.39239014,0.00230865
5545.32119751,0.00232358
5547.25000488,0.00235879
5549.17881226,0.00229132
5551.10761963,0.00225108
5553.03642700,0.00227991
5554.96523437,0.00227098
5556.89404175,0.00228201
5558.82284912,0.00226397
5560.75165649,0.00228461
5562.68046387,0.00230896
5564.60927124,0.00226749
5566.53807861,0.00223422
5568.46688599,0.00223975
5570.39569336,0.00224688
5572.32450073,0.00219364
5574.25330811,0.00219655
5576.18211548,0.00221732
5578.11092285,0.00224717
5580.03973022,0.00223632
5581.96853760,0.00216033
5583.89734497,0.00218643
5585.82615234,0.00220026
5587.75495972,0.00212475
5589.68376709,0.00214463
5591.61257446,0.00222984
5593.54138184,0.00213221
5595.47018921,0.00215951
5597.39899658,0.00223530
5599.32780395,0.00212790
5601.25661133,0.00209738
5603.18541870,0.00205883
5605.11422607,0.00217505
5607.04303345,0.00215820
5608.97184082,0.00204294
5610.90064819,0.00213348
5612.82945557,0.00205913
5614.75826294,0.00209434
5616.68707031,0.00215718
5618.61587769,0.00210100
5620.54468506,0.00210842
5622.47349243,0.00215540
5624.40229980,0.00217857
5626.33110718,0.00207631
5628.25991455,0.00204021
5630.18872192,0.00200175
5632.11752930,0.00201069
5634.04633667,0.00206101
5635.97514404,0.00199880
5637.90395142,0.00198275
5639.83275879,0.00204254
5641.76156616,0.00208483
5643.69037353,0.00199041
5645.61918091,0.00196300
5647.54798828,0.00200961
5649.47679565,0.00199167
5651.40560303,0.00198065
5653.33441040,0.00192139
5655.26321777,0.00190045
5657.19202515,0.00195783
5659.12083252,0.00197556
5661.04963989,0.00193753
5662.97844727,0.00192626
5664.90725464,0.00191965
5666.83606201,0.00195120
5668.76486938,0.00194497
5670.69367676,0.00187401
5672.62248413,0.00190161
5674.55129150,0.00192383
5676.48009888,0.00195409
5678.40890625,0.00196400
5680.33771362,0.00191427
5682.26652100,0.00187025
5684.19532837,0.00188323
5686.12413574,0.00191123
5688.05294311,0.00186528
5689.98175049,0.00187272
5691.91055786,0.00184435
5693.83936523,0.00186798
5695.76817261,0.00186792
5697.69697998,0.00178362
5699.62578735,0.00184123
5701.55459473,0.00182613
5703.48340210,0.00183104
5705.41220947,0.00183325
5707.34101685,0.00179053
5709.26982422,0.00180281
5711.19863159,0.00174463
5713.12743896,0.00177104
5715.05624634,0.00174555
5716.98505371,0.00169688
5718.91386108,0.00180223
5720.84266846,0.00177489
5722.77147583,0.00169766
5724.70028320,0.00175549
5726.62909058,0.00175911
5728.55789795,0.00172114
5730.48670532,0.00175428
5732.41551270,0.00177496
5734.34432007,0.00172353
5736.27312744,0.00171603
5738.20193481,0.00176060
5740.13074219,0.00167065
5742.05954956,0.00165172
5743.98835693,0.00171822
5745.91716431,0.00170437
5747.84597168,0.00172594
5749.77477905,0.00167900
5751.70358643,0.00164455
5753.63239380,0.00164104
5755.56120117,0.00164203
5757.49000854,0.00168778
5759.41881592,0.00162506
5761.34762329,0.00160069
5763.27643066,0.00167047
5765.20523804,0.00161097
5767.13404541,0.00155042
5769.06285278,0.00167808
5770.99166016,0.00170300
5772.92046753,0.00164650
5774.84927490,0.00163627
5776.77808228,0.00160607
5778.70688965,0.00162808
5780.63569702,0.00162839
5782.56450439,0.00165563
5784.49331177,0.00159117
5786.42211914,0.00155690
5788.35092651,0.00161656
5790.27973389,0.00156241
5792.20854126,0.00153089
5794.13734863,0.00153377
5796.06615601,0.00161021
5797.99496338,0.00154757
5799.92377075,0.00154421
5801.85257812,0.00161042
5803.78138550,0.00147454
5805.71019287,0.00153236
5807.63900024,0.00154355
5809.56780762,0.00153026
5811.49661499,0.00155003
5813.42542236,0.00149856
5815.35422974,0.00157138
5817.28303711,0.00152211
5819.21184448,0.00146243
5821.14065186,0.00151862
5823.06945923,0.00155833
5824.99826660,0.00152026
5826.92707397,0.00152988
5828.85588135,0.00152301
5830.78468872,0.00145332
5832.71349609,0.00148318
5834.64230347,0.00141600
5836.57111084,0.00139828
5838.49991821,0.00143023
5840.42872559,0.00142067
5842.35753296,0.00146988
5844.28634033,0.00147984
5846.21514770,0.00142873
5848.14395508,0.00139875
5850.07276245,0.00144218
5852.00156982,0.00138641
5853.93037720,0.00137881
5855.85918457,0.00143536
5857.78799194,0.00147633
5859.71679932,0.00146522
5861.64560669,0.00139565
5863.57441406,0.00144378
5865.50322144,0.00139601
5867.43202881,0.00140707
5869.36083618,0.00139098
5871.28964355,0.00135688
5873.21845093,0.00143606
5875.14725830,0.00134202
5877.07606567,0.00135877
5879.00487305,0.00138205
5880.93368042,0.00135895
5882.86248779,0.00131423
5884.79129517,0.00127893
5886.72010254,0.00140325
5888.64890991,0.00136550
5890.57771728,0.00133171
5892.50652466,0.00137043
5894.43533203,0.00137443
5896.36413940,0.00133673
5898.29294678,0.00127941
5900.22175415,0.00127392
5902.15056152,0.00124367
5904.07936890,0.00125800
5906.00817627,0.00127441
5907.93698364,0.00130476
5909.86579102,0.00127905
5911.79459839,0.00127978
5913.72340576,0.00135552
5915.65221313,0.00132020
5917.58102051,0.00126351
5919.50982788,0.00118327
5921.43863525,0.00122725
5923.36744263,0.00135001
5925.29625000,0.00131625
5927.22505737,0.00124375
5929.15386475,0.00125792
5931.08267212,0.00126870
5933.01147949,0.00124780
5934.94028686,0.00123941
5936.86909424,0.00115150
5938.79790161,0.00115702
5940.72670898,0.00119246
5942.65551636,0.00118920
5944.58432373,0.00123451
5946.51313110,0.00119993
5948.44193848,0.00117633
5950.37074585,0.00112339
5952.29955322,0.00115868
5954.22836060,0.00124453
5956.15716797,0.00119424
5958.08597534,0.00121122
5960.01478271,0.00122132
5961.94359009,0.00119906
5963.87239746,0.00118563
5965.80120483,0.00114743
5967.73001221,0.00118999
5969.65881958,0.00118038
5971.58762695,0.00112506
5973.51643433,0.00121284
5975.44524170,0.00123543
5977.37404907,0.00117685
5979.30285645,0.00116464
5981.23166382,0.00113502
5983.16047119,0.00114409
5985.08927856,0.00111990
5987.01808594,0.00110018
5988.94689331,0.00114260
5990.87570068,0.00117645
5992.80450806,0.00112361
5994.73331543,0.00110127
5996.66212280,0.00116653
5998.59093018,0.00106735
6000.51973755,0.00108979
