399.26312622,0.00060578
401.19193359,0.00026043
403.12074097,0.00073591
405.04954834,0.00011003
406.97835571,0.00051372
408.90716309,0.00075412
410.83597046,0.00031960
412.76477783,0.00089105
414.69358521,0.00073728
416.62239258,0.00078061
418.55119995,0.00069041
420.48000732,0.00072143
422.40881470,0.00126485
424.33762207,0.00101761
426.26642944,0.00084943
428.19523682,0.00128710
430.12404419,0.00141197
432.05285156,0.00106405
433.98165894,0.00082013
435.91046631,0.00074459
437.83927368,0.00092870
439.76808105,0.00096776
441.69688843,0.00087787
443.62569580,0.00076163
445.55450317,0.00058523
447.48331055,0.00090189
449.41211792,0.00117833
451.34092529,0.00082758
453.26973267,0.00030127
455.19854004,0.00045995
457.12734741,0.00041458
459.05615479,0.00038266
460.98496216,0.00093860
462.91376953,0.00060968
464.84257690,0.00064490
466.77138428,0.00098326
468.70019165,0.00030789
470.62899902,0.00042047
472.55780640,0.00084367
474.48661377,0.00035243
476.41542114,0.00050393
478.34422852,0.00077111
480.27303589,0.00056927
482.20184326,0.00064799
484.13065063,0.00053836
486.05945801,0.00069848
487.98826538,0.00063482
489.91707275,0.00034960
491.84588013,0.00046386
493.77468750,0.00041287
495.70349487,0.00058812
497.63230225,0.00057414
499.56110962,0.00041836
501.48991699,0.00050480
503.41872437,0.00060318
505.34753174,0.00053765
507.27633911,0.00006327
509.20514648,0.00031029
511.13395386,0.00077166
513.06276123,0.00044128
514.99156860,0.00008830
516.92037598,0.00019698
518.84918335,0.00048635
520.77799072,0.00026050
522.70679810,0.00013261
524.63560547,0.00018767
526.56441284,0.00025421
528.49322021,0.00013182
530.42202759,0.00002350
532.35083496,0.00061377
534.27964233,0.00033190
536.20844971,0.00005625
538.13725708,0.00048901
540.06606445,0.00015954
541.99487183,0.00006542
543.92367920,0.00005894
545.85248657,0.00000565
547.78129395,0.00046321
549.71010132,0.00040445
551.63890869,0.00045317
553.56771606,0.00055018
555.49652344,0.00032598
557.42533081,0.00044828
559.35413818,0.00016374
561.28294556,0.00010899
563.21175293,0.00027421
565.14056030,0.00036289
567.06936768,0.00015285
568.99817505,-0.00000679
570.92698242,0.00052679
572.85578979,0.00026371
574.78459717,0.00029746
576.71340454,0.00048209
578.64221191,0.00010342
580.57101929,0.00025590
582.49982666,0.00014872
584.42863403,0.00002779
586.35744141,0.00021145
588.28624878,0.00018013
590.21505615,0.00031416
592.14386353,0.00042804
594.07267090,0.00021596
596.00147827,0.00021672
597.93028564,0.00047735
599.85909302,0.00048231
601.78790039,0.00046115
603.71670776,0.00057441
605.64551514,0.00055848
607.57432251,0.00005500
609.50312988,-0.00005473
611.43193726,0.00036518
613.36074463,0.00023550
615.28955200,0.00031107
617.21835938,0.00015758
619.14716675,0.00000230
621.07597412,-0.00001266
623.00478149,0.00001953
624.93358887,0.00071960
626.86239624,0.00058769
628.79120361,0.00021925
630.72001099,0.00005198
632.64881836,0.00007208
634.57762573,0.00102151
636.50643311,0.00140704
638.43524048,0.00097354
640.36404785,0.00080331
642.29285522,0.00115363
644.22166260,0.00119119
646.15046997,0.00128693
648.07927734,0.00152638
650.00808472,0.00168675
651.93689209,0.00183994
653.86569946,0.00179259
655.79450684,0.00236010
657.72331421,0.00212536
659.65212158,0.00181117
661.58092896,0.00227911
663.50973633,0.00241588
665.43854370,0.00243862
667.36735107,0.00198233
669.29615845,0.00239108
671.22496582,0.00278528
673.15377319,0.00273996
675.08258057,0.00299734
677.01138794,0.00297593
678.94019531,0.00336121
680.86900269,0.00314968
682.79781006,0.00325386
684.72661743,0.00341303
686.65542480,0.00279702
688.58423218,0.00316133
690.51303955,0.00376971
692.44184692,0.00376418
694.37065430,0.00379263
696.29946167,0.00453636
698.22826904,0.00482099
700.15707642,0.00512585
702.08588379,0.00548089
704.01469116,0.00464390
705.94349854,0.00424970
707.87230591,0.00390532
709.80111328,0.00315240
711.72992065,0.00218468
713.65872803,0.00134027
715.58753540,0.00082860
717.51634277,0.00026925
719.44515015,0.00049864
721.37395752,0.00044158
723.30276489,0.00027589
725.23157227,0.00038223
727.16037964,0.00026880
729.08918701,0.00039762
731.01799438,0.00003987
732.94680176,-0.00015560
734.87560913,0.00016340
736.80441650,0.00025007
738.73322388,0.00024220
740.66203125,0.00002024
742.59083862,0.00021981
744.51964600,0.00065053
746.44845337,0.00018357
748.37726074,-0.00004630
750.30606812,0.00036695
752.23487549,0.00028327
754.16368286,0.00010404
756.09249023,0.00009787
758.02129761,0.00013972
759.95010498,0.00038562
761.87891235,0.00032136
763.80771973,0.00013635
765.73652710,0.00034699
767.66533447,0.00012977
769.59414185,0.00018993
771.52294922,0.00070371
773.45175659,0.00027202
775.38056396,0.00002232
777.30937134,0.00033494
779.23817871,0.00048740
781.16698608,0.00047570
783.09579346,0.00028564
785.02460083,0.00065844
786.95340820,0.00071562
788.88221558,0.00045957
790.81102295,0.00045086
792.73983032,0.00028673
794.66863770,0.00068788
796.59744507,0.00076046
798.52625244,0.00079279
800.45505981,0.00123065
802.38386719,0.00111429
804.31267456,0.00089122
806.24148193,0.00053970
808.17028931,0.00047606
810.09909668,0.00053363
812.02790405,0.00045317
813.95671143,0.00048895
815.88551880,0.00033832
817.81432617,0.00057984
819.74313354,0.00066256
821.67194092,0.00040257
823.60074829,0.00062388
825.52955566,0.00083003
827.45836304,0.00076925
829.38717041,0.00079471
831.31597778,0.00124133
833.24478516,0.00168312
835.17359253,0.00166647
837.10239990,0.00173978
839.03120728,0.00181386
840.96001465,0.00173147
842.88882202,0.00170965
844.81762939,0.00162713
846.74643677,0.00153289
848.67524414,0.00118452
850.60405151,0.00099458
852.53285889,0.00127042
854.46166626,0.00120408
856.39047363,0.00104665
858.31928101,0.00109283
860.24808838,0.00079132
862.17689575,0.00054917
864.10570313,0.00077651
866.03451050,0.00064221
867.96331787,0.00037375
869.89212524,0.00053967
871.82093262,0.00060340
873.74973999,0.00054073
875.67854736,0.00054707
877.60735474,0.00061615
879.53616211,0.00056255
881.46496948,0.00043560
883.39377686,0.00037462
885.32258423,0.00063179
887.25139160,0.00076741
889.18019897,0.00032760
891.10900635,0.00030595
893.03781372,0.00048171
894.96662109,0.00056312
896.89542847,0.00062411
898.82423584,0.00049570
900.75304321,0.00046157
902.68185059,0.00040459
904.61065796,0.00061238
906.53946533,0.00070191
908.46827271,0.00063363
910.39708008,0.00069706
912.32588745,0.00077551
914.25469482,0.00103744
916.18350220,0.00103130
918.11230957,0.00127394
920.04111694,0.00151525
921.96992432,0.00161059
923.89873169,0.00198147
925.82753906,0.00194789
927.75634644,0.00215760
929.68515381,0.00227058
931.61396118,0.00227226
933.54276855,0.00272287
935.47157593,0.00281339
937.40038330,0.00303624
939.32919067,0.00336154
941.25799805,0.00315308
943.18680542,0.00303810
945.11561279,0.00326626
947.04442017,0.00324124
948.97322754,0.00317344
950.90203491,0.00320672
952.83084229,0.00303058
954.75964966,0.00290631
956.68845703,0.00287701
958.61726440,0.00307585
960.54607178,0.00314492
962.47487915,0.00301565
964.40368652,0.00309931
966.33249390,0.00324403
968.26130127,0.00334772
970.19010864,0.00345536
972.11891602,0.00378633
974.04772339,0.00388556
975.97653076,0.00406275
977.90533813,0.00461557
979.83414551,0.00489179
981.76295288,0.00545453
983.69176025,0.00621128
985.62056763,0.00659538
987.54937500,0.00721174
989.47818237,0.00818870
991.40698975,0.00896672
993.33579712,0.00991958
995.26460449,0.01096463
997.19341187,0.01155940
999.12221924,0.01251483
1001.05102661,0.01361942
1002.97983398,0.01439135
1004.90864136,0.01527039
1006.83744873,0.01618709
1008.76625610,0.01724133
1010.69506348,0.01838302
1012.62387085,0.01932073
1014.55267822,0.02028887
1016.48148560,0.02146883
1018.41029297,0.02251342
1020.33910034,0.02337942
1022.26790771,0.02432565
1024.19671509,0.02527829
1026.12552246,0.02617219
1028.05432983,0.02713649
1029.98313721,0.02799494
1031.91194458,0.02853582
1033.84075195,0.02902226
1035.76955933,0.02950603
1037.69836670,0.02989190
1039.62717407,0.03009351
1041.55598145,0.03001351
1043.48478882,0.02955909
1045.41359619,0.02905726
1047.34240356,0.02883636
1049.27121094,0.02850961
1051.20001831,0.02806603
1053.12882568,0.02737236
1055.05763306,0.02671945
1056.98644043,0.02619088
1058.91524780,0.02538395
1060.84405518,0.02465623
1062.77286255,0.02377432
1064.70166992,0.02307542
1066.63047729,0.02243492
1068.55928467,0.02146655
1070.48809204,0.02048139
1072.41689941,0.01921243
1074.34570679,0.01832338
1076.27451416,0.01757638
1078.20332153,0.01663790
1080.13212891,0.01607606
1082.06093628,0.01533772
1083.98974365,0.01443275
1085.91855103,0.01390167
1087.84735840,0.01337356
1089.77616577,0.01248852
1091.70497314,0.01201831
1093.63378052,0.01174420
1095.56258789,0.01100391
1097.49139526,0.01070175
1099.42020264,0.01050852
1101.34901001,0.00999731
1103.27781738,0.00996677
1105.20662476,0.00978688
1107.13543213,0.00941806
1109.06423950,0.00936618
1110.99304687,0.00925116
1112.92185425,0.00934108
1114.85066162,0.00904656
1116.77946899,0.00884011
1118.70827637,0.00919791
1120.63708374,0.00907923
1122.56589111,0.00910725
1124.49469849,0.00914199
1126.42350586,0.00932688
1128.35231323,0.00955890
1130.28112061,0.00948523
1132.20992798,0.01005648
1134.13873535,0.01044405
1136.06754272,0.01073402
1137.99635010,0.01124551
1139.92515747,0.01178072
1141.85396484,0.01263726
1143.78277222,0.01344150
1145.71157959,0.01432240
1147.64038696,0.01514573
1149.56919434,0.01583534
1151.49800171,0.01664767
1153.42680908,0.01754331
1155.35561646,0.01813099
1157.28442383,0.01885876
1159.21323120,0.01985969
1161.14203857,0.02045162
1163.07084595,0.02114610
1164.99965332,0.02189500
1166.92846069,0.02274949
1168.85726807,0.02368641
1170.78607544,0.02449493
1172.71488281,0.02540997
1174.64369019,0.02641813
1176.57249756,0.02747215
1178.50130493,0.02831843
1180.43011230,0.02938438
1182.35891968,0.03058215
1184.28772705,0.03200272
1186.21653442,0.03335655
1188.14534180,0.03465146
1190.07414917,0.03639026
1192.00295654,0.03785846
1193.93176392,0.03970084
1195.86057129,0.04129547
1197.78937866,0.04305961
1199.71818604,0.04546743
1201.64699341,0.04699653
1203.57580078,0.04885515
1205.50460815,0.05080059
1207.43341553,0.05240503
1209.36222290,0.05424052
1211.29103027,0.05587011
1213.21983765,0.05740455
1215.14864502,0.05884260
1217.07745239,0.06001979
1219.00625977,0.06093051
1220.93506714,0.06191314
1222.86387451,0.06253282
1224.79268188,0.06309499
1226.72148926,0.06369747
1228.65029663,0.06374201
1230.57910400,0.06397101
1232.50791138,0.06435610
1234.43671875,0.06440607
1236.36552612,0.06425180
1238.29433350,0.06421083
1240.22314087,0.06376587
1242.15194824,0.06342624
1244.08075562,0.06355621
1246.00956299,0.06304744
1247.93837036,0.06261142
1249.86717773,0.06228732
1251.79598511,0.06170374
1253.72479248,0.06119764
1255.65359985,0.06043848
1257.58240723,0.05939022
1259.51121460,0.05839536
1261.44002197,0.05760999
1263.36882935,0.05684890
1265.29763672,0.05609179
1267.22644409,0.05534933
1269.15525146,0.05464464
1271.08405884,0.05370446
1273.01286621,0.05287271
1274.94167358,0.05192770
1276.87048096,0.05076568
1278.79928833,0.05004641
1280.72809570,0.04885730
1282.65690308,0.04784318
1284.58571045,0.04697534
1286.51451782,0.04584000
1288.44332520,0.04536612
1290.37213257,0.04480367
1292.30093994,0.04425582
1294.22974731,0.04384805
1296.15855469,0.04346855
1298.08736206,0.04343843
1300.01616943,0.04362965
1301.94497681,0.04389296
1303.87378418,0.04422076
1305.80259155,0.04454774
1307.73139893,0.04500472
1309.66020630,0.04598374
1311.58901367,0.04642820
1313.51782104,0.04715747
1315.44662842,0.04861682
1317.37543579,0.04941670
1319.30424316,0.05074687
1321.23305054,0.05251437
1323.16185791,0.05392622
1325.09066528,0.05542376
1327.01947266,0.05701308
1328.94828003,0.05836055
1330.87708740,0.05960795
1332.80589478,0.06112354
1334.73470215,0.06238203
1336.66350952,0.06290422
1338.59231689,0.06229991
1340.52112427,0.06304522
1342.44993164,0.06548547
1344.37873901,0.06588659
1346.30754639,0.06578063
1348.23635376,0.06567702
1350.16516113,0.06502796
1352.09396851,0.06511594
1354.02277588,0.06408995
1355.95158325,0.06348437
1357.88039062,0.06358455
1359.80919800,0.06219233
1361.73800537,0.05945621
1363.66681274,0.05874887
1365.59562012,0.06134725
1367.52442749,0.06009288
1369.45323486,0.05932639
1371.38204224,0.06013674
1373.31084961,0.05692774
1375.23965698,0.05751672
1377.16846436,0.05880748
1379.09727173,0.05840071
1381.02607910,0.05867749
1382.95488647,0.05828404
1384.88369385,0.05848122
1386.81250122,0.05580143
1388.74130859,0.05627648
1390.67011597,0.06093239
1392.59892334,0.05933807
1394.52773071,0.05592280
1396.45653809,0.05841425
1398.38534546,0.05832162
1400.31415283,0.05811051
1402.24296021,0.06224366
1404.17176758,0.05895997
1406.10057495,0.05921088
1408.02938232,0.06137899
1409.95818970,0.05919332
1411.88699707,0.06035072
1413.81580444,0.05811010
1415.74461182,0.05889919
1417.67341919,0.05347149
1419.60222656,0.04807142
1421.53103394,0.05498433
1423.45984131,0.05316516
1425.38864868,0.05153266
1427.31745605,0.05219131
1429.24626343,0.04826139
1431.17507080,0.04699902
1433.10387817,0.04761438
1435.03268555,0.04332108
1436.96149292,0.03699137
1438.89030029,0.04183308
1440.81910767,0.04258827
1442.74791504,0.03953905
1444.67672241,0.04128864
1446.60552979,0.03798641
1448.53433716,0.03852496
1450.46314453,0.03965248
1452.39195190,0.04045332
1454.32075928,0.04180716
1456.24956665,0.03485202
1458.17837402,0.03654765
1460.10718140,0.04809921
1462.03598877,0.05095002
1463.96479614,0.05075210
1465.89360352,0.05298845
1467.82241089,0.05984161
1469.75121826,0.06437968
1471.68002563,0.05766836
1473.60883301,0.06051769
1475.53764038,0.06885477
1477.46644775,0.07393253
1479.39525513,0.08086471
1481.32406250,0.08181810
1483.25286987,0.08695385
1485.18167725,0.08966218
1487.11048462,0.08821911
1489.03929199,0.08786055
1490.96809937,0.08838652
1492.89690674,0.10211781
1494.82571411,0.09957277
1496.75452148,0.09026138
1498.68332886,0.10158917
1500.61213623,0.10419194
1502.54094360,0.11144671
1504.46975098,0.10523053
1506.39855835,0.07766795
1508.32736572,0.09422272
1510.25617310,0.10947257
1512.18498047,0.10596192
1514.11378784,0.11414550
1516.04259521,0.10314207
1517.97140259,0.10737344
1519.90020996,0.10338311
1521.82901733,0.09069191
1523.75782471,0.10953677
1525.68663208,0.10697445
1527.61543945,0.10679179
1529.54424683,0.11689885
1531.47305420,0.11252228
1533.40186157,0.10327023
1535.33066895,0.10888521
1537.25947632,0.11576401
1539.18828369,0.08366619
1541.11709106,0.08771615
1543.04589844,0.10354081
1544.97470581,0.09939881
1546.90351318,0.11633980
1548.83232056,0.10829547
1550.76112793,0.11159267
1552.68993530,0.10997559
1554.61874268,0.10030010
1556.54755005,0.10653350
1558.47635742,0.07575430
1560.40516479,0.08171129
1562.33397217,0.11371247
1564.26277954,0.10718340
1566.19158691,0.10957350
1568.12039429,0.10764163
1570.04920166,0.09564640
1571.97800903,0.10950834
1573.90681641,0.10950705
1575.83562378,0.08737521
1577.76443115,0.09780665
1579.69323853,0.10863258
1581.62204590,0.10382221
1583.55085327,0.10565015
1585.47966064,0.10331729
1587.40846802,0.10332637
1589.33727539,0.10161789
1591.26608276,0.10093749
1593.19489014,0.10011075
1595.12369751,0.09821787
1597.05250488,0.09869407
1598.98131226,0.09712173
1600.91011963,0.09670533
1602.83892700,0.09426956
1604.76773437,0.09499539
1606.69654175,0.09249298
1608.62534912,0.09171166
1610.55415649,0.09090752
1612.48296387,0.09059544
1614.41177124,0.09093937
1616.34057861,0.07432732
1618.26938599,0.08018547
1620.19819336,0.09196454
1622.12700073,0.08179913
1624.05580811,0.08215684
1625.98461548,0.08556320
1627.91342285,0.08517954
1629.84223022,0.08495114
1631.77103760,0.09076968
1633.69984497,0.08391607
1635.62865234,0.07052936
1637.55745972,0.08200984
1639.48626709,0.09061122
1641.41507446,0.08955418
1643.34388184,0.09257208
1645.27268921,0.08463345
1647.20149658,0.07548565
1649.13030396,0.09469870
1651.05911133,0.09018679
1652.98791870,0.05990519
1654.91672607,0.08217771
1656.84553345,0.10280175
1658.77434082,0.09967599
1660.70314819,0.10361733
1662.63195557,0.09593797
1664.56076294,0.10221751
1666.48957031,0.11076001
1668.41837769,0.09832120
1670.34718506,0.09717564
1672.27599243,0.11087985
1674.20479980,0.10348485
1676.13360718,0.10114284
1678.06241455,0.11666115
1679.99122192,0.11392144
1681.92002930,0.11376590
1683.84883667,0.09404451
1685.77764404,0.09480299
1687.70645142,0.12911662
1689.63525879,0.11393028
1691.56406616,0.12604931
1693.49287354,0.12910283
1695.42168091,0.09639162
1697.35048828,0.11912280
1699.27929565,0.10598394
1701.20810303,0.09682427
1703.13691040,0.13135207
1705.06571777,0.12125763
1706.99452515,0.12310176
1708.92333252,0.13410160
1710.85213989,0.12971121
1712.78094727,0.13259965
1714.70975464,0.12397379
1716.63856201,0.11204580
1718.56736938,0.11096694
1720.49617676,0.13169354
1722.42498413,0.13627362
1724.35379150,0.12770523
1726.28259888,0.13867471
1728.21140625,0.12854064
1730.14021362,0.13049695
1732.06902100,0.12676145
1733.99782837,0.09839501
1735.92663574,0.12179483
1737.85544312,0.13388216
1739.78425049,0.11990296
1741.71305786,0.13041119
1743.64186523,0.13236985
1745.57067261,0.13269556
1747.49947998,0.13417175
1749.42828735,0.12849218
1751.35709473,0.12340716
1753.28590210,0.13639888
1755.21470947,0.14227924
1757.14351685,0.13069969
1759.07232422,0.14318304
1761.00113159,0.13458350
1762.92993896,0.13050452
1764.85874634,0.14848641
1766.78755371,0.13394570
1768.71636108,0.13559578
1770.64516846,0.13453293
1772.57397583,0.12156887
1774.50278320,0.13519529
1776.43159058,0.14207739
1778.36039795,0.14024945
1780.28920532,0.13855174
1782.21801270,0.13981920
1784.14682007,0.13950646
1786.07562744,0.13687554
1788.00443481,0.14373371
1789.93324219,0.13982753
1791.86204956,0.12730695
1793.79085693,0.13258675
1795.71966431,0.14174727
1797.64847168,0.13978025
1799.57727905,0.13760814
1801.50608643,0.13549435
1803.43489380,0.13958916
1805.36370117,0.14247194
1807.29250854,0.14049909
1809.22131592,0.14086019
1811.15012329,0.13729484
1813.07893066,0.14138734
1815.00773804,0.14186677
1816.93654541,0.14026111
1818.86535278,0.14122722
1820.79416016,0.14067909
1822.72296753,0.14263183
1824.65177490,0.13341552
1826.58058228,0.13821384
1828.50938965,0.13804193
1830.43819702,0.12984359
1832.36700439,0.14089295
1834.29581177,0.13961041
1836.22461914,0.13959217
1838.15342651,0.13884369
1840.08223389,0.13973904
1842.01104126,0.13957599
1843.93984863,0.12423007
1845.86865601,0.13241735
1847.79746338,0.13909879
1849.72627075,0.13623425
1851.65507812,0.13983876
1853.58388550,0.13715623
1855.51269287,0.13847595
1857.44150024,0.13732547
1859.37030762,0.13665085
1861.29911499,0.13718408
1863.22792236,0.13565083
1865.15672974,0.13704015
1867.08553711,0.13225803
1869.01434448,0.12718862
1870.94315186,0.13196993
1872.87195923,0.13650495
1874.80076660,0.13427587
1876.72957397,0.13481840
1878.65838135,0.13443123
1880.58718872,0.13360852
1882.51599609,0.13442284
1884.44480347,0.13228659
1886.37361084,0.13394274
1888.30241821,0.13106132
1890.23122559,0.12868351
1892.16003296,0.13284487
1894.08884033,0.13092388
1896.01764771,0.13042012
1897.94645508,0.13171852
1899.87526245,0.13091701
1901.80406982,0.13104925
1903.73287720,0.13023171
1905.66168457,0.13048339
1907.59049194,0.12919466
1909.51929932,0.12841602
1911.44810669,0.12890476
1913.37691406,0.12899490
1915.30572144,0.12977055
1917.23452881,0.12416257
1919.16333618,0.12449120
1921.09214355,0.12879288
1923.02095093,0.12480035
1924.94975830,0.12720168
1926.87856567,0.12812288
1928.80737305,0.12653348
1930.73618042,0.12787223
1932.66498779,0.12603170
1934.59379517,0.12707514
1936.52260254,0.12610732
1938.45140991,0.12648687
1940.38021729,0.12606588
1942.30902466,0.12213300
1944.23783203,0.12445937
1946.16663940,0.12536624
1948.09544678,0.12482326
1950.02425415,0.12506621
1951.95306152,0.12463322
1953.88186890,0.12463416
1955.81067627,0.12397613
1957.73948364,0.12425292
1959.66829102,0.12397625
1961.59709839,0.12359487
1963.52590576,0.12366468
1965.45471313,0.12288125
1967.38352051,0.12156583
1969.31232788,0.12234823
1971.24113525,0.12294317
1973.16994263,0.12202865
1975.09875000,0.12234896
1977.02755737,0.12165606
1978.95636475,0.12173996
1980.88517212,0.12133379
1982.81397949,0.12076147
1984.74278687,0.12113422
1986.67159424,0.12002462
1988.60040161,0.12021883
1990.52920898,0.11892853
1992.45801636,0.11772168
1994.38682373,0.11916831
1996.31563110,0.11909741
1998.24443848,0.11839169
2000.17324585,0.11839664
2002.10205322,0.11801063
2004.03086060,0.11748910
2005.95966797,0.11736658
2007.88847534,0.11681493
2009.81728271,0.11663346
2011.74609009,0.11624096
2013.67489746,0.11579514
2015.60370483,0.11525457
2017.53251221,0.11421488
2019.46131958,0.11463540
2021.39012695,0.11444283
2023.31893433,0.11402318
2025.24774170,0.11383942
2027.17654907,0.11336301
2029.10535645,0.11323235
2031.03416382,0.11269674
2032.96297119,0.11267486
2034.89177856,0.11215428
2036.82058594,0.11180440
2038.74939331,0.11155050
2040.67820068,0.11060742
2042.60700806,0.11047347
2044.53581543,0.11037939
2046.46462280,0.11010961
2048.39343018,0.10973667
2050.32223755,0.10948893
2052.25104492,0.10923617
2054.17985229,0.10873138
2056.10865967,0.10847436
2058.03746704,0.10836113
2059.96627441,0.10798288
2061.89508179,0.10762037
2063.82388916,0.10717028
2065.75269653,0.10657600
2067.68150391,0.10690029
2069.61031128,0.10669551
2071.53911865,0.10627850
2073.46792603,0.10617961
2075.39673340,0.10567820
2077.32554077,0.10556050
2079.25434814,0.10516974
2081.18315552,0.10505773
2083.11196289,0.10479052
2085.04077026,0.10447220
2086.96957764,0.10442886
2088.89838501,0.10382591
2090.82719238,0.10361947
2092.75599976,0.10361128
2094.68480713,0.10344113
2096.61361450,0.10315792
2098.54242187,0.10302657
2100.47122925,0.10259748
2102.40003662,0.10243449
2104.32884399,0.10249257
2106.25765137,0.10195470
2108.18645874,0.10190217
2110.11526611,0.10170114
2112.04407349,0.10164368
2113.97288086,0.10137787
2115.90168823,0.10103300
2117.83049561,0.10110876
2119.75930298,0.10081880
2121.68811035,0.10077651
2123.61691772,0.10045424
2125.54572510,0.10039413
2127.47453247,0.10026805
2129.40333984,0.10006435
2131.33214722,0.09997225
2133.26095459,0.09959327
2135.18976196,0.09969682
2137.11856934,0.09937169
2139.04737671,0.09929203
2140.97618408,0.09928675
2142.90499146,0.09914342
2144.83379883,0.09901879
2146.76260620,0.09873331
2148.69141357,0.09892407
2150.62022095,0.09868140
2152.54902832,0.09866659
2154.47783569,0.09858441
2156.40664307,0.09832558
2158.33545044,0.09835002
2160.26425781,0.09814000
2162.19306519,0.09792949
2164.12187256,0.09778105
2166.05067993,0.09788702
2167.97948730,0.09765007
2169.90829468,0.09766013
2171.83710205,0.09756407
2173.76590942,0.09735706
2175.69471680,0.09751934
2177.62352417,0.09719673
2179.55233154,0.09721458
2181.48113892,0.09716019
2183.40994629,0.09698278
2185.33875366,0.09691994
2187.26756104,0.09690352
2189.19636841,0.09679441
2191.12517578,0.09657510
2193.05398315,0.09662758
2194.98279053,0.09640820
2196.91159790,0.09654057
2198.84040527,0.09633815
2200.76921265,0.09613004
2202.69802002,0.09617788
2204.62682739,0.09588618
2206.55563477,0.09599103
2208.48444214,0.09576319
2210.41324951,0.09570543
2212.34205688,0.09570613
2214.27086426,0.09564529
2216.19967163,0.09554122
2218.12847900,0.09524020
2220.05728638,0.09532275
2221.98609375,0.09513293
2223.91490112,0.09508938
2225.84370850,0.09500627
2227.77251587,0.09480959
2229.70132324,0.09463914
2231.63013062,0.09465440
2233.55893799,0.09464921
2235.48774536,0.09418616
2237.41655273,0.09428789
2239.34536011,0.09410434
2241.27416748,0.09394327
2243.20297485,0.09394113
2245.13178223,0.09371456
2247.06058960,0.09379112
2248.98939697,0.09343776
2250.91820435,0.09332666
2252.84701172,0.09328192
2254.77581909,0.09304912
2256.70462646,0.09299883
2258.63343384,0.09288382
2260.56224121,0.09273069
2262.49104858,0.09254759
2264.41985596,0.09261606
2266.34866333,0.09258417
2268.27747070,0.09237250
2270.20627808,0.09216687
2272.13508545,0.09207837
2274.06389282,0.09198771
2275.99270020,0.09191877
2277.92150757,0.09188815
2279.85031494,0.09174738
2281.77912231,0.09182601
2283.70792969,0.09168763
2285.63673706,0.09144959
2287.56554443,0.09127416
2289.49435181,0.09105603
2291.42315918,0.09085147
2293.35196655,0.09054629
2295.28077393,0.09038468
2297.20958130,0.09016540
2299.13838867,0.08976750
2301.06719604,0.08939169
2302.99600342,0.08911385
2304.92481079,0.08856317
2306.85361816,0.08804047
2308.78242554,0.08737978
2310.71123291,0.08646952
2312.64004028,0.08575059
2314.56884766,0.08473413
2316.49765503,0.08389857
2318.42646240,0.08271292
2320.35526978,0.08139618
2322.28407715,0.08039096
2324.21288452,0.07923509
2326.14169189,0.07850850
2328.07049927,0.07751706
2329.99930664,0.07654125
2331.92811401,0.07590643
2333.85692139,0.07551067
2335.78572876,0.07516784
2337.71453613,0.07500488
2339.64334351,0.07505134
2341.57215088,0.07518131
2343.50095825,0.07648304
2345.42976562,0.07786196
2347.35857300,0.08118525
2349.28738037,0.08404577
2351.21618774,0.08091021
2353.14499512,0.07657024
2355.07380249,0.07370125
2357.00260986,0.07135309
2358.93141724,0.06992028
2360.86022461,0.06922211
2362.78903198,0.06913824
2364.71783936,0.06940432
2366.64664673,0.07054493
2368.57545410,0.07190959
2370.50426147,0.07380003
2372.43306885,0.07614166
2374.36187622,0.07811502
2376.29068359,0.08017015
2378.21949097,0.08202541
2380.14829834,0.08355559
2382.07710571,0.08458032
2384.00591309,0.08502755
2385.93472046,0.08524308
2387.86352783,0.08536039
2389.79233521,0.08520448
2391.72114258,0.08521718
2393.64994995,0.08525872
2395.57875732,0.08494367
2397.50756470,0.08479150
2399.43637207,0.08458307
2401.36517944,0.08456565
2403.29398682,0.08446215
2405.22279419,0.08428285
2407.15160156,0.08423208
2409.08040894,0.08400001
2411.00921631,0.08396870
2412.93802368,0.08391052
2414.86683105,0.08382909
2416.79563843,0.08343783
2418.72444580,0.08326602
2420.65325317,0.08333445
2422.58206055,0.08310869
2424.51086792,0.08308721
2426.43967529,0.08285315
2428.36848267,0.08281584
2430.29729004,0.08271593
2432.22609741,0.08243150
2434.15490479,0.08240473
2436.08371216,0.08224283
2438.01251953,0.08213760
2439.94132690,0.08202481
2441.87013428,0.08191768
2443.79894165,0.08175961
2445.72774902,0.08166066
2447.65655640,0.08140342
2449.58536377,0.08127844
2451.51417114,0.08134079
2453.44297852,0.08102241
2455.37178589,0.08094411
2457.30059326,0.08080999
2459.22940063,0.08078608
2461.15820801,0.08074272
2463.08701538,0.08040875
2465.01582275,0.08024908
2466.94463013,0.08011490
2468.87343750,0.08017112
2470.80224487,0.07994312
2472.73105225,0.07978061
2474.65985962,0.07970949
2476.58866699,0.07947005
2478.51747437,0.07942493
2480.44628174,0.07932933
2482.37508911,0.07931337
2484.30389648,0.07908186
2486.23270386,0.07899512
2488.16151123,0.07895959
2490.09031860,0.07864301
2492.01912598,0.07846211
2493.94793335,0.07829411
2495.87674072,0.07830416
2497.80554810,0.07811450
2499.73435547,0.07788493
2501.66316284,0.07787155
2503.59197021,0.07772496
2505.52077759,0.07766166
2507.44958496,0.07761700
2509.37839233,0.07752845
2511.30719971,0.07740569
2513.23600708,0.07714795
2515.16481445,0.07695144
2517.09362183,0.07689074
2519.02242920,0.07667723
2520.95123657,0.07657504
2522.88004395,0.07655236
2524.80885132,0.07638738
2526.73765869,0.07626399
2528.66646606,0.07608843
2530.59527344,0.07605582
2532.52408081,0.07586132
2534.45288818,0.07568680
2536.38169556,0.07568169
2538.31050293,0.07540099
2540.23931030,0.07534600
2542.16811768,0.07528738
2544.09692505,0.07505985
2546.02573242,0.07495404
2547.95453979,0.07483131
2549.88334717,0.07472987
2551.81215454,0.07460446
2553.74096191,0.07444561
2555.66976929,0.07429802
2557.59857666,0.07414380
2559.52738403,0.07395886
2561.45619141,0.07388781
2563.38499878,0.07381213
2565.31380615,0.07358474
2567.24261353,0.07345578
2569.17142090,0.07335842
2571.10022827,0.07324042
2573.02903564,0.07317260
2574.95784302,0.07298106
2576.88665039,0.07286315
2578.81545776,0.07281068
2580.74426514,0.07256654
2582.67307251,0.07241386
2584.60187988,0.07226324
2586.53068726,0.07214549
2588.45949463,0.07197235
2590.38830200,0.07183941
2592.31710937,0.07184693
2594.24591675,0.07147263
2596.17472412,0.07151204
2598.10353149,0.07145488
2600.03233887,0.07106432
2601.96114624,0.07118547
2603.88995361,0.07099546
2605.81876099,0.07080334
2607.74756836,0.07066413
2609.67637573,0.07057116
2611.60518311,0.07053424
2613.53399048,0.07019363
2615.46279785,0.07011504
2617.39160522,0.07001685
2619.32041260,0.06986798
2621.24921997,0.06965823
2623.17802734,0.06948528
2625.10683472,0.06941561
2627.03564209,0.06927288
2628.96444946,0.06915939
2630.89325684,0.06891286
2632.82206421,0.06889763
2634.75087158,0.06869942
2636.67967895,0.06849210
2638.60848633,0.06855363
2640.53729370,0.06833863
2642.46610107,0.06813444
2644.39490845,0.06787507
2646.32371582,0.06773293
2648.25252319,0.06765578
2650.18133057,0.06747708
2652.11013794,0.06729289
2654.03894531,0.06707107
2655.96775269,0.06704123
2657.89656006,0.06704830
2659.82536743,0.06690530
2661.75417480,0.06661532
2663.68298218,0.06651756
2665.61178955,0.06645701
2667.54059692,0.06620011
2669.46940430,0.06607707
2671.39821167,0.06598365
2673.32701904,0.06570765
2675.25582642,0.06548016
2677.18463379,0.06552741
2679.11344116,0.06532378
2681.04224854,0.06506804
2682.97105591,0.06504994
2684.89986328,0.06484908
2686.82867065,0.06465563
2688.75747803,0.06454301
2690.68628540,0.06442241
2692.61509277,0.06423555
2694.54390015,0.06407629
2696.47270752,0.06399335
2698.40151489,0.06387074
2700.33032227,0.06367381
2702.25912964,0.06348595
2704.18793701,0.06336276
2706.11674438,0.06321549
2708.04555176,0.06308508
2709.97435913,0.06281515
2711.90316650,0.06269353
2713.83197388,0.06259166
2715.76078125,0.06231961
2717.68958862,0.06220729
2719.61839600,0.06200838
2721.54720337,0.06185817
2723.47601074,0.06170494
2725.40481812,0.06158008
2727.33362549,0.06144747
2729.26243286,0.06116359
2731.19124023,0.06106265
2733.12004761,0.06103326
2735.04885498,0.06081549
2736.97766235,0.06050353
2738.90646973,0.06057461
2740.83527710,0.06038515
2742.76408447,0.06003195
2744.69289185,0.06004321
2746.62169922,0.05980130
2748.55050659,0.05964309
2750.47931396,0.05946764
2752.40812134,0.05931514
2754.33692871,0.05914733
2756.26573608,0.05890615
2758.19454346,0.05882843
2760.12335083,0.05855432
2762.05215820,0.05847321
2763.98096558,0.05833936
2765.90977295,0.05814728
2767.83858032,0.05793840
2769.76738770,0.05765159
2771.69619507,0.05757958
2773.62500244,0.05734705
2775.55380981,0.05727940
2777.48261719,0.05714968
2779.41142456,0.05685852
2781.34023193,0.05668826
2783.26903931,0.05657046
2785.19784668,0.05638486
2787.12665405,0.05602560
2789.05546143,0.05602812
2790.98426880,0.05582162
2792.91307617,0.05545064
2794.84188354,0.05544036
2796.77069092,0.05524498
2798.69949829,0.05499713
2800.62830566,0.05483834
2802.55711304,0.05465563
2804.48592041,0.05447220
2806.41472778,0.05434240
2808.34353516,0.05406068
2810.27234253,0.05380627
2812.20114990,0.05375506
2814.12995728,0.05352337
2816.05876465,0.05329056
2817.98757202,0.05317520
2819.91637939,0.05295298
2821.84518677,0.05265477
2823.77399414,0.05249378
2825.70280151,0.05222476
2827.63160889,0.05199966
2829.56041626,0.05192778
2831.48922363,0.05163448
2833.41803101,0.05155157
2835.34683838,0.05135631
2837.27564575,0.05094988
2839.20445312,0.05078792
2841.13326050,0.05056557
2843.06206787,0.05032319
2844.99087524,0.04994666
2846.91968262,0.04943358
2848.84848999,0.04914807
2850.77729736,0.04900496
2852.70610474,0.04879729
2854.63491211,0.04863780
2856.56371948,0.04849137
2858.49252686,0.04832363
2860.42133423,0.04820224
2862.35014160,0.04795764
2864.27894897,0.04780426
2866.20775635,0.04773468
2868.13656372,0.04755535
2870.06537109,0.04732844
2871.99417847,0.04705758
2873.92298584,0.04684734
2875.85179321,0.04666471
2877.78060059,0.04649442
2879.70940796,0.04638997
2881.63821533,0.04618731
2883.56702270,0.04594282
2885.49583008,0.04584567
2887.42463745,0.04552321
2889.35344482,0.04524643
2891.28225220,0.04513359
2893.21105957,0.04482384
2895.13986694,0.04474378
2897.06867432,0.04443581
2898.99748169,0.04412584
2900.92628906,0.04406969
2902.85509644,0.04370530
2904.78390381,0.04352460
2906.71271118,0.04324633
2908.64151855,0.04292203
2910.57032593,0.04268970
2912.49913330,0.04220331
2914.42794067,0.04189122
2916.35674805,0.04163205
2918.28555542,0.04133629
2920.21436279,0.04121572
2922.14317017,0.04103000
2924.07197754,0.04068378
2926.00078491,0.04053655
2927.92959229,0.04043565
2929.85839966,0.04030498
2931.78720703,0.04018937
2933.71601440,0.03988627
2935.64482178,0.03980178
2937.57362915,0.03969308
2939.50243652,0.03949191
2941.43124390,0.03940796
2943.36005127,0.03924923
2945.28885864,0.03904450
2947.21766602,0.03878453
2949.14647339,0.03871197
2951.07528076,0.03847849
2953.00408813,0.03814377
2954.93289551,0.03791831
2956.86170288,0.03761262
2958.79051025,0.03743298
2960.71931763,0.03709401
2962.64812500,0.03688972
2964.57693237,0.03676112
2966.50573975,0.03640866
2968.43454712,0.03633697
2970.36335449,0.03626283
2972.29216187,0.03604700
2974.22096924,0.03598932
2976.14977661,0.03590833
2978.07858398,0.03568256
2980.00739136,0.03548752
2981.93619873,0.03535425
2983.86500610,0.03525810
2985.79381348,0.03503801
2987.72262085,0.03473660
2989.65142822,0.03456147
2991.58023560,0.03434043
2993.50904297,0.03416507
2995.43785034,0.03397481
2997.36665771,0.03377870
2999.29546509,0.03353489
3001.22427246,0.03316764
3003.15307983,0.03306078
3005.08188721,0.03287964
3007.01069458,0.03255930
3008.93950195,0.03239396
3010.86830933,0.03226116
3012.79711670,0.03200496
3014.72592407,0.03159705
3016.65473145,0.03140604
3018.58353882,0.03130661
3020.51234619,0.03103671
3022.44115356,0.03081083
3024.36996094,0.03060140
3026.29876831,0.03037425
3028.22757568,0.03026417
3030.15638306,0.02996296
3032.08519043,0.02957895
3034.01399780,0.02949494
3035.94280518,0.02932489
3037.87161255,0.02912354
3039.80041992,0.02890428
3041.72922729,0.02861897
3043.65803467,0.02844998
3045.58684204,0.02816768
3047.51564941,0.02791151
3049.44445679,0.02771857
3051.37326416,0.02757902
3053.30207153,0.02740873
3055.23087891,0.02718740
3057.15968628,0.02706621
3059.08849365,0.02683618
3061.01730103,0.02667053
3062.94610840,0.02645820
3064.87491577,0.02615880
3066.80372314,0.02602113
3068.73253052,0.02578410
3070.66133789,0.02556048
3072.59014526,0.02550032
3074.51895264,0.02533363
3076.44776001,0.02505876
3078.37656738,0.02483257
3080.30537476,0.02462523
3082.23418213,0.02451360
3084.16298950,0.02432932
3086.09179687,0.02402818
3088.02060425,0.02391629
3089.94941162,0.02378080
3091.87821899,0.02354419
3093.80702637,0.02332252
3095.73583374,0.02311479
3097.66464111,0.02301038
3099.59344849,0.02289668
3101.52225586,0.02262196
3103.45106323,0.02244015
3105.37987061,0.02240208
3107.30867798,0.02217142
3109.23748535,0.02199771
3111.16629272,0.02187386
3113.09510010,0.02161879
3115.02390747,0.02143234
3116.95271484,0.02124928
3118.88152222,0.02109909
3120.81032959,0.02098154
3122.73913696,0.02090263
3124.66794434,0.02078860
3126.59675171,0.02055392
3128.52555908,0.02035359
3130.45436645,0.02021943
3132.38317383,0.02007631
3134.31198120,0.01993724
3136.24078857,0.01980677
3138.16959595,0.01956014
3140.09840332,0.01951087
3142.02721069,0.01943698
3143.95601807,0.01908887
3145.88482544,0.01903544
3147.81363281,0.01900417
3149.74244019,0.01884627
3151.67124756,0.01866988
3153.60005493,0.01845503
3155.52886230,0.01845724
3157.45766968,0.01840531
3159.38647705,0.01824554
3161.31528442,0.01812709
3163.24409180,0.01799001
3165.17289917,0.01800010
3167.10170654,0.01793933
3169.03051392,0.01768610
3170.95932129,0.01763981
3172.88812866,0.01753254
3174.81693604,0.01737004
3176.74574341,0.01740270
3178.67455078,0.01730615
3180.60335815,0.01726041
3182.53216553,0.01714447
3184.46097290,0.01696037
3186.38978027,0.01698567
3188.31858765,0.01694878
3190.24739502,0.01684626
3192.17620239,0.01675623
3194.10500977,0.01671568
3196.03381714,0.01666404
3197.96262451,0.01657210
3199.89143188,0.01648293
3201.82023926,0.01648121
3203.74904663,0.01644632
3205.67785400,0.01638296
3207.60666138,0.01644383
3209.53546875,0.01629620
3211.46427612,0.01634018
3213.39308350,0.01641868
3215.32189087,0.01624558
3217.25069824,0.01629173
3219.17950562,0.01624615
3221.10831299,0.01620690
3223.03712036,0.01622576
3224.96592773,0.01624230
3226.89473511,0.01621486
3228.82354248,0.01604285
3230.75234985,0.01608245
3232.68115723,0.01616869
3234.60996460,0.01614501
3236.53877197,0.01614080
3238.46757935,0.01610132
3240.39638672,0.01599027
3242.32519409,0.01612378
3244.25400146,0.01616583
3246.18280884,0.01604938
3248.11161621,0.01616177
3250.04042358,0.01603046
3251.96923096,0.01610097
3253.89803833,0.01627836
3255.82684570,0.01617603
3257.75565308,0.01615571
3259.68446045,0.01618548
3261.61326782,0.01630874
3263.54207520,0.01625387
3265.47088257,0.01629295
3267.39968994,0.01631098
3269.32849731,0.01621298
3271.25730469,0.01633792
3273.18611206,0.01631847
3275.11491943,0.01631168
3277.04372681,0.01634234
3278.97253418,0.01642649
3280.90134155,0.01647406
3282.83014893,0.01647852
3284.75895630,0.01653235
3286.68776367,0.01641549
3288.61657104,0.01646371
3290.54537842,0.01649151
3292.47418579,0.01648022
3294.40299316,0.01654419
3296.33180054,0.01648821
3298.26060791,0.01656295
3300.18941528,0.01659233
3302.11822266,0.01649123
3304.04703003,0.01655017
3305.97583740,0.01663095
3307.90464478,0.01656588
3309.83345215,0.01659398
3311.76225952,0.01670521
3313.69106689,0.01671647
3315.61987427,0.01669172
3317.54868164,0.01669749
3319.47748901,0.01666764
3321.40629639,0.01667652
3323.33510376,0.01677697
3325.26391113,0.01677045
3327.19271851,0.01678267
3329.12152588,0.01681422
3331.05033325,0.01681646
3332.97914062,0.01680196
3334.90794800,0.01683328
3336.83675537,0.01690687
3338.76556274,0.01680553
3340.69437012,0.01682077
3342.62317749,0.01687359
3344.55198486,0.01689963
3346.48079224,0.01695891
3348.40959961,0.01695343
3350.33840698,0.01693488
3352.26721436,0.01696309
3354.19602173,0.01711630
3356.12482910,0.01708469
3358.05363647,0.01710995
3359.98244385,0.01714693
3361.91125122,0.01716591
3363.84005859,0.01725208
3365.76886597,0.01724868
3367.69767334,0.01731388
3369.62648071,0.01716424
3371.55528809,0.01735976
3373.48409546,0.01752553
3375.41290283,0.01743489
3377.34171020,0.01762103
3379.27051758,0.01767034
3381.19932495,0.01780229
3383.12813232,0.01777181
3385.05693970,0.01782178
3386.98574707,0.01792414
3388.91455444,0.01788892
3390.84336182,0.01788556
3392.77216919,0.01788906
3394.70097656,0.01813790
3396.62978394,0.01808250
3398.55859131,0.01816345
3400.48739868,0.01822285
3402.41620605,0.01829276
3404.34501343,0.01853254
3406.27382080,0.01847007
3408.20262817,0.01867335
3410.13143555,0.01866970
3412.06024292,0.01872685
3413.98905029,0.01886526
3415.91785767,0.01894350
3417.84666504,0.01901771
3419.77547241,0.01903570
3421.70427979,0.01924399
3423.63308716,0.01910829
3425.56189453,0.01938952
3427.49070190,0.01944346
3429.41950928,0.01932010
3431.34831665,0.01961138
3433.27712402,0.01959454
3435.20593140,0.01977870
3437.13473877,0.01984617
3439.06354614,0.02002355
3440.99235352,0.02000882
3442.92116089,0.02007349
3444.84996826,0.02035497
3446.77877563,0.02008761
3448.70758301,0.02035442
3450.63639038,0.02061545
3452.56519775,0.02058342
3454.49400513,0.02077609
3456.42281250,0.02087503
3458.35161987,0.02086425
3460.28042725,0.02101334
3462.20923462,0.02110587
3464.13804199,0.02116874
3466.06684937,0.02141570
3467.99565674,0.02130303
3469.92446411,0.02148357
3471.85327148,0.02163300
3473.78207886,0.02170596
3475.71088623,0.02190619
3477.63969360,0.02197704
3479.56850098,0.02218266
3481.49730835,0.02190837
3483.42611572,0.02220271
3485.35492310,0.02246483
3487.28373047,0.02233675
3489.21253784,0.02259321
3491.14134521,0.02267967
3493.07015259,0.02291427
3494.99895996,0.02288046
3496.92776733,0.02298589
3498.85657471,0.02319469
3500.78538208,0.02324103
3502.71418945,0.02303542
3504.64299683,0.02310481
3506.57180420,0.02371020
3508.50061157,0.02354433
3510.42941895,0.02375382
3512.35822632,0.02397985
3514.28703369,0.02405240
3516.21584106,0.02430647
3518.14464844,0.02418714
3520.07345581,0.02444328
3522.00226318,0.02439937
3523.93107056,0.02433933
3525.85987793,0.02441902
3527.78868530,0.02453137
3529.71749268,0.02475416
3531.64630005,0.02503137
3533.57510742,0.02538816
3535.50391479,0.02521824
3537.43272217,0.02531058
3539.36152954,0.02568658
3541.29033691,0.02590721
3543.21914429,0.02578638
3545.14795166,0.02537369
3547.07675903,0.02534216
3549.00556641,0.02608357
3550.93437378,0.02632872
3552.86318115,0.02594175
3554.79198853,0.02654629
3556.72079590,0.02670269
3558.64960327,0.02673015
3560.57841064,0.02673489
3562.50721802,0.02675635
3564.43602539,0.02712359
3566.36483276,0.02546535
3568.29364014,0.02501155
3570.22244751,0.02706708
3572.15125488,0.02790065
3574.08006226,0.02767449
3576.00886963,0.02783689
3577.93767700,0.02789690
3579.86648437,0.02795592
3581.79529175,0.02815561
3583.72409912,0.02826872
3585.65290649,0.02783369
3587.58171387,0.02592951
3589.51052124,0.02674802
3591.43932861,0.02893707
3593.36813599,0.02823186
3595.29694336,0.02794064
3597.22575073,0.02855315
3599.15455811,0.02890237
3601.08336548,0.02871753
3603.01217285,0.02919332
3604.94098022,0.02983679
3606.86978760,0.02893415
3608.79859497,0.02749175
3610.72740234,0.02815949
3612.65620972,0.02891217
3614.58501709,0.02817358
3616.51382446,0.03019262
3618.44263184,0.02815805
3620.37143921,0.02740304
3622.30024658,0.03080593
3624.22905395,0.03000880
3626.15786133,0.03152220
3628.08666870,0.02713615
3630.01547607,0.02510295
3631.94428345,0.03121806
3633.87309082,0.03053115
3635.80189819,0.03123422
3637.73070557,0.03190773
3639.65951294,0.03164191
3641.58832031,0.03209489
3643.51712769,0.03181165
3645.44593506,0.03232627
3647.37474243,0.02945629
3649.30354980,0.02724172
3651.23235718,0.02769175
3653.16116455,0.03276347
3655.08997192,0.03239129
3657.01877930,0.02950600
3658.94758667,0.03381399
3660.87639404,0.03320541
3662.80520142,0.03397470
3664.73400879,0.03394667
3666.66281616,0.03391749
3668.59162354,0.03322055
3670.52043091,0.02758192
3672.44923828,0.03319893
3674.37804565,0.03172348
3676.30685303,0.02676773
3678.23566040,0.03337746
3680.16446777,0.03414579
3682.09327515,0.03428006
3684.02208252,0.03531224
3685.95088989,0.03492551
3687.87969727,0.03168852
3689.80850464,0.02929428
3691.73731201,0.03342044
3693.66611938,0.03435895
3695.59492676,0.03519223
3697.52373413,0.03520582
3699.45254150,0.03482442
3701.38134888,0.03411094
3703.31015625,0.03287708
3705.23896362,0.03601635
3707.16777100,0.03437958
3709.09657837,0.03359126
3711.02538574,0.03175828
3712.95419312,0.02987747
3714.88300049,0.03469624
3716.81180786,0.03417473
3718.74061523,0.03445934
3720.66942261,0.03370973
3722.59822998,0.03273626
3724.52703735,0.03377234
3726.45584473,0.03131605
3728.38465210,0.03395833
3730.31345947,0.03340062
3732.24226685,0.03091847
3734.17107422,0.03031359
3736.09988159,0.02879523
3738.02868896,0.03033542
3739.95749634,0.03261045
3741.88630371,0.03412428
3743.81511108,0.02682181
3745.74391846,0.02544872
3747.67272583,0.03242909
3749.60153320,0.02804395
3751.53034058,0.02602123
3753.45914795,0.02959095
3755.38795532,0.03174651
3757.31676270,0.03276943
3759.24557007,0.03054852
3761.17437744,0.03159641
3763.10318481,0.03320611
3765.03199219,0.03121735
3766.96079956,0.03180221
3768.88960693,0.03141813
3770.81841431,0.03007304
3772.74722168,0.03228930
3774.67602905,0.03220894
3776.60483643,0.03222007
3778.53364380,0.03147361
3780.46245117,0.03026453
3782.39125854,0.03217942
3784.32006592,0.03142247
3786.24887329,0.03125005
3788.17768066,0.03182589
3790.10648804,0.03153465
3792.03529541,0.03140236
3793.96410278,0.03177357
3795.89291016,0.03000712
3797.82171753,0.02971322
3799.75052490,0.03103772
3801.67933228,0.02494661
3803.60813965,0.02898310
3805.53694702,0.03116264
3807.46575439,0.02569580
3809.39456177,0.03089014
3811.32336914,0.03026549
3813.25217651,0.03118004
3815.18098389,0.02821281
3817.10979126,0.02499189
3819.03859863,0.03111599
3820.96740601,0.02542855
3822.89621338,0.02679069
3824.82502075,0.03090266
3826.75382812,0.02806343
3828.68263550,0.02998135
3830.61144287,0.02878707
3832.54025024,0.02798345
3834.46905762,0.02856000
3836.39786499,0.02713846
3838.32667236,0.02466142
3840.25547974,0.02661935
3842.18428711,0.02836957
3844.11309448,0.02717556
3846.04190186,0.02931629
3847.97070923,0.02872626
3849.89951660,0.02886021
3851.82832397,0.02608368
3853.75713135,0.01992944
3855.68593872,0.02338179
3857.61474609,0.02888013
3859.54355347,0.02803542
3861.47236084,0.02764528
3863.40116821,0.02713435
3865.32997559,0.02529292
3867.25878296,0.02814517
3869.18759033,0.02575155
3871.11639770,0.02391635
3873.04520508,0.02801172
3874.97401245,0.02580789
3876.90281982,0.02795216
3878.83162720,0.02821476
3880.76043457,0.02437552
3882.68924194,0.02785406
3884.61804932,0.02600985
3886.54685669,0.02407522
3888.47566406,0.02782726
3890.40447144,0.02634659
3892.33327881,0.02483093
3894.26208618,0.02710093
3896.19089355,0.02748246
3898.11970093,0.02620546
3900.04850830,0.02483567
3901.97731567,0.02451936
3903.90612305,0.02430188
3905.83493042,0.02461522
3907.76373779,0.02679732
3909.69254517,0.02674451
3911.62135254,0.02648439
3913.55015991,0.02689896
3915.47896728,0.02602750
3917.40777466,0.02525732
3919.33658203,0.02507206
3921.26538940,0.02608126
3923.19419678,0.02577144
3925.12300415,0.02530167
3927.05181152,0.02576961
3928.98061890,0.02593732
3930.90942627,0.02548445
3932.83823364,0.02468900
3934.76704102,0.02563384
3936.69584839,0.02570407
3938.62465576,0.02552352
3940.55346313,0.02567440
3942.48227051,0.02468443
3944.41107788,0.02500251
3946.33988525,0.02541121
3948.26869263,0.02480407
3950.19750000,0.02463960
3952.12630737,0.02504603
3954.05511475,0.02510484
3955.98392212,0.02505809
3957.91272949,0.02493766
3959.84153687,0.02484708
3961.77034424,0.02485093
3963.69915161,0.02463859
3965.62795898,0.02480783
3967.55676636,0.02464827
3969.48557373,0.02461987
3971.41438110,0.02456670
3973.34318848,0.02441733
3975.27199585,0.02436559
3977.20080322,0.02422610
3979.12961060,0.02445921
3981.05841797,0.02414827
3982.98722534,0.02417845
3984.91603271,0.02417576
3986.84484009,0.02407339
3988.77364746,0.02403665
3990.70245483,0.02377316
3992.63126221,0.02398280
3994.56006958,0.02370021
3996.48887695,0.02377341
3998.41768433,0.02370812
4000.34649170,0.02360010
4002.27529907,0.02373280
4004.20410645,0.02347379
4006.13291382,0.02357107
4008.06172119,0.02333512
4009.99052856,0.02334078
4011.91933594,0.02332766
4013.84814331,0.02327921
4015.77695068,0.02323303
4017.70575806,0.02311714
4019.63456543,0.02317675
4021.56337280,0.02288061
4023.49218018,0.02295347
4025.42098755,0.02276749
4027.34979492,0.02281507
4029.27860229,0.02283632
4031.20740967,0.02262526
4033.13621704,0.02268641
4035.06502441,0.02249554
4036.99383179,0.02262022
4038.92263916,0.02241358
4040.85144653,0.02246949
4042.78025391,0.02244652
4044.70906128,0.02226465
4046.63786865,0.02232577
4048.56667603,0.02221140
4050.49548340,0.02228772
4052.42429077,0.02196621
4054.35309814,0.02215614
4056.28190552,0.02207530
4058.21071289,0.02189351
4060.13952026,0.02201336
4062.06832764,0.02173809
4063.99713501,0.02185969
4065.92594238,0.02168073
4067.85474976,0.02177931
4069.78355713,0.02166303
4071.71236450,0.02151032
4073.64117187,0.02157625
4075.56997925,0.02131085
4077.49878662,0.02148573
4079.42759399,0.02135662
4081.35640137,0.02137152
4083.28520874,0.02128517
4085.21401611,0.02116509
4087.14282349,0.02121100
4089.07163086,0.02104402
4091.00043823,0.02102449
4092.92924561,0.02087899
4094.85805298,0.02097858
4096.78686035,0.02086733
4098.71566772,0.02083632
4100.64447510,0.02085669
4102.57328247,0.02073805
4104.50208984,0.02068922
4106.43089722,0.02056544
4108.35970459,0.02060594
4110.28851196,0.02038277
4112.21731934,0.02051141
4114.14612671,0.02039566
4116.07493408,0.02024817
4118.00374145,0.02041166
4119.93254883,0.02020238
4121.86135620,0.02022363
4123.79016357,0.02008487
4125.71897095,0.02011381
4127.64777832,0.02007060
4129.57658569,0.02001121
4131.50539307,0.02000356
4133.43420044,0.01990343
4135.36300781,0.02003325
4137.29181519,0.01972584
4139.22062256,0.01973954
4141.14942993,0.01977143
4143.07823730,0.01965168
4145.00704468,0.01962198
4146.93585205,0.01950010
4148.86465942,0.01956306
4150.79346680,0.01939853
4152.72227417,0.01940825
4154.65108154,0.01939030
4156.57988892,0.01930255
4158.50869629,0.01927877
4160.43750366,0.01922028
4162.36631103,0.01915219
4164.29511841,0.01902089
4166.22392578,0.01909723
4168.15273315,0.01905350
4170.08154053,0.01895117
4172.01034790,0.01889199
4173.93915527,0.01897163
4175.86796265,0.01884420
4177.79677002,0.01873886
4179.72557739,0.01874636
4181.65438477,0.01854540
4183.58319214,0.01871138
4185.51199951,0.01856004
4187.44080688,0.01846899
4189.36961426,0.01854141
4191.29842163,0.01844095
4193.22722900,0.01840311
4195.15603638,0.01826984
4197.08484375,0.01840184
4199.01365112,0.01829159
4200.94245850,0.01821582
4202.87126587,0.01814593
4204.80007324,0.01808224
4206.72888062,0.01806948
4208.65768799,0.01790342
4210.58649536,0.01804123
4212.51530273,0.01789166
4214.44411011,0.01788834
4216.37291748,0.01790172
4218.30172485,0.01776761
4220.23053223,0.01774371
4222.15933960,0.01769111
4224.08814697,0.01778831
4226.01695435,0.01762982
4227.94576172,0.01758481
4229.87456909,0.01748178
4231.80337646,0.01748816
4233.73218384,0.01756371
4235.66099121,0.01743924
4237.58979858,0.01741862
4239.51860596,0.01726820
4241.44741333,0.01727705
4243.37622070,0.01718505
4245.30502808,0.01719701
4247.23383545,0.01712152
4249.16264282,0.01701526
4251.09145020,0.01711898
4253.02025757,0.01699065
4254.94906494,0.01703620
4256.87787231,0.01693892
4258.80667969,0.01691449
4260.73548706,0.01685601
4262.66429443,0.01680132
4264.59310181,0.01683973
4266.52190918,0.01665498
4268.45071655,0.01669712
4270.37952393,0.01664987
4272.30833130,0.01664911
4274.23713867,0.01657417
4276.16594604,0.01656836
4278.09475342,0.01652490
4280.02356079,0.01634822
4281.95236816,0.01640608
4283.88117554,0.01629309
4285.80998291,0.01631843
4287.73879028,0.01623029
4289.66759766,0.01624458
4291.59640503,0.01614883
4293.52521240,0.01601620
4295.45401978,0.01616656
4297.38282715,0.01596893
4299.31163452,0.01607289
4301.24044189,0.01602926
4303.16924927,0.01595800
4305.09805664,0.01589416
4307.02686401,0.01572074
4308.95567139,0.01584551
4310.88447876,0.01565469
4312.81328613,0.01570085
4314.74209351,0.01573884
4316.67090088,0.01562963
4318.59970825,0.01560848
4320.52851562,0.01557118
4322.45732300,0.01557084
4324.38613037,0.01544220
4326.31493774,0.01542386
4328.24374512,0.01534150
4330.17255249,0.01535836
4332.10135986,0.01530260
4334.03016724,0.01529088
4335.95897461,0.01532490
4337.88778198,0.01518797
4339.81658936,0.01518004
4341.74539673,0.01507527
4343.67420410,0.01510653
4345.60301147,0.01500296
4347.53181885,0.01496830
4349.46062622,0.01502907
4351.38943359,0.01488263
4353.31824097,0.01488537
4355.24704834,0.01482905
4357.17585571,0.01479339
4359.10466309,0.01474894
4361.03347046,0.01480826
4362.96227783,0.01470694
4364.89108520,0.01458965
4366.81989258,0.01463287
4368.74869995,0.01457529
4370.67750732,0.01467098
4372.60631470,0.01453954
4374.53512207,0.01449689
4376.46392944,0.01447891
4378.39273682,0.01440920
4380.32154419,0.01439806
4382.25035156,0.01425700
4384.17915894,0.01427830
4386.10796631,0.01422507
4388.03677368,0.01423496
4389.96558105,0.01414299
4391.89438843,0.01413642
4393.82319580,0.01418668
4395.75200317,0.01406895
4397.68081055,0.01403234
4399.60961792,0.01385669
4401.53842529,0.01390530
4403.46723267,0.01390406
4405.39604004,0.01391124
4407.32484741,0.01391430
4409.25365478,0.01381426
4411.18246216,0.01383706
4413.11126953,0.01363440
4415.04007690,0.01370476
4416.96888428,0.01374726
4418.89769165,0.01360084
4420.82649902,0.01361665
4422.75530640,0.01359748
4424.68411377,0.01348444
4426.61292114,0.01344155
4428.54172852,0.01349426
4430.47053589,0.01333380
4432.39934326,0.01334302
4434.32815063,0.01331276
4436.25695801,0.01326131
4438.18576538,0.01329394
4440.11457275,0.01319392
4442.04338013,0.01326244
4443.97218750,0.01316694
4445.90099487,0.01311790
4447.82980225,0.01313290
4449.75860962,0.01303742
4451.68741699,0.01301312
4453.61622437,0.01302900
4455.54503174,0.01298948
4457.47383911,0.01290772
4459.40264648,0.01292982
4461.33145386,0.01286123
4463.26026123,0.01286182
4465.18906860,0.01274700
4467.11787598,0.01271581
4469.04668335,0.01275876
4470.97549072,0.01264310
4472.90429810,0.01270165
4474.83310547,0.01255789
4476.76191284,0.01263826
4478.69072021,0.01265704
4480.61952759,0.01246848
4482.54833496,0.01256484
4484.47714233,0.01248798
4486.40594971,0.01243063
4488.33475708,0.01243987
4490.26356445,0.01241216
4492.19237183,0.01226145
4494.12117920,0.01229217
4496.04998657,0.01231971
4497.97879395,0.01214368
4499.90760132,0.01223187
4501.83640869,0.01215299
4503.76521606,0.01209682
4505.69402344,0.01208853
4507.62283081,0.01202719
4509.55163818,0.01199241
4511.48044556,0.01187755
4513.40925293,0.01192258
4515.33806030,0.01190041
4517.26686768,0.01188319
4519.19567505,0.01186183
4521.12448242,0.01179031
4523.05328979,0.01178807
4524.98209717,0.01178308
4526.91090454,0.01170713
4528.83971191,0.01163913
4530.76851929,0.01165906
4532.69732666,0.01161546
4534.62613403,0.01163312
4536.55494141,0.01159127
4538.48374878,0.01156809
4540.41255615,0.01153640
4542.34136353,0.01149001
4544.27017090,0.01151148
4546.19897827,0.01141709
4548.12778564,0.01145987
4550.05659302,0.01136663
4551.98540039,0.01132997
4553.91420776,0.01139703
4555.84301514,0.01131003
4557.77182251,0.01130982
4559.70062988,0.01124024
4561.62943726,0.01120037
4563.55824463,0.01111087
4565.48705200,0.01108920
4567.41585937,0.01108712
4569.34466675,0.01105791
4571.27347412,0.01110701
4573.20228149,0.01101128
4575.13108887,0.01098575
4577.05989624,0.01094096
4578.98870361,0.01091725
4580.91751099,0.01084807
4582.84631836,0.01079472
4584.77512573,0.01086832
4586.70393311,0.01077934
4588.63274048,0.01073895
4590.56154785,0.01076708
4592.49035522,0.01077012
4594.41916260,0.01069732
4596.34796997,0.01069198
4598.27677734,0.01066231
4600.20558472,0.01059725
4602.13439209,0.01062130
4604.06319946,0.01049806
4605.99200684,0.01048270
4607.92081421,0.01047329
4609.84962158,0.01042874
4611.77842895,0.01043486
4613.70723633,0.01044874
4615.63604370,0.01043058
4617.56485107,0.01028129
4619.49365845,0.01022713
4621.42246582,0.01021039
4623.35127319,0.01031794
4625.28008057,0.01026382
4627.20888794,0.01013304
4629.13769531,0.01018591
4631.06650269,0.01002806
4632.99531006,0.01002355
4634.92411743,0.01008833
4636.85292480,0.01003228
4638.78173218,0.01004493
4640.71053955,0.01001174
4642.63934692,0.01001187
4644.56815430,0.01001647
4646.49696167,0.00993301
4648.42576904,0.00986523
4650.35457642,0.00982859
4652.28338379,0.00979020
4654.21219116,0.00983342
4656.14099853,0.00982961
4658.06980591,0.00979302
4659.99861328,0.00973441
4661.92742065,0.00973275
4663.85622803,0.00978646
4665.78503540,0.00968554
4667.71384277,0.00966579
4669.64265015,0.00963751
4671.57145752,0.00955684
4673.50026489,0.00948475
4675.42907227,0.00950847
4677.35787964,0.00953341
4679.28668701,0.00941765
4681.21549438,0.00944731
4683.14430176,0.00940533
4685.07310913,0.00940327
4687.00191650,0.00937309
4688.93072388,0.00933236
4690.85953125,0.00938848
4692.78833862,0.00931625
4694.71714600,0.00937163
4696.64595337,0.00929267
4698.57476074,0.00922143
4700.50356812,0.00918105
4702.43237549,0.00914354
4704.36118286,0.00918374
4706.28999023,0.00909734
4708.21879761,0.00917952
4710.14760498,0.00910067
4712.07641235,0.00904935
4714.00521973,0.00906909
4715.93402710,0.00895980
4717.86283447,0.00897847
4719.79164185,0.00893375
4721.72044922,0.00891612
4723.64925659,0.00885455
4725.57806396,0.00887323
4727.50687134,0.00887650
4729.43567871,0.00877915
4731.36448608,0.00882282
4733.29329346,0.00877945
4735.22210083,0.00871902
4737.15090820,0.00874373
4739.07971558,0.00871313
4741.00852295,0.00864843
4742.93733032,0.00870766
4744.86613770,0.00863239
4746.79494507,0.00861991
4748.72375244,0.00866452
4750.65255981,0.00845477
4752.58136719,0.00851278
4754.51017456,0.00856614
4756.43898193,0.00848142
4758.36778931,0.00845893
4760.29659668,0.00847027
4762.22540405,0.00850316
4764.15421143,0.00842736
4766.08301880,0.00839170
4768.01182617,0.00836993
4769.94063354,0.00839847
4771.86944092,0.00830428
4773.79824829,0.00827227
4775.72705566,0.00833761
4777.65586304,0.00824621
4779.58467041,0.00824013
4781.51347778,0.00825820
4783.44228516,0.00822059
4785.37109253,0.00806344
4787.29989990,0.00814940
4789.22870728,0.00821682
4791.15751465,0.00808131
4793.08632202,0.00809947
4795.01512939,0.00802561
4796.94393677,0.00802631
4798.87274414,0.00797337
4800.80155151,0.00801072
4802.73035889,0.00798021
4804.65916626,0.00786278
4806.58797363,0.00795706
4808.51678101,0.00782311
4810.44558838,0.00784717
4812.37439575,0.00785004
4814.30320312,0.00780775
4816.23201050,0.00782786
4818.16081787,0.00774571
4820.08962524,0.00787335
4822.01843262,0.00780068
4823.94723999,0.00764561
4825.87604736,0.00766118
4827.80485474,0.00770889
4829.73366211,0.00767340
4831.66246948,0.00768307
4833.59127686,0.00765067
4835.52008423,0.00751668
4837.44889160,0.00764488
4839.37769897,0.00757771
4841.30650635,0.00752309
4843.23531372,0.00754987
4845.16412109,0.00745006
4847.09292847,0.00751499
4849.02173584,0.00745317
4850.95054321,0.00741649
4852.87935059,0.00745286
4854.80815796,0.00744508
4856.73696533,0.00738765
4858.66577270,0.00734230
4860.59458008,0.00736822
4862.52338745,0.00729043
4864.45219482,0.00726512
4866.38100220,0.00726524
4868.30980957,0.00724846
4870.23861694,0.00723801
4872.16742432,0.00714467
4874.09623169,0.00706829
4876.02503906,0.00715812
4877.95384644,0.00719505
4879.88265381,0.00715586
4881.81146118,0.00716821
4883.74026855,0.00707929
4885.66907593,0.00709857
4887.59788330,0.00707423
4889.52669067,0.00705132
4891.45549805,0.00707415
4893.38430542,0.00696090
4895.31311279,0.00695117
4897.24192017,0.00689016
4899.17072754,0.00694986
4901.09953491,0.00699545
4903.02834228,0.00690490
4904.95714966,0.00692300
4906.88595703,0.00683741
4908.81476440,0.00678690
4910.74357178,0.00681250
4912.67237915,0.00682180
4914.60118652,0.00672558
4916.52999390,0.00669029
4918.45880127,0.00676811
4920.38760864,0.00668940
4922.31641602,0.00666555
4924.24522339,0.00668273
4926.17403076,0.00664885
4928.10283813,0.00661365
4930.03164551,0.00658613
4931.96045288,0.00660412
4933.88926025,0.00657836
4935.81806763,0.00651112
4937.74687500,0.00650991
4939.67568237,0.00652345
4941.60448975,0.00649858
4943.53329712,0.00650363
4945.46210449,0.00645449
4947.39091187,0.00641973
4949.31971924,0.00644553
4951.24852661,0.00646507
4953.17733398,0.00642740
4955.10614136,0.00639263
4957.03494873,0.00642488
4958.96375610,0.00636329
4960.89256348,0.00638260
4962.82137085,0.00640013
4964.75017822,0.00633516
4966.67898560,0.00632061
4968.60779297,0.00626905
4970.53660034,0.00622866
4972.46540771,0.00618985
4974.39421509,0.00622527
4976.32302246,0.00619835
4978.25182983,0.00615332
4980.18063721,0.00619852
4982.10944458,0.00618300
4984.03825195,0.00611022
4985.96705933,0.00603806
4987.89586670,0.00613001
4989.82467407,0.00613636
4991.75348145,0.00606809
4993.68228882,0.00603098
4995.61109619,0.00600569
4997.53990356,0.00608076
4999.46871094,0.00599885
5001.39751831,0.00593643
5003.32632568,0.00590684
5005.25513306,0.00585908
5007.18394043,0.00593562
5009.11274780,0.00595275
5011.04155518,0.00584293
5012.97036255,0.00580765
5014.89916992,0.00588570
5016.82797729,0.00581564
5018.75678467,0.00578229
5020.68559204,0.00576544
5022.61439941,0.00571630
5024.54320679,0.00572860
5026.47201416,0.00569097
5028.40082153,0.00570924
5030.32962891,0.00569859
5032.25843628,0.00573589
5034.18724365,0.00569084
5036.11605103,0.00563943
5038.04485840,0.00573266
5039.97366577,0.00566541
5041.90247314,0.00556790
5043.83128052,0.00551813
5045.76008789,0.00558146
5047.68889526,0.00558575
5049.61770264,0.00553496
5051.54651001,0.00556523
5053.47531738,0.00551814
5055.40412476,0.00554303
5057.33293213,0.00552420
5059.26173950,0.00546963
5061.19054687,0.00539058
5063.11935425,0.00532473
5065.04816162,0.00537551
5066.97696899,0.00535858
5068.90577637,0.00532822
5070.83458374,0.00532503
5072.76339111,0.00534218
5074.69219849,0.00526049
5076.62100586,0.00525831
5078.54981323,0.00532961
5080.47862061,0.00529061
5082.40742798,0.00532238
5084.33623535,0.00524898
5086.26504272,0.00526236
5088.19385010,0.00525641
5090.12265747,0.00513425
5092.05146484,0.00524304
5093.98027222,0.00521123
5095.90907959,0.00519451
5097.83788696,0.00522987
5099.76669434,0.00509170
5101.69550171,0.00507978
5103.62430908,0.00508437
5105.55311645,0.00510340
5107.48192383,0.00508383
5109.41073120,0.00503814
5111.33953857,0.00509283
5113.26834595,0.00504877
5115.19715332,0.00503183
5117.12596069,0.00499615
5119.05476807,0.00497510
5120.98357544,0.00501830
5122.91238281,0.00497305
5124.84119019,0.00499733
5126.76999756,0.00492163
5128.69880493,0.00486533
5130.62761230,0.00495159
5132.55641968,0.00489238
5134.48522705,0.00482818
5136.41403442,0.00485550
5138.34284180,0.00489172
5140.27164917,0.00487318
5142.20045654,0.00480247
5144.12926392,0.00479872
5146.05807129,0.00488199
5147.98687866,0.00481070
5149.91568603,0.00475323
5151.84449341,0.00485342
5153.77330078,0.00479195
5155.70210815,0.00475399
5157.63091553,0.00471104
5159.55972290,0.00464454
5161.48853027,0.00463842
5163.41733765,0.00463271
5165.34614502,0.00470168
5167.27495239,0.00466016
5169.20375977,0.00462669
5171.13256714,0.00457179
5173.06137451,0.00455758
5174.99018188,0.00460151
5176.91898926,0.00456912
5178.84779663,0.00457507
5180.77660400,0.00448760
5182.70541138,0.00453695
5184.63421875,0.00455566
5186.56302612,0.00449766
5188.49183350,0.00451072
5190.42064087,0.00445146
5192.34944824,0.00451804
5194.27825562,0.00449753
5196.20706299,0.00442202
5198.13587036,0.00439263
5200.06467773,0.00442003
5201.99348511,0.00449682
5203.92229248,0.00446451
5205.85109985,0.00434288
5207.77990723,0.00423514
5209.70871460,0.00433962
5211.63752197,0.00434093
5213.56632935,0.00429581
5215.49513672,0.00428474
5217.42394409,0.00428183
5219.35275146,0.00435493
5221.28155884,0.00428437
5223.21036621,0.00428368
5225.13917358,0.00420083
5227.06798096,0.00424360
5228.99678833,0.00432558
5230.92559570,0.00419364
5232.85440308,0.00424716
5234.78321045,0.00423102
5236.71201782,0.00422228
5238.64082520,0.00420604
5240.56963257,0.00417759
5242.49843994,0.00416560
5244.42724731,0.00411814
5246.35605469,0.00417098
5248.28486206,0.00402967
5250.21366943,0.00402555
5252.14247681,0.00414141
5254.07128418,0.00405129
5256.00009155,0.00397568
5257.92889893,0.00399747
5259.85770630,0.00406612
5261.78651367,0.00408569
5263.71532104,0.00402121
5265.64412842,0.00393210
5267.57293579,0.00402955
5269.50174316,0.00403593
5271.43055054,0.00400974
5273.35935791,0.00406102
5275.28816528,0.00397502
5277.21697266,0.00401806
5279.14578003,0.00396124
5281.07458740,0.00394206
5283.00339478,0.00398307
5284.93220215,0.00389944
5286.86100952,0.00400637
5288.78981689,0.00393529
5290.71862427,0.00380496
5292.64743164,0.00393191
5294.57623901,0.00394458
5296.50504639,0.00386923
5298.43385376,0.00389267
5300.36266113,0.00388835
5302.29146851,0.00385406
5304.22027588,0.00383838
5306.14908325,0.00380811
5308.07789062,0.00380255
5310.00669800,0.00378183
5311.93550537,0.00379972
5313.86431274,0.00382883
5315.79312012,0.00376819
5317.72192749,0.00374321
5319.65073486,0.00378553
5321.57954224,0.00379483
5323.50834961,0.00379818
5325.43715698,0.00369058
5327.36596436,0.00357734
5329.29477173,0.00367990
5331.22357910,0.00365346
5333.15238647,0.00361424
5335.08119385,0.00368196
5337.01000122,0.00361664
5338.93880859,0.00351779
5340.86761597,0.00356032
5342.79642334,0.00368063
5344.72523071,0.00355864
5346.65403809,0.00350128
5348.58284546,0.00355535
5350.51165283,0.00363777
5352.44046020,0.00358303
5354.36926758,0.00334363
5356.29807495,0.00354141
5358.22688232,0.00358733
5360.15568970,0.00352754
5362.08449707,0.00355991
5364.01330444,0.00347486
5365.94211182,0.00354126
5367.87091919,0.00343358
5369.79972656,0.00353034
5371.72853394,0.00356524
5373.65734131,0.00342827
5375.58614868,0.00341973
5377.51495605,0.00334748
5379.44376343,0.00349400
5381.37257080,0.00350361
5383.30137817,0.00346258
5385.23018555,0.00339012
5387.15899292,0.00329138
5389.08780029,0.00337484
5391.01660767,0.00340354
5392.94541504,0.00337586
5394.87422241,0.00325062
5396.80302978,0.00333729
5398.73183716,0.00334123
5400.66064453,0.00332536
5402.58945190,0.00341115
5404.51825928,0.00328355
5406.44706665,0.00335305
5408.37587402,0.00331763
5410.30468140,0.00320971
5412.23348877,0.00316066
5414.16229614,0.00310339
5416.09110352,0.00321242
5418.01991089,0.00323593
5419.94871826,0.00325791
5421.87752563,0.00328726
5423.80633301,0.00324027
5425.73514038,0.00318503
5427.66394775,0.00318811
5429.59275513,0.00314301
5431.52156250,0.00317095
5433.45036987,0.00322979
5435.37917725,0.00306008
5437.30798462,0.00313729
5439.23679199,0.00321774
5441.16559936,0.00308939
5443.09440674,0.00312072
5445.02321411,0.00307864
5446.95202148,0.00301892
5448.88082886,0.00306041
5450.80963623,0.00305047
5452.73844360,0.00309642
5454.66725098,0.00308444
5456.59605835,0.00304234
5458.52486572,0.00315487
5460.45367310,0.00300872
5462.38248047,0.00297832
5464.31128784,0.00310538
5466.24009521,0.00294468
5468.16890259,0.00295705
5470.09770996,0.00295799
5472.02651733,0.00300856
5473.95532471,0.00296737
5475.88413208,0.00280875
5477.81293945,0.00294666
5479.74174683,0.00293303
5481.67055420,0.00298998
5483.59936157,0.00300871
5485.52816895,0.00293251
5487.45697632,0.00292736
5489.38578369,0.00284247
5491.31459106,0.00295187
5493.24339844,0.00286502
5495.17220581,0.00280483
5497.10101318,0.00292327
5499.02982056,0.00288420
5500.95862793,0.00294221
5502.88743530,0.00290071
5504.81624268,0.00283000
5506.74505005,0.00281768
5508.67385742,0.00277396
5510.60266479,0.00282583
5512.53147217,0.00282241
5514.46027954,0.00282352
5516.38908691,0.00281966
5518.31789429,0.00276282
5520.24670166,0.00279486
5522.17550903,0.00276582
5524.10431641,0.00275493
5526.03312378,0.00277053
5527.96193115,0.00271329
5529.89073853,0.00275573
5531.81954590,0.00276307
5533.74835327,0.00277779
5535.67716064,0.00274520
5537.60596802,0.00263001
5539.53477539,0.00266977
5541.46358276,0.00270522
5543.39239014,0.00274546
5545.32119751,0.00272962
5547.25000488,0.00265046
5549.17881226,0.00264535
5551.10761963,0.00261412
5553.03642700,0.00257790
5554.96523437,0.00259861
5556.89404175,0.00262864
5558.82284912,0.00260107
5560.75165649,0.00264172
5562.68046387,0.00257210
5564.60927124,0.00251118
5566.53807861,0.00266594
5568.46688599,0.00260691
5570.39569336,0.00252860
5572.32450073,0.00258715
5574.25330811,0.00258561
5576.18211548,0.00257829
5578.11092285,0.00257058
5580.03973022,0.00254365
5581.96853760,0.00253125
5583.89734497,0.00252534
5585.82615234,0.00249850
5587.75495972,0.00254558
5589.68376709,0.00249979
5591.61257446,0.00244939
5593.54138184,0.00249937
5595.47018921,0.00247420
5597.39899658,0.00247078
5599.32780395,0.00245537
5601.25661133,0.00247326
5603.18541870,0.00243300
5605.11422607,0.00237614
5607.04303345,0.00244414
5608.97184082,0.00242630
5610.90064819,0.00242665
5612.82945557,0.00246951
5614.75826294,0.00241510
5616.68707031,0.00237100
5618.61587769,0.00241976
5620.54468506,0.00239215
5622.47349243,0.00237167
5624.40229980,0.00240918
5626.33110718,0.00236198
5628.25991455,0.00238236
5630.18872192,0.00237674
5632.11752930,0.00236072
5634.04633667,0.00232535
5635.97514404,0.00228514
5637.90395142,0.00236640
5639.83275879,0.00229990
5641.76156616,0.00225194
5643.69037353,0.00229661
5645.61918091,0.00225339
5647.54798828,0.00231188
5649.47679565,0.00233979
5651.40560303,0.00221016
5653.33441040,0.00227931
5655.26321777,0.00232120
5657.19202515,0.00219341
5659.12083252,0.00229329
5661.04963989,0.00229236
5662.97844727,0.00222080
5664.90725464,0.00222524
5666.83606201,0.00220601
5668.76486938,0.00224635
5670.69367676,0.00214190
5672.62248413,0.00216273
5674.55129150,0.00217826
5676.48009888,0.00211300
5678.40890625,0.00222083
5680.33771362,0.00218090
5682.26652100,0.00213922
5684.19532837,0.00215395
5686.12413574,0.00212416
5688.05294311,0.00212230
5689.98175049,0.00214152
5691.91055786,0.00214122
5693.83936523,0.00208036
5695.76817261,0.00209938
5697.69697998,0.00212335
5699.62578735,0.00208623
5701.55459473,0.00205720
5703.48340210,0.00208924
5705.41220947,0.00204372
5707.34101685,0.00197165
5709.26982422,0.00209803
5711.19863159,0.00209292
5713.12743896,0.00203082
5715.05624634,0.00208170
5716.98505371,0.00205423
5718.91386108,0.00206445
5720.84266846,0.00208262
5722.77147583,0.00203622
5724.70028320,0.00203051
5726.62909058,0.00206427
5728.55789795,0.00200076
5730.48670532,0.00192251
5732.41551270,0.00197629
5734.34432007,0.00200465
5736.27312744,0.00198229
5738.20193481,0.00197098
5740.13074219,0.00192679
5742.05954956,0.00194678
5743.98835693,0.00200246
5745.91716431,0.00192765
5747.84597168,0.00190028
5749.77477905,0.00195338
5751.70358643,0.00192790
5753.63239380,0.00192656
5755.56120117,0.00189579
5757.49000854,0.00187607
5759.41881592,0.00192580
5761.34762329,0.00188964
5763.27643066,0.00183682
5765.20523804,0.00180870
5767.13404541,0.00180787
5769.06285278,0.00186489
5770.99166016,0.00190869
5772.92046753,0.00190742
5774.84927490,0.00187440
5776.77808228,0.00183056
5778.70688965,0.00182811
5780.63569702,0.00188336
5782.56450439,0.00186821
5784.49331177,0.00179014
5786.42211914,0.00173809
5788.35092651,0.00177970
5790.27973389,0.00186221
5792.20854126,0.00180182
5794.13734863,0.00178282
5796.06615601,0.00179313
5797.99496338,0.00177587
5799.92377075,0.00179121
5801.85257812,0.00171245
5803.78138550,0.00177623
5805.71019287,0.00184664
5807.63900024,0.00179276
5809.56780762,0.00173627
5811.49661499,0.00167875
5813.42542236,0.00176438
5815.35422974,0.00168647
5817.28303711,0.00166169
5819.21184448,0.00180595
5821.14065186,0.00171800
5823.06945923,0.00167782
5824.99826660,0.00168050
5826.92707397,0.00168564
5828.85588135,0.00168018
5830.78468872,0.00163267
5832.71349609,0.00169468
5834.64230347,0.00170624
5836.57111084,0.00170941
5838.49991821,0.00166534
5840.42872559,0.00159912
5842.35753296,0.00162418
5844.28634033,0.00163184
5846.21514770,0.00164311
5848.14395508,0.00162310
5850.07276245,0.00167209
5852.00156982,0.00168647
5853.93037720,0.00156821
5855.85918457,0.00160614
5857.78799194,0.00165120
5859.71679932,0.00157987
5861.64560669,0.00156550
5863.57441406,0.00157596
5865.50322144,0.00154990
5867.43202881,0.00154500
5869.36083618,0.00162611
5871.28964355,0.00162014
5873.21845093,0.00155635
5875.14725830,0.00155724
5877.07606567,0.00154329
5879.00487305,0.00154825
5880.93368042,0.00146723
5882.86248779,0.00147946
5884.79129517,0.00155337
5886.72010254,0.00153014
5888.64890991,0.00158531
5890.57771728,0.00150402
5892.50652466,0.00149934
5894.43533203,0.00151844
5896.36413940,0.00148727
5898.29294678,0.00158165
5900.22175415,0.00145826
5902.15056152,0.00145670
5904.07936890,0.00149886
5906.00817627,0.00143157
5907.93698364,0.00146379
5909.86579102,0.00147248
5911.79459839,0.00153905
5913.72340576,0.00148265
5915.65221313,0.00144446
5917.58102051,0.00144306
5919.50982788,0.00142165
5921.43863525,0.00147204
5923.36744263,0.00146978
5925.29625000,0.00148933
5927.22505737,0.00142877
5929.15386475,0.00144431
5931.08267212,0.00144142
5933.01147949,0.00138856
5934.94028686,0.00143023
5936.86909424,0.00141614
5938.79790161,0.00146881
5940.72670898,0.00144057
5942.65551636,0.00142081
5944.58432373,0.00140310
5946.51313110,0.00133273
5948.44193848,0.00138391
5950.37074585,0.00138149
5952.29955322,0.00136107
5954.22836060,0.00135671
5956.15716797,0.00139390
5958.08597534,0.00134243
5960.01478271,0.00128216
5961.94359009,0.00139094
5963.87239746,0.00140454
5965.80120483,0.00132472
5967.73001221,0.00129808
5969.65881958,0.00137390
5971.58762695,0.00136420
5973.51643433,0.00131386
5975.44524170,0.00130357
5977.37404907,0.00126297
5979.30285645,0.00134941
5981.23166382,0.00133589
5983.16047119,0.00124116
5985.08927856,0.00128840
5987.01808594,0.00129561
5988.94689331,0.00131092
5990.87570068,0.00134493
5992.80450806,0.00123027
5994.73331543,0.00123941
5996.66212280,0.00130346
5998.59093018,0.00122172
6000.51973755,0.00123989
