399.26312622,0.00042730
401.19193359,0.00014752
403.12074097,-0.00006040
405.04954834,0.00035678
406.97835571,0.00075161
408.90716309,0.00068291
410.83597046,0.00071764
412.76477783,0.00054960
414.69358521,0.00061525
416.62239258,0.00037912
418.55119995,0.00047204
420.48000732,0.00104595
422.40881470,0.00078500
424.33762207,0.00054651
426.26642944,0.00049432
428.19523682,0.00033902
430.12404419,0.00039174
432.05285156,0.00075256
433.98165894,0.00072159
435.91046631,0.00046446
437.83927368,0.00068006
439.76808105,0.00070019
441.69688843,0.00069143
443.62569580,0.00049455
445.55450317,0.00031848
447.48331055,0.00043564
449.41211792,0.00025619
451.34092529,0.00049998
453.26973267,0.00069714
455.19854004,0.00069381
457.12734741,0.00053848
459.05615479,0.00008751
460.98496216,0.00034591
462.91376953,0.00045384
464.84257690,0.00052756
466.77138428,0.00047852
468.70019165,0.00025358
470.62899902,0.00065249
472.55780640,0.00033329
474.48661377,0.00011338
476.41542114,0.00020529
478.34422852,0.00003660
480.27303589,0.00018266
482.20184326,0.00028364
484.13065063,0.00055109
486.05945801,0.00040607
487.98826538,0.00006547
489.91707275,0.00023087
491.84588013,0.00022158
493.77468750,0.00008832
495.70349487,-0.00005452
497.63230225,0.00006858
499.56110962,0.00042173
501.48991699,0.00002357
503.41872437,-0.00005790
505.34753174,0.00039161
507.27633911,0.00022154
509.20514648,0.00034887
511.13395386,0.00019242
513.06276123,0.00011521
514.99156860,0.00006249
516.92037598,-0.00027989
518.84918335,0.00010094
520.77799072,0.00011238
522.70679810,0.00025430
524.63560547,0.00019393
526.56441284,0.00010325
528.49322021,0.00037427
530.42202759,-0.00003740
532.35083496,0.00029621
534.27964233,0.00028575
536.20844971,-0.00007983
538.13725708,0.00014752
540.06606445,0.00013101
541.99487183,0.00038368
543.92367920,0.00026169
545.85248657,0.00017932
547.78129395,0.00015770
549.71010132,-0.00008128
551.63890869,0.00019171
553.56771606,0.00034566
555.49652344,0.00004766
557.42533081,-0.00000096
559.35413818,0.00006328
561.28294556,0.00003128
563.21175293,0.00031620
565.14056030,0.00009571
567.06936768,-0.00009236
568.99817505,0.00033016
570.92698242,0.00040844
572.85578979,-0.00001110
574.78459717,-0.00022540
576.71340454,0.00018413
578.64221191,0.00011701
580.57101929,0.00016249
582.49982666,0.00036645
584.42863403,0.00024853
586.35744141,0.00023423
588.28624878,0.00008350
590.21505615,0.00023161
592.14386353,0.00008321
594.07267090,0.00027279
596.00147827,0.00043793
597.93028564,-0.00011405
599.85909302,-0.00007176
601.78790039,-0.00009537
603.71670776,0.00021719
605.64551514,0.00037314
607.57432251,0.00012306
609.50312988,0.00010032
611.43193726,0.00038471
613.36074463,0.00041539
615.28955200,-0.00005534
617.21835938,-0.00024971
619.14716675,0.00019901
621.07597412,0.00042466
623.00478149,0.00033004
624.93358887,0.00024950
626.86239624,0.00017063
628.79120361,0.00032707
630.72001099,0.00051874
632.64881836,0.00051698
634.57762573,0.00045456
636.50643311,0.00071544
638.43524048,0.00070114
640.36404785,0.00042500
642.29285522,0.00079705
644.22166260,0.00101135
646.15046997,0.00083539
648.07927734,0.00069939
650.00808472,0.00081242
651.93689209,0.00107040
653.86569946,0.00104597
655.79450684,0.00128266
657.72331421,0.00145030
659.65212158,0.00110253
661.58092896,0.00121801
663.50973633,0.00162183
665.43854370,0.00132641
667.36735107,0.00111494
669.29615845,0.00146121
671.22496582,0.00143386
673.15377319,0.00139760
675.08258057,0.00181223
677.01138794,0.00187266
678.94019531,0.00157064
680.86900269,0.00172712
682.79781006,0.00177420
684.72661743,0.00175234
686.65542480,0.00221092
688.58423218,0.00181245
690.51303955,0.00161733
692.44184692,0.00226890
694.37065430,0.00213250
696.29946167,0.00215852
698.22826904,0.00254163
700.15707642,0.00265006
702.08588379,0.00269536
704.01469116,0.00261275
705.94349854,0.00254599
707.87230591,0.00226673
709.80111328,0.00179700
711.72992065,0.00114192
713.65872803,0.00069107
715.58753540,0.00056883
717.51634277,0.00024898
719.44515015,0.00025429
721.37395752,0.00026894
723.30276489,0.00005858
725.23157227,0.00022758
727.16037964,0.00019786
729.08918701,-0.00014476
731.01799438,-0.00001856
732.94680176,0.00016189
734.87560913,-0.00003987
736.80441650,0.00028073
738.73322388,0.00049352
740.66203125,0.00011194
742.59083862,0.00004001
744.51964600,0.00011286
746.44845337,0.00025202
748.37726074,0.00033601
750.30606812,0.00028334
752.23487549,0.00007147
754.16368286,0.00004103
756.09249023,0.00033992
758.02129761,0.00034141
759.95010498,0.00025447
761.87891235,0.00023657
763.80771973,0.00036727
765.73652710,0.00028011
767.66533447,0.00000361
769.59414185,0.00014014
771.52294922,-0.00000235
773.45175659,0.00008399
775.38056396,0.00029215
777.30937134,0.00018690
779.23817871,0.00045250
781.16698608,0.00063040
783.09579346,0.00024907
785.02460083,0.00031806
786.95340820,0.00080158
788.88221558,0.00032964
790.81102295,0.00031546
792.73983032,0.00056184
794.66863770,0.00036996
796.59744507,0.00049249
798.52625244,0.00021540
800.45505981,0.00060674
802.38386719,0.00062723
804.31267456,0.00023938
806.24148193,0.00069142
808.17028931,0.00033455
810.09909668,0.00011265
812.02790405,0.00028128
813.95671143,0.00027153
815.88551880,0.00025828
817.81432617,0.00013684
819.74313354,0.00021269
821.67194092,0.00023835
823.60074829,0.00056440
825.52955566,0.00066171
827.45836304,0.00020564
829.38717041,0.00037849
831.31597778,0.00070286
833.24478516,0.00069522
835.17359253,0.00087923
837.10239990,0.00076606
839.03120728,0.00077645
840.96001465,0.00086567
842.88882202,0.00059545
844.81762939,0.00062027
846.74643677,0.00056818
848.67524414,0.00078499
850.60405151,0.00080352
852.53285889,0.00044129
854.46166626,0.00047976
856.39047363,0.00045749
858.31928101,0.00057716
860.24808838,0.00049227
862.17689575,0.00045729
864.10570313,0.00047298
866.03451050,0.00045932
867.96331787,0.00076840
869.89212524,0.00045475
871.82093262,0.00041474
873.74973999,0.00065008
875.67854736,0.00037954
877.60735474,0.00031119
879.53616211,0.00036614
881.46496948,0.00038976
883.39377686,0.00030943
885.32258423,0.00039316
887.25139160,0.00044722
889.18019897,0.00036273
891.10900635,0.00053636
893.03781372,0.00048753
894.96662109,0.00039355
896.89542847,0.00056181
898.82423584,0.00055850
900.75304321,0.00049921
902.68185059,0.00048283
904.61065796,0.00044147
906.53946533,0.00071442
908.46827271,0.00064161
910.39708008,0.00041509
912.32588745,0.00052942
914.25469482,0.00024780
916.18350220,0.00053181
918.11230957,0.00077623
920.04111694,0.00058712
921.96992432,0.00083412
923.89873169,0.00071140
925.82753906,0.00072779
927.75634644,0.00091277
929.68515381,0.00093629
931.61396118,0.00097227
933.54276855,0.00102000
935.47157593,0.00107976
937.40038330,0.00102118
939.32919067,0.00119355
941.25799805,0.00129979
943.18680542,0.00127947
945.11561279,0.00131885
947.04442017,0.00129319
948.97322754,0.00117738
950.90203491,0.00118688
952.83084229,0.00126811
954.75964966,0.00113275
956.68845703,0.00103035
958.61726440,0.00106780
960.54607178,0.00118583
962.47487915,0.00121899
964.40368652,0.00138924
966.33249390,0.00136365
968.26130127,0.00128163
970.19010864,0.00133510
972.11891602,0.00114037
974.04772339,0.00145790
975.97653076,0.00143967
977.90533813,0.00149769
979.83414551,0.00201472
981.76295288,0.00188936
983.69176025,0.00195875
985.62056763,0.00204200
987.54937500,0.00231109
989.47818237,0.00272651
991.40698975,0.00291300
993.33579712,0.00317308
995.26460449,0.00330725
997.19341187,0.00353594
999.12221924,0.00378893
1001.05102661,0.00403270
1002.97983398,0.00425138
1004.90864136,0.00478319
1006.83744873,0.00516632
1008.76625610,0.00530896
1010.69506348,0.00559336
1012.62387085,0.00574753
1014.55267822,0.00620026
1016.48148560,0.00636376
1018.41029297,0.00675381
1020.33910034,0.00728362
1022.26790771,0.00729213
1024.19671509,0.00743413
1026.12552246,0.00767882
1028.05432983,0.00824534
1029.98313721,0.00839982
1031.91194458,0.00856175
1033.84075195,0.00882180
1035.76955933,0.00888944
1037.69836670,0.00909773
1039.62717407,0.00885213
1041.55598145,0.00899556
1043.48478882,0.00881421
1045.41359619,0.00853675
1047.34240356,0.00877473
1049.27121094,0.00861026
1051.20001831,0.00854835
1053.12882568,0.00822446
1055.05763306,0.00801207
1056.98644043,0.00782450
1058.91524780,0.00754225
1060.84405518,0.00758955
1062.77286255,0.00731983
1064.70166992,0.00701125
1066.63047729,0.00656533
1068.55928467,0.00630594
1070.48809204,0.00625323
1072.41689941,0.00588625
1074.34570679,0.00562253
1076.27451416,0.00545160
1078.20332153,0.00525550
1080.13212891,0.00499940
1082.06093628,0.00479116
1083.98974365,0.00458280
1085.91855103,0.00432032
1087.84735840,0.00402978
1089.77616577,0.00386579
1091.70497314,0.00388732
1093.63378052,0.00379221
1095.56258789,0.00374244
1097.49139526,0.00348242
1099.42020264,0.00327186
1101.34901001,0.00333648
1103.27781738,0.00308578
1105.20662476,0.00301862
1107.13543213,0.00307998
1109.06423950,0.00312177
1110.99304687,0.00321807
1112.92185425,0.00302238
1114.85066162,0.00313276
1116.77946899,0.00315522
1118.70827637,0.00296218
1120.63708374,0.00304266
1122.56589111,0.00305913
1124.49469849,0.00328127
1126.42350586,0.00311862
1128.35231323,0.00301480
1130.28112061,0.00344039
1132.20992798,0.00339498
1134.13873535,0.00355600
1136.06754272,0.00366385
1137.99635010,0.00367369
1139.92515747,0.00402826
1141.85396484,0.00428208
1143.78277222,0.00453335
1145.71157959,0.00445914
1147.64038696,0.00476123
1149.56919434,0.00528459
1151.49800171,0.00540005
1153.42680908,0.00563374
1155.35561646,0.00592700
1157.28442383,0.00613671
1159.21323120,0.00604733
1161.14203857,0.00636713
1163.07084595,0.00680508
1164.99965332,0.00681975
1166.92846069,0.00698873
1168.85726807,0.00724425
1170.78607544,0.00771024
1172.71488281,0.00796060
1174.64369019,0.00817367
1176.57249756,0.00852907
1178.50130493,0.00869655
1180.43011230,0.00894372
1182.35891968,0.00929343
1184.28772705,0.00985546
1186.21653442,0.01028437
1188.14534180,0.01064379
1190.07414917,0.01101601
1192.00295654,0.01147034
1193.93176392,0.01207254
1195.86057129,0.01250076
1197.78937866,0.01312089
1199.71818604,0.01366041
1201.64699341,0.01426955
1203.57580078,0.01494122
1205.50460815,0.01527229
1207.43341553,0.01583201
1209.36222290,0.01650575
1211.29103027,0.01693979
1213.21983765,0.01720454
1215.14864502,0.01773100
1217.07745239,0.01824201
1219.00625977,0.01846885
1220.93506714,0.01882180
1222.86387451,0.01883744
1224.79268188,0.01874629
1226.72148926,0.01906135
1228.65029663,0.01918790
1230.57910400,0.01918212
1232.50791138,0.01934037
1234.43671875,0.01921039
1236.36552612,0.01910875
1238.29433350,0.01916967
1240.22314087,0.01921540
1242.15194824,0.01926262
1244.08075562,0.01898347
1246.00956299,0.01901878
1247.93837036,0.01884131
1249.86717773,0.01856092
1251.79598511,0.01883906
1253.72479248,0.01844422
1255.65359985,0.01827744
1257.58240723,0.01821691
1259.51121460,0.01760686
1261.44002197,0.01741413
1263.36882935,0.01716863
1265.29763672,0.01693758
1267.22644409,0.01680177
1269.15525146,0.01660756
1271.08405884,0.01621986
1273.01286621,0.01595325
1274.94167358,0.01604520
1276.87048096,0.01557536
1278.79928833,0.01516293
1280.72809570,0.01493738
1282.65690308,0.01463521
1284.58571045,0.01449885
1286.51451782,0.01418113
1288.44332520,0.01397217
1290.37213257,0.01369908
1292.30093994,0.01364807
1294.22974731,0.01367553
1296.15855469,0.01334007
1298.08736206,0.01348610
1300.01616943,0.01359854
1301.94497681,0.01354837
1303.87378418,0.01389413
1305.80259155,0.01391886
1307.73139893,0.01384026
1309.66020630,0.01425609
1311.58901367,0.01446852
1313.51782104,0.01458222
1315.44662842,0.01511732
1317.37543579,0.01533564
1319.30424316,0.01557809
1321.23305054,0.01627045
1323.16185791,0.01665412
1325.09066528,0.01705268
1327.01947266,0.01756510
1328.94828003,0.01783447
1330.87708740,0.01818575
1332.80589478,0.01857516
1334.73470215,0.01903897
1336.66350952,0.01930438
1338.59231689,0.01905524
1340.52112427,0.01931802
1342.44993164,0.01993253
1344.37873901,0.02015659
1346.30754639,0.02027803
1348.23635376,0.01997576
1350.16516113,0.01986570
1352.09396851,0.01994794
1354.02277588,0.01961401
1355.95158325,0.01950110
1357.88039062,0.01934587
1359.80919800,0.01918047
1361.73800537,0.01840938
1363.66681274,0.01799872
1365.59562012,0.01889621
1367.52442749,0.01844805
1369.45323486,0.01804555
1371.38204224,0.01830098
1373.31084961,0.01764379
1375.23965698,0.01767552
1377.16846436,0.01809555
1379.09727173,0.01817340
1381.02607910,0.01792244
1382.95488647,0.01801613
1384.88369385,0.01809236
1386.81250122,0.01736051
1388.74130859,0.01763500
1390.67011597,0.01870074
1392.59892334,0.01848149
1394.52773071,0.01744436
1396.45653809,0.01809252
1398.38534546,0.01820467
1400.31415283,0.01796808
1402.24296021,0.01924215
1404.17176758,0.01840823
1406.10057495,0.01843879
1408.02938232,0.01908464
1409.95818970,0.01853115
1411.88699707,0.01867336
1413.81580444,0.01813647
1415.74461182,0.01854456
1417.67341919,0.01653580
1419.60222656,0.01511373
1421.53103394,0.01734583
1423.45984131,0.01655767
1425.38864868,0.01626840
1427.31745605,0.01647298
1429.24626343,0.01510972
1431.17507080,0.01490211
1433.10387817,0.01496679
1435.03268555,0.01367189
1436.96149292,0.01205857
1438.89030029,0.01335333
1440.81910767,0.01362998
1442.74791504,0.01272476
1444.67672241,0.01305655
1446.60552979,0.01233508
1448.53433716,0.01261923
1450.46314453,0.01273198
1452.39195190,0.01302195
1454.32075928,0.01356754
1456.24956665,0.01132113
1458.17837402,0.01180110
1460.10718140,0.01522987
1462.03598877,0.01607580
1463.96479614,0.01612981
1465.89360352,0.01680831
1467.82241089,0.01898973
1469.75121826,0.02015510
1471.68002563,0.01806212
1473.60883301,0.01914668
1475.53764038,0.02152343
1477.46644775,0.02285508
1479.39525513,0.02503039
1481.32406250,0.02562097
1483.25286987,0.02703883
1485.18167725,0.02771647
1487.11048462,0.02741599
1489.03929199,0.02717907
1490.96809937,0.02741172
1492.89690674,0.03155841
1494.82571411,0.03067683
1496.75452148,0.02802026
1498.68332886,0.03131939
1500.61213623,0.03215186
1502.54094360,0.03452541
1504.46975098,0.03234079
1506.39855835,0.02418217
1508.32736572,0.02954132
1510.25617310,0.03397098
1512.18498047,0.03285740
1514.11378784,0.03530980
1516.04259521,0.03193271
1517.97140259,0.03336077
1519.90020996,0.03218486
1521.82901733,0.02826129
1523.75782471,0.03421152
1525.68663208,0.03359108
1527.61543945,0.03347339
1529.54424683,0.03668045
1531.47305420,0.03520732
1533.40186157,0.03238117
1535.33066895,0.03441226
1537.25947632,0.03638967
1539.18828369,0.02641602
1541.11709106,0.02787464
1543.04589844,0.03282441
1544.97470581,0.03154632
1546.90351318,0.03692206
1548.83232056,0.03447402
1550.76112793,0.03557990
1552.68993530,0.03515255
1554.61874268,0.03230353
1556.54755005,0.03442658
1558.47635742,0.02459592
1560.40516479,0.02664639
1562.33397217,0.03700824
1564.26277954,0.03492438
1566.19158691,0.03597513
1568.12039429,0.03551525
1570.04920166,0.03161326
1571.97800903,0.03643643
1573.90681641,0.03641444
1575.83562378,0.02917276
1577.76443115,0.03306840
1579.69323853,0.03647631
1581.62204590,0.03516246
1583.55085327,0.03620110
1585.47966064,0.03536967
1587.40846802,0.03579755
1589.33727539,0.03544066
1591.26608276,0.03544319
1593.19489014,0.03534284
1595.12369751,0.03493309
1597.05250488,0.03544261
1598.98131226,0.03504978
1600.91011963,0.03532273
1602.83892700,0.03465091
1604.76773437,0.03512469
1606.69654175,0.03459040
1608.62534912,0.03471013
1610.55415649,0.03451409
1612.48296387,0.03469447
1614.41177124,0.03538152
1616.34057861,0.02911232
1618.26938599,0.03188524
1620.19819336,0.03665030
1622.12700073,0.03258816
1624.05580811,0.03311699
1625.98461548,0.03467306
1627.91342285,0.03473702
1629.84223022,0.03470578
1631.77103760,0.03719712
1633.69984497,0.03453497
1635.62865234,0.02918572
1637.55745972,0.03397921
1639.48626709,0.03712555
1641.41507446,0.03653872
1643.34388184,0.03767920
1645.27268921,0.03435627
1647.20149658,0.03068165
1649.13030396,0.03799143
1651.05911133,0.03585007
1652.98791870,0.02396422
1654.91672607,0.03255410
1656.84553345,0.04015791
1658.77434082,0.03882299
1660.70314819,0.03967735
1662.63195557,0.03640072
1664.56076294,0.03876753
1666.48957031,0.04130442
1668.41837769,0.03646891
1670.34718506,0.03568950
1672.27599243,0.04033117
1674.20479980,0.03734700
1676.13360718,0.03614274
1678.06241455,0.04137415
1679.99122192,0.03983529
1681.92002930,0.03947192
1683.84883667,0.03225155
1685.77764404,0.03243735
1687.70645142,0.04344980
1689.63525879,0.03772512
1691.56406616,0.04173467
1693.49287354,0.04206304
1695.42168091,0.03133598
1697.35048828,0.03816749
1699.27929565,0.03355675
1701.20810303,0.03088772
1703.13691040,0.04101831
1705.06571777,0.03758565
1706.99452515,0.03805660
1708.92333252,0.04096179
1710.85213989,0.03920467
1712.78094727,0.03977267
1714.70975464,0.03698121
1716.63856201,0.03331020
1718.56736938,0.03301013
1720.49617676,0.03875745
1722.42498413,0.03968361
1724.35379150,0.03707536
1726.28259888,0.04005253
1728.21140625,0.03688411
1730.14021362,0.03749359
1732.06902100,0.03619786
1733.99782837,0.02794039
1735.92663574,0.03455304
1737.85544312,0.03765597
1739.78425049,0.03374046
1741.71305786,0.03663370
1743.64186523,0.03707764
1745.57067261,0.03696401
1747.49947998,0.03722682
1749.42828735,0.03564890
1751.35709473,0.03406349
1753.28590210,0.03768736
1755.21470947,0.03897407
1757.14351685,0.03577168
1759.07232422,0.03927319
1761.00113159,0.03682534
1762.92993896,0.03579299
1764.85874634,0.04035322
1766.78755371,0.03650348
1768.71636108,0.03682509
1770.64516846,0.03629514
1772.57397583,0.03298500
1774.50278320,0.03654212
1776.43159058,0.03838614
1778.36039795,0.03791209
1780.28920532,0.03741534
1782.21801270,0.03762402
1784.14682007,0.03748445
1786.07562744,0.03672899
1788.00443481,0.03846252
1789.93324219,0.03746669
1791.86204956,0.03404478
1793.79085693,0.03549872
1795.71966431,0.03793427
1797.64847168,0.03739240
1799.57727905,0.03680769
1801.50608643,0.03619080
1803.43489380,0.03732513
1805.36370117,0.03795256
1807.29250854,0.03745556
1809.22131592,0.03765570
1811.15012329,0.03659408
1813.07893066,0.03756595
1815.00773804,0.03763057
1816.93654541,0.03727371
1818.86535278,0.03757739
1820.79416016,0.03729381
1822.72296753,0.03781955
1824.65177490,0.03545987
1826.58058228,0.03664561
1828.50938965,0.03659216
1830.43819702,0.03446870
1832.36700439,0.03747009
1834.29581177,0.03703886
1836.22461914,0.03700539
1838.15342651,0.03700893
1840.08223389,0.03712118
1842.01104126,0.03688033
1843.93984863,0.03290457
1845.86865601,0.03519683
1847.79746338,0.03679529
1849.72627075,0.03601629
1851.65507812,0.03704916
1853.58388550,0.03620476
1855.51269287,0.03670366
1857.44150024,0.03645453
1859.37030762,0.03621300
1861.29911499,0.03636348
1863.22792236,0.03598757
1865.15672974,0.03635778
1867.08553711,0.03502088
1869.01434448,0.03379820
1870.94315186,0.03509988
1872.87195923,0.03625078
1874.80076660,0.03555930
1876.72957397,0.03581022
1878.65838135,0.03584193
1880.58718872,0.03547385
1882.51599609,0.03572850
1884.44480347,0.03509844
1886.37361084,0.03546058
1888.30241821,0.03472930
1890.23122559,0.03413194
1892.16003296,0.03533164
1894.08884033,0.03488141
1896.01764771,0.03466210
1897.94645508,0.03489330
1899.87526245,0.03486995
1901.80406982,0.03481953
1903.73287720,0.03450521
1905.66168457,0.03473511
1907.59049194,0.03436720
1909.51929932,0.03416675
1911.44810669,0.03433886
1913.37691406,0.03445192
1915.30572144,0.03463748
1917.23452881,0.03320730
1919.16333618,0.03333379
1921.09214355,0.03429940
1923.02095093,0.03318734
1924.94975830,0.03389510
1926.87856567,0.03423198
1928.80737305,0.03372829
1930.73618042,0.03414926
1932.66498779,0.03363108
1934.59379517,0.03391417
1936.52260254,0.03375197
1938.45140991,0.03359522
1940.38021729,0.03379054
1942.30902466,0.03278855
1944.23783203,0.03303432
1946.16663940,0.03348712
1948.09544678,0.03336881
1950.02425415,0.03350858
1951.95306152,0.03341606
1953.88186890,0.03319345
1955.81067627,0.03325857
1957.73948364,0.03340337
1959.66829102,0.03318124
1961.59709839,0.03321635
1963.52590576,0.03320033
1965.45471313,0.03304856
1967.38352051,0.03282483
1969.31232788,0.03289761
1971.24113525,0.03298490
1973.16994263,0.03276422
1975.09875000,0.03300221
1977.02755737,0.03277239
1978.95636475,0.03277629
1980.88517212,0.03281216
1982.81397949,0.03264348
1984.74278687,0.03285914
1986.67159424,0.03239892
1988.60040161,0.03236781
1990.52920898,0.03227831
1992.45801636,0.03189939
1994.38682373,0.03223781
1996.31563110,0.03233071
1998.24443848,0.03217489
2000.17324585,0.03209738
2002.10205322,0.03197115
2004.03086060,0.03193881
2005.95966797,0.03207319
2007.88847534,0.03178079
2009.81728271,0.03156382
2011.74609009,0.03170578
2013.67489746,0.03155798
2015.60370483,0.03132156
2017.53251221,0.03108530
2019.46131958,0.03121782
2021.39012695,0.03126091
2023.31893433,0.03110969
2025.24774170,0.03110031
2027.17654907,0.03094948
2029.10535645,0.03099208
2031.03416382,0.03099466
2032.96297119,0.03079704
2034.89177856,0.03066751
2036.82058594,0.03068789
2038.74939331,0.03057464
2040.67820068,0.03039245
2042.60700806,0.03034300
2044.53581543,0.03022387
2046.46462280,0.03029127
2048.39343018,0.03027669
2050.32223755,0.03011158
2052.25104492,0.03011335
2054.17985229,0.03007193
2056.10865967,0.03000192
2058.03746704,0.02999585
2059.96627441,0.02982644
2061.89508179,0.02971130
2063.82388916,0.02967552
2065.75269653,0.02946706
2067.68150391,0.02953124
2069.61031128,0.02950091
2071.53911865,0.02938991
2073.46792603,0.02940688
2075.39673340,0.02933174
2077.32554077,0.02933209
2079.25434814,0.02915596
2081.18315552,0.02922383
2083.11196289,0.02913616
2085.04077026,0.02891365
2086.96957764,0.02907152
2088.89838501,0.02880482
2090.82719238,0.02868912
2092.75599976,0.02889841
2094.68480713,0.02873490
2096.61361450,0.02859395
2098.54242187,0.02859289
2100.47122925,0.02836845
2102.40003662,0.02845594
2104.32884399,0.02857421
2106.25765137,0.02828465
2108.18645874,0.02832957
2110.11526611,0.02824186
2112.04407349,0.02819374
2113.97288086,0.02816626
2115.90168823,0.02791779
2117.83049561,0.02800533
2119.75930298,0.02794887
2121.68811035,0.02791952
2123.61691772,0.02790065
2125.54572510,0.02788980
2127.47453247,0.02788341
2129.40333984,0.02775551
2131.33214722,0.02780928
2133.26095459,0.02776359
2135.18976196,0.02777461
2137.11856934,0.02762278
2139.04737671,0.02751617
2140.97618408,0.02757743
2142.90499146,0.02750052
2144.83379883,0.02755855
2146.76260620,0.02743619
2148.69141357,0.02736863
2150.62022095,0.02742708
2152.54902832,0.02740828
2154.47783569,0.02723370
2156.40664307,0.02704566
2158.33545044,0.02715527
2160.26425781,0.02709951
2162.19306519,0.02703859
2164.12187256,0.02703685
2166.05067993,0.02704720
2167.97948730,0.02703376
2169.90829468,0.02684059
2171.83710205,0.02695593
2173.76590942,0.02693658
2175.69471680,0.02681013
2177.62352417,0.02691980
2179.55233154,0.02674029
2181.48113892,0.02674031
2183.40994629,0.02678014
2185.33875366,0.02654309
2187.26756104,0.02654216
2189.19636841,0.02652457
2191.12517578,0.02658433
2193.05398315,0.02652957
2194.98279053,0.02636407
2196.91159790,0.02648855
2198.84040527,0.02639419
2200.76921265,0.02633746
2202.69802002,0.02631452
2204.62682739,0.02628948
2206.55563477,0.02638168
2208.48444214,0.02617616
2210.41324951,0.02604243
2212.34205688,0.02612158
2214.27086426,0.02615022
2216.19967163,0.02597536
2218.12847900,0.02591917
2220.05728638,0.02584131
2221.98609375,0.02575171
2223.91490112,0.02600569
2225.84370850,0.02586626
2227.77251587,0.02575546
2229.70132324,0.02580145
2231.63013062,0.02569528
2233.55893799,0.02568810
2235.48774536,0.02551842
2237.41655273,0.02553115
2239.34536011,0.02552306
2241.27416748,0.02541626
2243.20297485,0.02542718
2245.13178223,0.02536874
2247.06058960,0.02533555
2248.98939697,0.02520984
2250.91820435,0.02518657
2252.84701172,0.02518430
2254.77581909,0.02503140
2256.70462646,0.02504114
2258.63343384,0.02504183
2260.56224121,0.02497552
2262.49104858,0.02505164
2264.41985596,0.02496323
2266.34866333,0.02485746
2268.27747070,0.02486537
2270.20627808,0.02473241
2272.13508545,0.02471670
2274.06389282,0.02466402
2275.99270020,0.02468437
2277.92150757,0.02469010
2279.85031494,0.02450429
2281.77912231,0.02459769
2283.70792969,0.02461573
2285.63673706,0.02450586
2287.56554443,0.02439665
2289.49435181,0.02429743
2291.42315918,0.02430676
2293.35196655,0.02421217
2295.28077393,0.02410720
2297.20958130,0.02399256
2299.13838867,0.02387977
2301.06719604,0.02379066
2302.99600342,0.02368510
2304.92481079,0.02357261
2306.85361816,0.02336136
2308.78242554,0.02311159
2310.71123291,0.02300356
2312.64004028,0.02273577
2314.56884766,0.02238128
2316.49765503,0.02218063
2318.42646240,0.02178224
2320.35526978,0.02153543
2322.28407715,0.02111520
2324.21288452,0.02070201
2326.14169189,0.02071016
2328.07049927,0.02039558
2329.99930664,0.02012424
2331.92811401,0.01995461
2333.85692139,0.01992307
2335.78572876,0.01978021
2337.71453613,0.01965838
2339.64334351,0.01983088
2341.57215088,0.01973723
2343.50095825,0.02005712
2345.42976562,0.02054080
2347.35857300,0.02149341
2349.28738037,0.02212603
2351.21618774,0.02113508
2353.14499512,0.02005137
2355.07380249,0.01915803
2357.00260986,0.01863551
2358.93141724,0.01823442
2360.86022461,0.01794427
2362.78903198,0.01806119
2364.71783936,0.01805025
2366.64664673,0.01845515
2368.57545410,0.01874525
2370.50426147,0.01916121
2372.43306885,0.01999281
2374.36187622,0.02052721
2376.29068359,0.02099201
2378.21949097,0.02145924
2380.14829834,0.02190523
2382.07710571,0.02212929
2384.00591309,0.02234040
2385.93472046,0.02241356
2387.86352783,0.02235363
2389.79233521,0.02240843
2391.72114258,0.02235429
2393.64994995,0.02232401
2395.57875732,0.02224202
2397.50756470,0.02231485
2399.43637207,0.02225240
2401.36517944,0.02207557
2403.29398682,0.02211017
2405.22279419,0.02202895
2407.15160156,0.02202927
2409.08040894,0.02194712
2411.00921631,0.02194437
2412.93802368,0.02195990
2414.86683105,0.02181746
2416.79563843,0.02191702
2418.72444580,0.02183402
2420.65325317,0.02169361
2422.58206055,0.02170951
2424.51086792,0.02170530
2426.43967529,0.02173300
2428.36848267,0.02156888
2430.29729004,0.02150551
2432.22609741,0.02153037
2434.15490479,0.02139797
2436.08371216,0.02142083
2438.01251953,0.02147746
2439.94132690,0.02145810
2441.87013428,0.02129278
2443.79894165,0.02122945
2445.72774902,0.02135370
2447.65655640,0.02119755
2449.58536377,0.02121307
2451.51417114,0.02126202
2453.44297852,0.02111138
2455.37178589,0.02116133
2457.30059326,0.02113975
2459.22940063,0.02105103
2461.15820801,0.02095143
2463.08701538,0.02087780
2465.01582275,0.02089553
2466.94463013,0.02095374
2468.87343750,0.02090519
2470.80224487,0.02082711
2472.73105225,0.02091959
2474.65985962,0.02079470
2476.58866699,0.02067803
2478.51747437,0.02072887
2480.44628174,0.02066273
2482.37508911,0.02053815
2484.30389648,0.02054845
2486.23270386,0.02056752
2488.16151123,0.02039639
2490.09031860,0.02044478
2492.01912598,0.02047617
2493.94793335,0.02034993
2495.87674072,0.02020031
2497.80554810,0.02018617
2499.73435547,0.02039696
2501.66316284,0.02025165
2503.59197021,0.02016515
2505.52077759,0.02022492
2507.44958496,0.02015719
2509.37839233,0.02017383
2511.30719971,0.02012229
2513.23600708,0.02002867
2515.16481445,0.02001596
2517.09362183,0.02003999
2519.02242920,0.01990151
2520.95123657,0.01994872
2522.88004395,0.02001108
2524.80885132,0.01982949
2526.73765869,0.01981643
2528.66646606,0.01981898
2530.59527344,0.01974714
2532.52408081,0.01964452
2534.45288818,0.01969137
2536.38169556,0.01961232
2538.31050293,0.01949167
2540.23931030,0.01960879
2542.16811768,0.01952147
2544.09692505,0.01946366
2546.02573242,0.01943550
2547.95453979,0.01947829
2549.88334717,0.01954390
2551.81215454,0.01938065
2553.74096191,0.01927974
2555.66976929,0.01929883
2557.59857666,0.01930413
2559.52738403,0.01916033
2561.45619141,0.01919250
2563.38499878,0.01928541
2565.31380615,0.01916209
2567.24261353,0.01900036
2569.17142090,0.01896000
2571.10022827,0.01906998
2573.02903564,0.01896348
2574.95784302,0.01885820
2576.88665039,0.01890793
2578.81545776,0.01898168
2580.74426514,0.01894677
2582.67307251,0.01875352
2584.60187988,0.01872694
2586.53068726,0.01875685
2588.45949463,0.01878988
2590.38830200,0.01880607
2592.31710937,0.01872733
2594.24591675,0.01854497
2596.17472412,0.01840704
2598.10353149,0.01843890
2600.03233887,0.01846047
2601.96114624,0.01849186
2603.88995361,0.01845142
2605.81876099,0.01836747
2607.74756836,0.01834364
2609.67637573,0.01839059
2611.60518311,0.01837184
2613.53399048,0.01821730
2615.46279785,0.01813932
2617.39160522,0.01821835
2619.32041260,0.01830042
2621.24921997,0.01818946
2623.17802734,0.01815981
2625.10683472,0.01809576
2627.03564209,0.01803732
2628.96444946,0.01799870
2630.89325684,0.01777792
2632.82206421,0.01789178
2634.75087158,0.01795156
2636.67967895,0.01787559
2638.60848633,0.01785021
2640.53729370,0.01772994
2642.46610107,0.01776945
2644.39490845,0.01774306
2646.32371582,0.01769914
2648.25252319,0.01768285
2650.18133057,0.01770047
2652.11013794,0.01767038
2654.03894531,0.01755225
2655.96775269,0.01757877
2657.89656006,0.01755372
2659.82536743,0.01746912
2661.75417480,0.01741930
2663.68298218,0.01736080
2665.61178955,0.01724586
2667.54059692,0.01724843
2669.46940430,0.01722173
2671.39821167,0.01713466
2673.32701904,0.01716286
2675.25582642,0.01716761
2677.18463379,0.01726936
2679.11344116,0.01718632
2681.04224854,0.01714588
2682.97105591,0.01714334
2684.89986328,0.01699138
2686.82867065,0.01697480
2688.75747803,0.01680931
2690.68628540,0.01683872
2692.61509277,0.01685251
2694.54390015,0.01674839
2696.47270752,0.01683990
2698.40151489,0.01675139
2700.33032227,0.01665222
2702.25912964,0.01667428
2704.18793701,0.01672582
2706.11674438,0.01658124
2708.04555176,0.01646385
2709.97435913,0.01659313
2711.90316650,0.01664059
2713.83197388,0.01650751
2715.76078125,0.01636906
2717.68958862,0.01639473
2719.61839600,0.01637046
2721.54720337,0.01641447
2723.47601074,0.01643050
2725.40481812,0.01637710
2727.33362549,0.01635926
2729.26243286,0.01624394
2731.19124023,0.01623637
2733.12004761,0.01616651
2735.04885498,0.01609584
2736.97766235,0.01601388
2738.90646973,0.01598480
2740.83527710,0.01612429
2742.76408447,0.01605115
2744.69289185,0.01589959
2746.62169922,0.01584268
2748.55050659,0.01585503
2750.47931396,0.01578711
2752.40812134,0.01576075
2754.33692871,0.01579009
2756.26573608,0.01573344
2758.19454346,0.01568849
2760.12335083,0.01565816
2762.05215820,0.01568769
2763.98096558,0.01559176
2765.90977295,0.01556846
2767.83858032,0.01552048
2769.76738770,0.01542041
2771.69619507,0.01547173
2773.62500244,0.01541259
2775.55380981,0.01543201
2777.48261719,0.01536211
2779.41142456,0.01526915
2781.34023193,0.01523285
2783.26903931,0.01517718
2785.19784668,0.01521401
2787.12665405,0.01513336
2789.05546143,0.01509577
2790.98426880,0.01501140
2792.91307617,0.01499111
2794.84188354,0.01504868
2796.77069092,0.01499176
2798.69949829,0.01496317
2800.62830566,0.01492551
2802.55711304,0.01489531
2804.48592041,0.01483596
2806.41472778,0.01485587
2808.34353516,0.01474547
2810.27234253,0.01462308
2812.20114990,0.01464794
2814.12995728,0.01455807
2816.05876465,0.01454664
2817.98757202,0.01451648
2819.91637939,0.01448265
2821.84518677,0.01447173
2823.77399414,0.01443823
2825.70280151,0.01435238
2827.63160889,0.01430361
2829.56041626,0.01430735
2831.48922363,0.01415195
2833.41803101,0.01420505
2835.34683838,0.01414557
2837.27564575,0.01404445
2839.20445312,0.01419009
2841.13326050,0.01403906
2843.06206787,0.01393902
2844.99087524,0.01396024
2846.91968262,0.01381133
2848.84848999,0.01371340
2850.77729736,0.01369609
2852.70610474,0.01362655
2854.63491211,0.01363548
2856.56371948,0.01363487
2858.49252686,0.01348606
2860.42133423,0.01346950
2862.35014160,0.01352962
2864.27894897,0.01360653
2866.20775635,0.01355190
2868.13656372,0.01335971
2870.06537109,0.01332252
2871.99417847,0.01338969
2873.92298584,0.01338039
2875.85179321,0.01326466
2877.78060059,0.01331590
2879.70940796,0.01327542
2881.63821533,0.01311109
2883.56702270,0.01317522
2885.49583008,0.01317011
2887.42463745,0.01310385
2889.35344482,0.01309312
2891.28225220,0.01302112
2893.21105957,0.01298246
2895.13986694,0.01297411
2897.06867432,0.01291911
2898.99748169,0.01289827
2900.92628906,0.01279226
2902.85509644,0.01270915
2904.78390381,0.01274889
2906.71271118,0.01274314
2908.64151855,0.01269913
2910.57032593,0.01252674
2912.49913330,0.01258847
2914.42794067,0.01253234
2916.35674805,0.01221074
2918.28555542,0.01229563
2920.21436279,0.01231639
2922.14317017,0.01228420
2924.07197754,0.01225844
2926.00078491,0.01220911
2927.92959229,0.01225481
2929.85839966,0.01215085
2931.78720703,0.01219434
2933.71601440,0.01220107
2935.64482178,0.01212246
2937.57362915,0.01209847
2939.50243652,0.01207391
2941.43124390,0.01203256
2943.36005127,0.01195787
2945.28885864,0.01204217
2947.21766602,0.01198765
2949.14647339,0.01184941
2951.07528076,0.01177984
2953.00408813,0.01177784
2954.93289551,0.01181862
2956.86170288,0.01176820
2958.79051025,0.01175819
2960.71931763,0.01163615
2962.64812500,0.01161361
2964.57693237,0.01165953
2966.50573975,0.01165523
2968.43454712,0.01166995
2970.36335449,0.01151111
2972.29216187,0.01151810
2974.22096924,0.01153038
2976.14977661,0.01148434
2978.07858398,0.01155577
2980.00739136,0.01151894
2981.93619873,0.01152170
2983.86500610,0.01150881
2985.79381348,0.01144002
2987.72262085,0.01138718
2989.65142822,0.01138504
2991.58023560,0.01141000
2993.50904297,0.01129754
2995.43785034,0.01122744
2997.36665771,0.01122326
2999.29546509,0.01117515
3001.22427246,0.01117353
3003.15307983,0.01124415
3005.08188721,0.01123204
3007.01069458,0.01108977
3008.93950195,0.01112108
3010.86830933,0.01114932
3012.79711670,0.01098410
3014.72592407,0.01091278
3016.65473145,0.01090920
3018.58353882,0.01095499
3020.51234619,0.01090397
3022.44115356,0.01079047
3024.36996094,0.01077838
3026.29876831,0.01075514
3028.22757568,0.01084559
3030.15638306,0.01076317
3032.08519043,0.01064667
3034.01399780,0.01065052
3035.94280518,0.01047209
3037.87161255,0.01055663
3039.80041992,0.01058004
3041.72922729,0.01041810
3043.65803467,0.01056840
3045.58684204,0.01053942
3047.51564941,0.01031557
3049.44445679,0.01035055
3051.37326416,0.01042347
3053.30207153,0.01033983
3055.23087891,0.01031099
3057.15968628,0.01025947
3059.08849365,0.01018547
3061.01730103,0.01019749
3062.94610840,0.01012876
3064.87491577,0.01008235
3066.80372314,0.01010983
3068.73253052,0.01010207
3070.66133789,0.01001001
3072.59014526,0.00999026
3074.51895264,0.01000733
3076.44776001,0.00995240
3078.37656738,0.01001641
3080.30537476,0.00997379
3082.23418213,0.00989192
3084.16298950,0.00989799
3086.09179687,0.00985191
3088.02060425,0.00986887
3089.94941162,0.00980461
3091.87821899,0.00970598
3093.80702637,0.00966954
3095.73583374,0.00967036
3097.66464111,0.00962561
3099.59344849,0.00944107
3101.52225586,0.00944096
3103.45106323,0.00952861
3105.37987061,0.00954598
3107.30867798,0.00959142
3109.23748535,0.00947506
3111.16629272,0.00933481
3113.09510010,0.00933197
3115.02390747,0.00938368
3116.95271484,0.00936998
3118.88152222,0.00924469
3120.81032959,0.00919856
3122.73913696,0.00918677
3124.66794434,0.00920679
3126.59675171,0.00922854
3128.52555908,0.00914884
3130.45436645,0.00911342
3132.38317383,0.00904930
3134.31198120,0.00903904
3136.24078857,0.00913710
3138.16959595,0.00905429
3140.09840332,0.00891683
3142.02721069,0.00900163
3143.95601807,0.00893381
3145.88482544,0.00878386
3147.81363281,0.00890569
3149.74244019,0.00876448
3151.67124756,0.00872331
3153.60005493,0.00883366
3155.52886230,0.00864254
3157.45766968,0.00870289
3159.38647705,0.00871079
3161.31528442,0.00869169
3163.24409180,0.00879954
3165.17289917,0.00873126
3167.10170654,0.00865892
3169.03051392,0.00854067
3170.95932129,0.00853116
3172.88812866,0.00855381
3174.81693604,0.00856994
3176.74574341,0.00853078
3178.67455078,0.00844981
3180.60335815,0.00850156
3182.53216553,0.00849617
3184.46097290,0.00853179
3186.38978027,0.00846451
3188.31858765,0.00844432
3190.24739502,0.00847051
3192.17620239,0.00834818
3194.10500977,0.00834369
3196.03381714,0.00836685
3197.96262451,0.00842970
3199.89143188,0.00834166
3201.82023926,0.00829430
3203.74904663,0.00842327
3205.67785400,0.00840236
3207.60666138,0.00834836
3209.53546875,0.00829290
3211.46427612,0.00835028
3213.39308350,0.00839558
3215.32189087,0.00835636
3217.25069824,0.00829307
3219.17950562,0.00824833
3221.10831299,0.00828802
3223.03712036,0.00829542
3224.96592773,0.00836743
3226.89473511,0.00838968
3228.82354248,0.00834603
3230.75234985,0.00827313
3232.68115723,0.00831650
3234.60996460,0.00839494
3236.53877197,0.00826627
3238.46757935,0.00834308
3240.39638672,0.00844011
3242.32519409,0.00834585
3244.25400146,0.00831982
3246.18280884,0.00835600
3248.11161621,0.00834359
3250.04042358,0.00840221
3251.96923096,0.00848119
3253.89803833,0.00836870
3255.82684570,0.00844027
3257.75565308,0.00848217
3259.68446045,0.00833952
3261.61326782,0.00834341
3263.54207520,0.00843852
3265.47088257,0.00846918
3267.39968994,0.00838170
3269.32849731,0.00855614
3271.25730469,0.00859722
3273.18611206,0.00835336
3275.11491943,0.00841033
3277.04372681,0.00845328
3278.97253418,0.00840507
3280.90134155,0.00847170
3282.83014893,0.00844116
3284.75895630,0.00843458
3286.68776367,0.00856856
3288.61657104,0.00853827
3290.54537842,0.00849107
3292.47418579,0.00846720
3294.40299316,0.00855049
3296.33180054,0.00870418
3298.26060791,0.00849395
3300.18941528,0.00851902
3302.11822266,0.00866496
3304.04703003,0.00858876
3305.97583740,0.00856229
3307.90464478,0.00854267
3309.83345215,0.00865998
3311.76225952,0.00868927
3313.69106689,0.00873245
3315.61987427,0.00869438
3317.54868164,0.00858776
3319.47748901,0.00865210
3321.40629639,0.00863576
3323.33510376,0.00869253
3325.26391113,0.00866395
3327.19271851,0.00862911
3329.12152588,0.00870091
3331.05033325,0.00868048
3332.97914062,0.00862744
3334.90794800,0.00868271
3336.83675537,0.00877086
3338.76556274,0.00868311
3340.69437012,0.00875375
3342.62317749,0.00879323
3344.55198486,0.00880926
3346.48079224,0.00889615
3348.40959961,0.00880535
3350.33840698,0.00880099
3352.26721436,0.00882792
3354.19602173,0.00889115
3356.12482910,0.00891236
3358.05363647,0.00896886
3359.98244385,0.00894001
3361.91125122,0.00886024
3363.84005859,0.00897686
3365.76886597,0.00888065
3367.69767334,0.00894224
3369.62648071,0.00901303
3371.55528809,0.00894617
3373.48409546,0.00901091
3375.41290283,0.00897492
3377.34171020,0.00901570
3379.27051758,0.00910689
3381.19932495,0.00920706
3383.12813232,0.00912647
3385.05693970,0.00910945
3386.98574707,0.00921684
3388.91455444,0.00916276
3390.84336182,0.00918448
3392.77216919,0.00914369
3394.70097656,0.00924210
3396.62978394,0.00927494
3398.55859131,0.00922180
3400.48739868,0.00928110
3402.41620605,0.00923819
3404.34501343,0.00940502
3406.27382080,0.00936528
3408.20262817,0.00926626
3410.13143555,0.00948300
3412.06024292,0.00942689
3413.98905029,0.00925096
3415.91785767,0.00939729
3417.84666504,0.00961623
3419.77547241,0.00947444
3421.70427979,0.00940092
3423.63308716,0.00959086
3425.56189453,0.00957460
3427.49070190,0.00957408
3429.41950928,0.00967349
3431.34831665,0.00968044
3433.27712402,0.00967237
3435.20593140,0.00961973
3437.13473877,0.00972617
3439.06354614,0.00980336
3440.99235352,0.00962662
3442.92116089,0.00968861
3444.84996826,0.00978070
3446.77877563,0.00968083
3448.70758301,0.00972318
3450.63639038,0.00986929
3452.56519775,0.00989222
3454.49400513,0.00992948
3456.42281250,0.00997699
3458.35161987,0.00980241
3460.28042725,0.00984788
3462.20923462,0.00986124
3464.13804199,0.00985900
3466.06684937,0.01002206
3467.99565674,0.00985248
3469.92446411,0.00993714
3471.85327148,0.01002657
3473.78207886,0.01000463
3475.71088623,0.01011725
3477.63969360,0.01003599
3479.56850098,0.00999329
3481.49730835,0.00985409
3483.42611572,0.00996873
3485.35492310,0.01008620
3487.28373047,0.00996216
3489.21253784,0.01010618
3491.14134521,0.01017609
3493.07015259,0.01015952
3494.99895996,0.01008483
3496.92776733,0.01007919
3498.85657471,0.01021756
3500.78538208,0.01014994
3502.71418945,0.00995617
3504.64299683,0.01005718
3506.57180420,0.01024719
3508.50061157,0.01010413
3510.42941895,0.01011600
3512.35822632,0.01021729
3514.28703369,0.01018588
3516.21584106,0.01022719
3518.14464844,0.01028895
3520.07345581,0.01032034
3522.00226318,0.01027461
3523.93107056,0.01019587
3525.85987793,0.01007815
3527.78868530,0.01013706
3529.71749268,0.01023943
3531.64630005,0.01030282
3533.57510742,0.01039075
3535.50391479,0.01026471
3537.43272217,0.01022387
3539.36152954,0.01027685
3541.29033691,0.01029077
3543.21914429,0.01034603
3545.14795166,0.01014564
3547.07675903,0.00989573
3549.00556641,0.01017491
3550.93437378,0.01023345
3552.86318115,0.01001461
3554.79198853,0.01029587
3556.72079590,0.01030491
3558.64960327,0.01017423
3560.57841064,0.01014186
3562.50721802,0.01016010
3564.43602539,0.01025073
3566.36483276,0.00961438
3568.29364014,0.00936143
3570.22244751,0.01007422
3572.15125488,0.01035433
3574.08006226,0.01019163
3576.00886963,0.01026730
3577.93767700,0.01018007
3579.86648437,0.01001534
3581.79529175,0.01011126
3583.72409912,0.01016972
3585.65290649,0.00992323
3587.58171387,0.00919812
3589.51052124,0.00943078
3591.43932861,0.01018371
3593.36813599,0.00989551
3595.29694336,0.00973423
3597.22575073,0.00995338
3599.15455811,0.01000809
3601.08336548,0.00985200
3603.01217285,0.00993996
3604.94098022,0.01015990
3606.86978760,0.00974517
3608.79859497,0.00910055
3610.72740234,0.00932540
3612.65620972,0.00959573
3614.58501709,0.00937840
3616.51382446,0.00991879
3618.44263184,0.00919380
3620.37143921,0.00892457
3622.30024658,0.00997178
3624.22905395,0.00974993
3626.15786133,0.01010552
3628.08666870,0.00868536
3630.01547607,0.00799716
3631.94428345,0.00978347
3633.87309082,0.00954370
3635.80189819,0.00975439
3637.73070557,0.00990317
3639.65951294,0.00967336
3641.58832031,0.00980998
3643.51712769,0.00969627
3645.44593506,0.00973170
3647.37474243,0.00877548
3649.30354980,0.00809228
3651.23235718,0.00823592
3653.16116455,0.00963438
3655.08997192,0.00948783
3657.01877930,0.00856599
3658.94758667,0.00976017
3660.87639404,0.00948210
3662.80520142,0.00959147
3664.73400879,0.00960778
3666.66281616,0.00938240
3668.59162354,0.00908713
3670.52043091,0.00758156
3672.44923828,0.00894147
3674.37804565,0.00850270
3676.30685303,0.00728711
3678.23566040,0.00887168
3680.16446777,0.00901275
3682.09327515,0.00912879
3684.02208252,0.00921663
3685.95088989,0.00908731
3687.87969727,0.00820168
3689.80850464,0.00756150
3691.73731201,0.00856926
3693.66611938,0.00864558
3695.59492676,0.00889080
3697.52373413,0.00886322
3699.45254150,0.00880354
3701.38134888,0.00858608
3703.31015625,0.00821743
3705.23896362,0.00899757
3707.16777100,0.00849069
3709.09657837,0.00823678
3711.02538574,0.00774420
3712.95419312,0.00740283
3714.88300049,0.00848223
3716.81180786,0.00831375
3718.74061523,0.00842627
3720.66942261,0.00810621
3722.59822998,0.00805472
3724.52703735,0.00821661
3726.45584473,0.00748842
3728.38465210,0.00823239
3730.31345947,0.00802766
3732.24226685,0.00744967
3734.17107422,0.00727218
3736.09988159,0.00685340
3738.02868896,0.00728268
3739.95749634,0.00788448
3741.88630371,0.00822281
3743.81511108,0.00640622
3745.74391846,0.00606192
3747.67272583,0.00775905
3749.60153320,0.00667145
3751.53034058,0.00616471
3753.45914795,0.00710055
3755.38795532,0.00753301
3757.31676270,0.00777353
3759.24557007,0.00725488
3761.17437744,0.00744612
3763.10318481,0.00793983
3765.03199219,0.00742915
3766.96079956,0.00754749
3768.88960693,0.00751386
3770.81841431,0.00715103
3772.74722168,0.00761934
3774.67602905,0.00767822
3776.60483643,0.00773589
3778.53364380,0.00744177
3780.46245117,0.00721192
3782.39125854,0.00765163
3784.32006592,0.00738669
3786.24887329,0.00737427
3788.17768066,0.00751637
3790.10648804,0.00744301
3792.03529541,0.00735389
3793.96410278,0.00748973
3795.89291016,0.00702976
3797.82171753,0.00690096
3799.75052490,0.00728053
3801.67933228,0.00582942
3803.60813965,0.00682532
3805.53694702,0.00740380
3807.46575439,0.00611725
3809.39456177,0.00724118
3811.32336914,0.00710615
3813.25217651,0.00734398
3815.18098389,0.00657397
3817.10979126,0.00589358
3819.03859863,0.00724822
3820.96740601,0.00595428
3822.89621338,0.00637854
3824.82502075,0.00720643
3826.75382812,0.00661359
3828.68263550,0.00707564
3830.61144287,0.00675321
3832.54025024,0.00654833
3834.46905762,0.00663599
3836.39786499,0.00640691
3838.32667236,0.00576795
3840.25547974,0.00624035
3842.18428711,0.00672358
3844.11309448,0.00634168
3846.04190186,0.00685398
3847.97070923,0.00671004
3849.89951660,0.00674746
3851.82832397,0.00607175
3853.75713135,0.00453991
3855.68593872,0.00544435
3857.61474609,0.00681731
3859.54355347,0.00653451
3861.47236084,0.00642935
3863.40116821,0.00645671
3865.32997559,0.00601369
3867.25878296,0.00657493
3869.18759033,0.00603359
3871.11639770,0.00561718
3873.04520508,0.00655719
3874.97401245,0.00605325
3876.90281982,0.00658871
3878.83162720,0.00660690
3880.76043457,0.00571101
3882.68924194,0.00652850
3884.61804932,0.00607123
3886.54685669,0.00565460
3888.47566406,0.00647483
3890.40447144,0.00615071
3892.33327881,0.00582197
3894.26208618,0.00626431
3896.19089355,0.00632149
3898.11970093,0.00610167
3900.04850830,0.00586509
3901.97731567,0.00571495
3903.90612305,0.00567512
3905.83493042,0.00577054
3907.76373779,0.00619635
3909.69254517,0.00618686
3911.62135254,0.00618732
3913.55015991,0.00627520
3915.47896728,0.00596945
3917.40777466,0.00585025
3919.33658203,0.00588058
3921.26538940,0.00610324
3923.19419678,0.00610257
3925.12300415,0.00594926
3927.05181152,0.00592014
3928.98061890,0.00599790
3930.90942627,0.00597613
3932.83823364,0.00575806
3934.76704102,0.00599775
3936.69584839,0.00595479
3938.62465576,0.00586772
3940.55346313,0.00596461
3942.48227051,0.00574539
3944.41107788,0.00580621
3946.33988525,0.00583685
3948.26869263,0.00578698
3950.19750000,0.00577345
3952.12630737,0.00583729
3954.05511475,0.00587915
3955.98392212,0.00580021
3957.91272949,0.00585339
3959.84153687,0.00577729
3961.77034424,0.00574488
3963.69915161,0.00575549
3965.62795898,0.00570895
3967.55676636,0.00573698
3969.48557373,0.00573931
3971.41438110,0.00575608
3973.34318848,0.00580087
3975.27199585,0.00563541
3977.20080322,0.00552929
3979.12961060,0.00566620
3981.05841797,0.00557759
3982.98722534,0.00562824
3984.91603271,0.00566411
3986.84484009,0.00554619
3988.77364746,0.00557827
3990.70245483,0.00554498
3992.63126221,0.00558714
3994.56006958,0.00553805
3996.48887695,0.00555918
3998.41768433,0.00553057
4000.34649170,0.00544737
4002.27529907,0.00550619
4004.20410645,0.00543434
4006.13291382,0.00545675
4008.06172119,0.00538551
4009.99052856,0.00544925
4011.91933594,0.00549181
4013.84814331,0.00531117
4015.77695068,0.00536382
4017.70575806,0.00541044
4019.63456543,0.00539704
4021.56337280,0.00533608
4023.49218018,0.00535946
4025.42098755,0.00529457
4027.34979492,0.00523215
4029.27860229,0.00529050
4031.20740967,0.00521130
4033.13621704,0.00525651
4035.06502441,0.00521876
4036.99383179,0.00521196
4038.92263916,0.00520801
4040.85144653,0.00512209
4042.78025391,0.00518153
4044.70906128,0.00509960
4046.63786865,0.00510888
4048.56667603,0.00521700
4050.49548340,0.00512238
4052.42429077,0.00509714
4054.35309814,0.00518646
4056.28190552,0.00509858
4058.21071289,0.00512442
4060.13952026,0.00514520
4062.06832764,0.00504226
4063.99713501,0.00514714
4065.92594238,0.00503038
4067.85474976,0.00501311
4069.78355713,0.00505727
4071.71236450,0.00487473
4073.64117187,0.00490662
4075.56997925,0.00492940
4077.49878662,0.00496408
4079.42759399,0.00491924
4081.35640137,0.00490707
4083.28520874,0.00501329
4085.21401611,0.00491295
4087.14282349,0.00486114
4089.07163086,0.00483687
4091.00043823,0.00481052
4092.92924561,0.00484319
4094.85805298,0.00479424
4096.78686035,0.00474812
4098.71566772,0.00478121
4100.64447510,0.00477982
4102.57328247,0.00475655
4104.50208984,0.00475690
4106.43089722,0.00473676
4108.35970459,0.00471537
4110.28851196,0.00471630
4112.21731934,0.00474284
4114.14612671,0.00467805
4116.07493408,0.00467356
4118.00374145,0.00466681
4119.93254883,0.00466914
4121.86135620,0.00475585
4123.79016357,0.00462311
4125.71897095,0.00463560
4127.64777832,0.00464751
4129.57658569,0.00451182
4131.50539307,0.00456246
4133.43420044,0.00460036
4135.36300781,0.00457127
4137.29181519,0.00448212
4139.22062256,0.00447143
4141.14942993,0.00448781
4143.07823730,0.00453423
4145.00704468,0.00452303
4146.93585205,0.00443115
4148.86465942,0.00451189
4150.79346680,0.00445913
4152.72227417,0.00445591
4154.65108154,0.00449214
4156.57988892,0.00438501
4158.50869629,0.00440202
4160.43750366,0.00438574
4162.36631103,0.00434556
4164.29511841,0.00443092
4166.22392578,0.00446563
4168.15273315,0.00432704
4170.08154053,0.00433218
4172.01034790,0.00439140
4173.93915527,0.00435560
4175.86796265,0.00436362
4177.79677002,0.00431725
4179.72557739,0.00430644
4181.65438477,0.00422567
4183.58319214,0.00423847
4185.51199951,0.00436727
4187.44080688,0.00430850
4189.36961426,0.00422487
4191.29842163,0.00422463
4193.22722900,0.00422180
4195.15603638,0.00408331
4197.08484375,0.00414879
4199.01365112,0.00425803
4200.94245850,0.00408866
4202.87126587,0.00412081
4204.80007324,0.00414091
4206.72888062,0.00404701
4208.65768799,0.00414178
4210.58649536,0.00415010
4212.51530273,0.00411817
4214.44411011,0.00413547
4216.37291748,0.00405484
4218.30172485,0.00405729
4220.23053223,0.00404588
4222.15933960,0.00403914
4224.08814697,0.00401723
4226.01695435,0.00394770
4227.94576172,0.00409145
4229.87456909,0.00396712
4231.80337646,0.00384496
4233.73218384,0.00391829
4235.66099121,0.00386598
4237.58979858,0.00400706
4239.51860596,0.00397596
4241.44741333,0.00391127
4243.37622070,0.00393413
4245.30502808,0.00389531
4247.23383545,0.00388678
4249.16264282,0.00386218
4251.09145020,0.00397472
4253.02025757,0.00386279
4254.94906494,0.00386654
4256.87787231,0.00391534
4258.80667969,0.00381302
4260.73548706,0.00389254
4262.66429443,0.00372442
4264.59310181,0.00374795
4266.52190918,0.00378908
4268.45071655,0.00372557
4270.37952393,0.00388333
4272.30833130,0.00379338
4274.23713867,0.00377941
4276.16594604,0.00373972
4278.09475342,0.00366556
4280.02356079,0.00376582
4281.95236816,0.00370345
4283.88117554,0.00365254
4285.80998291,0.00370157
4287.73879028,0.00374451
4289.66759766,0.00367578
4291.59640503,0.00361290
4293.52521240,0.00367148
4295.45401978,0.00366410
4297.38282715,0.00359405
4299.31163452,0.00360453
4301.24044189,0.00362753
4303.16924927,0.00357006
4305.09805664,0.00357933
4307.02686401,0.00357523
4308.95567139,0.00358172
4310.88447876,0.00363810
4312.81328613,0.00363562
4314.74209351,0.00361365
4316.67090088,0.00347188
4318.59970825,0.00348133
4320.52851562,0.00357147
4322.45732300,0.00346701
4324.38613037,0.00352711
4326.31493774,0.00357997
4328.24374512,0.00346987
4330.17255249,0.00345396
4332.10135986,0.00348770
4334.03016724,0.00347039
4335.95897461,0.00338189
4337.88778198,0.00336274
4339.81658936,0.00339370
4341.74539673,0.00340070
4343.67420410,0.00346112
4345.60301147,0.00344699
4347.53181885,0.00340469
4349.46062622,0.00344359
4351.38943359,0.00344370
4353.31824097,0.00340228
4355.24704834,0.00335301
4357.17585571,0.00335179
4359.10466309,0.00341617
4361.03347046,0.00342537
4362.96227783,0.00340012
4364.89108520,0.00331823
4366.81989258,0.00322190
4368.74869995,0.00329726
4370.67750732,0.00328099
4372.60631470,0.00322095
4374.53512207,0.00331639
4376.46392944,0.00325911
4378.39273682,0.00322517
4380.32154419,0.00325023
4382.25035156,0.00321847
4384.17915894,0.00322906
4386.10796631,0.00320145
4388.03677368,0.00328214
4389.96558105,0.00325404
4391.89438843,0.00317411
4393.82319580,0.00323627
4395.75200317,0.00314233
4397.68081055,0.00311404
4399.60961792,0.00314372
4401.53842529,0.00315048
4403.46723267,0.00317560
4405.39604004,0.00307290
4407.32484741,0.00311108
4409.25365478,0.00316803
4411.18246216,0.00307404
4413.11126953,0.00313178
4415.04007690,0.00320933
4416.96888428,0.00317271
4418.89769165,0.00311593
4420.82649902,0.00304298
4422.75530640,0.00306668
4424.68411377,0.00303304
4426.61292114,0.00297628
4428.54172852,0.00304957
4430.47053589,0.00298396
4432.39934326,0.00297856
4434.32815063,0.00305354
4436.25695801,0.00303034
4438.18576538,0.00305682
4440.11457275,0.00301928
4442.04338013,0.00298374
4443.97218750,0.00297377
4445.90099487,0.00295132
4447.82980225,0.00297056
4449.75860962,0.00298280
4451.68741699,0.00300560
4453.61622437,0.00297245
4455.54503174,0.00290835
4457.47383911,0.00287622
4459.40264648,0.00285289
4461.33145386,0.00283653
4463.26026123,0.00286473
4465.18906860,0.00284017
4467.11787598,0.00282221
4469.04668335,0.00290369
4470.97549072,0.00287027
4472.90429810,0.00285763
4474.83310547,0.00284849
4476.76191284,0.00283413
4478.69072021,0.00288231
4480.61952759,0.00281160
4482.54833496,0.00280591
4484.47714233,0.00280338
4486.40594971,0.00280911
4488.33475708,0.00280095
4490.26356445,0.00272622
4492.19237183,0.00281559
4494.12117920,0.00281593
4496.04998657,0.00277777
4497.97879395,0.00283173
4499.90760132,0.00280039
4501.83640869,0.00269374
4503.76521606,0.00267894
4505.69402344,0.00275720
4507.62283081,0.00266067
4509.55163818,0.00258923
4511.48044556,0.00260876
4513.40925293,0.00264342
4515.33806030,0.00271387
4517.26686768,0.00267355
4519.19567505,0.00267896
4521.12448242,0.00270782
4523.05328979,0.00270982
4524.98209717,0.00263532
4526.91090454,0.00255064
4528.83971191,0.00266261
4530.76851929,0.00266618
4532.69732666,0.00261704
4534.62613403,0.00268109
4536.55494141,0.00267270
4538.48374878,0.00258509
4540.41255615,0.00251361
4542.34136353,0.00259929
4544.27017090,0.00264444
4546.19897827,0.00256990
4548.12778564,0.00256503
4550.05659302,0.00251447
4551.98540039,0.00253142
4553.91420776,0.00258335
4555.84301514,0.00252120
4557.77182251,0.00259615
4559.70062988,0.00261382
4561.62943726,0.00249936
4563.55824463,0.00251001
4565.48705200,0.00251576
4567.41585937,0.00246315
4569.34466675,0.00246913
4571.27347412,0.00255211
4573.20228149,0.00250178
4575.13108887,0.00243527
4577.05989624,0.00247697
4578.98870361,0.00244312
4580.91751099,0.00244795
4582.84631836,0.00237590
4584.77512573,0.00235505
4586.70393311,0.00246031
4588.63274048,0.00240699
4590.56154785,0.00233375
4592.49035522,0.00231370
4594.41916260,0.00240762
4596.34796997,0.00243230
4598.27677734,0.00237393
4600.20558472,0.00237740
4602.13439209,0.00234345
4604.06319946,0.00236170
4605.99200684,0.00230038
4607.92081421,0.00232405
4609.84962158,0.00234468
4611.77842895,0.00228875
4613.70723633,0.00239788
4615.63604370,0.00233686
4617.56485107,0.00229956
4619.49365845,0.00231944
4621.42246582,0.00228042
4623.35127319,0.00227920
4625.28008057,0.00224543
4627.20888794,0.00235881
4629.13769531,0.00232601
4631.06650269,0.00225221
4632.99531006,0.00233299
4634.92411743,0.00227145
4636.85292480,0.00223480
4638.78173218,0.00226059
4640.71053955,0.00223457
4642.63934692,0.00221148
4644.56815430,0.00222393
4646.49696167,0.00218474
4648.42576904,0.00219242
4650.35457642,0.00220054
4652.28338379,0.00216461
4654.21219116,0.00224955
4656.14099853,0.00219354
4658.06980591,0.00220602
4659.99861328,0.00225974
4661.92742065,0.00211492
4663.85622803,0.00214426
4665.78503540,0.00215569
4667.71384277,0.00209738
4669.64265015,0.00212037
4671.57145752,0.00213893
4673.50026489,0.00215525
4675.42907227,0.00213123
4677.35787964,0.00211089
4679.28668701,0.00210545
4681.21549438,0.00213202
4683.14430176,0.00209742
4685.07310913,0.00203333
4687.00191650,0.00205539
4688.93072388,0.00208660
4690.85953125,0.00207181
4692.78833862,0.00204077
4694.71714600,0.00203983
4696.64595337,0.00201972
4698.57476074,0.00206415
4700.50356812,0.00202341
4702.43237549,0.00197056
4704.36118286,0.00208965
4706.28999023,0.00206068
4708.21879761,0.00205253
4710.14760498,0.00203223
4712.07641235,0.00196467
4714.00521973,0.00209346
4715.93402710,0.00209395
4717.86283447,0.00198089
4719.79164185,0.00195082
4721.72044922,0.00195588
4723.64925659,0.00196458
4725.57806396,0.00201753
4727.50687134,0.00200781
4729.43567871,0.00194990
4731.36448608,0.00203407
4733.29329346,0.00192389
4735.22210083,0.00182198
4737.15090820,0.00198122
4739.07971558,0.00195636
4741.00852295,0.00186093
4742.93733032,0.00190232
4744.86613770,0.00195471
4746.79494507,0.00192807
4748.72375244,0.00192782
4750.65255981,0.00194621
4752.58136719,0.00190889
4754.51017456,0.00195965
4756.43898193,0.00194118
4758.36778931,0.00184846
4760.29659668,0.00185703
4762.22540405,0.00187760
4764.15421143,0.00191483
4766.08301880,0.00195678
4768.01182617,0.00190596
4769.94063354,0.00187504
4771.86944092,0.00193321
4773.79824829,0.00186509
4775.72705566,0.00180948
4777.65586304,0.00186018
4779.58467041,0.00177985
4781.51347778,0.00178289
4783.44228516,0.00187908
4785.37109253,0.00184288
4787.29989990,0.00181710
4789.22870728,0.00179272
4791.15751465,0.00176174
4793.08632202,0.00182570
4795.01512939,0.00180175
4796.94393677,0.00175845
4798.87274414,0.00183106
4800.80155151,0.00176995
4802.73035889,0.00173476
4804.65916626,0.00180499
4806.58797363,0.00176739
4808.51678101,0.00173096
4810.44558838,0.00166007
4812.37439575,0.00168377
4814.30320312,0.00181579
4816.23201050,0.00177684
4818.16081787,0.00176315
4820.08962524,0.00179154
4822.01843262,0.00171759
4823.94723999,0.00166028
4825.87604736,0.00166028
4827.80485474,0.00174424
4829.73366211,0.00176139
4831.66246948,0.00166017
4833.59127686,0.00168339
4835.52008423,0.00172214
4837.44889160,0.00167387
4839.37769897,0.00169979
4841.30650635,0.00168318
4843.23531372,0.00162120
4845.16412109,0.00165284
4847.09292847,0.00163354
4849.02173584,0.00162101
4850.95054321,0.00166937
4852.87935059,0.00162905
4854.80815796,0.00162473
4856.73696533,0.00166044
4858.66577270,0.00167846
4860.59458008,0.00167641
4862.52338745,0.00159366
4864.45219482,0.00158481
4866.38100220,0.00162887
4868.30980957,0.00165763
4870.23861694,0.00160051
4872.16742432,0.00152627
4874.09623169,0.00160578
4876.02503906,0.00158810
4877.95384644,0.00158941
4879.88265381,0.00159103
4881.81146118,0.00149620
4883.74026855,0.00157894
4885.66907593,0.00159469
4887.59788330,0.00154512
4889.52669067,0.00154515
4891.45549805,0.00153937
4893.38430542,0.00151720
4895.31311279,0.00149033
4897.24192017,0.00158520
4899.17072754,0.00155801
4901.09953491,0.00152036
4903.02834228,0.00153891
4904.95714966,0.00147638
4906.88595703,0.00149873
4908.81476440,0.00147201
4910.74357178,0.00147890
4912.67237915,0.00151244
4914.60118652,0.00144524
4916.52999390,0.00145560
4918.45880127,0.00154426
4920.38760864,0.00153224
4922.31641602,0.00142865
4924.24522339,0.00145966
4926.17403076,0.00147635
4928.10283813,0.00142396
4930.03164551,0.00145260
4931.96045288,0.00148805
4933.88926025,0.00146623
4935.81806763,0.00142333
4937.74687500,0.00143243
4939.67568237,0.00139870
4941.60448975,0.00144566
4943.53329712,0.00148263
4945.46210449,0.00135468
4947.39091187,0.00134255
4949.31971924,0.00143669
4951.24852661,0.00150306
4953.17733398,0.00142676
4955.10614136,0.00135346
4957.03494873,0.00134945
4958.96375610,0.00136204
4960.89256348,0.00144386
4962.82137085,0.00140247
4964.75017822,0.00140899
4966.67898560,0.00140385
4968.60779297,0.00136942
4970.53660034,0.00144275
4972.46540771,0.00139309
4974.39421509,0.00137810
4976.32302246,0.00134332
4978.25182983,0.00133793
4980.18063721,0.00140552
4982.10944458,0.00133906
4984.03825195,0.00130190
4985.96705933,0.00129230
4987.89586670,0.00133724
4989.82467407,0.00138230
4991.75348145,0.00141670
4993.68228882,0.00140514
4995.61109619,0.00128517
4997.53990356,0.00126785
4999.46871094,0.00127171
5001.39751831,0.00133346
5003.32632568,0.00131324
5005.25513306,0.00124465
5007.18394043,0.00138295
5009.11274780,0.00138580
5011.04155518,0.00128435
5012.97036255,0.00126955
5014.89916992,0.00128714
5016.82797729,0.00123900
5018.75678467,0.00125286
5020.68559204,0.00132205
5022.61439941,0.00123229
5024.54320679,0.00126480
5026.47201416,0.00126094
5028.40082153,0.00123542
5030.32962891,0.00126571
5032.25843628,0.00117615
5034.18724365,0.00123858
5036.11605103,0.00120950
5038.04485840,0.00120436
5039.97366577,0.00122718
5041.90247314,0.00114291
5043.83128052,0.00125527
5045.76008789,0.00120263
5047.68889526,0.00119506
5049.61770264,0.00126973
5051.54651001,0.00118636
5053.47531738,0.00123275
5055.40412476,0.00122889
5057.33293213,0.00122800
5059.26173950,0.00127154
5061.19054687,0.00124951
5063.11935425,0.00119827
5065.04816162,0.00115511
5066.97696899,0.00117876
5068.90577637,0.00118007
5070.83458374,0.00115875
5072.76339111,0.00110308
5074.69219849,0.00115386
5076.62100586,0.00120710
5078.54981323,0.00117382
5080.47862061,0.00121894
5082.40742798,0.00117566
5084.33623535,0.00109882
5086.26504272,0.00103396
5088.19385010,0.00107361
5090.12265747,0.00119169
5092.05146484,0.00115416
5093.98027222,0.00114159
5095.90907959,0.00117533
5097.83788696,0.00112823
5099.76669434,0.00105559
5101.69550171,0.00111694
5103.62430908,0.00113898
5105.55311645,0.00109132
5107.48192383,0.00117813
5109.41073120,0.00114474
5111.33953857,0.00107979
5113.26834595,0.00110752
5115.19715332,0.00118322
5117.12596069,0.00123650
5119.05476807,0.00111728
5120.98357544,0.00104626
5122.91238281,0.00105996
5124.84119019,0.00110101
5126.76999756,0.00111353
5128.69880493,0.00104540
5130.62761230,0.00103052
5132.55641968,0.00108366
5134.48522705,0.00106105
5136.41403442,0.00103778
5138.34284180,0.00115823
5140.27164917,0.00104582
5142.20045654,0.00096304
5144.12926392,0.00113047
5146.05807129,0.00105077
5147.98687866,0.00098788
5149.91568603,0.00104148
5151.84449341,0.00102923
5153.77330078,0.00101208
5155.70210815,0.00103222
5157.63091553,0.00101981
5159.55972290,0.00093689
5161.48853027,0.00096644
5163.41733765,0.00101034
5165.34614502,0.00108868
5167.27495239,0.00103469
5169.20375977,0.00095729
5171.13256714,0.00103745
5173.06137451,0.00095104
5174.99018188,0.00100376
5176.91898926,0.00098694
5178.84779663,0.00097738
5180.77660400,0.00108277
5182.70541138,0.00091205
5184.63421875,0.00097473
5186.56302612,0.00095891
5188.49183350,0.00090608
5190.42064087,0.00101265
5192.34944824,0.00095902
5194.27825562,0.00105447
5196.20706299,0.00095650
5198.13587036,0.00088388
5200.06467773,0.00098829
5201.99348511,0.00097734
5203.92229248,0.00100556
5205.85109985,0.00095126
5207.77990723,0.00098137
5209.70871460,0.00091951
5211.63752197,0.00087686
5213.56632935,0.00099461
5215.49513672,0.00092035
5217.42394409,0.00091874
5219.35275146,0.00093036
5221.28155884,0.00089513
5223.21036621,0.00092825
5225.13917358,0.00091051
5227.06798096,0.00091645
5228.99678833,0.00096004
5230.92559570,0.00094185
5232.85440308,0.00093449
5234.78321045,0.00093581
5236.71201782,0.00083611
5238.64082520,0.00091485
5240.56963257,0.00096691
5242.49843994,0.00086194
5244.42724731,0.00090096
5246.35605469,0.00085484
5248.28486206,0.00086125
5250.21366943,0.00091174
5252.14247681,0.00087971
5254.07128418,0.00089749
5256.00009155,0.00087824
5257.92889893,0.00091398
5259.85770630,0.00088418
5261.78651367,0.00080682
5263.71532104,0.00079205
5265.64412842,0.00080590
5267.57293579,0.00088808
5269.50174316,0.00090692
5271.43055054,0.00092043
5273.35935791,0.00089656
5275.28816528,0.00087193
5277.21697266,0.00089022
5279.14578003,0.00080474
5281.07458740,0.00083708
5283.00339478,0.00091401
5284.93220215,0.00090738
5286.86100952,0.00088145
5288.78981689,0.00078889
5290.71862427,0.00082798
5292.64743164,0.00085749
5294.57623901,0.00080969
5296.50504639,0.00080717
5298.43385376,0.00078124
5300.36266113,0.00084347
5302.29146851,0.00080451
5304.22027588,0.00080444
5306.14908325,0.00087027
5308.07789062,0.00076489
5310.00669800,0.00080389
5311.93550537,0.00076662
5313.86431274,0.00075162
5315.79312012,0.00087624
5317.72192749,0.00079528
5319.65073486,0.00079064
5321.57954224,0.00086304
5323.50834961,0.00087999
5325.43715698,0.00078816
5327.36596436,0.00071315
5329.29477173,0.00080961
5331.22357910,0.00079926
5333.15238647,0.00072340
5335.08119385,0.00070869
5337.01000122,0.00074242
5338.93880859,0.00077854
5340.86761597,0.00079534
5342.79642334,0.00077911
5344.72523071,0.00075419
5346.65403809,0.00076951
5348.58284546,0.00076195
5350.51165283,0.00074515
5352.44046020,0.00069436
5354.36926758,0.00075000
5356.29807495,0.00078210
5358.22688232,0.00073135
5360.15568970,0.00078422
5362.08449707,0.00076841
5364.01330444,0.00076844
5365.94211182,0.00076534
5367.87091919,0.00076121
5369.79972656,0.00073148
5371.72853394,0.00068499
5373.65734131,0.00073263
5375.58614868,0.00063589
5377.51495605,0.00068085
5379.44376343,0.00078884
5381.37257080,0.00072305
5383.30137817,0.00070991
5385.23018555,0.00070405
5387.15899292,0.00077305
5389.08780029,0.00075887
5391.01660767,0.00066377
5392.94541504,0.00073302
5394.87422241,0.00080229
5396.80302978,0.00072920
5398.73183716,0.00067920
5400.66064453,0.00074078
5402.58945190,0.00074991
5404.51825928,0.00069830
5406.44706665,0.00069709
5408.37587402,0.00073893
5410.30468140,0.00067072
5412.23348877,0.00063971
5414.16229614,0.00073838
5416.09110352,0.00073070
5418.01991089,0.00067358
5419.94871826,0.00066938
5421.87752563,0.00068438
5423.80633301,0.00065228
5425.73514038,0.00069348
5427.66394775,0.00068338
5429.59275513,0.00059592
5431.52156250,0.00067702
5433.45036987,0.00067264
5435.37917725,0.00064329
5437.30798462,0.00066156
5439.23679199,0.00063901
5441.16559936,0.00062314
5443.09440674,0.00061477
5445.02321411,0.00065533
5446.95202148,0.00063614
5448.88082886,0.00063856
5450.80963623,0.00067401
5452.73844360,0.00073102
5454.66725098,0.00066170
5456.59605835,0.00055538
5458.52486572,0.00064428
5460.45367310,0.00062174
5462.38248047,0.00064237
5464.31128784,0.00067681
5466.24009521,0.00064942
5468.16890259,0.00063198
5470.09770996,0.00059080
5472.02651733,0.00069632
5473.95532471,0.00064233
5475.88413208,0.00059611
5477.81293945,0.00069133
5479.74174683,0.00069847
5481.67055420,0.00067439
5483.59936157,0.00058793
5485.52816895,0.00059175
5487.45697632,0.00061004
5489.38578369,0.00061218
5491.31459106,0.00064203
5493.24339844,0.00060762
5495.17220581,0.00058714
5497.10101318,0.00059750
5499.02982056,0.00058004
5500.95862793,0.00053698
5502.88743530,0.00056768
5504.81624268,0.00062434
5506.74505005,0.00061832
5508.67385742,0.00052335
5510.60266479,0.00051754
5512.53147217,0.00056116
5514.46027954,0.00056008
5516.38908691,0.00062948
5518.31789429,0.00058623
5520.24670166,0.00060820
5522.17550903,0.00061059
5524.10431641,0.00053255
5526.03312378,0.00059176
5527.96193115,0.00059153
5529.89073853,0.00060046
5531.81954590,0.00054717
5533.74835327,0.00053370
5535.67716064,0.00060253
5537.60596802,0.00058009
5539.53477539,0.00052701
5541.46358276,0.00052016
5543.39239014,0.00063500
5545.32119751,0.00060286
5547.25000488,0.00058910
5549.17881226,0.00058418
5551.10761963,0.00050262
5553.03642700,0.00061468
5554.96523437,0.00062175
5556.89404175,0.00050478
5558.82284912,0.00043980
5560.75165649,0.00051711
5562.68046387,0.00057613
5564.60927124,0.00050275
5566.53807861,0.00046996
5568.46688599,0.00047302
5570.39569336,0.00053866
5572.32450073,0.00052369
5574.25330811,0.00052506
5576.18211548,0.00052893
5578.11092285,0.00049438
5580.03973022,0.00052625
5581.96853760,0.00053161
5583.89734497,0.00050967
5585.82615234,0.00046694
5587.75495972,0.00059047
5589.68376709,0.00054186
5591.61257446,0.00043583
5593.54138184,0.00057170
5595.47018921,0.00053727
5597.39899658,0.00046938
5599.32780395,0.00042429
5601.25661133,0.00055484
5603.18541870,0.00058552
5605.11422607,0.00039930
5607.04303345,0.00045525
5608.97184082,0.00047009
5610.90064819,0.00049994
5612.82945557,0.00047816
5614.75826294,0.00045529
5616.68707031,0.00055555
5618.61587769,0.00056069
5620.54468506,0.00056188
5622.47349243,0.00049354
5624.40229980,0.00053240
5626.33110718,0.00054845
5628.25991455,0.00050113
5630.18872192,0.00049106
5632.11752930,0.00041005
5634.04633667,0.00045400
5635.97514404,0.00044179
5637.90395142,0.00047115
5639.83275879,0.00052504
5641.76156616,0.00048554
5643.69037353,0.00050980
5645.61918091,0.00043394
5647.54798828,0.00042598
5649.47679565,0.00046782
5651.40560303,0.00044165
5653.33441040,0.00047495
5655.26321777,0.00048163
5657.19202515,0.00046139
5659.12083252,0.00047664
5661.04963989,0.00045848
5662.97844727,0.00043999
5664.90725464,0.00044946
5666.83606201,0.00038413
5668.76486938,0.00043317
5670.69367676,0.00048808
5672.62248413,0.00043102
5674.55129150,0.00048866
5676.48009888,0.00047899
5678.40890625,0.00041475
5680.33771362,0.00041563
5682.26652100,0.00045770
5684.19532837,0.00048011
5686.12413574,0.00044770
5688.05294311,0.00045017
5689.98175049,0.00041669
5691.91055786,0.00041973
5693.83936523,0.00038995
5695.76817261,0.00038091
5697.69697998,0.00050446
5699.62578735,0.00043799
5701.55459473,0.00034914
5703.48340210,0.00040369
5705.41220947,0.00038708
5707.34101685,0.00041298
5709.26982422,0.00049330
5711.19863159,0.00046925
5713.12743896,0.00042317
5715.05624634,0.00040666
5716.98505371,0.00039638
5718.91386108,0.00037648
5720.84266846,0.00037012
5722.77147583,0.00044332
5724.70028320,0.00040268
5726.62909058,0.00031873
5728.55789795,0.00040485
5730.48670532,0.00038384
5732.41551270,0.00029813
5734.34432007,0.00037622
5736.27312744,0.00039914
5738.20193481,0.00035168
5740.13074219,0.00039652
5742.05954956,0.00041131
5743.98835693,0.00038185
5745.91716431,0.00039924
5747.84597168,0.00042175
5749.77477905,0.00043465
5751.70358643,0.00040991
5753.63239380,0.00039299
5755.56120117,0.00041819
5757.49000854,0.00040862
5759.41881592,0.00038304
5761.34762329,0.00035756
5763.27643066,0.00035904
5765.20523804,0.00040770
5767.13404541,0.00039392
5769.06285278,0.00039825
5770.99166016,0.00044297
5772.92046753,0.00037625
5774.84927490,0.00038411
5776.77808228,0.00036962
5778.70688965,0.00030123
5780.63569702,0.00040101
5782.56450439,0.00036553
5784.49331177,0.00033408
5786.42211914,0.00040397
5788.35092651,0.00036894
5790.27973389,0.00039442
5792.20854126,0.00039687
5794.13734863,0.00036540
5796.06615601,0.00033326
5797.99496338,0.00034127
5799.92377075,0.00039960
5801.85257812,0.00037902
5803.78138550,0.00033456
5805.71019287,0.00027204
5807.63900024,0.00027953
5809.56780762,0.00028191
5811.49661499,0.00030168
5813.42542236,0.00038680
5815.35422974,0.00034148
5817.28303711,0.00032609
5819.21184448,0.00032757
5821.14065186,0.00035248
5823.06945923,0.00039018
5824.99826660,0.00033265
5826.92707397,0.00039590
5828.85588135,0.00040094
5830.78468872,0.00030429
5832.71349609,0.00031471
5834.64230347,0.00037165
5836.57111084,0.00038318
5838.49991821,0.00033424
5840.42872559,0.00036907
5842.35753296,0.00036108
5844.28634033,0.00034137
5846.21514770,0.00038598
5848.14395508,0.00029451
5850.07276245,0.00030610
5852.00156982,0.00038895
5853.93037720,0.00036442
5855.85918457,0.00033395
5857.78799194,0.00029966
5859.71679932,0.00034868
5861.64560669,0.00035478
5863.57441406,0.00031363
5865.50322144,0.00031267
5867.43202881,0.00028982
5869.36083618,0.00032949
5871.28964355,0.00034130
5873.21845093,0.00031440
5875.14725830,0.00032869
5877.07606567,0.00035725
5879.00487305,0.00032880
5880.93368042,0.00030240
5882.86248779,0.00036194
5884.79129517,0.00032708
5886.72010254,0.00031796
5888.64890991,0.00034299
5890.57771728,0.00033401
5892.50652466,0.00035831
5894.43533203,0.00029353
5896.36413940,0.00033238
5898.29294678,0.00035393
5900.22175415,0.00025442
5902.15056152,0.00031987
5904.07936890,0.00037839
5906.00817627,0.00031158
5907.93698364,0.00027778
5909.86579102,0.00026525
5911.79459839,0.00025634
5913.72340576,0.00032726
5915.65221313,0.00031684
5917.58102051,0.00027875
5919.50982788,0.00026814
5921.43863525,0.00025141
5923.36744263,0.00036354
5925.29625000,0.00029258
5927.22505737,0.00024469
5929.15386475,0.00035313
5931.08267212,0.00033214
5933.01147949,0.00036362
5934.94028686,0.00029435
5936.86909424,0.00024071
5938.79790161,0.00028021
5940.72670898,0.00028090
5942.65551636,0.00030539
5944.58432373,0.00022368
5946.51313110,0.00022848
5948.44193848,0.00026992
5950.37074585,0.00031383
5952.29955322,0.00039812
5954.22836060,0.00031275
5956.15716797,0.00025038
5958.08597534,0.00026304
5960.01478271,0.00028067
5961.94359009,0.00026890
5963.87239746,0.00025864
5965.80120483,0.00029731
5967.73001221,0.00027795
5969.65881958,0.00029757
5971.58762695,0.00030873
5973.51643433,0.00026390
5975.44524170,0.00025256
5977.37404907,0.00028730
5979.30285645,0.00035549
5981.23166382,0.00033485
5983.16047119,0.00027948
5985.08927856,0.00025136
5987.01808594,0.00022481
5988.94689331,0.00024173
5990.87570068,0.00026151
5992.80450806,0.00025421
5994.73331543,0.00022733
5996.66212280,0.00024054
5998.59093018,0.00030224
6000.51973755,0.00028731
