399.26312622,0.00060126
401.19193359,0.00108630
403.12074097,0.00048888
405.04954834,0.00096983
406.97835571,0.00085081
408.90716309,0.00083005
410.83597046,0.00115357
412.76477783,0.00118676
414.69358521,0.00108655
416.62239258,0.00111905
418.55119995,0.00099903
420.48000732,0.00136808
422.40881470,0.00164840
424.33762207,0.00138961
426.26642944,0.00095550
428.19523682,0.00056577
430.12404419,0.00135006
432.05285156,0.00153498
433.98165894,0.00130047
435.91046631,0.00138820
437.83927368,0.00122057
439.76808105,0.00150095
441.69688843,0.00150456
443.62569580,0.00092771
445.55450317,0.00076730
447.48331055,0.00133571
449.41211792,0.00119918
451.34092529,0.00098806
453.26973267,0.00110703
455.19854004,0.00089016
457.12734741,0.00106699
459.05615479,0.00113275
460.98496216,0.00083375
462.91376953,0.00048541
464.84257690,0.00094547
466.77138428,0.00103710
468.70019165,0.00065863
470.62899902,0.00062773
472.55780640,0.00048226
474.48661377,0.00087625
476.41542114,0.00054017
478.34422852,0.00057622
480.27303589,0.00065881
482.20184326,0.00015355
484.13065063,0.00071852
486.05945801,0.00040666
487.98826538,0.00006378
489.91707275,0.00048633
491.84588013,0.00042720
493.77468750,0.00037857
495.70349487,0.00029828
497.63230225,0.00025594
499.56110962,0.00058884
501.48991699,0.00061971
503.41872437,0.00048020
505.34753174,0.00075816
507.27633911,0.00075003
509.20514648,0.00048452
511.13395386,0.00012765
513.06276123,0.00043487
514.99156860,0.00098262
516.92037598,0.00032167
518.84918335,0.00006607
520.77799072,0.00050095
522.70679810,0.00083559
524.63560547,0.00081646
526.56441284,0.00027904
528.49322021,0.00031204
530.42202759,0.00040601
532.35083496,0.00039508
534.27964233,0.00057029
536.20844971,0.00031989
538.13725708,0.00033736
540.06606445,0.00053943
541.99487183,0.00049064
543.92367920,0.00050973
545.85248657,0.00024291
547.78129395,0.00051030
549.71010132,0.00079818
551.63890869,0.00040107
553.56771606,0.00040226
555.49652344,0.00052429
557.42533081,0.00048759
559.35413818,0.00022796
561.28294556,0.00044264
563.21175293,0.00053008
565.14056030,0.00015502
567.06936768,0.00024307
568.99817505,0.00017544
570.92698242,0.00016690
572.85578979,0.00003177
574.78459717,0.00019596
576.71340454,0.00049881
578.64221191,0.00063429
580.57101929,0.00083169
582.49982666,0.00026198
584.42863403,0.00020700
586.35744141,0.00034330
588.28624878,0.00016759
590.21505615,0.00034396
592.14386353,0.00004338
594.07267090,-0.00010453
596.00147827,0.00035370
597.93028564,0.00054072
599.85909302,0.00020571
601.78790039,0.00026457
603.71670776,0.00055387
605.64551514,0.00026373
607.57432251,0.00007888
609.50312988,0.00001904
611.43193726,0.00032952
613.36074463,0.00055177
615.28955200,0.00009323
617.21835938,0.00021839
619.14716675,0.00035619
621.07597412,0.00031515
623.00478149,0.00020345
624.93358887,0.00033235
626.86239624,0.00041160
628.79120361,-0.00001766
630.72001099,0.00086126
632.64881836,0.00098749
634.57762573,0.00082267
636.50643311,0.00147607
638.43524048,0.00095548
640.36404785,0.00145032
642.29285522,0.00168819
644.22166260,0.00142990
646.15046997,0.00223687
648.07927734,0.00200856
650.00808472,0.00213395
651.93689209,0.00251619
653.86569946,0.00215050
655.79450684,0.00230197
657.72331421,0.00266359
659.65212158,0.00279896
661.58092896,0.00244327
663.50973633,0.00289882
665.43854370,0.00353244
667.36735107,0.00287883
669.29615845,0.00318398
671.22496582,0.00368836
673.15377319,0.00358363
675.08258057,0.00392424
677.01138794,0.00370670
678.94019531,0.00378003
680.86900269,0.00414820
682.79781006,0.00418234
684.72661743,0.00447649
686.65542480,0.00429538
688.58423218,0.00397045
690.51303955,0.00432485
692.44184692,0.00490646
694.37065430,0.00492481
696.29946167,0.00540565
698.22826904,0.00670921
700.15707642,0.00705327
702.08588379,0.00691981
704.01469116,0.00643090
705.94349854,0.00545913
707.87230591,0.00495474
709.80111328,0.00396023
711.72992065,0.00272911
713.65872803,0.00189347
715.58753540,0.00094309
717.51634277,0.00067064
719.44515015,0.00063067
721.37395752,0.00028598
723.30276489,0.00031663
725.23157227,0.00029041
727.16037964,0.00019959
729.08918701,-0.00003106
731.01799438,-0.00009912
732.94680176,0.00027894
734.87560913,0.00014198
736.80441650,0.00011122
738.73322388,0.00033234
740.66203125,0.00029976
742.59083862,0.00017393
744.51964600,0.00018575
746.44845337,0.00024914
748.37726074,0.00019805
750.30606812,0.00045591
752.23487549,0.00028828
754.16368286,0.00012125
756.09249023,0.00028542
758.02129761,0.00038484
759.95010498,0.00060387
761.87891235,0.00022509
763.80771973,0.00045958
765.73652710,0.00060783
767.66533447,0.00013943
769.59414185,0.00032914
771.52294922,0.00029553
773.45175659,0.00043705
775.38056396,0.00040778
777.30937134,0.00025152
779.23817871,0.00061673
781.16698608,0.00067707
783.09579346,0.00049446
785.02460083,0.00031671
786.95340820,0.00036193
788.88221558,0.00047280
790.81102295,0.00059226
792.73983032,0.00052671
794.66863770,0.00049204
796.59744507,0.00086986
798.52625244,0.00104233
800.45505981,0.00120918
802.38386719,0.00113277
804.31267456,0.00064883
806.24148193,0.00065195
808.17028931,0.00085662
810.09909668,0.00069989
812.02790405,0.00058554
813.95671143,0.00062747
815.88551880,0.00048271
817.81432617,0.00030555
819.74313354,0.00042653
821.67194092,0.00063304
823.60074829,0.00067777
825.52955566,0.00064556
827.45836304,0.00078104
829.38717041,0.00117150
831.31597778,0.00145781
833.24478516,0.00165584
835.17359253,0.00186875
837.10239990,0.00215505
839.03120728,0.00224822
840.96001465,0.00216220
842.88882202,0.00213874
844.81762939,0.00175954
846.74643677,0.00173215
848.67524414,0.00164328
850.60405151,0.00136976
852.53285889,0.00145674
854.46166626,0.00133750
856.39047363,0.00153797
858.31928101,0.00115076
860.24808838,0.00066808
862.17689575,0.00064327
864.10570313,0.00053796
866.03451050,0.00084956
867.96331787,0.00055063
869.89212524,0.00054831
871.82093262,0.00055921
873.74973999,0.00028267
875.67854736,0.00070195
877.60735474,0.00068187
879.53616211,0.00069348
881.46496948,0.00049751
883.39377686,0.00049364
885.32258423,0.00062648
887.25139160,0.00028210
889.18019897,0.00065417
891.10900635,0.00062816
893.03781372,0.00046418
894.96662109,0.00066460
896.89542847,0.00059882
898.82423584,0.00067446
900.75304321,0.00072893
902.68185059,0.00068268
904.61065796,0.00048889
906.53946533,0.00060533
908.46827271,0.00086678
910.39708008,0.00085502
912.32588745,0.00091752
914.25469482,0.00116049
916.18350220,0.00118798
918.11230957,0.00133223
920.04111694,0.00167902
921.96992432,0.00162324
923.89873169,0.00183761
925.82753906,0.00212202
927.75634644,0.00237096
929.68515381,0.00258556
931.61396118,0.00269831
933.54276855,0.00304635
935.47157593,0.00305550
937.40038330,0.00326110
939.32919067,0.00364631
941.25799805,0.00376026
943.18680542,0.00375723
945.11561279,0.00377632
947.04442017,0.00400411
948.97322754,0.00401701
950.90203491,0.00367413
952.83084229,0.00343604
954.75964966,0.00369732
956.68845703,0.00351142
958.61726440,0.00332224
960.54607178,0.00370122
962.47487915,0.00370956
964.40368652,0.00383131
966.33249390,0.00372029
968.26130127,0.00376640
970.19010864,0.00445016
972.11891602,0.00461452
974.04772339,0.00480626
975.97653076,0.00525348
977.90533813,0.00539363
979.83414551,0.00595520
981.76295288,0.00679261
983.69176025,0.00727197
985.62056763,0.00820759
987.54937500,0.00933607
989.47818237,0.01029247
991.40698975,0.01144823
993.33579712,0.01239086
995.26460449,0.01334477
997.19341187,0.01463429
999.12221924,0.01602288
1001.05102661,0.01724469
1002.97983398,0.01839802
1004.90864136,0.01949956
1006.83744873,0.02088610
1008.76625610,0.02230082
1010.69506348,0.02331282
1012.62387085,0.02465117
1014.55267822,0.02574859
1016.48148560,0.02710079
1018.41029297,0.02876615
1020.33910034,0.02992843
1022.26790771,0.03135389
1024.19671509,0.03246152
1026.12552246,0.03363001
1028.05432983,0.03494297
1029.98313721,0.03582156
1031.91194458,0.03667660
1033.84075195,0.03731992
1035.76955933,0.03804925
1037.69836670,0.03842264
1039.62717407,0.03856274
1041.55598145,0.03874925
1043.48478882,0.03831544
1045.41359619,0.03783209
1047.34240356,0.03746431
1049.27121094,0.03687034
1051.20001831,0.03620610
1053.12882568,0.03556653
1055.05763306,0.03484944
1056.98644043,0.03398725
1058.91524780,0.03311259
1060.84405518,0.03213115
1062.77286255,0.03110384
1064.70166992,0.03025269
1066.63047729,0.02918248
1068.55928467,0.02781706
1070.48809204,0.02651066
1072.41689941,0.02540866
1074.34570679,0.02431390
1076.27451416,0.02297142
1078.20332153,0.02196686
1080.13212891,0.02096535
1082.06093628,0.01996801
1083.98974365,0.01932751
1085.91855103,0.01818550
1087.84735840,0.01717085
1089.77616577,0.01639725
1091.70497314,0.01562869
1093.63378052,0.01501711
1095.56258789,0.01432866
1097.49139526,0.01402887
1099.42020264,0.01375113
1101.34901001,0.01351428
1103.27781738,0.01316746
1105.20662476,0.01266651
1107.13543213,0.01268600
1109.06423950,0.01255174
1110.99304687,0.01220796
1112.92185425,0.01195476
1114.85066162,0.01183087
1116.77946899,0.01197122
1118.70827637,0.01189636
1120.63708374,0.01175889
1122.56589111,0.01196252
1124.49469849,0.01226405
1126.42350586,0.01244680
1128.35231323,0.01256622
1130.28112061,0.01288803
1132.20992798,0.01322657
1134.13873535,0.01364946
1136.06754272,0.01435673
1137.99635010,0.01495135
1139.92515747,0.01583523
1141.85396484,0.01680247
1143.78277222,0.01792877
1145.71157959,0.01927926
1147.64038696,0.02030017
1149.56919434,0.02167904
1151.49800171,0.02264722
1153.42680908,0.02365416
1155.35561646,0.02494306
1157.28442383,0.02557884
1159.21323120,0.02672764
1161.14203857,0.02764229
1163.07084595,0.02851230
1164.99965332,0.02990540
1166.92846069,0.03089553
1168.85726807,0.03214436
1170.78607544,0.03354958
1172.71488281,0.03462127
1174.64369019,0.03575276
1176.57249756,0.03708903
1178.50130493,0.03826795
1180.43011230,0.03970320
1182.35891968,0.04157568
1184.28772705,0.04348589
1186.21653442,0.04546891
1188.14534180,0.04751727
1190.07414917,0.04969161
1192.00295654,0.05178423
1193.93176392,0.05440063
1195.86057129,0.05710469
1197.78937866,0.05936201
1199.71818604,0.06206710
1201.64699341,0.06468343
1203.57580078,0.06719653
1205.50460815,0.06997515
1207.43341553,0.07261610
1209.36222290,0.07498619
1211.29103027,0.07725193
1213.21983765,0.07949363
1215.14864502,0.08147958
1217.07745239,0.08316759
1219.00625977,0.08463866
1220.93506714,0.08586140
1222.86387451,0.08680799
1224.79268188,0.08774781
1226.72148926,0.08843920
1228.65029663,0.08891521
1230.57910400,0.08925423
1232.50791138,0.08935465
1234.43671875,0.08943892
1236.36552612,0.08935908
1238.29433350,0.08928713
1240.22314087,0.08901027
1242.15194824,0.08867468
1244.08075562,0.08816133
1246.00956299,0.08790268
1247.93837036,0.08776282
1249.86717773,0.08664145
1251.79598511,0.08607506
1253.72479248,0.08524078
1255.65359985,0.08393719
1257.58240723,0.08298996
1259.51121460,0.08135302
1261.44002197,0.08036873
1263.36882935,0.07968415
1265.29763672,0.07850435
1267.22644409,0.07733659
1269.15525146,0.07627682
1271.08405884,0.07511593
1273.01286621,0.07379031
1274.94167358,0.07275615
1276.87048096,0.07123189
1278.79928833,0.06961082
1280.72809570,0.06828220
1282.65690308,0.06689528
1284.58571045,0.06567825
1286.51451782,0.06445237
1288.44332520,0.06336652
1290.37213257,0.06264145
1292.30093994,0.06200895
1294.22974731,0.06129621
1296.15855469,0.06103798
1298.08736206,0.06087001
1300.01616943,0.06089409
1301.94497681,0.06138748
1303.87378418,0.06177904
1305.80259155,0.06223935
1307.73139893,0.06305958
1309.66020630,0.06432974
1311.58901367,0.06510904
1313.51782104,0.06627049
1315.44662842,0.06822670
1317.37543579,0.06954736
1319.30424316,0.07122473
1321.23305054,0.07377769
1323.16185791,0.07616183
1325.09066528,0.07796313
1327.01947266,0.08026011
1328.94828003,0.08246230
1330.87708740,0.08426329
1332.80589478,0.08638354
1334.73470215,0.08793490
1336.66350952,0.08892699
1338.59231689,0.08826157
1340.52112427,0.08942836
1342.44993164,0.09299731
1344.37873901,0.09312954
1346.30754639,0.09322421
1348.23635376,0.09346404
1350.16516113,0.09241514
1352.09396851,0.09255508
1354.02277588,0.09126404
1355.95158325,0.09021114
1357.88039062,0.08977783
1359.80919800,0.08834685
1361.73800537,0.08488142
1363.66681274,0.08333243
1365.59562012,0.08726220
1367.52442749,0.08561257
1369.45323486,0.08417180
1371.38204224,0.08574691
1373.31084961,0.08140465
1375.23965698,0.08168308
1377.16846436,0.08385941
1379.09727173,0.08347058
1381.02607910,0.08369280
1382.95488647,0.08349131
1384.88369385,0.08325879
1386.81250122,0.07960901
1388.74130859,0.08069332
1390.67011597,0.08711293
1392.59892334,0.08506241
1394.52773071,0.07981870
1396.45653809,0.08351704
1398.38534546,0.08353464
1400.31415283,0.08306377
1402.24296021,0.08945256
1404.17176758,0.08457182
1406.10057495,0.08492784
1408.02938232,0.08831891
1409.95818970,0.08512214
1411.88699707,0.08689032
1413.81580444,0.08380999
1415.74461182,0.08507062
1417.67341919,0.07716735
1419.60222656,0.06927177
1421.53103394,0.07923345
1423.45984131,0.07675694
1425.38864868,0.07445791
1427.31745605,0.07517420
1429.24626343,0.06959116
1431.17507080,0.06763817
1433.10387817,0.06841560
1435.03268555,0.06262693
1436.96149292,0.05304813
1438.89030029,0.05981586
1440.81910767,0.06145537
1442.74791504,0.05712157
1444.67672241,0.05970065
1446.60552979,0.05483283
1448.53433716,0.05565766
1450.46314453,0.05734989
1452.39195190,0.05838387
1454.32075928,0.06068782
1456.24956665,0.05044667
1458.17837402,0.05241624
1460.10718140,0.06942047
1462.03598877,0.07401350
1463.96479614,0.07347402
1465.89360352,0.07664163
1467.82241089,0.08710532
1469.75121826,0.09379317
1471.68002563,0.08406670
1473.60883301,0.08817321
1475.53764038,0.10056325
1477.46644775,0.10828089
1479.39525513,0.11839619
1481.32406250,0.12010473
1483.25286987,0.12760818
1485.18167725,0.13183233
1487.11048462,0.12996843
1489.03929199,0.12944826
1490.96809937,0.13041967
1492.89690674,0.15067565
1494.82571411,0.14742276
1496.75452148,0.13332355
1498.68332886,0.15012474
1500.61213623,0.15485433
1502.54094360,0.16540205
1504.46975098,0.15675598
1506.39855835,0.11571528
1508.32736572,0.14002550
1510.25617310,0.16347694
1512.18498047,0.15811631
1514.11378784,0.17093670
1516.04259521,0.15458873
1517.97140259,0.16087624
1519.90020996,0.15529740
1521.82901733,0.13515365
1523.75782471,0.16407037
1525.68663208,0.16104025
1527.61543945,0.16057089
1529.54424683,0.17627193
1531.47305420,0.16963229
1533.40186157,0.15607560
1535.33066895,0.16456074
1537.25947632,0.17553352
1539.18828369,0.12697718
1541.11709106,0.13218808
1543.04589844,0.15737633
1544.97470581,0.15103137
1546.90351318,0.17702490
1548.83232056,0.16543886
1550.76112793,0.17008138
1552.68993530,0.16856590
1554.61874268,0.15341294
1556.54755005,0.16335338
1558.47635742,0.11684692
1560.40516479,0.12478288
1562.33397217,0.17470592
1564.26277954,0.16534862
1566.19158691,0.16919397
1568.12039429,0.16730642
1570.04920166,0.14817315
1571.97800903,0.16932236
1573.90681641,0.17071639
1575.83562378,0.13592212
1577.76443115,0.15245181
1579.69323853,0.17074484
1581.62204590,0.16257662
1583.55085327,0.16576813
1585.47966064,0.16264781
1587.40846802,0.16267933
1589.33727539,0.16056952
1591.26608276,0.15965675
1593.19489014,0.15866295
1595.12369751,0.15555155
1597.05250488,0.15666085
1598.98131226,0.15450618
1600.91011963,0.15386927
1602.83892700,0.15014915
1604.76773437,0.15122899
1606.69654175,0.14781222
1608.62534912,0.14630581
1610.55415649,0.14455892
1612.48296387,0.14408237
1614.41177124,0.14492497
1616.34057861,0.11799777
1618.26938599,0.12647027
1620.19819336,0.14555034
1622.12700073,0.12849090
1624.05580811,0.12837952
1625.98461548,0.13360885
1627.91342285,0.13243356
1629.84223022,0.13120177
1631.77103760,0.13941018
1633.69984497,0.12897290
1635.62865234,0.10730873
1637.55745972,0.12420238
1639.48626709,0.13648024
1641.41507446,0.13390496
1643.34388184,0.13786341
1645.27268921,0.12539911
1647.20149658,0.11147338
1649.13030396,0.13849023
1651.05911133,0.13217026
1652.98791870,0.08694666
1654.91672607,0.11786944
1656.84553345,0.14816734
1658.77434082,0.14272763
1660.70314819,0.14799184
1662.63195557,0.13649344
1664.56076294,0.14454921
1666.48957031,0.15638441
1668.41837769,0.13842711
1670.34718506,0.13589358
1672.27599243,0.15464354
1674.20479980,0.14423169
1676.13360718,0.13985544
1678.06241455,0.16137910
1679.99122192,0.15711695
1681.92002930,0.15671305
1683.84883667,0.12957060
1685.77764404,0.12893102
1687.70645142,0.17608482
1689.63525879,0.15492749
1691.56406616,0.17067146
1693.49287354,0.17526218
1695.42168091,0.12980264
1697.35048828,0.16041273
1699.27929565,0.14316103
1701.20810303,0.12981406
1703.13691040,0.17594993
1705.06571777,0.16282955
1706.99452515,0.16496259
1708.92333252,0.17934142
1710.85213989,0.17339943
1712.78094727,0.17707558
1714.70975464,0.16550228
1716.63856201,0.14960131
1718.56736938,0.14769563
1720.49617676,0.17506999
1722.42498413,0.18164492
1724.35379150,0.16971232
1726.28259888,0.18437681
1728.21140625,0.17130220
1730.14021362,0.17344159
1732.06902100,0.16909048
1733.99782837,0.13059542
1735.92663574,0.16114278
1737.85544312,0.17826787
1739.78425049,0.15943429
1741.71305786,0.17358845
1743.64186523,0.17642362
1745.57067261,0.17681620
1747.49947998,0.17906877
1749.42828735,0.17152755
1751.35709473,0.16474509
1753.28590210,0.18198439
1755.21470947,0.19027625
1757.14351685,0.17446147
1759.07232422,0.19111091
1761.00113159,0.18039741
1762.92993896,0.17435905
1764.85874634,0.19870394
1766.78755371,0.17956799
1768.71636108,0.18155444
1770.64516846,0.18055132
1772.57397583,0.16285047
1774.50278320,0.18127930
1776.43159058,0.19091153
1778.36039795,0.18864360
1780.28920532,0.18652509
1782.21801270,0.18796134
1784.14682007,0.18791966
1786.07562744,0.18437821
1788.00443481,0.19369692
1789.93324219,0.18907914
1791.86204956,0.17179395
1793.79085693,0.17874613
1795.71966431,0.19158974
1797.64847168,0.18913831
1799.57727905,0.18643580
1801.50608643,0.18352722
1803.43489380,0.18902561
1805.36370117,0.19319050
1807.29250854,0.19047689
1809.22131592,0.19120324
1811.15012329,0.18649067
1813.07893066,0.19191277
1815.00773804,0.19284099
1816.93654541,0.19073163
1818.86535278,0.19227734
1820.79416016,0.19146997
1822.72296753,0.19429636
1824.65177490,0.18209800
1826.58058228,0.18837020
1828.50938965,0.18875277
1830.43819702,0.17742258
1832.36700439,0.19235152
1834.29581177,0.19121879
1836.22461914,0.19090244
1838.15342651,0.19019888
1840.08223389,0.19148394
1842.01104126,0.19145587
1843.93984863,0.17087004
1845.86865601,0.18177336
1847.79746338,0.19123387
1849.72627075,0.18740308
1851.65507812,0.19247186
1853.58388550,0.18880206
1855.51269287,0.19064298
1857.44150024,0.18937983
1859.37030762,0.18818223
1861.29911499,0.18939665
1863.22792236,0.18732496
1865.15672974,0.18898389
1867.08553711,0.18312547
1869.01434448,0.17601135
1870.94315186,0.18259136
1872.87195923,0.18921418
1874.80076660,0.18605703
1876.72957397,0.18703826
1878.65838135,0.18642989
1880.58718872,0.18535757
1882.51599609,0.18683381
1884.44480347,0.18389833
1886.37361084,0.18658508
1888.30241821,0.18250597
1890.23122559,0.17895037
1892.16003296,0.18525225
1894.08884033,0.18270051
1896.01764771,0.18196416
1897.94645508,0.18391296
1899.87526245,0.18282801
1901.80406982,0.18315923
1903.73287720,0.18204674
1905.66168457,0.18256950
1907.59049194,0.18093207
1909.51929932,0.17988284
1911.44810669,0.18078846
1913.37691406,0.18088572
1915.30572144,0.18228488
1917.23452881,0.17473602
1919.16333618,0.17484871
1921.09214355,0.18104292
1923.02095093,0.17543080
1924.94975830,0.17885685
1926.87856567,0.18072064
1928.80737305,0.17840567
1930.73618042,0.18026567
1932.66498779,0.17770538
1934.59379517,0.17940912
1936.52260254,0.17824540
1938.45140991,0.17864715
1940.38021729,0.17852822
1942.30902466,0.17292511
1944.23783203,0.17592585
1946.16663940,0.17748174
1948.09544678,0.17700469
1950.02425415,0.17751236
1951.95306152,0.17698470
1953.88186890,0.17720728
1955.81067627,0.17628655
1957.73948364,0.17668405
1959.66829102,0.17624371
1961.59709839,0.17596549
1963.52590576,0.17640427
1965.45471313,0.17516348
1967.38352051,0.17343822
1969.31232788,0.17467508
1971.24113525,0.17578246
1973.16994263,0.17456470
1975.09875000,0.17500907
1977.02755737,0.17410280
1978.95636475,0.17420447
1980.88517212,0.17403314
1982.81397949,0.17320868
1984.74278687,0.17384997
1986.67159424,0.17227171
1988.60040161,0.17242101
1990.52920898,0.17097811
1992.45801636,0.16901021
1994.38682373,0.17117313
1996.31563110,0.17150334
1998.24443848,0.17043385
2000.17324585,0.17034155
2002.10205322,0.16993287
2004.03086060,0.16949925
2005.95966797,0.16925056
2007.88847534,0.16852571
2009.81728271,0.16839084
2011.74609009,0.16785356
2013.67489746,0.16743287
2015.60370483,0.16659737
2017.53251221,0.16506395
2019.46131958,0.16596967
2021.39012695,0.16564596
2023.31893433,0.16498658
2025.24774170,0.16497758
2027.17654907,0.16422820
2029.10535645,0.16427192
2031.03416382,0.16346151
2032.96297119,0.16321652
2034.89177856,0.16282178
2036.82058594,0.16226584
2038.74939331,0.16214672
2040.67820068,0.16111223
2042.60700806,0.16079697
2044.53581543,0.16068265
2046.46462280,0.16041723
2048.39343018,0.16005035
2050.32223755,0.15959090
2052.25104492,0.15925242
2054.17985229,0.15877332
2056.10865967,0.15832359
2058.03746704,0.15794244
2059.96627441,0.15772298
2061.89508179,0.15748444
2063.82388916,0.15665391
2065.75269653,0.15579653
2067.68150391,0.15619199
2069.61031128,0.15594250
2071.53911865,0.15538801
2073.46792603,0.15524292
2075.39673340,0.15453032
2077.32554077,0.15448368
2079.25434814,0.15426889
2081.18315552,0.15386386
2083.11196289,0.15350428
2085.04077026,0.15315510
2086.96957764,0.15284568
2088.89838501,0.15218845
2090.82719238,0.15196794
2092.75599976,0.15190575
2094.68480713,0.15164644
2096.61361450,0.15114462
2098.54242187,0.15109761
2100.47122925,0.15078306
2102.40003662,0.15033874
2104.32884399,0.15019280
2106.25765137,0.14967328
2108.18645874,0.14962187
2110.11526611,0.14920706
2112.04407349,0.14898781
2113.97288086,0.14877395
2115.90168823,0.14838609
2117.83049561,0.14843962
2119.75930298,0.14807978
2121.68811035,0.14789942
2123.61691772,0.14750089
2125.54572510,0.14734024
2127.47453247,0.14721140
2129.40333984,0.14691791
2131.33214722,0.14687265
2133.26095459,0.14658749
2135.18976196,0.14628614
2137.11856934,0.14594835
2139.04737671,0.14605218
2140.97618408,0.14577119
2142.90499146,0.14553410
2144.83379883,0.14535880
2146.76260620,0.14502472
2148.69141357,0.14516443
2150.62022095,0.14487107
2152.54902832,0.14480674
2154.47783569,0.14454004
2156.40664307,0.14432299
2158.33545044,0.14421794
2160.26425781,0.14389929
2162.19306519,0.14390677
2164.12187256,0.14374191
2166.05067993,0.14365050
2167.97948730,0.14333507
2169.90829468,0.14334036
2171.83710205,0.14312759
2173.76590942,0.14290565
2175.69471680,0.14289406
2177.62352417,0.14245430
2179.55233154,0.14256904
2181.48113892,0.14232856
2183.40994629,0.14226012
2185.33875366,0.14217059
2187.26756104,0.14193556
2189.19636841,0.14200011
2191.12517578,0.14173272
2193.05398315,0.14160229
2194.98279053,0.14124987
2196.91159790,0.14131251
2198.84040527,0.14119363
2200.76921265,0.14102282
2202.69802002,0.14098415
2204.62682739,0.14069398
2206.55563477,0.14082944
2208.48444214,0.14042532
2210.41324951,0.14031242
2212.34205688,0.14019674
2214.27086426,0.13994867
2216.19967163,0.13995111
2218.12847900,0.13963619
2220.05728638,0.13956141
2221.98609375,0.13936341
2223.91490112,0.13934562
2225.84370850,0.13914493
2227.77251587,0.13893256
2229.70132324,0.13886385
2231.63013062,0.13854022
2233.55893799,0.13847092
2235.48774536,0.13832168
2237.41655273,0.13810778
2239.34536011,0.13780092
2241.27416748,0.13768503
2243.20297485,0.13751428
2245.13178223,0.13726234
2247.06058960,0.13705337
2248.98939697,0.13679773
2250.91820435,0.13682576
2252.84701172,0.13657948
2254.77581909,0.13641314
2256.70462646,0.13624153
2258.63343384,0.13608629
2260.56224121,0.13600543
2262.49104858,0.13578501
2264.41985596,0.13577066
2266.34866333,0.13555136
2268.27747070,0.13537797
2270.20627808,0.13517053
2272.13508545,0.13496482
2274.06389282,0.13494304
2275.99270020,0.13484314
2277.92150757,0.13478512
2279.85031494,0.13471134
2281.77912231,0.13447115
2283.70792969,0.13432457
2285.63673706,0.13418397
2287.56554443,0.13371065
2289.49435181,0.13353580
2291.42315918,0.13313520
2293.35196655,0.13275388
2295.28077393,0.13254301
2297.20958130,0.13208455
2299.13838867,0.13183159
2301.06719604,0.13109869
2302.99600342,0.13064879
2304.92481079,0.13004756
2306.85361816,0.12905800
2308.78242554,0.12825675
2310.71123291,0.12720822
2312.64004028,0.12598813
2314.56884766,0.12444392
2316.49765503,0.12334830
2318.42646240,0.12167083
2320.35526978,0.11997367
2322.28407715,0.11840843
2324.21288452,0.11653126
2326.14169189,0.11559908
2328.07049927,0.11398147
2329.99930664,0.11255258
2331.92811401,0.11175145
2333.85692139,0.11116812
2335.78572876,0.11083974
2337.71453613,0.11062939
2339.64334351,0.11063093
2341.57215088,0.11076440
2343.50095825,0.11266847
2345.42976562,0.11478540
2347.35857300,0.11968277
2349.28738037,0.12384306
2351.21618774,0.11926228
2353.14499512,0.11314788
2355.07380249,0.10900258
2357.00260986,0.10545013
2358.93141724,0.10338327
2360.86022461,0.10212815
2362.78903198,0.10215526
2364.71783936,0.10279515
2366.64664673,0.10418240
2368.57545410,0.10640139
2370.50426147,0.10909078
2372.43306885,0.11209747
2374.36187622,0.11539456
2376.29068359,0.11858004
2378.21949097,0.12123685
2380.14829834,0.12342791
2382.07710571,0.12463345
2384.00591309,0.12552822
2385.93472046,0.12597840
2387.86352783,0.12601846
2389.79233521,0.12592417
2391.72114258,0.12574466
2393.64994995,0.12572928
2395.57875732,0.12549652
2397.50756470,0.12543789
2399.43637207,0.12521876
2401.36517944,0.12505069
2403.29398682,0.12489029
2405.22279419,0.12461519
2407.15160156,0.12457345
2409.08040894,0.12440464
2411.00921631,0.12430647
2412.93802368,0.12408886
2414.86683105,0.12395191
2416.79563843,0.12370503
2418.72444580,0.12355463
2420.65325317,0.12355547
2422.58206055,0.12329190
2424.51086792,0.12317041
2426.43967529,0.12287378
2428.36848267,0.12280431
2430.29729004,0.12280205
2432.22609741,0.12258761
2434.15490479,0.12247194
2436.08371216,0.12237583
2438.01251953,0.12213889
2439.94132690,0.12187792
2441.87013428,0.12180795
2443.79894165,0.12148260
2445.72774902,0.12145354
2447.65655640,0.12131992
2449.58536377,0.12106679
2451.51417114,0.12104575
2453.44297852,0.12070040
2455.37178589,0.12062310
2457.30059326,0.12055632
2459.22940063,0.12043226
2461.15820801,0.12011096
2463.08701538,0.11994659
2465.01582275,0.11994667
2466.94463013,0.11959840
2468.87343750,0.11961851
2470.80224487,0.11950767
2472.73105225,0.11925101
2474.65985962,0.11897472
2476.58866699,0.11891924
2478.51747437,0.11883657
2480.44628174,0.11849490
2482.37508911,0.11850113
2484.30389648,0.11824183
2486.23270386,0.11810970
2488.16151123,0.11794063
2490.09031860,0.11780690
2492.01912598,0.11778364
2493.94793335,0.11748731
2495.87674072,0.11744615
2497.80554810,0.11713871
2499.73435547,0.11699776
2501.66316284,0.11694890
2503.59197021,0.11675072
2505.52077759,0.11659185
2507.44958496,0.11637232
2509.37839233,0.11642873
2511.30719971,0.11611837
2513.23600708,0.11578844
2515.16481445,0.11576796
2517.09362183,0.11566709
2519.02242920,0.11543868
2520.95123657,0.11520117
2522.88004395,0.11519645
2524.80885132,0.11520128
2526.73765869,0.11503699
2528.66646606,0.11468497
2530.59527344,0.11456056
2532.52408081,0.11446707
2534.45288818,0.11426176
2536.38169556,0.11413960
2538.31050293,0.11393926
2540.23931030,0.11378101
2542.16811768,0.11363709
2544.09692505,0.11359733
2546.02573242,0.11340809
2547.95453979,0.11311522
2549.88334717,0.11286937
2551.81215454,0.11275581
2553.74096191,0.11273248
2555.66976929,0.11239858
2557.59857666,0.11236891
2559.52738403,0.11236320
2561.45619141,0.11201535
2563.38499878,0.11183153
2565.31380615,0.11161592
2567.24261353,0.11142160
2569.17142090,0.11142466
2571.10022827,0.11128284
2573.02903564,0.11099368
2574.95784302,0.11088319
2576.88665039,0.11069199
2578.81545776,0.11047705
2580.74426514,0.11037220
2582.67307251,0.11027196
2584.60187988,0.11008684
2586.53068726,0.10984288
2588.45949463,0.10984124
2590.38830200,0.10967695
2592.31710937,0.10946156
2594.24591675,0.10934414
2596.17472412,0.10914332
2598.10353149,0.10902353
2600.03233887,0.10882661
2601.96114624,0.10861271
2603.88995361,0.10840189
2605.81876099,0.10829942
2607.74756836,0.10816326
2609.67637573,0.10788698
2611.60518311,0.10771178
2613.53399048,0.10757232
2615.46279785,0.10741263
2617.39160522,0.10728656
2619.32041260,0.10720718
2621.24921997,0.10702954
2623.17802734,0.10688688
2625.10683472,0.10665751
2627.03564209,0.10655451
2628.96444946,0.10646562
2630.89325684,0.10604033
2632.82206421,0.10592111
2634.75087158,0.10580621
2636.67967895,0.10568158
2638.60848633,0.10546972
2640.53729370,0.10514783
2642.46610107,0.10513352
2644.39490845,0.10487854
2646.32371582,0.10471301
2648.25252319,0.10459682
2650.18133057,0.10441273
2652.11013794,0.10426237
2654.03894531,0.10399380
2655.96775269,0.10396306
2657.89656006,0.10375102
2659.82536743,0.10351057
2661.75417480,0.10339874
2663.68298218,0.10320860
2665.61178955,0.10312262
2667.54059692,0.10285546
2669.46940430,0.10267718
2671.39821167,0.10255182
2673.32701904,0.10222208
2675.25582642,0.10215191
2677.18463379,0.10198707
2679.11344116,0.10171923
2681.04224854,0.10171054
2682.97105591,0.10143995
2684.89986328,0.10118563
2686.82867065,0.10111555
2688.75747803,0.10099207
2690.68628540,0.10085066
2692.61509277,0.10055140
2694.54390015,0.10037619
2696.47270752,0.10025150
2698.40151489,0.10007049
2700.33032227,0.09982243
2702.25912964,0.09960090
2704.18793701,0.09951544
2706.11674438,0.09926540
2708.04555176,0.09907608
2709.97435913,0.09894870
2711.90316650,0.09875908
2713.83197388,0.09856237
2715.76078125,0.09834410
2717.68958862,0.09809519
2719.61839600,0.09795402
2721.54720337,0.09785071
2723.47601074,0.09755874
2725.40481812,0.09736179
2727.33362549,0.09712535
2729.26243286,0.09701099
2731.19124023,0.09684192
2733.12004761,0.09657553
2735.04885498,0.09644530
2736.97766235,0.09614340
2738.90646973,0.09611864
2740.83527710,0.09582882
2742.76408447,0.09560487
2744.69289185,0.09559306
2746.62169922,0.09516154
2748.55050659,0.09506875
2750.47931396,0.09486020
2752.40812134,0.09469388
2754.33692871,0.09452540
2756.26573608,0.09423342
2758.19454346,0.09421577
2760.12335083,0.09388205
2762.05215820,0.09364037
2763.98096558,0.09348030
2765.90977295,0.09322707
2767.83858032,0.09294443
2769.76738770,0.09278428
2771.69619507,0.09270567
2773.62500244,0.09231231
2775.55380981,0.09212564
2777.48261719,0.09196551
2779.41142456,0.09174716
2781.34023193,0.09161352
2783.26903931,0.09134185
2785.19784668,0.09111061
2787.12665405,0.09098680
2789.05546143,0.09074428
2790.98426880,0.09036067
2792.91307617,0.09025543
2794.84188354,0.09009705
2796.77069092,0.08979086
2798.69949829,0.08963136
2800.62830566,0.08938207
2802.55711304,0.08909136
2804.48592041,0.08886310
2806.41472778,0.08859909
2808.34353516,0.08838548
2810.27234253,0.08824749
2812.20114990,0.08792943
2814.12995728,0.08771148
2816.05876465,0.08745606
2817.98757202,0.08716136
2819.91637939,0.08705495
2821.84518677,0.08672945
2823.77399414,0.08653975
2825.70280151,0.08630224
2827.63160889,0.08591974
2829.56041626,0.08575606
2831.48922363,0.08559243
2833.41803101,0.08523277
2835.34683838,0.08485749
2837.27564575,0.08473663
2839.20445312,0.08436135
2841.13326050,0.08398995
2843.06206787,0.08369511
2844.99087524,0.08317918
2846.91968262,0.08268417
2848.84848999,0.08219096
2850.77729736,0.08187559
2852.70610474,0.08154974
2854.63491211,0.08144557
2856.56371948,0.08131874
2858.49252686,0.08101726
2860.42133423,0.08087104
2862.35014160,0.08060721
2864.27894897,0.08051673
2866.20775635,0.08025582
2868.13656372,0.07998770
2870.06537109,0.07979688
2871.99417847,0.07939121
2873.92298584,0.07930344
2875.85179321,0.07919428
2877.78060059,0.07894235
2879.70940796,0.07870343
2881.63821533,0.07851757
2883.56702270,0.07824430
2885.49583008,0.07792819
2887.42463745,0.07785167
2889.35344482,0.07757887
2891.28225220,0.07713489
2893.21105957,0.07684079
2895.13986694,0.07661416
2897.06867432,0.07627437
2898.99748169,0.07601169
2900.92628906,0.07569876
2902.85509644,0.07532017
2904.78390381,0.07510545
2906.71271118,0.07463838
2908.64151855,0.07424873
2910.57032593,0.07391418
2912.49913330,0.07335448
2914.42794067,0.07288786
2916.35674805,0.07245363
2918.28555542,0.07209451
2920.21436279,0.07187849
2922.14317017,0.07168123
2924.07197754,0.07137113
2926.00078491,0.07113387
2927.92959229,0.07087063
2929.85839966,0.07064793
2931.78720703,0.07054511
2933.71601440,0.07025963
2935.64482178,0.07011386
2937.57362915,0.06998583
2939.50243652,0.06990663
2941.43124390,0.06981865
2943.36005127,0.06949297
2945.28885864,0.06929127
2947.21766602,0.06896271
2949.14647339,0.06872541
2951.07528076,0.06852897
2953.00408813,0.06803920
2954.93289551,0.06775551
2956.86170288,0.06745853
2958.79051025,0.06705504
2960.71931763,0.06673484
2962.64812500,0.06635660
2964.57693237,0.06612921
2966.50573975,0.06584561
2968.43454712,0.06557757
2970.36335449,0.06560384
2972.29216187,0.06540512
2974.22096924,0.06521634
2976.14977661,0.06515291
2978.07858398,0.06489813
2980.00739136,0.06471144
2981.93619873,0.06445829
2983.86500610,0.06421755
2985.79381348,0.06401601
2987.72262085,0.06370727
2989.65142822,0.06353530
2991.58023560,0.06326140
2993.50904297,0.06284386
2995.43785034,0.06257980
2997.36665771,0.06226949
2999.29546509,0.06198819
3001.22427246,0.06171720
3003.15307983,0.06130273
3005.08188721,0.06109087
3007.01069458,0.06076311
3008.93950195,0.06034747
3010.86830933,0.05995308
3012.79711670,0.05950871
3014.72592407,0.05933480
3016.65473145,0.05893860
3018.58353882,0.05863097
3020.51234619,0.05835404
3022.44115356,0.05796212
3024.36996094,0.05769391
3026.29876831,0.05718409
3028.22757568,0.05702332
3030.15638306,0.05662275
3032.08519043,0.05613443
3034.01399780,0.05589090
3035.94280518,0.05542221
3037.87161255,0.05533078
3039.80041992,0.05487823
3041.72922729,0.05445146
3043.65803467,0.05422677
3045.58684204,0.05372460
3047.51564941,0.05344660
3049.44445679,0.05306280
3051.37326416,0.05284794
3053.30207153,0.05249142
3055.23087891,0.05200041
3057.15968628,0.05180451
3059.08849365,0.05149902
3061.01730103,0.05107525
3062.94610840,0.05062802
3064.87491577,0.05024129
3066.80372314,0.04982386
3068.73253052,0.04965820
3070.66133789,0.04939160
3072.59014526,0.04902102
3074.51895264,0.04880241
3076.44776001,0.04827506
3078.37656738,0.04790773
3080.30537476,0.04751825
3082.23418213,0.04719965
3084.16298950,0.04699676
3086.09179687,0.04659660
3088.02060425,0.04635451
3089.94941162,0.04589853
3091.87821899,0.04561336
3093.80702637,0.04536340
3095.73583374,0.04477580
3097.66464111,0.04455663
3099.59344849,0.04427055
3101.52225586,0.04375592
3103.45106323,0.04346136
3105.37987061,0.04318658
3107.30867798,0.04282220
3109.23748535,0.04249730
3111.16629272,0.04225063
3113.09510010,0.04186798
3115.02390747,0.04137124
3116.95271484,0.04103437
3118.88152222,0.04076449
3120.81032959,0.04044387
3122.73913696,0.04004511
3124.66794434,0.03978842
3126.59675171,0.03953771
3128.52555908,0.03907388
3130.45436645,0.03882209
3132.38317383,0.03848041
3134.31198120,0.03812553
3136.24078857,0.03787121
3138.16959595,0.03747892
3140.09840332,0.03717121
3142.02721069,0.03684065
3143.95601807,0.03670363
3145.88482544,0.03634822
3147.81363281,0.03595971
3149.74244019,0.03569919
3151.67124756,0.03521809
3153.60005493,0.03507817
3155.52886230,0.03473036
3157.45766968,0.03441995
3159.38647705,0.03424369
3161.31528442,0.03398225
3163.24409180,0.03382097
3165.17289917,0.03341274
3167.10170654,0.03325184
3169.03051392,0.03291171
3170.95932129,0.03263771
3172.88812866,0.03241919
3174.81693604,0.03193637
3176.74574341,0.03185445
3178.67455078,0.03165468
3180.60335815,0.03151018
3182.53216553,0.03129303
3184.46097290,0.03094698
3186.38978027,0.03070286
3188.31858765,0.03055119
3190.24739502,0.03046209
3192.17620239,0.03007475
3194.10500977,0.03003387
3196.03381714,0.02986080
3197.96262451,0.02960471
3199.89143188,0.02960131
3201.82023926,0.02932214
3203.74904663,0.02908936
3205.67785400,0.02892035
3207.60666138,0.02881385
3209.53546875,0.02853531
3211.46427612,0.02853755
3213.39308350,0.02853368
3215.32189087,0.02822296
3217.25069824,0.02822391
3219.17950562,0.02802455
3221.10831299,0.02795219
3223.03712036,0.02782781
3224.96592773,0.02763369
3226.89473511,0.02765919
3228.82354248,0.02748096
3230.75234985,0.02740205
3232.68115723,0.02738521
3234.60996460,0.02737780
3236.53877197,0.02725212
3238.46757935,0.02713546
3240.39638672,0.02705154
3242.32519409,0.02705825
3244.25400146,0.02715109
3246.18280884,0.02697931
3248.11161621,0.02697691
3250.04042358,0.02694491
3251.96923096,0.02691930
3253.89803833,0.02690443
3255.82684570,0.02674624
3257.75565308,0.02674495
3259.68446045,0.02666181
3261.61326782,0.02663778
3263.54207520,0.02669141
3265.47088257,0.02667696
3267.39968994,0.02663826
3269.32849731,0.02665708
3271.25730469,0.02658273
3273.18611206,0.02649845
3275.11491943,0.02646993
3277.04372681,0.02638352
3278.97253418,0.02653584
3280.90134155,0.02650481
3282.83014893,0.02642743
3284.75895630,0.02639182
3286.68776367,0.02634850
3288.61657104,0.02638962
3290.54537842,0.02619942
3292.47418579,0.02630687
3294.40299316,0.02632244
3296.33180054,0.02619329
3298.26060791,0.02626963
3300.18941528,0.02627071
3302.11822266,0.02624005
3304.04703003,0.02611051
3305.97583740,0.02615402
3307.90464478,0.02611787
3309.83345215,0.02600437
3311.76225952,0.02603865
3313.69106689,0.02603837
3315.61987427,0.02603088
3317.54868164,0.02599437
3319.47748901,0.02599269
3321.40629639,0.02598998
3323.33510376,0.02600514
3325.26391113,0.02591895
3327.19271851,0.02586483
3329.12152588,0.02589992
3331.05033325,0.02595486
3332.97914062,0.02594427
3334.90794800,0.02584822
3336.83675537,0.02585076
3338.76556274,0.02573183
3340.69437012,0.02582115
3342.62317749,0.02590347
3344.55198486,0.02582461
3346.48079224,0.02579698
3348.40959961,0.02573369
3350.33840698,0.02579841
3352.26721436,0.02572695
3354.19602173,0.02575221
3356.12482910,0.02573626
3358.05363647,0.02571858
3359.98244385,0.02578313
3361.91125122,0.02575454
3363.84005859,0.02582991
3365.76886597,0.02577026
3367.69767334,0.02577171
3369.62648071,0.02572101
3371.55528809,0.02581851
3373.48409546,0.02586184
3375.41290283,0.02582193
3377.34171020,0.02591258
3379.27051758,0.02577555
3381.19932495,0.02596377
3383.12813232,0.02595776
3385.05693970,0.02592072
3386.98574707,0.02604695
3388.91455444,0.02610210
3390.84336182,0.02614640
3392.77216919,0.02598919
3394.70097656,0.02618562
3396.62978394,0.02621809
3398.55859131,0.02629878
3400.48739868,0.02628640
3402.41620605,0.02627815
3404.34501343,0.02648504
3406.27382080,0.02636692
3408.20262817,0.02663945
3410.13143555,0.02658545
3412.06024292,0.02666106
3413.98905029,0.02689513
3415.91785767,0.02682608
3417.84666504,0.02701294
3419.77547241,0.02692387
3421.70427979,0.02702409
3423.63308716,0.02718629
3425.56189453,0.02731535
3427.49070190,0.02730979
3429.41950928,0.02736149
3431.34831665,0.02754335
3433.27712402,0.02748157
3435.20593140,0.02755855
3437.13473877,0.02753928
3439.06354614,0.02778968
3440.99235352,0.02771903
3442.92116089,0.02779513
3444.84996826,0.02811101
3446.77877563,0.02782727
3448.70758301,0.02812901
3450.63639038,0.02838732
3452.56519775,0.02850251
3454.49400513,0.02870885
3456.42281250,0.02867301
3458.35161987,0.02880549
3460.28042725,0.02889948
3462.20923462,0.02883315
3464.13804199,0.02898441
3466.06684937,0.02915757
3467.99565674,0.02908266
3469.92446411,0.02938497
3471.85327148,0.02936655
3473.78207886,0.02946150
3475.71088623,0.02967630
3477.63969360,0.02957144
3479.56850098,0.02995462
3481.49730835,0.02981964
3483.42611572,0.02990771
3485.35492310,0.03020198
3487.28373047,0.03011163
3489.21253784,0.03029083
3491.14134521,0.03050821
3493.07015259,0.03058981
3494.99895996,0.03058606
3496.92776733,0.03080240
3498.85657471,0.03085659
3500.78538208,0.03110344
3502.71418945,0.03070164
3504.64299683,0.03080835
3506.57180420,0.03173941
3508.50061157,0.03122574
3510.42941895,0.03143803
3512.35822632,0.03183826
3514.28703369,0.03194424
3516.21584106,0.03215747
3518.14464844,0.03195252
3520.07345581,0.03225749
3522.00226318,0.03203691
3523.93107056,0.03193942
3525.85987793,0.03217511
3527.78868530,0.03229490
3529.71749268,0.03251423
3531.64630005,0.03295507
3533.57510742,0.03326299
3535.50391479,0.03298349
3537.43272217,0.03320022
3539.36152954,0.03350018
3541.29033691,0.03369964
3543.21914429,0.03357336
3545.14795166,0.03298435
3547.07675903,0.03279396
3549.00556641,0.03381538
3550.93437378,0.03422906
3552.86318115,0.03348468
3554.79198853,0.03430679
3556.72079590,0.03461661
3558.64960327,0.03452820
3560.57841064,0.03448068
3562.50721802,0.03438942
3564.43602539,0.03487500
3566.36483276,0.03281642
3568.29364014,0.03210923
3570.22244751,0.03464629
3572.15125488,0.03566825
3574.08006226,0.03532797
3576.00886963,0.03556789
3577.93767700,0.03562192
3579.86648437,0.03558712
3581.79529175,0.03584010
3583.72409912,0.03601881
3585.65290649,0.03541633
3587.58171387,0.03287134
3589.51052124,0.03384846
3591.43932861,0.03661875
3593.36813599,0.03582038
3595.29694336,0.03549670
3597.22575073,0.03602282
3599.15455811,0.03647948
3601.08336548,0.03626471
3603.01217285,0.03668407
3604.94098022,0.03751933
3606.86978760,0.03633022
3608.79859497,0.03447063
3610.72740234,0.03516242
3612.65620972,0.03609201
3614.58501709,0.03524170
3616.51382446,0.03766853
3618.44263184,0.03519665
3620.37143921,0.03405707
3622.30024658,0.03834038
3624.22905395,0.03747853
3626.15786133,0.03918339
3628.08666870,0.03379858
3630.01547607,0.03093858
3631.94428345,0.03836120
3633.87309082,0.03767340
3635.80189819,0.03839636
3637.73070557,0.03923024
3639.65951294,0.03885292
3641.58832031,0.03934114
3643.51712769,0.03894242
3645.44593506,0.03944949
3647.37474243,0.03579244
3649.30354980,0.03305035
3651.23235718,0.03366350
3653.16116455,0.03980832
3655.08997192,0.03935469
3657.01877930,0.03567119
3658.94758667,0.04087203
3660.87639404,0.04010978
3662.80520142,0.04081132
3664.73400879,0.04075198
3666.66281616,0.04047643
3668.59162354,0.03967714
3670.52043091,0.03283032
3672.44923828,0.03929891
3674.37804565,0.03785650
3676.30685303,0.03173457
3678.23566040,0.03942829
3680.16446777,0.04044674
3682.09327515,0.04046480
3684.02208252,0.04182524
3685.95088989,0.04131246
3687.87969727,0.03741239
3689.80850464,0.03456960
3691.73731201,0.03930746
3693.66611938,0.04037850
3695.59492676,0.04128189
3697.52373413,0.04131163
3699.45254150,0.04095054
3701.38134888,0.04021877
3703.31015625,0.03863238
3705.23896362,0.04230659
3707.16777100,0.04048547
3709.09657837,0.03949373
3711.02538574,0.03746430
3712.95419312,0.03509561
3714.88300049,0.04079198
3716.81180786,0.04029714
3718.74061523,0.04059258
3720.66942261,0.03980540
3722.59822998,0.03841530
3724.52703735,0.03988948
3726.45584473,0.03714472
3728.38465210,0.04009460
3730.31345947,0.03968430
3732.24226685,0.03667966
3734.17107422,0.03594691
3736.09988159,0.03417137
3738.02868896,0.03602175
3739.95749634,0.03877582
3741.88630371,0.04056226
3743.81511108,0.03204078
3745.74391846,0.03028469
3747.67272583,0.03866046
3749.60153320,0.03357302
3751.53034058,0.03106215
3753.45914795,0.03534847
3755.38795532,0.03796847
3757.31676270,0.03929162
3759.24557007,0.03655540
3761.17437744,0.03782045
3763.10318481,0.03998788
3765.03199219,0.03758262
3766.96079956,0.03819986
3768.88960693,0.03782153
3770.81841431,0.03613123
3772.74722168,0.03884197
3774.67602905,0.03907939
3776.60483643,0.03899159
3778.53364380,0.03795856
3780.46245117,0.03655717
3782.39125854,0.03885406
3784.32006592,0.03805037
3786.24887329,0.03779992
3788.17768066,0.03859264
3790.10648804,0.03838878
3792.03529541,0.03812660
3793.96410278,0.03866239
3795.89291016,0.03654160
3797.82171753,0.03609302
3799.75052490,0.03787817
3801.67933228,0.03044768
3803.60813965,0.03525699
3805.53694702,0.03809582
3807.46575439,0.03141957
3809.39456177,0.03773868
3811.32336914,0.03689694
3813.25217651,0.03811432
3815.18098389,0.03477268
3817.10979126,0.03060219
3819.03859863,0.03822479
3820.96740601,0.03128394
3822.89621338,0.03262056
3824.82502075,0.03781129
3826.75382812,0.03436850
3828.68263550,0.03687950
3830.61144287,0.03564648
3832.54025024,0.03447637
3834.46905762,0.03507614
3836.39786499,0.03351599
3838.32667236,0.03039394
3840.25547974,0.03279818
3842.18428711,0.03522528
3844.11309448,0.03354125
3846.04190186,0.03612055
3847.97070923,0.03553750
3849.89951660,0.03576901
3851.82832397,0.03239813
3853.75713135,0.02456376
3855.68593872,0.02878853
3857.61474609,0.03575518
3859.54355347,0.03486123
3861.47236084,0.03439608
3863.40116821,0.03377562
3865.32997559,0.03136344
3867.25878296,0.03487876
3869.18759033,0.03211766
3871.11639770,0.02971158
3873.04520508,0.03508799
3874.97401245,0.03226312
3876.90281982,0.03457668
3878.83162720,0.03538568
3880.76043457,0.03055642
3882.68924194,0.03480833
3884.61804932,0.03281083
3886.54685669,0.03020124
3888.47566406,0.03481693
3890.40447144,0.03311218
3892.33327881,0.03107235
3894.26208618,0.03388103
3896.19089355,0.03444611
3898.11970093,0.03287136
3900.04850830,0.03123022
3901.97731567,0.03082067
3903.90612305,0.03066463
3905.83493042,0.03106025
3907.76373779,0.03378267
3909.69254517,0.03367335
3911.62135254,0.03329664
3913.55015991,0.03400840
3915.47896728,0.03280707
3917.40777466,0.03204404
3919.33658203,0.03176596
3921.26538940,0.03278675
3923.19419678,0.03273968
3925.12300415,0.03209957
3927.05181152,0.03259129
3928.98061890,0.03279757
3930.90942627,0.03228354
3932.83823364,0.03128222
3934.76704102,0.03248847
3936.69584839,0.03270874
3938.62465576,0.03234797
3940.55346313,0.03273527
3942.48227051,0.03147888
3944.41107788,0.03177088
3946.33988525,0.03228036
3948.26869263,0.03150937
3950.19750000,0.03152622
3952.12630737,0.03184489
3954.05511475,0.03184565
3955.98392212,0.03186601
3957.91272949,0.03176975
3959.84153687,0.03171895
3961.77034424,0.03159614
3963.69915161,0.03135833
3965.62795898,0.03166834
3967.55676636,0.03147903
3969.48557373,0.03137387
3971.41438110,0.03134064
3973.34318848,0.03111551
3975.27199585,0.03115641
3977.20080322,0.03103399
3979.12961060,0.03116333
3981.05841797,0.03096193
3982.98722534,0.03101566
3984.91603271,0.03090118
3986.84484009,0.03082309
3988.77364746,0.03094151
3990.70245483,0.03055649
3992.63126221,0.03068104
3994.56006958,0.03048554
3996.48887695,0.03057143
3998.41768433,0.03051881
4000.34649170,0.03029253
4002.27529907,0.03042671
4004.20410645,0.03019228
4006.13291382,0.03027627
4008.06172119,0.03004425
4009.99052856,0.03001915
4011.91933594,0.03000749
4013.84814331,0.02986332
4015.77695068,0.02986052
4017.70575806,0.02978687
4019.63456543,0.02979985
4021.56337280,0.02954328
4023.49218018,0.02969640
4025.42098755,0.02944595
4027.34979492,0.02938490
4029.27860229,0.02947532
4031.20740967,0.02923602
4033.13621704,0.02939233
4035.06502441,0.02916835
4036.99383179,0.02917821
4038.92263916,0.02905331
4040.85144653,0.02902314
4042.78025391,0.02897498
4044.70906128,0.02872426
4046.63786865,0.02886796
4048.56667603,0.02874058
4050.49548340,0.02879278
4052.42429077,0.02867506
4054.35309814,0.02862385
4056.28190552,0.02856023
4058.21071289,0.02839594
4060.13952026,0.02842493
4062.06832764,0.02835575
4063.99713501,0.02842579
4065.92594238,0.02816271
4067.85474976,0.02811850
4069.78355713,0.02807593
4071.71236450,0.02798714
4073.64117187,0.02794387
4075.56997925,0.02772454
4077.49878662,0.02778521
4079.42759399,0.02772144
4081.35640137,0.02770340
4083.28520874,0.02753845
4085.21401611,0.02754626
4087.14282349,0.02749773
4089.07163086,0.02732399
4091.00043823,0.02739600
4092.92924561,0.02725179
4094.85805298,0.02729062
4096.78686035,0.02718050
4098.71566772,0.02713147
4100.64447510,0.02706601
4102.57328247,0.02701713
4104.50208984,0.02697679
4106.43089722,0.02679661
4108.35970459,0.02689489
4110.28851196,0.02669946
4112.21731934,0.02670815
4114.14612671,0.02665702
4116.07493408,0.02663384
4118.00374145,0.02652931
4119.93254883,0.02623839
4121.86135620,0.02648845
4123.79016357,0.02632955
4125.71897095,0.02628226
4127.64777832,0.02629200
4129.57658569,0.02612041
4131.50539307,0.02606954
4133.43420044,0.02603685
4135.36300781,0.02606563
4137.29181519,0.02590423
4139.22062256,0.02592996
4141.14942993,0.02572073
4143.07823730,0.02570285
4145.00704468,0.02572162
4146.93585205,0.02555221
4148.86465942,0.02559726
4150.79346680,0.02550266
4152.72227417,0.02560333
4154.65108154,0.02541897
4156.57988892,0.02531161
4158.50869629,0.02530123
4160.43750366,0.02520633
4162.36631103,0.02518270
4164.29511841,0.02506860
4166.22392578,0.02515091
4168.15273315,0.02490184
4170.08154053,0.02487552
4172.01034790,0.02490733
4173.93915527,0.02481742
4175.86796265,0.02483645
4177.79677002,0.02470607
4179.72557739,0.02473491
4181.65438477,0.02452496
4183.58319214,0.02446500
4185.51199951,0.02451599
4187.44080688,0.02447001
4189.36961426,0.02436992
4191.29842163,0.02432741
4193.22722900,0.02434162
4195.15603638,0.02407355
4197.08484375,0.02414440
4199.01365112,0.02405892
4200.94245850,0.02396769
4202.87126587,0.02401413
4204.80007324,0.02385341
4206.72888062,0.02388333
4208.65768799,0.02378506
4210.58649536,0.02375720
4212.51530273,0.02372543
4214.44411011,0.02366537
4216.37291748,0.02360885
4218.30172485,0.02351497
4220.23053223,0.02349197
4222.15933960,0.02341423
4224.08814697,0.02342917
4226.01695435,0.02334588
4227.94576172,0.02322350
4229.87456909,0.02316984
4231.80337646,0.02322087
4233.73218384,0.02316375
4235.66099121,0.02303817
4237.58979858,0.02303389
4239.51860596,0.02297577
4241.44741333,0.02292331
4243.37622070,0.02281307
4245.30502808,0.02280657
4247.23383545,0.02266114
4249.16264282,0.02262684
4251.09145020,0.02268639
4253.02025757,0.02254601
4254.94906494,0.02258982
4256.87787231,0.02248519
4258.80667969,0.02240736
4260.73548706,0.02234240
4262.66429443,0.02233820
4264.59310181,0.02230257
4266.52190918,0.02212963
4268.45071655,0.02218295
4270.37952393,0.02203376
4272.30833130,0.02197736
4274.23713867,0.02203408
4276.16594604,0.02195960
4278.09475342,0.02188778
4280.02356079,0.02186312
4281.95236816,0.02181162
4283.88117554,0.02173537
4285.80998291,0.02172580
4287.73879028,0.02153211
4289.66759766,0.02159861
4291.59640503,0.02161942
4293.52521240,0.02145980
4295.45401978,0.02143736
4297.38282715,0.02136914
4299.31163452,0.02137326
4301.24044189,0.02131886
4303.16924927,0.02133567
4305.09805664,0.02120532
4307.02686401,0.02114231
4308.95567139,0.02108226
4310.88447876,0.02097252
4312.81328613,0.02110308
4314.74209351,0.02092993
4316.67090088,0.02088226
4318.59970825,0.02089028
4320.52851562,0.02082859
4322.45732300,0.02081149
4324.38613037,0.02072562
4326.31493774,0.02066839
4328.24374512,0.02060744
4330.17255249,0.02067319
4332.10135986,0.02047428
4334.03016724,0.02038334
4335.95897461,0.02041964
4337.88778198,0.02041058
4339.81658936,0.02037974
4341.74539673,0.02021549
4343.67420410,0.02027981
4345.60301147,0.02017233
4347.53181885,0.02008992
4349.46062622,0.02005959
4351.38943359,0.02006430
4353.31824097,0.01996580
4355.24704834,0.01977634
4357.17585571,0.01993329
4359.10466309,0.01980270
4361.03347046,0.01979900
4362.96227783,0.01985271
4364.89108520,0.01977498
4366.81989258,0.01969917
4368.74869995,0.01953651
4370.67750732,0.01963941
4372.60631470,0.01951917
4374.53512207,0.01943189
4376.46392944,0.01941954
4378.39273682,0.01931696
4380.32154419,0.01923971
4382.25035156,0.01921166
4384.17915894,0.01927746
4386.10796631,0.01915514
4388.03677368,0.01912708
4389.96558105,0.01905976
4391.89438843,0.01900673
4393.82319580,0.01896436
4395.75200317,0.01896887
4397.68081055,0.01899374
4399.60961792,0.01877682
4401.53842529,0.01874620
4403.46723267,0.01871789
4405.39604004,0.01875350
4407.32484741,0.01866039
4409.25365478,0.01855532
4411.18246216,0.01866433
4413.11126953,0.01859838
4415.04007690,0.01858552
4416.96888428,0.01845142
4418.89769165,0.01842207
4420.82649902,0.01837894
4422.75530640,0.01824687
4424.68411377,0.01826764
4426.61292114,0.01816492
4428.54172852,0.01815622
4430.47053589,0.01814958
4432.39934326,0.01809718
4434.32815063,0.01799196
4436.25695801,0.01787485
4438.18576538,0.01787650
4440.11457275,0.01790963
4442.04338013,0.01785932
4443.97218750,0.01777560
4445.90099487,0.01777442
4447.82980225,0.01768471
4449.75860962,0.01765992
4451.68741699,0.01763945
4453.61622437,0.01761258
4455.54503174,0.01753143
4457.47383911,0.01746672
4459.40264648,0.01747627
4461.33145386,0.01734934
4463.26026123,0.01740162
4465.18906860,0.01732472
4467.11787598,0.01722584
4469.04668335,0.01726340
4470.97549072,0.01725677
4472.90429810,0.01723254
4474.83310547,0.01709219
4476.76191284,0.01705431
4478.69072021,0.01693936
4480.61952759,0.01696364
4482.54833496,0.01699744
4484.47714233,0.01693670
4486.40594971,0.01687942
4488.33475708,0.01674493
4490.26356445,0.01678808
4492.19237183,0.01665591
4494.12117920,0.01667666
4496.04998657,0.01668917
4497.97879395,0.01657711
4499.90760132,0.01656907
4501.83640869,0.01642251
4503.76521606,0.01646061
4505.69402344,0.01648432
4507.62283081,0.01649687
4509.55163818,0.01631705
4511.48044556,0.01626691
4513.40925293,0.01640026
4515.33806030,0.01617914
4517.26686768,0.01619156
4519.19567505,0.01619054
4521.12448242,0.01607205
4523.05328979,0.01602618
4524.98209717,0.01600841
4526.91090454,0.01596946
4528.83971191,0.01594654
4530.76851929,0.01600543
4532.69732666,0.01583172
4534.62613403,0.01579240
4536.55494141,0.01581873
4538.48374878,0.01576706
4540.41255615,0.01565903
4542.34136353,0.01561401
4544.27017090,0.01571107
4546.19897827,0.01562576
4548.12778564,0.01562448
4550.05659302,0.01554861
4551.98540039,0.01551053
4553.91420776,0.01547324
4555.84301514,0.01537630
4557.77182251,0.01546936
4559.70062988,0.01532932
4561.62943726,0.01525676
4563.55824463,0.01525526
4565.48705200,0.01514965
4567.41585937,0.01514545
4569.34466675,0.01512878
4571.27347412,0.01510012
4573.20228149,0.01504821
4575.13108887,0.01499122
4577.05989624,0.01495591
4578.98870361,0.01493046
4580.91751099,0.01491616
4582.84631836,0.01489104
4584.77512573,0.01476944
4586.70393311,0.01477761
4588.63274048,0.01481641
4590.56154785,0.01469030
4592.49035522,0.01465543
4594.41916260,0.01465237
4596.34796997,0.01461306
4598.27677734,0.01451203
4600.20558472,0.01450405
4602.13439209,0.01444938
4604.06319946,0.01437191
4605.99200684,0.01442869
4607.92081421,0.01436755
4609.84962158,0.01432036
4611.77842895,0.01419265
4613.70723633,0.01416182
4615.63604370,0.01421776
4617.56485107,0.01418854
4619.49365845,0.01416446
4621.42246582,0.01409008
4623.35127319,0.01412727
4625.28008057,0.01404999
4627.20888794,0.01394221
4629.13769531,0.01394676
4631.06650269,0.01396450
4632.99531006,0.01391833
4634.92411743,0.01387497
4636.85292480,0.01383353
4638.78173218,0.01376056
4640.71053955,0.01384378
4642.63934692,0.01366338
4644.56815430,0.01362853
4646.49696167,0.01366012
4648.42576904,0.01353236
4650.35457642,0.01368665
4652.28338379,0.01362517
4654.21219116,0.01356309
4656.14099853,0.01348637
4658.06980591,0.01343776
4659.99861328,0.01343261
4661.92742065,0.01333677
4663.85622803,0.01336586
4665.78503540,0.01321041
4667.71384277,0.01321924
4669.64265015,0.01326067
4671.57145752,0.01324866
4673.50026489,0.01326048
4675.42907227,0.01312784
4677.35787964,0.01306531
4679.28668701,0.01307443
4681.21549438,0.01308433
4683.14430176,0.01294574
4685.07310913,0.01298101
4687.00191650,0.01296846
4688.93072388,0.01296328
4690.85953125,0.01296720
4692.78833862,0.01279481
4694.71714600,0.01288235
4696.64595337,0.01275413
4698.57476074,0.01275431
4700.50356812,0.01281493
4702.43237549,0.01265784
4704.36118286,0.01264743
4706.28999023,0.01258727
4708.21879761,0.01258404
4710.14760498,0.01250067
4712.07641235,0.01251675
4714.00521973,0.01249086
4715.93402710,0.01245992
4717.86283447,0.01247192
4719.79164185,0.01229726
4721.72044922,0.01230870
4723.64925659,0.01231603
4725.57806396,0.01233386
4727.50687134,0.01223197
4729.43567871,0.01219520
4731.36448608,0.01225055
4733.29329346,0.01213878
4735.22210083,0.01219002
4737.15090820,0.01215147
4739.07971558,0.01209948
4741.00852295,0.01203436
4742.93733032,0.01201511
4744.86613770,0.01204405
4746.79494507,0.01195936
4748.72375244,0.01196964
4750.65255981,0.01193362
4752.58136719,0.01191918
4754.51017456,0.01186264
4756.43898193,0.01180452
4758.36778931,0.01184171
4760.29659668,0.01180377
4762.22540405,0.01172953
4764.15421143,0.01176912
4766.08301880,0.01173709
4768.01182617,0.01163188
4769.94063354,0.01160475
4771.86944092,0.01148033
4773.79824829,0.01161989
4775.72705566,0.01155725
4777.65586304,0.01142299
4779.58467041,0.01153713
4781.51347778,0.01135745
4783.44228516,0.01145172
4785.37109253,0.01137113
4787.29989990,0.01122622
4789.22870728,0.01132870
4791.15751465,0.01126195
4793.08632202,0.01130893
4795.01512939,0.01121087
4796.94393677,0.01118599
4798.87274414,0.01120120
4800.80155151,0.01114983
4802.73035889,0.01112017
4804.65916626,0.01105721
4806.58797363,0.01101978
4808.51678101,0.01093806
4810.44558838,0.01101354
4812.37439575,0.01094568
4814.30320312,0.01093442
4816.23201050,0.01096973
4818.16081787,0.01083923
4820.08962524,0.01085563
4822.01843262,0.01085350
4823.94723999,0.01083459
4825.87604736,0.01075525
4827.80485474,0.01076037
4829.73366211,0.01069389
4831.66246948,0.01055929
4833.59127686,0.01063703
4835.52008423,0.01062030
4837.44889160,0.01055405
4839.37769897,0.01051999
4841.30650635,0.01052512
4843.23531372,0.01049612
4845.16412109,0.01049545
4847.09292847,0.01049626
4849.02173584,0.01040373
4850.95054321,0.01039303
4852.87935059,0.01039318
4854.80815796,0.01036636
4856.73696533,0.01033516
4858.66577270,0.01037598
4860.59458008,0.01030589
4862.52338745,0.01022827
4864.45219482,0.01023201
4866.38100220,0.01011698
4868.30980957,0.01009077
4870.23861694,0.01012420
4872.16742432,0.01015840
4874.09623169,0.01006932
4876.02503906,0.01004610
4877.95384644,0.01007945
4879.88265381,0.00995910
4881.81146118,0.00999259
4883.74026855,0.01001953
4885.66907593,0.01000501
4887.59788330,0.00994956
4889.52669067,0.00987776
4891.45549805,0.00988591
4893.38430542,0.00985586
4895.31311279,0.00987304
4897.24192017,0.00980303
4899.17072754,0.00967425
4901.09953491,0.00969286
4903.02834228,0.00970306
4904.95714966,0.00965822
4906.88595703,0.00967123
4908.81476440,0.00957759
4910.74357178,0.00958914
4912.67237915,0.00962519
4914.60118652,0.00953715
4916.52999390,0.00958833
4918.45880127,0.00944978
4920.38760864,0.00945876
4922.31641602,0.00949088
4924.24522339,0.00936842
4926.17403076,0.00943136
4928.10283813,0.00933684
4930.03164551,0.00935387
4931.96045288,0.00929860
4933.88926025,0.00930145
4935.81806763,0.00939759
4937.74687500,0.00919716
4939.67568237,0.00923828
4941.60448975,0.00920459
4943.53329712,0.00908407
4945.46210449,0.00913047
4947.39091187,0.00910027
4949.31971924,0.00908396
4951.24852661,0.00905283
4953.17733398,0.00902248
4955.10614136,0.00897968
4957.03494873,0.00892341
4958.96375610,0.00893643
4960.89256348,0.00893051
4962.82137085,0.00886067
4964.75017822,0.00889582
4966.67898560,0.00887258
4968.60779297,0.00881920
4970.53660034,0.00885049
4972.46540771,0.00874565
4974.39421509,0.00871645
4976.32302246,0.00873333
4978.25182983,0.00869144
4980.18063721,0.00866470
4982.10944458,0.00870083
4984.03825195,0.00872356
4985.96705933,0.00861110
4987.89586670,0.00852963
4989.82467407,0.00852974
4991.75348145,0.00857815
4993.68228882,0.00853790
4995.61109619,0.00858324
4997.53990356,0.00853721
4999.46871094,0.00837258
5001.39751831,0.00845330
5003.32632568,0.00845203
5005.25513306,0.00841871
5007.18394043,0.00830257
5009.11274780,0.00824998
5011.04155518,0.00832997
5012.97036255,0.00828277
5014.89916992,0.00827436
5016.82797729,0.00825432
5018.75678467,0.00828925
5020.68559204,0.00817300
5022.61439941,0.00815501
5024.54320679,0.00823911
5026.47201416,0.00806253
5028.40082153,0.00806318
5030.32962891,0.00810889
5032.25843628,0.00807926
5034.18724365,0.00806104
5036.11605103,0.00804147
5038.04485840,0.00799969
5039.97366577,0.00796667
5041.90247314,0.00795085
5043.83128052,0.00792255
5045.76008789,0.00797088
5047.68889526,0.00790628
5049.61770264,0.00785244
5051.54651001,0.00778037
5053.47531738,0.00778122
5055.40412476,0.00781987
5057.33293213,0.00774292
5059.26173950,0.00782545
5061.19054687,0.00778674
5063.11935425,0.00771691
5065.04816162,0.00768463
5066.97696899,0.00766110
5068.90577637,0.00768222
5070.83458374,0.00766201
5072.76339111,0.00765170
5074.69219849,0.00754789
5076.62100586,0.00758207
5078.54981323,0.00753811
5080.47862061,0.00746578
5082.40742798,0.00748246
5084.33623535,0.00744285
5086.26504272,0.00753792
5088.19385010,0.00752861
5090.12265747,0.00746318
5092.05146484,0.00741560
5093.98027222,0.00741982
5095.90907959,0.00741403
5097.83788696,0.00736107
5099.76669434,0.00733631
5101.69550171,0.00728711
5103.62430908,0.00733107
5105.55311645,0.00729232
5107.48192383,0.00727206
5109.41073120,0.00725652
5111.33953857,0.00726078
5113.26834595,0.00722299
5115.19715332,0.00711505
5117.12596069,0.00715214
5119.05476807,0.00708601
5120.98357544,0.00714916
5122.91238281,0.00707268
5124.84119019,0.00699810
5126.76999756,0.00715533
5128.69880493,0.00707164
5130.62761230,0.00704023
5132.55641968,0.00696564
5134.48522705,0.00699131
5136.41403442,0.00703560
5138.34284180,0.00698452
5140.27164917,0.00700377
5142.20045654,0.00686500
5144.12926392,0.00689908
5146.05807129,0.00695143
5147.98687866,0.00688623
5149.91568603,0.00687218
5151.84449341,0.00685849
5153.77330078,0.00679717
5155.70210815,0.00678018
5157.63091553,0.00678430
5159.55972290,0.00666275
5161.48853027,0.00677044
5163.41733765,0.00674908
5165.34614502,0.00660415
5167.27495239,0.00672017
5169.20375977,0.00672128
5171.13256714,0.00663691
5173.06137451,0.00655334
5174.99018188,0.00658178
5176.91898926,0.00659190
5178.84779663,0.00652301
5180.77660400,0.00656863
5182.70541138,0.00655054
5184.63421875,0.00651923
5186.56302612,0.00650076
5188.49183350,0.00644298
5190.42064087,0.00644206
5192.34944824,0.00648123
5194.27825562,0.00646881
5196.20706299,0.00636082
5198.13587036,0.00630988
5200.06467773,0.00634638
5201.99348511,0.00633612
5203.92229248,0.00637187
5205.85109985,0.00624570
5207.77990723,0.00612107
5209.70871460,0.00626217
5211.63752197,0.00621618
5213.56632935,0.00629133
5215.49513672,0.00632823
5217.42394409,0.00615795
5219.35275146,0.00616716
5221.28155884,0.00612468
5223.21036621,0.00620049
5225.13917358,0.00606416
5227.06798096,0.00597789
5228.99678833,0.00618592
5230.92559570,0.00604883
5232.85440308,0.00599266
5234.78321045,0.00607828
5236.71201782,0.00610697
5238.64082520,0.00608920
5240.56963257,0.00610383
5242.49843994,0.00603431
5244.42724731,0.00587266
5246.35605469,0.00594396
5248.28486206,0.00584013
5250.21366943,0.00588236
5252.14247681,0.00603213
5254.07128418,0.00585255
5256.00009155,0.00586492
5257.92889893,0.00590926
5259.85770630,0.00587317
5261.78651367,0.00585369
5263.71532104,0.00568775
5265.64412842,0.00566766
5267.57293579,0.00585877
5269.50174316,0.00587182
5271.43055054,0.00585122
5273.35935791,0.00585341
5275.28816528,0.00572762
5277.21697266,0.00575590
5279.14578003,0.00578244
5281.07458740,0.00580067
5283.00339478,0.00576872
5284.93220215,0.00557945
5286.86100952,0.00565966
5288.78981689,0.00569275
5290.71862427,0.00554221
5292.64743164,0.00560101
5294.57623901,0.00569772
5296.50504639,0.00566694
5298.43385376,0.00557497
5300.36266113,0.00555966
5302.29146851,0.00559399
5304.22027588,0.00555912
5306.14908325,0.00549810
5308.07789062,0.00543257
5310.00669800,0.00549752
5311.93550537,0.00559677
5313.86431274,0.00551751
5315.79312012,0.00541844
5317.72192749,0.00541647
5319.65073486,0.00550645
5321.57954224,0.00545238
5323.50834961,0.00532611
5325.43715698,0.00534945
5327.36596436,0.00530506
5329.29477173,0.00529350
5331.22357910,0.00530914
5333.15238647,0.00524333
5335.08119385,0.00529512
5337.01000122,0.00529407
5338.93880859,0.00508637
5340.86761597,0.00519526
5342.79642334,0.00531276
5344.72523071,0.00503761
5346.65403809,0.00511528
5348.58284546,0.00515307
5350.51165283,0.00513620
5352.44046020,0.00520744
5354.36926758,0.00498683
5356.29807495,0.00512524
5358.22688232,0.00514692
5360.15568970,0.00508804
5362.08449707,0.00519182
5364.01330444,0.00504414
5365.94211182,0.00505916
5367.87091919,0.00504292
5369.79972656,0.00503415
5371.72853394,0.00500493
5373.65734131,0.00500354
5375.58614868,0.00500936
5377.51495605,0.00477936
5379.44376343,0.00488093
5381.37257080,0.00500420
5383.30137817,0.00495296
5385.23018555,0.00487437
5387.15899292,0.00482009
5389.08780029,0.00497510
5391.01660767,0.00498261
5392.94541504,0.00486158
5394.87422241,0.00475866
5396.80302978,0.00483498
5398.73183716,0.00493897
5400.66064453,0.00483824
5402.58945190,0.00482401
5404.51825928,0.00479452
5406.44706665,0.00478293
5408.37587402,0.00475960
5410.30468140,0.00463893
5412.23348877,0.00468764
5414.16229614,0.00462194
5416.09110352,0.00459411
5418.01991089,0.00478201
5419.94871826,0.00472031
5421.87752563,0.00467647
5423.80633301,0.00468546
5425.73514038,0.00466796
5427.66394775,0.00462283
5429.59275513,0.00445323
5431.52156250,0.00460918
5433.45036987,0.00467552
5435.37917725,0.00452196
5437.30798462,0.00456947
5439.23679199,0.00456288
5441.16559936,0.00447696
5443.09440674,0.00443154
5445.02321411,0.00446138
5446.95202148,0.00447532
5448.88082886,0.00448223
5450.80963623,0.00441758
5452.73844360,0.00445789
5454.66725098,0.00452166
5456.59605835,0.00437867
5458.52486572,0.00447088
5460.45367310,0.00443070
5462.38248047,0.00432167
5464.31128784,0.00440325
5466.24009521,0.00436915
5468.16890259,0.00436039
5470.09770996,0.00433877
5472.02651733,0.00440896
5473.95532471,0.00435707
5475.88413208,0.00423894
5477.81293945,0.00431245
5479.74174683,0.00428851
5481.67055420,0.00423882
5483.59936157,0.00429794
5485.52816895,0.00433439
5487.45697632,0.00421719
5489.38578369,0.00417875
5491.31459106,0.00417853
5493.24339844,0.00417750
5495.17220581,0.00419278
5497.10101318,0.00416217
5499.02982056,0.00422880
5500.95862793,0.00414595
5502.88743530,0.00417127
5504.81624268,0.00422514
5506.74505005,0.00404354
5508.67385742,0.00406355
5510.60266479,0.00412804
5512.53147217,0.00409261
5514.46027954,0.00410596
5516.38908691,0.00409148
5518.31789429,0.00401889
5520.24670166,0.00405782
5522.17550903,0.00408953
5524.10431641,0.00402380
5526.03312378,0.00396074
5527.96193115,0.00397708
5529.89073853,0.00405595
5531.81954590,0.00396560
5533.74835327,0.00396909
5535.67716064,0.00398957
5537.60596802,0.00396564
5539.53477539,0.00402548
5541.46358276,0.00397578
5543.39239014,0.00396501
5545.32119751,0.00390339
5547.25000488,0.00386096
5549.17881226,0.00386764
5551.10761963,0.00393012
5553.03642700,0.00394712
5554.96523437,0.00384316
5556.89404175,0.00390248
5558.82284912,0.00382819
5560.75165649,0.00380883
5562.68046387,0.00391729
5564.60927124,0.00388145
5566.53807861,0.00375558
5568.46688599,0.00370100
5570.39569336,0.00382258
5572.32450073,0.00371671
5574.25330811,0.00365853
5576.18211548,0.00375090
5578.11092285,0.00373371
5580.03973022,0.00373652
5581.96853760,0.00370124
5583.89734497,0.00364422
5585.82615234,0.00363231
5587.75495972,0.00369537
5589.68376709,0.00367766
5591.61257446,0.00364592
5593.54138184,0.00358486
5595.47018921,0.00359904
5597.39899658,0.00368378
5599.32780395,0.00358615
5601.25661133,0.00361595
5603.18541870,0.00358609
5605.11422607,0.00356346
5607.04303345,0.00361595
5608.97184082,0.00355654
5610.90064819,0.00360842
5612.82945557,0.00359955
5614.75826294,0.00353627
5616.68707031,0.00349739
5618.61587769,0.00353972
5620.54468506,0.00354981
5622.47349243,0.00348917
5624.40229980,0.00349711
5626.33110718,0.00347327
5628.25991455,0.00347983
5630.18872192,0.00352109
5632.11752930,0.00353691
5634.04633667,0.00341113
5635.97514404,0.00343906
5637.90395142,0.00351605
5639.83275879,0.00343575
5641.76156616,0.00348264
5643.69037353,0.00337355
5645.61918091,0.00331667
5647.54798828,0.00339294
5649.47679565,0.00342348
5651.40560303,0.00337428
5653.33441040,0.00327891
5655.26321777,0.00340459
5657.19202515,0.00333211
5659.12083252,0.00326662
5661.04963989,0.00340374
5662.97844727,0.00334392
5664.90725464,0.00330421
5666.83606201,0.00327057
5668.76486938,0.00321061
5670.69367676,0.00326258
5672.62248413,0.00329349
5674.55129150,0.00328470
5676.48009888,0.00327075
5678.40890625,0.00324504
5680.33771362,0.00327550
5682.26652100,0.00323275
5684.19532837,0.00317388
5686.12413574,0.00317434
5688.05294311,0.00316686
5689.98175049,0.00319876
5691.91055786,0.00313485
5693.83936523,0.00315407
5695.76817261,0.00320616
5697.69697998,0.00314817
5699.62578735,0.00310223
5701.55459473,0.00306368
5703.48340210,0.00309338
5705.41220947,0.00305352
5707.34101685,0.00305548
5709.26982422,0.00309722
5711.19863159,0.00313267
5713.12743896,0.00308864
5715.05624634,0.00299034
5716.98505371,0.00309647
5718.91386108,0.00303171
5720.84266846,0.00298325
5722.77147583,0.00307156
5724.70028320,0.00306537
5726.62909058,0.00303031
5728.55789795,0.00293155
5730.48670532,0.00293123
5732.41551270,0.00296172
5734.34432007,0.00299127
5736.27312744,0.00289528
5738.20193481,0.00287639
5740.13074219,0.00294853
5742.05954956,0.00283185
5743.98835693,0.00289186
5745.91716431,0.00289732
5747.84597168,0.00286789
5749.77477905,0.00290770
5751.70358643,0.00281152
5753.63239380,0.00281646
5755.56120117,0.00286202
5757.49000854,0.00286587
5759.41881592,0.00286951
5761.34762329,0.00286108
5763.27643066,0.00282426
5765.20523804,0.00283365
5767.13404541,0.00279707
5769.06285278,0.00277796
5770.99166016,0.00280782
5772.92046753,0.00274989
5774.84927490,0.00280492
5776.77808228,0.00276852
5778.70688965,0.00273388
5780.63569702,0.00272687
5782.56450439,0.00267549
5784.49331177,0.00274087
5786.42211914,0.00264088
5788.35092651,0.00269280
5790.27973389,0.00277828
5792.20854126,0.00268016
5794.13734863,0.00270769
5796.06615601,0.00263759
5797.99496338,0.00261792
5799.92377075,0.00272121
5801.85257812,0.00264377
5803.78138550,0.00252428
5805.71019287,0.00260954
5807.63900024,0.00268731
5809.56780762,0.00261377
5811.49661499,0.00262033
5813.42542236,0.00264311
5815.35422974,0.00256816
5817.28303711,0.00257758
5819.21184448,0.00262167
5821.14065186,0.00254803
5823.06945923,0.00256495
5824.99826660,0.00258261
5826.92707397,0.00253478
5828.85588135,0.00257336
5830.78468872,0.00251769
5832.71349609,0.00250573
5834.64230347,0.00256524
5836.57111084,0.00251332
5838.49991821,0.00250371
5840.42872559,0.00251616
5842.35753296,0.00246076
5844.28634033,0.00245155
5846.21514770,0.00246206
5848.14395508,0.00242735
5850.07276245,0.00240832
5852.00156982,0.00241627
5853.93037720,0.00248053
5855.85918457,0.00242483
5857.78799194,0.00235397
5859.71679932,0.00247276
5861.64560669,0.00243517
5863.57441406,0.00236948
5865.50322144,0.00245325
5867.43202881,0.00239816
5869.36083618,0.00233550
5871.28964355,0.00239866
5873.21845093,0.00236542
5875.14725830,0.00237036
5877.07606567,0.00245104
5879.00487305,0.00237855
5880.93368042,0.00236647
5882.86248779,0.00237316
5884.79129517,0.00226288
5886.72010254,0.00223960
5888.64890991,0.00232149
5890.57771728,0.00233993
5892.50652466,0.00227672
5894.43533203,0.00230268
5896.36413940,0.00231360
5898.29294678,0.00226589
5900.22175415,0.00223869
5902.15056152,0.00221190
5904.07936890,0.00218583
5906.00817627,0.00218959
5907.93698364,0.00222876
5909.86579102,0.00217634
5911.79459839,0.00217293
5913.72340576,0.00220598
5915.65221313,0.00220064
5917.58102051,0.00222216
5919.50982788,0.00217355
5921.43863525,0.00219625
5923.36744263,0.00223217
5925.29625000,0.00220531
5927.22505737,0.00220650
5929.15386475,0.00215044
5931.08267212,0.00209589
5933.01147949,0.00212809
5934.94028686,0.00216371
5936.86909424,0.00214412
5938.79790161,0.00210814
5940.72670898,0.00209906
5942.65551636,0.00212918
5944.58432373,0.00211105
5946.51313110,0.00213166
5948.44193848,0.00216807
5950.37074585,0.00210033
5952.29955322,0.00206992
5954.22836060,0.00203747
5956.15716797,0.00203132
5958.08597534,0.00204824
5960.01478271,0.00206254
5961.94359009,0.00207199
5963.87239746,0.00202959
5965.80120483,0.00209134
5967.73001221,0.00208399
5969.65881958,0.00198054
5971.58762695,0.00199816
5973.51643433,0.00198228
5975.44524170,0.00195593
5977.37404907,0.00202206
5979.30285645,0.00196862
5981.23166382,0.00193831
5983.16047119,0.00201500
5985.08927856,0.00196952
5987.01808594,0.00198295
5988.94689331,0.00202881
5990.87570068,0.00204043
5992.80450806,0.00200334
5994.73331543,0.00195248
5996.66212280,0.00198147
5998.59093018,0.00194417
6000.51973755,0.00196944
