399.26312622,0.00102776
401.19193359,0.00099803
403.12074097,0.00137558
405.04954834,0.00172749
406.97835571,0.00157424
408.90716309,0.00120933
410.83597046,0.00177879
412.76477783,0.00214968
414.69358521,0.00149834
416.62239258,0.00163786
418.55119995,0.00201450
420.48000732,0.00185624
422.40881470,0.00201471
424.33762207,0.00183098
426.26642944,0.00208329
428.19523682,0.00234876
430.12404419,0.00155961
432.05285156,0.00140087
433.98165894,0.00159518
435.91046631,0.00198947
437.83927368,0.00206127
439.76808105,0.00203572
441.69688843,0.00222914
443.62569580,0.00163574
445.55450317,0.00196869
447.48331055,0.00189656
449.41211792,0.00137106
451.34092529,0.00162061
453.26973267,0.00116766
455.19854004,0.00137905
457.12734741,0.00164100
459.05615479,0.00138233
460.98496216,0.00131229
462.91376953,0.00095437
464.84257690,0.00089880
466.77138428,0.00120823
468.70019165,0.00102791
470.62899902,0.00033568
472.55780640,0.00078253
474.48661377,0.00096331
476.41542114,0.00074340
478.34422852,0.00127666
480.27303589,0.00081622
482.20184326,0.00046023
484.13065063,0.00050204
486.05945801,0.00067949
487.98826538,0.00068520
489.91707275,0.00050335
491.84588013,0.00081729
493.77468750,0.00045693
495.70349487,0.00022718
497.63230225,0.00038295
499.56110962,0.00030848
501.48991699,0.00006381
503.41872437,0.00020895
505.34753174,0.00044051
507.27633911,0.00007871
509.20514648,0.00028958
511.13395386,0.00050505
513.06276123,0.00046620
514.99156860,0.00038455
516.92037598,0.00021946
518.84918335,0.00050003
520.77799072,0.00067562
522.70679810,0.00048123
524.63560547,0.00039327
526.56441284,0.00056236
528.49322021,0.00039226
530.42202759,0.00022629
532.35083496,0.00043457
534.27964233,0.00040112
536.20844971,0.00018295
538.13725708,0.00044909
540.06606445,0.00059821
541.99487183,0.00054425
543.92367920,0.00046390
545.85248657,0.00011939
547.78129395,0.00030645
549.71010132,0.00027788
551.63890869,0.00034667
553.56771606,0.00002762
555.49652344,-0.00027008
557.42533081,0.00063551
559.35413818,0.00051211
561.28294556,0.00045428
563.21175293,0.00046637
565.14056030,0.00035206
567.06936768,0.00051858
568.99817505,0.00013722
570.92698242,0.00068713
572.85578979,0.00075950
574.78459717,0.00029217
576.71340454,0.00019864
578.64221191,0.00019595
580.57101929,0.00037955
582.49982666,0.00044182
584.42863403,0.00078290
586.35744141,0.00036010
588.28624878,0.00035288
590.21505615,0.00045605
592.14386353,0.00014665
594.07267090,0.00071942
596.00147827,0.00033312
597.93028564,0.00022001
599.85909302,0.00046271
601.78790039,0.00012937
603.71670776,0.00036715
605.64551514,0.00017138
607.57432251,0.00017944
609.50312988,0.00037060
611.43193726,0.00026590
613.36074463,0.00060386
615.28955200,0.00025649
617.21835938,0.00006652
619.14716675,0.00036682
621.07597412,0.00023395
623.00478149,0.00022913
624.93358887,0.00013163
626.86239624,0.00016082
628.79120361,0.00028292
630.72001099,0.00061688
632.64881836,0.00103002
634.57762573,0.00140494
636.50643311,0.00171754
638.43524048,0.00150686
640.36404785,0.00194717
642.29285522,0.00205717
644.22166260,0.00182708
646.15046997,0.00253999
648.07927734,0.00259182
650.00808472,0.00267107
651.93689209,0.00271018
653.86569946,0.00238802
655.79450684,0.00286289
657.72331421,0.00305577
659.65212158,0.00331098
661.58092896,0.00351710
663.50973633,0.00352889
665.43854370,0.00378660
667.36735107,0.00327784
669.29615845,0.00340374
671.22496582,0.00408725
673.15377319,0.00427020
675.08258057,0.00457558
677.01138794,0.00452247
678.94019531,0.00471298
680.86900269,0.00498989
682.79781006,0.00471158
684.72661743,0.00483186
686.65542480,0.00494476
688.58423218,0.00476908
690.51303955,0.00504162
692.44184692,0.00532881
694.37065430,0.00549591
696.29946167,0.00633838
698.22826904,0.00746741
700.15707642,0.00793241
702.08588379,0.00782631
704.01469116,0.00741611
705.94349854,0.00655608
707.87230591,0.00578861
709.80111328,0.00470753
711.72992065,0.00303501
713.65872803,0.00214851
715.58753540,0.00128345
717.51634277,0.00063507
719.44515015,0.00086405
721.37395752,0.00063068
723.30276489,0.00015198
725.23157227,-0.00019422
727.16037964,0.00011956
729.08918701,0.00036989
731.01799438,0.00008575
732.94680176,0.00047887
734.87560913,0.00045905
736.80441650,0.00016217
738.73322388,0.00039894
740.66203125,0.00018792
742.59083862,0.00006427
744.51964600,0.00046405
746.44845337,0.00054825
748.37726074,0.00048459
750.30606812,0.00017616
752.23487549,0.00013553
754.16368286,0.00032023
756.09249023,0.00027445
758.02129761,0.00023411
759.95010498,0.00019624
761.87891235,0.00062510
763.80771973,0.00043159
765.73652710,0.00008797
767.66533447,0.00032783
769.59414185,0.00037400
771.52294922,0.00063728
773.45175659,0.00058846
775.38056396,0.00039997
777.30937134,0.00040668
779.23817871,0.00015931
781.16698608,0.00049394
783.09579346,0.00061083
785.02460083,0.00022349
786.95340820,0.00040802
788.88221558,0.00060742
790.81102295,0.00080468
792.73983032,0.00082467
794.66863770,0.00058863
796.59744507,0.00081729
798.52625244,0.00118267
800.45505981,0.00127248
802.38386719,0.00118023
804.31267456,0.00098505
806.24148193,0.00069356
808.17028931,0.00042565
810.09909668,0.00049114
812.02790405,0.00066272
813.95671143,0.00053112
815.88551880,0.00044498
817.81432617,0.00045301
819.74313354,0.00055166
821.67194092,0.00070178
823.60074829,0.00056947
825.52955566,0.00069910
827.45836304,0.00118789
829.38717041,0.00145160
831.31597778,0.00137086
833.24478516,0.00166642
835.17359253,0.00218184
837.10239990,0.00213869
839.03120728,0.00223796
840.96001465,0.00229768
842.88882202,0.00217979
844.81762939,0.00207912
846.74643677,0.00175243
848.67524414,0.00167960
850.60405151,0.00131813
852.53285889,0.00107841
854.46166626,0.00147949
856.39047363,0.00124343
858.31928101,0.00086671
860.24808838,0.00096889
862.17689575,0.00065592
864.10570313,0.00040672
866.03451050,0.00061590
867.96331787,0.00074659
869.89212524,0.00067954
871.82093262,0.00052147
873.74973999,0.00067456
875.67854736,0.00056139
877.60735474,0.00041307
879.53616211,0.00053103
881.46496948,0.00033204
883.39377686,0.00043712
885.32258423,0.00033121
887.25139160,0.00038337
889.18019897,0.00071346
891.10900635,0.00030750
893.03781372,0.00039661
894.96662109,0.00048038
896.89542847,0.00043422
898.82423584,0.00081671
900.75304321,0.00067054
902.68185059,0.00078725
904.61065796,0.00099779
906.53946533,0.00076842
908.46827271,0.00065258
910.39708008,0.00060540
912.32588745,0.00083003
914.25469482,0.00117698
916.18350220,0.00131762
918.11230957,0.00144957
920.04111694,0.00176345
921.96992432,0.00193915
923.89873169,0.00200531
925.82753906,0.00225828
927.75634644,0.00240404
929.68515381,0.00244801
931.61396118,0.00276576
933.54276855,0.00315710
935.47157593,0.00324382
937.40038330,0.00341361
939.32919067,0.00374374
941.25799805,0.00386271
943.18680542,0.00387750
945.11561279,0.00363897
947.04442017,0.00349986
948.97322754,0.00376564
950.90203491,0.00354060
952.83084229,0.00346206
954.75964966,0.00366220
956.68845703,0.00327291
958.61726440,0.00350496
960.54607178,0.00373152
962.47487915,0.00349421
964.40368652,0.00379540
966.33249390,0.00388580
968.26130127,0.00405983
970.19010864,0.00441164
972.11891602,0.00442609
974.04772339,0.00452475
975.97653076,0.00500882
977.90533813,0.00564569
979.83414551,0.00599468
981.76295288,0.00643060
983.69176025,0.00712531
985.62056763,0.00802111
987.54937500,0.00899567
989.47818237,0.00992762
991.40698975,0.01113746
993.33579712,0.01222195
995.26460449,0.01308233
997.19341187,0.01436765
999.12221924,0.01549703
1001.05102661,0.01640220
1002.97983398,0.01790496
1004.90864136,0.01918841
1006.83744873,0.02041046
1008.76625610,0.02176448
1010.69506348,0.02286154
1012.62387085,0.02427825
1014.55267822,0.02537780
1016.48148560,0.02658007
1018.41029297,0.02807759
1020.33910034,0.02936433
1022.26790771,0.03059204
1024.19671509,0.03147824
1026.12552246,0.03281840
1028.05432983,0.03416508
1029.98313721,0.03498961
1031.91194458,0.03589414
1033.84075195,0.03666004
1035.76955933,0.03724536
1037.69836670,0.03771504
1039.62717407,0.03798876
1041.55598145,0.03797749
1043.48478882,0.03775918
1045.41359619,0.03723609
1047.34240356,0.03669957
1049.27121094,0.03604833
1051.20001831,0.03534749
1053.12882568,0.03495080
1055.05763306,0.03416604
1056.98644043,0.03343118
1058.91524780,0.03256217
1060.84405518,0.03148217
1062.77286255,0.03077586
1064.70166992,0.02973063
1066.63047729,0.02853538
1068.55928467,0.02751519
1070.48809204,0.02629459
1072.41689941,0.02487163
1074.34570679,0.02393255
1076.27451416,0.02301592
1078.20332153,0.02174426
1080.13212891,0.02064078
1082.06093628,0.01943300
1083.98974365,0.01875772
1085.91855103,0.01820598
1087.84735840,0.01713988
1089.77616577,0.01624360
1091.70497314,0.01552798
1093.63378052,0.01475796
1095.56258789,0.01406821
1097.49139526,0.01391696
1099.42020264,0.01356897
1101.34901001,0.01310070
1103.27781738,0.01312762
1105.20662476,0.01283456
1107.13543213,0.01238669
1109.06423950,0.01208896
1110.99304687,0.01190241
1112.92185425,0.01181635
1114.85066162,0.01168659
1116.77946899,0.01168811
1118.70827637,0.01155332
1120.63708374,0.01159702
1122.56589111,0.01190808
1124.49469849,0.01187116
1126.42350586,0.01228464
1128.35231323,0.01258518
1130.28112061,0.01254793
1132.20992798,0.01315700
1134.13873535,0.01326038
1136.06754272,0.01372131
1137.99635010,0.01478850
1139.92515747,0.01559466
1141.85396484,0.01671899
1143.78277222,0.01762535
1145.71157959,0.01895928
1147.64038696,0.02027743
1149.56919434,0.02106925
1151.49800171,0.02207954
1153.42680908,0.02324526
1155.35561646,0.02435156
1157.28442383,0.02502142
1159.21323120,0.02629850
1161.14203857,0.02739600
1163.07084595,0.02818858
1164.99965332,0.02946282
1166.92846069,0.03032896
1168.85726807,0.03168075
1170.78607544,0.03277926
1172.71488281,0.03382386
1174.64369019,0.03542210
1176.57249756,0.03658255
1178.50130493,0.03812532
1180.43011230,0.03944944
1182.35891968,0.04100687
1184.28772705,0.04318579
1186.21653442,0.04483140
1188.14534180,0.04692808
1190.07414917,0.04916286
1192.00295654,0.05135261
1193.93176392,0.05401342
1195.86057129,0.05623740
1197.78937866,0.05867900
1199.71818604,0.06145024
1201.64699341,0.06397262
1203.57580078,0.06667851
1205.50460815,0.06929500
1207.43341553,0.07193433
1209.36222290,0.07424700
1211.29103027,0.07620975
1213.21983765,0.07847243
1215.14864502,0.08049548
1217.07745239,0.08224861
1219.00625977,0.08367373
1220.93506714,0.08484824
1222.86387451,0.08605467
1224.79268188,0.08695555
1226.72148926,0.08755039
1228.65029663,0.08788498
1230.57910400,0.08819795
1232.50791138,0.08848156
1234.43671875,0.08866091
1236.36552612,0.08887184
1238.29433350,0.08866501
1240.22314087,0.08818124
1242.15194824,0.08793695
1244.08075562,0.08765240
1246.00956299,0.08725819
1247.93837036,0.08672307
1249.86717773,0.08605321
1251.79598511,0.08537809
1253.72479248,0.08435830
1255.65359985,0.08333661
1257.58240723,0.08242820
1259.51121460,0.08117323
1261.44002197,0.07994238
1263.36882935,0.07905430
1265.29763672,0.07784428
1267.22644409,0.07658936
1269.15525146,0.07577571
1271.08405884,0.07455627
1273.01286621,0.07339093
1274.94167358,0.07192711
1276.87048096,0.07034886
1278.79928833,0.06939668
1280.72809570,0.06785917
1282.65690308,0.06654611
1284.58571045,0.06532830
1286.51451782,0.06395061
1288.44332520,0.06274994
1290.37213257,0.06170719
1292.30093994,0.06139051
1294.22974731,0.06070689
1296.15855469,0.06040740
1298.08736206,0.06054029
1300.01616943,0.06061960
1301.94497681,0.06089830
1303.87378418,0.06105487
1305.80259155,0.06190175
1307.73139893,0.06262895
1309.66020630,0.06361927
1311.58901367,0.06467646
1313.51782104,0.06564905
1315.44662842,0.06763639
1317.37543579,0.06904719
1319.30424316,0.07070512
1321.23305054,0.07329378
1323.16185791,0.07540709
1325.09066528,0.07737625
1327.01947266,0.07972292
1328.94828003,0.08178820
1330.87708740,0.08374498
1332.80589478,0.08596715
1334.73470215,0.08752500
1336.66350952,0.08838940
1338.59231689,0.08774076
1340.52112427,0.08872189
1342.44993164,0.09220292
1344.37873901,0.09270276
1346.30754639,0.09274513
1348.23635376,0.09278584
1350.16516113,0.09190064
1352.09396851,0.09204319
1354.02277588,0.09062943
1355.95158325,0.08989993
1357.88039062,0.08951767
1359.80919800,0.08779781
1361.73800537,0.08445612
1363.66681274,0.08298205
1365.59562012,0.08682245
1367.52442749,0.08513140
1369.45323486,0.08380724
1371.38204224,0.08536360
1373.31084961,0.08097512
1375.23965698,0.08147213
1377.16846436,0.08352669
1379.09727173,0.08314307
1381.02607910,0.08338825
1382.95488647,0.08309927
1384.88369385,0.08323832
1386.81250122,0.07953484
1388.74130859,0.08036304
1390.67011597,0.08672956
1392.59892334,0.08469401
1394.52773071,0.07969256
1396.45653809,0.08327377
1398.38534546,0.08324718
1400.31415283,0.08287816
1402.24296021,0.08919836
1404.17176758,0.08442029
1406.10057495,0.08471312
1408.02938232,0.08816109
1409.95818970,0.08509113
1411.88699707,0.08675605
1413.81580444,0.08382215
1415.74461182,0.08520339
1417.67341919,0.07708496
1419.60222656,0.06907946
1421.53103394,0.07909193
1423.45984131,0.07651660
1425.38864868,0.07429591
1427.31745605,0.07523452
1429.24626343,0.06965771
1431.17507080,0.06758603
1433.10387817,0.06853221
1435.03268555,0.06291442
1436.96149292,0.05303012
1438.89030029,0.06002854
1440.81910767,0.06169344
1442.74791504,0.05683673
1444.67672241,0.05960887
1446.60552979,0.05480314
1448.53433716,0.05562533
1450.46314453,0.05744283
1452.39195190,0.05832016
1454.32075928,0.06073430
1456.24956665,0.05071589
1458.17837402,0.05266598
1460.10718140,0.06953782
1462.03598877,0.07407497
1463.96479614,0.07373923
1465.89360352,0.07707371
1467.82241089,0.08732811
1469.75121826,0.09408493
1471.68002563,0.08449730
1473.60883301,0.08872419
1475.53764038,0.10110423
1477.46644775,0.10856375
1479.39525513,0.11921933
1481.32406250,0.12126458
1483.25286987,0.12871331
1485.18167725,0.13275960
1487.11048462,0.13099176
1489.03929199,0.13092986
1490.96809937,0.13159443
1492.89690674,0.15235016
1494.82571411,0.14927536
1496.75452148,0.13464318
1498.68332886,0.15185830
1500.61213623,0.15669709
1502.54094360,0.16746758
1504.46975098,0.15927920
1506.39855835,0.11771049
1508.32736572,0.14174756
1510.25617310,0.16610307
1512.18498047,0.16069934
1514.11378784,0.17366433
1516.04259521,0.15766999
1517.97140259,0.16376758
1519.90020996,0.15881798
1521.82901733,0.13789117
1523.75782471,0.16716388
1525.68663208,0.16477054
1527.61543945,0.16360383
1529.54424683,0.18035802
1531.47305420,0.17381135
1533.40186157,0.15980875
1535.33066895,0.16860932
1537.25947632,0.18018350
1539.18828369,0.13078864
1541.11709106,0.13564146
1543.04589844,0.16220152
1544.97470581,0.15540498
1546.90351318,0.18233898
1548.83232056,0.17090833
1550.76112793,0.17531154
1552.68993530,0.17462802
1554.61874268,0.15884048
1556.54755005,0.16970390
1558.47635742,0.12186740
1560.40516479,0.12932359
1562.33397217,0.18199235
1564.26277954,0.17252629
1566.19158691,0.17654172
1568.12039429,0.17526542
1570.04920166,0.15528709
1571.97800903,0.17756924
1573.90681641,0.18006143
1575.83562378,0.14338575
1577.76443115,0.16048238
1579.69323853,0.18079151
1581.62204590,0.17280182
1583.55085327,0.17655638
1585.47966064,0.17356381
1587.40846802,0.17421761
1589.33727539,0.17245317
1591.26608276,0.17164639
1593.19489014,0.17139405
1595.12369751,0.16877176
1597.05250488,0.17035031
1598.98131226,0.16856265
1600.91011963,0.16861300
1602.83892700,0.16497804
1604.76773437,0.16679698
1606.69654175,0.16373834
1608.62534912,0.16248266
1610.55415649,0.16145886
1612.48296387,0.16133147
1614.41177124,0.16262113
1616.34057861,0.13306935
1618.26938599,0.14260761
1620.19819336,0.16494837
1622.12700073,0.14620617
1624.05580811,0.14563128
1625.98461548,0.15178543
1627.91342285,0.15066752
1629.84223022,0.14893520
1631.77103760,0.15832920
1633.69984497,0.14667955
1635.62865234,0.12132978
1637.55745972,0.14013523
1639.48626709,0.15408869
1641.41507446,0.15058771
1643.34388184,0.15455931
1645.27268921,0.14039424
1647.20149658,0.12400630
1649.13030396,0.15325586
1651.05911133,0.14666459
1652.98791870,0.09587638
1654.91672607,0.12876430
1656.84553345,0.16189355
1658.77434082,0.15556805
1660.70314819,0.16083753
1662.63195557,0.14744297
1664.56076294,0.15540755
1666.48957031,0.16780610
1668.41837769,0.14810774
1670.34718506,0.14434628
1672.27599243,0.16392237
1674.20479980,0.15280591
1676.13360718,0.14698806
1678.06241455,0.16939659
1679.99122192,0.16442055
1681.92002930,0.16356070
1683.84883667,0.13500661
1685.77764404,0.13290066
1687.70645142,0.18192710
1689.63525879,0.15985341
1691.56406616,0.17468232
1693.49287354,0.18003465
1695.42168091,0.13303752
1697.35048828,0.16312563
1699.27929565,0.14578308
1701.20810303,0.13117093
1703.13691040,0.17760067
1705.06571777,0.16424567
1706.99452515,0.16552046
1708.92333252,0.18019682
1710.85213989,0.17375085
1712.78094727,0.17729989
1714.70975464,0.16558009
1716.63856201,0.14925915
1718.56736938,0.14697829
1720.49617676,0.17353612
1722.42498413,0.18050139
1724.35379150,0.16826829
1726.28259888,0.18250370
1728.21140625,0.16940647
1730.14021362,0.17095500
1732.06902100,0.16736825
1733.99782837,0.12884028
1735.92663574,0.15808117
1737.85544312,0.17530528
1739.78425049,0.15664481
1741.71305786,0.17017263
1743.64186523,0.17303360
1745.57067261,0.17322850
1747.49947998,0.17497836
1749.42828735,0.16785003
1751.35709473,0.16097786
1753.28590210,0.17747371
1755.21470947,0.18599011
1757.14351685,0.17023644
1759.07232422,0.18641721
1761.00113159,0.17624211
1762.92993896,0.16976020
1764.85874634,0.19379711
1766.78755371,0.17538241
1768.71636108,0.17675415
1770.64516846,0.17613219
1772.57397583,0.15854955
1774.50278320,0.17629758
1776.43159058,0.18601175
1778.36039795,0.18338335
1780.28920532,0.18155353
1782.21801270,0.18289888
1784.14682007,0.18259372
1786.07562744,0.17917022
1788.00443481,0.18804565
1789.93324219,0.18381184
1791.86204956,0.16688454
1793.79085693,0.17337868
1795.71966431,0.18608728
1797.64847168,0.18372174
1799.57727905,0.18097061
1801.50608643,0.17795722
1803.43489380,0.18330559
1805.36370117,0.18757921
1807.29250854,0.18482110
1809.22131592,0.18561319
1811.15012329,0.18096146
1813.07893066,0.18605965
1815.00773804,0.18716890
1816.93654541,0.18489894
1818.86535278,0.18651381
1820.79416016,0.18574139
1822.72296753,0.18849501
1824.65177490,0.17676640
1826.58058228,0.18266954
1828.50938965,0.18327859
1830.43819702,0.17185789
1832.36700439,0.18646024
1834.29581177,0.18565220
1836.22461914,0.18524273
1838.15342651,0.18465394
1840.08223389,0.18539664
1842.01104126,0.18595532
1843.93984863,0.16584310
1845.86865601,0.17581604
1847.79746338,0.18546760
1849.72627075,0.18152493
1851.65507812,0.18663052
1853.58388550,0.18322469
1855.51269287,0.18482623
1857.44150024,0.18367365
1859.37030762,0.18266103
1861.29911499,0.18382818
1863.22792236,0.18164060
1865.15672974,0.18362592
1867.08553711,0.17796877
1869.01434448,0.17076808
1870.94315186,0.17705655
1872.87195923,0.18364488
1874.80076660,0.18065050
1876.72957397,0.18167257
1878.65838135,0.18130107
1880.58718872,0.17992803
1882.51599609,0.18149437
1884.44480347,0.17856149
1886.37361084,0.18092911
1888.30241821,0.17731425
1890.23122559,0.17377809
1892.16003296,0.18006948
1894.08884033,0.17755094
1896.01764771,0.17661968
1897.94645508,0.17868133
1899.87526245,0.17777327
1901.80406982,0.17827412
1903.73287720,0.17699212
1905.66168457,0.17765832
1907.59049194,0.17623320
1909.51929932,0.17489009
1911.44810669,0.17597011
1913.37691406,0.17615920
1915.30572144,0.17751646
1917.23452881,0.17017925
1919.16333618,0.17009759
1921.09214355,0.17656462
1923.02095093,0.17118497
1924.94975830,0.17407304
1926.87856567,0.17589472
1928.80737305,0.17372990
1930.73618042,0.17578676
1932.66498779,0.17341280
1934.59379517,0.17497012
1936.52260254,0.17385022
1938.45140991,0.17428923
1940.38021729,0.17421357
1942.30902466,0.16873768
1944.23783203,0.17177939
1946.16663940,0.17330405
1948.09544678,0.17295767
1950.02425415,0.17359343
1951.95306152,0.17274019
1953.88186890,0.17291009
1955.81067627,0.17233914
1957.73948364,0.17282625
1959.66829102,0.17240936
1961.59709839,0.17209354
1963.52590576,0.17239158
1965.45471313,0.17141965
1967.38352051,0.16993582
1969.31232788,0.17110874
1971.24113525,0.17217019
1973.16994263,0.17083633
1975.09875000,0.17155236
1977.02755737,0.17076670
1978.95636475,0.17061776
1980.88517212,0.17053117
1982.81397949,0.16976593
1984.74278687,0.17042711
1986.67159424,0.16897450
1988.60040161,0.16933268
1990.52920898,0.16791098
1992.45801636,0.16593829
1994.38682373,0.16816969
1996.31563110,0.16836908
1998.24443848,0.16752499
2000.17324585,0.16757083
2002.10205322,0.16712785
2004.03086060,0.16679980
2005.95966797,0.16654001
2007.88847534,0.16594808
2009.81728271,0.16577223
2011.74609009,0.16531059
2013.67489746,0.16519290
2015.60370483,0.16435181
2017.53251221,0.16285275
2019.46131958,0.16378519
2021.39012695,0.16353765
2023.31893433,0.16304703
2025.24774170,0.16300422
2027.17654907,0.16218171
2029.10535645,0.16218460
2031.03416382,0.16159782
2032.96297119,0.16148238
2034.89177856,0.16094190
2036.82058594,0.16049010
2038.74939331,0.16037595
2040.67820068,0.15936230
2042.60700806,0.15915887
2044.53581543,0.15909462
2046.46462280,0.15889050
2048.39343018,0.15842345
2050.32223755,0.15810511
2052.25104492,0.15784656
2054.17985229,0.15738933
2056.10865967,0.15720895
2058.03746704,0.15681374
2059.96627441,0.15632761
2061.89508179,0.15605843
2063.82388916,0.15556772
2065.75269653,0.15474182
2067.68150391,0.15510446
2069.61031128,0.15502098
2071.53911865,0.15444480
2073.46792603,0.15435322
2075.39673340,0.15369660
2077.32554077,0.15365678
2079.25434814,0.15326810
2081.18315552,0.15288821
2083.11196289,0.15278590
2085.04077026,0.15240172
2086.96957764,0.15214172
2088.89838501,0.15167785
2090.82719238,0.15143593
2092.75599976,0.15109482
2094.68480713,0.15103465
2096.61361450,0.15068883
2098.54242187,0.15032625
2100.47122925,0.15015504
2102.40003662,0.14982250
2104.32884399,0.14965570
2106.25765137,0.14915435
2108.18645874,0.14915842
2110.11526611,0.14885607
2112.04407349,0.14845598
2113.97288086,0.14829588
2115.90168823,0.14806038
2117.83049561,0.14797226
2119.75930298,0.14764145
2121.68811035,0.14764211
2123.61691772,0.14723441
2125.54572510,0.14697418
2127.47453247,0.14682770
2129.40333984,0.14668779
2131.33214722,0.14661095
2133.26095459,0.14614588
2135.18976196,0.14601871
2137.11856934,0.14565566
2139.04737671,0.14566843
2140.97618408,0.14541364
2142.90499146,0.14517768
2144.83379883,0.14512333
2146.76260620,0.14471745
2148.69141357,0.14485651
2150.62022095,0.14448820
2152.54902832,0.14446551
2154.47783569,0.14430788
2156.40664307,0.14393699
2158.33545044,0.14394055
2160.26425781,0.14371353
2162.19306519,0.14364874
2164.12187256,0.14318669
2166.05067993,0.14310655
2167.97948730,0.14295611
2169.90829468,0.14272708
2171.83710205,0.14266521
2173.76590942,0.14246535
2175.69471680,0.14239384
2177.62352417,0.14211461
2179.55233154,0.14219084
2181.48113892,0.14190397
2183.40994629,0.14175183
2185.33875366,0.14169747
2187.26756104,0.14148581
2189.19636841,0.14146996
2191.12517578,0.14110288
2193.05398315,0.14111757
2194.98279053,0.14096239
2196.91159790,0.14077672
2198.84040527,0.14054394
2200.76921265,0.14036182
2202.69802002,0.14040270
2204.62682739,0.14014022
2206.55563477,0.14001739
2208.48444214,0.13975446
2210.41324951,0.13972749
2212.34205688,0.13946208
2214.27086426,0.13927320
2216.19967163,0.13938138
2218.12847900,0.13903540
2220.05728638,0.13883398
2221.98609375,0.13873060
2223.91490112,0.13861065
2225.84370850,0.13833800
2227.77251587,0.13828757
2229.70132324,0.13799322
2231.63013062,0.13766836
2233.55893799,0.13767686
2235.48774536,0.13740003
2237.41655273,0.13722338
2239.34536011,0.13685137
2241.27416748,0.13674629
2243.20297485,0.13672514
2245.13178223,0.13651612
2247.06058960,0.13621369
2248.98939697,0.13596117
2250.91820435,0.13584201
2252.84701172,0.13547494
2254.77581909,0.13553494
2256.70462646,0.13524225
2258.63343384,0.13500997
2260.56224121,0.13495162
2262.49104858,0.13468069
2264.41985596,0.13462251
2266.34866333,0.13430995
2268.27747070,0.13425367
2270.20627808,0.13402097
2272.13508545,0.13393080
2274.06389282,0.13380188
2275.99270020,0.13366279
2277.92150757,0.13367395
2279.85031494,0.13325998
2281.77912231,0.13335243
2283.70792969,0.13322103
2285.63673706,0.13298440
2287.56554443,0.13266098
2289.49435181,0.13229436
2291.42315918,0.13207677
2293.35196655,0.13161099
2295.28077393,0.13140675
2297.20958130,0.13092577
2299.13838867,0.13051668
2301.06719604,0.13004372
2302.99600342,0.12952343
2304.92481079,0.12874418
2306.85361816,0.12796257
2308.78242554,0.12736692
2310.71123291,0.12600815
2312.64004028,0.12491032
2314.56884766,0.12361892
2316.49765503,0.12229194
2318.42646240,0.12065033
2320.35526978,0.11890328
2322.28407715,0.11756082
2324.21288452,0.11580695
2326.14169189,0.11468299
2328.07049927,0.11317443
2329.99930664,0.11174846
2331.92811401,0.11086386
2333.85692139,0.11034805
2335.78572876,0.11005776
2337.71453613,0.10967208
2339.64334351,0.10980937
2341.57215088,0.10997379
2343.50095825,0.11179946
2345.42976562,0.11387822
2347.35857300,0.11830024
2349.28738037,0.12256115
2351.21618774,0.11832942
2353.14499512,0.11223377
2355.07380249,0.10817078
2357.00260986,0.10480594
2358.93141724,0.10276607
2360.86022461,0.10151184
2362.78903198,0.10159279
2364.71783936,0.10201310
2366.64664673,0.10356588
2368.57545410,0.10549930
2370.50426147,0.10795060
2372.43306885,0.11130921
2374.36187622,0.11426052
2376.29068359,0.11744498
2378.21949097,0.12006147
2380.14829834,0.12204823
2382.07710571,0.12340034
2384.00591309,0.12418140
2385.93472046,0.12460200
2387.86352783,0.12461656
2389.79233521,0.12451674
2391.72114258,0.12437509
2393.64994995,0.12445357
2395.57875732,0.12414910
2397.50756470,0.12393486
2399.43637207,0.12367654
2401.36517944,0.12351497
2403.29398682,0.12353534
2405.22279419,0.12316962
2407.15160156,0.12312003
2409.08040894,0.12284292
2411.00921631,0.12273099
2412.93802368,0.12277994
2414.86683105,0.12257753
2416.79563843,0.12247615
2418.72444580,0.12213098
2420.65325317,0.12197264
2422.58206055,0.12195778
2424.51086792,0.12174065
2426.43967529,0.12151679
2428.36848267,0.12153421
2430.29729004,0.12137775
2432.22609741,0.12114055
2434.15490479,0.12103010
2436.08371216,0.12077868
2438.01251953,0.12069076
2439.94132690,0.12045383
2441.87013428,0.12031588
2443.79894165,0.12028754
2445.72774902,0.12004721
2447.65655640,0.11991286
2449.58536377,0.11978073
2451.51417114,0.11959033
2453.44297852,0.11942841
2455.37178589,0.11931558
2457.30059326,0.11910444
2459.22940063,0.11893903
2461.15820801,0.11876342
2463.08701538,0.11865346
2465.01582275,0.11848985
2466.94463013,0.11820076
2468.87343750,0.11815017
2470.80224487,0.11799696
2472.73105225,0.11790457
2474.65985962,0.11776677
2476.58866699,0.11758445
2478.51747437,0.11745329
2480.44628174,0.11721790
2482.37508911,0.11712555
2484.30389648,0.11691986
2486.23270386,0.11674832
2488.16151123,0.11655013
2490.09031860,0.11634307
2492.01912598,0.11631474
2493.94793335,0.11623535
2495.87674072,0.11598778
2497.80554810,0.11584108
2499.73435547,0.11580236
2501.66316284,0.11553113
2503.59197021,0.11554258
2505.52077759,0.11531713
2507.44958496,0.11500660
2509.37839233,0.11505020
2511.30719971,0.11479244
2513.23600708,0.11469678
2515.16481445,0.11457420
2517.09362183,0.11437297
2519.02242920,0.11421895
2520.95123657,0.11402701
2522.88004395,0.11394063
2524.80885132,0.11385719
2526.73765869,0.11374167
2528.66646606,0.11347806
2530.59527344,0.11331941
2532.52408081,0.11320877
2534.45288818,0.11316742
2536.38169556,0.11292557
2538.31050293,0.11271109
2540.23931030,0.11275882
2542.16811768,0.11249815
2544.09692505,0.11228926
2546.02573242,0.11204089
2547.95453979,0.11194364
2549.88334717,0.11197806
2551.81215454,0.11177796
2553.74096191,0.11150226
2555.66976929,0.11140305
2557.59857666,0.11139383
2559.52738403,0.11104347
2561.45619141,0.11106330
2563.38499878,0.11090061
2565.31380615,0.11061248
2567.24261353,0.11065772
2569.17142090,0.11039123
2571.10022827,0.11033297
2573.02903564,0.11014394
2574.95784302,0.10999587
2576.88665039,0.10987283
2578.81545776,0.10957122
2580.74426514,0.10950621
2582.67307251,0.10938555
2584.60187988,0.10926901
2586.53068726,0.10901916
2588.45949463,0.10890638
2590.38830200,0.10873140
2592.31710937,0.10843314
2594.24591675,0.10839593
2596.17472412,0.10831362
2598.10353149,0.10812926
2600.03233887,0.10797092
2601.96114624,0.10789184
2603.88995361,0.10756200
2605.81876099,0.10740399
2607.74756836,0.10737272
2609.67637573,0.10727512
2611.60518311,0.10715780
2613.53399048,0.10684536
2615.46279785,0.10686632
2617.39160522,0.10665089
2619.32041260,0.10635686
2621.24921997,0.10627538
2623.17802734,0.10616161
2625.10683472,0.10610522
2627.03564209,0.10578690
2628.96444946,0.10566373
2630.89325684,0.10551562
2632.82206421,0.10532591
2634.75087158,0.10529862
2636.67967895,0.10513861
2638.60848633,0.10496318
2640.53729370,0.10477640
2642.46610107,0.10471959
2644.39490845,0.10457110
2646.32371582,0.10437600
2648.25252319,0.10425588
2650.18133057,0.10408024
2652.11013794,0.10388888
2654.03894531,0.10371003
2655.96775269,0.10351579
2657.89656006,0.10339196
2659.82536743,0.10336816
2661.75417480,0.10308472
2663.68298218,0.10295825
2665.61178955,0.10293172
2667.54059692,0.10272864
2669.46940430,0.10255079
2671.39821167,0.10229060
2673.32701904,0.10220712
2675.25582642,0.10205415
2677.18463379,0.10187678
2679.11344116,0.10184341
2681.04224854,0.10165162
2682.97105591,0.10139903
2684.89986328,0.10130220
2686.82867065,0.10129035
2688.75747803,0.10105486
2690.68628540,0.10076195
2692.61509277,0.10065094
2694.54390015,0.10063151
2696.47270752,0.10034269
2698.40151489,0.10013846
2700.33032227,0.10014611
2702.25912964,0.09994997
2704.18793701,0.09987108
2706.11674438,0.09968188
2708.04555176,0.09945686
2709.97435913,0.09929362
2711.90316650,0.09910452
2713.83197388,0.09901997
2715.76078125,0.09885412
2717.68958862,0.09865461
2719.61839600,0.09837633
2721.54720337,0.09828071
2723.47601074,0.09821082
2725.40481812,0.09802741
2727.33362549,0.09781659
2729.26243286,0.09764992
2731.19124023,0.09763050
2733.12004761,0.09742981
2735.04885498,0.09730384
2736.97766235,0.09703907
2738.90646973,0.09684286
2740.83527710,0.09677532
2742.76408447,0.09646618
2744.69289185,0.09635067
2746.62169922,0.09614341
2748.55050659,0.09605308
2750.47931396,0.09593812
2752.40812134,0.09566396
2754.33692871,0.09564009
2756.26573608,0.09546258
2758.19454346,0.09526938
2760.12335083,0.09518759
2762.05215820,0.09498262
2763.98096558,0.09470139
2765.90977295,0.09460980
2767.83858032,0.09443063
2769.76738770,0.09410124
2771.69619507,0.09396866
2773.62500244,0.09385758
2775.55380981,0.09381118
2777.48261719,0.09368113
2779.41142456,0.09345438
2781.34023193,0.09321904
2783.26903931,0.09294976
2785.19784668,0.09280980
2787.12665405,0.09266767
2789.05546143,0.09241940
2790.98426880,0.09229436
2792.91307617,0.09217516
2794.84188354,0.09190626
2796.77069092,0.09185898
2798.69949829,0.09158498
2800.62830566,0.09128611
2802.55711304,0.09121348
2804.48592041,0.09091151
2806.41472778,0.09083197
2808.34353516,0.09060785
2810.27234253,0.09033217
2812.20114990,0.09023909
2814.12995728,0.09003136
2816.05876465,0.08984031
2817.98757202,0.08961429
2819.91637939,0.08946466
2821.84518677,0.08923803
2823.77399414,0.08914182
2825.70280151,0.08892351
2827.63160889,0.08864570
2829.56041626,0.08862855
2831.48922363,0.08836126
2833.41803101,0.08816154
2835.34683838,0.08791417
2837.27564575,0.08760681
2839.20445312,0.08740249
2841.13326050,0.08713636
2843.06206787,0.08681095
2844.99087524,0.08637707
2846.91968262,0.08596764
2848.84848999,0.08546371
2850.77729736,0.08519462
2852.70610474,0.08505693
2854.63491211,0.08489150
2856.56371948,0.08481443
2858.49252686,0.08461032
2860.42133423,0.08448360
2862.35014160,0.08433460
2864.27894897,0.08418354
2866.20775635,0.08403781
2868.13656372,0.08384013
2870.06537109,0.08369236
2871.99417847,0.08353541
2873.92298584,0.08327182
2875.85179321,0.08308976
2877.78060059,0.08304854
2879.70940796,0.08277262
2881.63821533,0.08271201
2883.56702270,0.08262417
2885.49583008,0.08236168
2887.42463745,0.08233023
2889.35344482,0.08202425
2891.28225220,0.08171164
2893.21105957,0.08153334
2895.13986694,0.08132961
2897.06867432,0.08110231
2898.99748169,0.08085880
2900.92628906,0.08071755
2902.85509644,0.08046287
2904.78390381,0.08010804
2906.71271118,0.07984236
2908.64151855,0.07959320
2910.57032593,0.07915120
2912.49913330,0.07878749
2914.42794067,0.07833086
2916.35674805,0.07789101
2918.28555542,0.07780248
2920.21436279,0.07757638
2922.14317017,0.07731323
2924.07197754,0.07712650
2926.00078491,0.07707588
2927.92959229,0.07686222
2929.85839966,0.07668018
2931.78720703,0.07673641
2933.71601440,0.07651663
2935.64482178,0.07649750
2937.57362915,0.07642329
2939.50243652,0.07629978
2941.43124390,0.07625055
2943.36005127,0.07610952
2945.28885864,0.07611559
2947.21766602,0.07581314
2949.14647339,0.07557237
2951.07528076,0.07546438
2953.00408813,0.07522597
2954.93289551,0.07492234
2956.86170288,0.07457330
2958.79051025,0.07432187
2960.71931763,0.07406151
2962.64812500,0.07392604
2964.57693237,0.07365479
2966.50573975,0.07338329
2968.43454712,0.07332428
2970.36335449,0.07336085
2972.29216187,0.07333998
2974.22096924,0.07318909
2976.14977661,0.07334143
2978.07858398,0.07325351
2980.00739136,0.07299669
2981.93619873,0.07303211
2983.86500610,0.07289555
2985.79381348,0.07265271
2987.72262085,0.07248785
2989.65142822,0.07239399
2991.58023560,0.07215969
2993.50904297,0.07182329
2995.43785034,0.07173419
2997.36665771,0.07168375
2999.29546509,0.07137217
3001.22427246,0.07113476
3003.15307983,0.07091333
3005.08188721,0.07059269
3007.01069458,0.07051682
3008.93950195,0.07024122
3010.86830933,0.06978182
3012.79711670,0.06959726
3014.72592407,0.06944530
3016.65473145,0.06915426
3018.58353882,0.06890973
3020.51234619,0.06875946
3022.44115356,0.06856768
3024.36996094,0.06818900
3026.29876831,0.06787115
3028.22757568,0.06786384
3030.15638306,0.06740975
3032.08519043,0.06699830
3034.01399780,0.06687447
3035.94280518,0.06651988
3037.87161255,0.06644960
3039.80041992,0.06611490
3041.72922729,0.06584062
3043.65803467,0.06562614
3045.58684204,0.06527592
3047.51564941,0.06519340
3049.44445679,0.06473653
3051.37326416,0.06457979
3053.30207153,0.06440470
3055.23087891,0.06393266
3057.15968628,0.06371537
3059.08849365,0.06346657
3061.01730103,0.06326798
3062.94610840,0.06293946
3064.87491577,0.06261009
3066.80372314,0.06224012
3068.73253052,0.06209027
3070.66133789,0.06196138
3072.59014526,0.06160503
3074.51895264,0.06136165
3076.44776001,0.06099544
3078.37656738,0.06076123
3080.30537476,0.06035986
3082.23418213,0.06018206
3084.16298950,0.06001613
3086.09179687,0.05952998
3088.02060425,0.05947865
3089.94941162,0.05910984
3091.87821899,0.05878003
3093.80702637,0.05853974
3095.73583374,0.05809785
3097.66464111,0.05792789
3099.59344849,0.05757208
3101.52225586,0.05713723
3103.45106323,0.05687334
3105.37987061,0.05667788
3107.30867798,0.05629079
3109.23748535,0.05591056
3111.16629272,0.05566487
3113.09510010,0.05539274
3115.02390747,0.05504181
3116.95271484,0.05452964
3118.88152222,0.05426988
3120.81032959,0.05407476
3122.73913696,0.05374795
3124.66794434,0.05336140
3126.59675171,0.05297603
3128.52555908,0.05275419
3130.45436645,0.05248831
3132.38317383,0.05203422
3134.31198120,0.05172479
3136.24078857,0.05154707
3138.16959595,0.05101543
3140.09840332,0.05077667
3142.02721069,0.05051353
3143.95601807,0.04999364
3145.88482544,0.04981987
3147.81363281,0.04941116
3149.74244019,0.04914345
3151.67124756,0.04881253
3153.60005493,0.04834851
3155.52886230,0.04816957
3157.45766968,0.04777561
3159.38647705,0.04744782
3161.31528442,0.04717682
3163.24409180,0.04690328
3165.17289917,0.04659175
3167.10170654,0.04618533
3169.03051392,0.04590266
3170.95932129,0.04568389
3172.88812866,0.04533342
3174.81693604,0.04494701
3176.74574341,0.04477519
3178.67455078,0.04441465
3180.60335815,0.04413110
3182.53216553,0.04396669
3184.46097290,0.04353354
3186.38978027,0.04325125
3188.31858765,0.04307051
3190.24739502,0.04277427
3192.17620239,0.04249508
3194.10500977,0.04228014
3196.03381714,0.04199660
3197.96262451,0.04177273
3199.89143188,0.04156952
3201.82023926,0.04133189
3203.74904663,0.04105078
3205.67785400,0.04072903
3207.60666138,0.04053655
3209.53546875,0.04028489
3211.46427612,0.04020194
3213.39308350,0.04000620
3215.32189087,0.03969800
3217.25069824,0.03956040
3219.17950562,0.03933541
3221.10831299,0.03927789
3223.03712036,0.03910355
3224.96592773,0.03892995
3226.89473511,0.03879659
3228.82354248,0.03854451
3230.75234985,0.03835808
3232.68115723,0.03816891
3234.60996460,0.03811511
3236.53877197,0.03802083
3238.46757935,0.03792520
3240.39638672,0.03777519
3242.32519409,0.03763999
3244.25400146,0.03746977
3246.18280884,0.03734877
3248.11161621,0.03738322
3250.04042358,0.03719953
3251.96923096,0.03717123
3253.89803833,0.03705545
3255.82684570,0.03694673
3257.75565308,0.03681990
3259.68446045,0.03667534
3261.61326782,0.03682598
3263.54207520,0.03658760
3265.47088257,0.03646983
3267.39968994,0.03653623
3269.32849731,0.03639927
3271.25730469,0.03619640
3273.18611206,0.03618703
3275.11491943,0.03621505
3277.04372681,0.03603281
3278.97253418,0.03609716
3280.90134155,0.03590772
3282.83014893,0.03587652
3284.75895630,0.03593100
3286.68776367,0.03571537
3288.61657104,0.03573185
3290.54537842,0.03566713
3292.47418579,0.03564595
3294.40299316,0.03546612
3296.33180054,0.03543205
3298.26060791,0.03544334
3300.18941528,0.03529637
3302.11822266,0.03531097
3304.04703003,0.03520699
3305.97583740,0.03512475
3307.90464478,0.03495972
3309.83345215,0.03498906
3311.76225952,0.03497073
3313.69106689,0.03483713
3315.61987427,0.03483384
3317.54868164,0.03474881
3319.47748901,0.03469133
3321.40629639,0.03457201
3323.33510376,0.03454202
3325.26391113,0.03439898
3327.19271851,0.03448933
3329.12152588,0.03448208
3331.05033325,0.03425920
3332.97914062,0.03428289
3334.90794800,0.03412879
3336.83675537,0.03414211
3338.76556274,0.03405551
3340.69437012,0.03415374
3342.62317749,0.03412187
3344.55198486,0.03383324
3346.48079224,0.03391914
3348.40959961,0.03378594
3350.33840698,0.03373034
3352.26721436,0.03360223
3354.19602173,0.03354416
3356.12482910,0.03353521
3358.05363647,0.03351399
3359.98244385,0.03352127
3361.91125122,0.03340384
3363.84005859,0.03348730
3365.76886597,0.03325201
3367.69767334,0.03323933
3369.62648071,0.03321836
3371.55528809,0.03324031
3373.48409546,0.03337457
3375.41290283,0.03317731
3377.34171020,0.03327142
3379.27051758,0.03316270
3381.19932495,0.03324294
3383.12813232,0.03316005
3385.05693970,0.03300661
3386.98574707,0.03315940
3388.91455444,0.03305466
3390.84336182,0.03300621
3392.77216919,0.03290670
3394.70097656,0.03308342
3396.62978394,0.03296957
3398.55859131,0.03296062
3400.48739868,0.03308702
3402.41620605,0.03296541
3404.34501343,0.03308615
3406.27382080,0.03295152
3408.20262817,0.03313975
3410.13143555,0.03319588
3412.06024292,0.03319165
3413.98905029,0.03324074
3415.91785767,0.03327714
3417.84666504,0.03342184
3419.77547241,0.03316196
3421.70427979,0.03324309
3423.63308716,0.03322667
3425.56189453,0.03354477
3427.49070190,0.03367486
3429.41950928,0.03339457
3431.34831665,0.03357261
3433.27712402,0.03349781
3435.20593140,0.03365566
3437.13473877,0.03362983
3439.06354614,0.03367475
3440.99235352,0.03367479
3442.92116089,0.03367197
3444.84996826,0.03383482
3446.77877563,0.03346021
3448.70758301,0.03376938
3450.63639038,0.03407639
3452.56519775,0.03410612
3454.49400513,0.03425845
3456.42281250,0.03429046
3458.35161987,0.03434730
3460.28042725,0.03431411
3462.20923462,0.03440637
3464.13804199,0.03444472
3466.06684937,0.03449414
3467.99565674,0.03443437
3469.92446411,0.03465397
3471.85327148,0.03477963
3473.78207886,0.03478092
3475.71088623,0.03487795
3477.63969360,0.03490090
3479.56850098,0.03517551
3481.49730835,0.03479128
3483.42611572,0.03499949
3485.35492310,0.03541944
3487.28373047,0.03520608
3489.21253784,0.03535702
3491.14134521,0.03542818
3493.07015259,0.03562886
3494.99895996,0.03555072
3496.92776733,0.03560137
3498.85657471,0.03586622
3500.78538208,0.03591166
3502.71418945,0.03543774
3504.64299683,0.03547063
3506.57180420,0.03639281
3508.50061157,0.03597115
3510.42941895,0.03601693
3512.35822632,0.03651875
3514.28703369,0.03652311
3516.21584106,0.03669652
3518.14464844,0.03657068
3520.07345581,0.03694312
3522.00226318,0.03669603
3523.93107056,0.03631257
3525.85987793,0.03661137
3527.78868530,0.03659526
3529.71749268,0.03669253
3531.64630005,0.03720890
3533.57510742,0.03754328
3535.50391479,0.03728107
3537.43272217,0.03730611
3539.36152954,0.03773746
3541.29033691,0.03792335
3543.21914429,0.03768715
3545.14795166,0.03703939
3547.07675903,0.03662070
3549.00556641,0.03776037
3550.93437378,0.03812845
3552.86318115,0.03738676
3554.79198853,0.03836377
3556.72079590,0.03854124
3558.64960327,0.03836593
3560.57841064,0.03825055
3562.50721802,0.03816098
3564.43602539,0.03853963
3566.36483276,0.03624505
3568.29364014,0.03555086
3570.22244751,0.03820905
3572.15125488,0.03925546
3574.08006226,0.03886412
3576.00886963,0.03911633
3577.93767700,0.03922030
3579.86648437,0.03915536
3581.79529175,0.03928107
3583.72409912,0.03935628
3585.65290649,0.03870112
3587.58171387,0.03595353
3589.51052124,0.03698071
3591.43932861,0.04005770
3593.36813599,0.03904135
3595.29694336,0.03852807
3597.22575073,0.03929628
3599.15455811,0.03969987
3601.08336548,0.03931534
3603.01217285,0.03973928
3604.94098022,0.04064216
3606.86978760,0.03936590
3608.79859497,0.03723852
3610.72740234,0.03806798
3612.65620972,0.03906814
3614.58501709,0.03805278
3616.51382446,0.04062019
3618.44263184,0.03797034
3620.37143921,0.03676636
3622.30024658,0.04112329
3624.22905395,0.04010285
3626.15786133,0.04200574
3628.08666870,0.03613248
3630.01547607,0.03302533
3631.94428345,0.04107182
3633.87309082,0.04024503
3635.80189819,0.04094807
3637.73070557,0.04178745
3639.65951294,0.04118100
3641.58832031,0.04176499
3643.51712769,0.04131912
3645.44593506,0.04181827
3647.37474243,0.03800227
3649.30354980,0.03504102
3651.23235718,0.03554617
3653.16116455,0.04181024
3655.08997192,0.04144081
3657.01877930,0.03748105
3658.94758667,0.04271552
3660.87639404,0.04198434
3662.80520142,0.04267809
3664.73400879,0.04259570
3666.66281616,0.04224349
3668.59162354,0.04130637
3670.52043091,0.03417199
3672.44923828,0.04080130
3674.37804565,0.03920677
3676.30685303,0.03289730
3678.23566040,0.04084609
3680.16446777,0.04190514
3682.09327515,0.04195017
3684.02208252,0.04314191
3685.95088989,0.04251254
3687.87969727,0.03858815
3689.80850464,0.03564525
3691.73731201,0.04037312
3693.66611938,0.04145361
3695.59492676,0.04239152
3697.52373413,0.04246278
3699.45254150,0.04211132
3701.38134888,0.04112001
3703.31015625,0.03961068
3705.23896362,0.04341818
3707.16777100,0.04145193
3709.09657837,0.04058200
3711.02538574,0.03835292
3712.95419312,0.03593406
3714.88300049,0.04186378
3716.81180786,0.04133583
3718.74061523,0.04153533
3720.66942261,0.04074257
3722.59822998,0.03951034
3724.52703735,0.04085861
3726.45584473,0.03806879
3728.38465210,0.04108749
3730.31345947,0.04053646
3732.24226685,0.03753418
3734.17107422,0.03676051
3736.09988159,0.03498374
3738.02868896,0.03684216
3739.95749634,0.03966575
3741.88630371,0.04158656
3743.81511108,0.03278518
3745.74391846,0.03093595
3747.67272583,0.03960139
3749.60153320,0.03444301
3751.53034058,0.03180993
3753.45914795,0.03610308
3755.38795532,0.03881676
3757.31676270,0.04036593
3759.24557007,0.03741396
3761.17437744,0.03865529
3763.10318481,0.04094691
3765.03199219,0.03831958
3766.96079956,0.03909636
3768.88960693,0.03873517
3770.81841431,0.03704522
3772.74722168,0.03989384
3774.67602905,0.03997033
3776.60483643,0.03994893
3778.53364380,0.03897043
3780.46245117,0.03748302
3782.39125854,0.03970398
3784.32006592,0.03888398
3786.24887329,0.03862182
3788.17768066,0.03942415
3790.10648804,0.03934648
3792.03529541,0.03901432
3793.96410278,0.03959659
3795.89291016,0.03745327
3797.82171753,0.03693955
3799.75052490,0.03880711
3801.67933228,0.03119488
3803.60813965,0.03611562
3805.53694702,0.03907843
3807.46575439,0.03222674
3809.39456177,0.03861850
3811.32336914,0.03789563
3813.25217651,0.03906996
3815.18098389,0.03555544
3817.10979126,0.03135679
3819.03859863,0.03905246
3820.96740601,0.03212947
3822.89621338,0.03361920
3824.82502075,0.03882181
3826.75382812,0.03530396
3828.68263550,0.03780118
3830.61144287,0.03637259
3832.54025024,0.03519617
3834.46905762,0.03593720
3836.39786499,0.03429683
3838.32667236,0.03112098
3840.25547974,0.03355205
3842.18428711,0.03610223
3844.11309448,0.03445865
3846.04190186,0.03704642
3847.97070923,0.03659118
3849.89951660,0.03669700
3851.82832397,0.03317200
3853.75713135,0.02529340
3855.68593872,0.02956729
3857.61474609,0.03663706
3859.54355347,0.03574026
3861.47236084,0.03533141
3863.40116821,0.03464694
3865.32997559,0.03223700
3867.25878296,0.03583686
3869.18759033,0.03299115
3871.11639770,0.03056912
3873.04520508,0.03600319
3874.97401245,0.03326143
3876.90281982,0.03553900
3878.83162720,0.03627655
3880.76043457,0.03145825
3882.68924194,0.03567699
3884.61804932,0.03360200
3886.54685669,0.03097942
3888.47566406,0.03573338
3890.40447144,0.03404208
3892.33327881,0.03197424
3894.26208618,0.03486790
3896.19089355,0.03538703
3898.11970093,0.03375200
3900.04850830,0.03225153
3901.97731567,0.03176602
3903.90612305,0.03139300
3905.83493042,0.03200015
3907.76373779,0.03477624
3909.69254517,0.03464961
3911.62135254,0.03433845
3913.55015991,0.03485534
3915.47896728,0.03377341
3917.40777466,0.03306854
3919.33658203,0.03274361
3921.26538940,0.03389309
3923.19419678,0.03371961
3925.12300415,0.03301228
3927.05181152,0.03364826
3928.98061890,0.03391727
3930.90942627,0.03326099
3932.83823364,0.03215268
3934.76704102,0.03340276
3936.69584839,0.03374121
3938.62465576,0.03339643
3940.55346313,0.03368912
3942.48227051,0.03249840
3944.41107788,0.03272688
3946.33988525,0.03319889
3948.26869263,0.03247572
3950.19750000,0.03248951
3952.12630737,0.03296606
3954.05511475,0.03291996
3955.98392212,0.03282707
3957.91272949,0.03274892
3959.84153687,0.03262416
3961.77034424,0.03251991
3963.69915161,0.03242241
3965.62795898,0.03271045
3967.55676636,0.03250576
3969.48557373,0.03240688
3971.41438110,0.03217783
3973.34318848,0.03206427
3975.27199585,0.03224605
3977.20080322,0.03203594
3979.12961060,0.03226283
3981.05841797,0.03199460
3982.98722534,0.03193907
3984.91603271,0.03189624
3986.84484009,0.03178959
3988.77364746,0.03180202
3990.70245483,0.03148301
3992.63126221,0.03175752
3994.56006958,0.03150986
3996.48887695,0.03150082
3998.41768433,0.03150308
4000.34649170,0.03132404
4002.27529907,0.03136334
4004.20410645,0.03115619
4006.13291382,0.03127278
4008.06172119,0.03103345
4009.99052856,0.03111302
4011.91933594,0.03099976
4013.84814331,0.03086292
4015.77695068,0.03091604
4017.70575806,0.03071206
4019.63456543,0.03080288
4021.56337280,0.03057273
4023.49218018,0.03064611
4025.42098755,0.03050047
4027.34979492,0.03045620
4029.27860229,0.03046698
4031.20740967,0.03031865
4033.13621704,0.03041745
4035.06502441,0.03013195
4036.99383179,0.03029832
4038.92263916,0.03007337
4040.85144653,0.02992510
4042.78025391,0.02995955
4044.70906128,0.02973814
4046.63786865,0.02989305
4048.56667603,0.02977779
4050.49548340,0.02976199
4052.42429077,0.02962312
4054.35309814,0.02966714
4056.28190552,0.02959071
4058.21071289,0.02938623
4060.13952026,0.02940174
4062.06832764,0.02924406
4063.99713501,0.02930492
4065.92594238,0.02921071
4067.85474976,0.02925718
4069.78355713,0.02915902
4071.71236450,0.02905523
4073.64117187,0.02900965
4075.56997925,0.02893163
4077.49878662,0.02891570
4079.42759399,0.02867390
4081.35640137,0.02884017
4083.28520874,0.02865748
4085.21401611,0.02860434
4087.14282349,0.02858333
4089.07163086,0.02837437
4091.00043823,0.02846221
4092.92924561,0.02828602
4094.85805298,0.02836040
4096.78686035,0.02815959
4098.71566772,0.02811382
4100.64447510,0.02813774
4102.57328247,0.02796428
4104.50208984,0.02799443
4106.43089722,0.02787816
4108.35970459,0.02790056
4110.28851196,0.02774787
4112.21731934,0.02782414
4114.14612671,0.02768021
4116.07493408,0.02752697
4118.00374145,0.02764105
4119.93254883,0.02745680
4121.86135620,0.02750652
4123.79016357,0.02741554
4125.71897095,0.02736545
4127.64777832,0.02727872
4129.57658569,0.02727809
4131.50539307,0.02719882
4133.43420044,0.02696318
4135.36300781,0.02702542
4137.29181519,0.02696653
4139.22062256,0.02693510
4141.14942993,0.02678868
4143.07823730,0.02683675
4145.00704468,0.02668992
4146.93585205,0.02657025
4148.86465942,0.02667511
4150.79346680,0.02653644
4152.72227417,0.02659540
4154.65108154,0.02633237
4156.57988892,0.02636165
4158.50869629,0.02634432
4160.43750366,0.02625298
4162.36631103,0.02637839
4164.29511841,0.02611640
4166.22392578,0.02614030
4168.15273315,0.02604596
4170.08154053,0.02597653
4172.01034790,0.02594617
4173.93915527,0.02594462
4175.86796265,0.02586760
4177.79677002,0.02565182
4179.72557739,0.02575277
4181.65438477,0.02558796
4183.58319214,0.02556598
4185.51199951,0.02550799
4187.44080688,0.02542480
4189.36961426,0.02540506
4191.29842163,0.02532790
4193.22722900,0.02537103
4195.15603638,0.02520958
4197.08484375,0.02521452
4199.01365112,0.02512999
4200.94245850,0.02512333
4202.87126587,0.02501454
4204.80007324,0.02488617
4206.72888062,0.02500947
4208.65768799,0.02485694
4210.58649536,0.02476316
4212.51530273,0.02467205
4214.44411011,0.02469403
4216.37291748,0.02458527
4218.30172485,0.02457737
4220.23053223,0.02450820
4222.15933960,0.02426054
4224.08814697,0.02441980
4226.01695435,0.02424861
4227.94576172,0.02424536
4229.87456909,0.02427258
4231.80337646,0.02413288
4233.73218384,0.02420473
4235.66099121,0.02410525
4237.58979858,0.02401557
4239.51860596,0.02397043
4241.44741333,0.02400108
4243.37622070,0.02383367
4245.30502808,0.02376949
4247.23383545,0.02380549
4249.16264282,0.02376292
4251.09145020,0.02373142
4253.02025757,0.02357383
4254.94906494,0.02354554
4256.87787231,0.02344013
4258.80667969,0.02343355
4260.73548706,0.02336575
4262.66429443,0.02325859
4264.59310181,0.02316833
4266.52190918,0.02309394
4268.45071655,0.02320934
4270.37952393,0.02308942
4272.30833130,0.02308840
4274.23713867,0.02304284
4276.16594604,0.02296478
4278.09475342,0.02288735
4280.02356079,0.02284554
4281.95236816,0.02290391
4283.88117554,0.02273456
4285.80998291,0.02278074
4287.73879028,0.02269766
4289.66759766,0.02263349
4291.59640503,0.02256268
4293.52521240,0.02241903
4295.45401978,0.02244609
4297.38282715,0.02239616
4299.31163452,0.02244541
4301.24044189,0.02231362
4303.16924927,0.02227445
4305.09805664,0.02215535
4307.02686401,0.02210703
4308.95567139,0.02216319
4310.88447876,0.02195331
4312.81328613,0.02199034
4314.74209351,0.02195232
4316.67090088,0.02193345
4318.59970825,0.02182183
4320.52851562,0.02178128
4322.45732300,0.02175553
4324.38613037,0.02160459
4326.31493774,0.02172012
4328.24374512,0.02160311
4330.17255249,0.02158753
4332.10135986,0.02153244
4334.03016724,0.02144912
4335.95897461,0.02143401
4337.88778198,0.02135841
4339.81658936,0.02138712
4341.74539673,0.02125743
4343.67420410,0.02124411
4345.60301147,0.02115337
4347.53181885,0.02115012
4349.46062622,0.02107991
4351.38943359,0.02097304
4353.31824097,0.02101367
4355.24704834,0.02090318
4357.17585571,0.02095050
4359.10466309,0.02077979
4361.03347046,0.02079904
4362.96227783,0.02082702
4364.89108520,0.02063863
4366.81989258,0.02067113
4368.74869995,0.02057212
4370.67750732,0.02057609
4372.60631470,0.02052421
4374.53512207,0.02038809
4376.46392944,0.02035249
4378.39273682,0.02041032
4380.32154419,0.02034771
4382.25035156,0.02027581
4384.17915894,0.02025254
4386.10796631,0.02014359
4388.03677368,0.02024056
4389.96558105,0.02008497
4391.89438843,0.02005935
4393.82319580,0.02003934
4395.75200317,0.01993420
4397.68081055,0.02000895
4399.60961792,0.01979806
4401.53842529,0.01985017
4403.46723267,0.01981162
4405.39604004,0.01975052
4407.32484741,0.01976693
4409.25365478,0.01958742
4411.18246216,0.01962605
4413.11126953,0.01958007
4415.04007690,0.01944510
4416.96888428,0.01936204
4418.89769165,0.01939232
4420.82649902,0.01930376
4422.75530640,0.01930522
4424.68411377,0.01935219
4426.61292114,0.01915611
4428.54172852,0.01917688
4430.47053589,0.01918346
4432.39934326,0.01906426
4434.32815063,0.01897600
4436.25695801,0.01906461
4438.18576538,0.01897937
4440.11457275,0.01882532
4442.04338013,0.01887761
4443.97218750,0.01880935
4445.90099487,0.01879663
4447.82980225,0.01869527
4449.75860962,0.01871053
4451.68741699,0.01859859
4453.61622437,0.01853397
4455.54503174,0.01867108
4457.47383911,0.01844464
4459.40264648,0.01842719
4461.33145386,0.01840627
4463.26026123,0.01832907
4465.18906860,0.01833847
4467.11787598,0.01828704
4469.04668335,0.01822521
4470.97549072,0.01816497
4472.90429810,0.01813173
4474.83310547,0.01800161
4476.76191284,0.01810013
4478.69072021,0.01799975
4480.61952759,0.01793039
4482.54833496,0.01799552
4484.47714233,0.01781385
4486.40594971,0.01780882
4488.33475708,0.01778216
4490.26356445,0.01779431
4492.19237183,0.01766543
4494.12117920,0.01764682
4496.04998657,0.01770901
4497.97879395,0.01755498
4499.90760132,0.01758529
4501.83640869,0.01749678
4503.76521606,0.01746211
4505.69402344,0.01740212
4507.62283081,0.01732873
4509.55163818,0.01736938
4511.48044556,0.01730775
4513.40925293,0.01727261
4515.33806030,0.01722441
4517.26686768,0.01722788
4519.19567505,0.01717153
4521.12448242,0.01714507
4523.05328979,0.01705804
4524.98209717,0.01697540
4526.91090454,0.01701594
4528.83971191,0.01693207
4530.76851929,0.01688093
4532.69732666,0.01686439
4534.62613403,0.01685524
4536.55494141,0.01678500
4538.48374878,0.01674382
4540.41255615,0.01667632
4542.34136353,0.01662009
4544.27017090,0.01661808
4546.19897827,0.01656482
4548.12778564,0.01654112
4550.05659302,0.01635244
4551.98540039,0.01638624
4553.91420776,0.01648995
4555.84301514,0.01642387
4557.77182251,0.01636369
4559.70062988,0.01628545
4561.62943726,0.01628772
4563.55824463,0.01618687
4565.48705200,0.01617666
4567.41585937,0.01611901
4569.34466675,0.01606817
4571.27347412,0.01604627
4573.20228149,0.01606275
4575.13108887,0.01609051
4577.05989624,0.01583953
4578.98870361,0.01591887
4580.91751099,0.01586400
4582.84631836,0.01573888
4584.77512573,0.01580943
4586.70393311,0.01574424
4588.63274048,0.01576004
4590.56154785,0.01562083
4592.49035522,0.01565911
4594.41916260,0.01555478
4596.34796997,0.01548573
4598.27677734,0.01558356
4600.20558472,0.01541761
4602.13439209,0.01551245
4604.06319946,0.01541353
4605.99200684,0.01535102
4607.92081421,0.01540872
4609.84962158,0.01523761
4611.77842895,0.01528813
4613.70723633,0.01524538
4615.63604370,0.01512768
4617.56485107,0.01513421
4619.49365845,0.01505062
4621.42246582,0.01505256
4623.35127319,0.01507313
4625.28008057,0.01495360
4627.20888794,0.01498753
4629.13769531,0.01492001
4631.06650269,0.01486541
4632.99531006,0.01487301
4634.92411743,0.01470591
4636.85292480,0.01475127
4638.78173218,0.01468698
4640.71053955,0.01469020
4642.63934692,0.01465098
4644.56815430,0.01453652
4646.49696167,0.01467827
4648.42576904,0.01453732
4650.35457642,0.01452422
4652.28338379,0.01448121
4654.21219116,0.01436711
4656.14099853,0.01440996
4658.06980591,0.01430028
4659.99861328,0.01433495
4661.92742065,0.01439130
4663.85622803,0.01435557
4665.78503540,0.01419765
4667.71384277,0.01417104
4669.64265015,0.01420287
4671.57145752,0.01410526
4673.50026489,0.01408784
4675.42907227,0.01403402
4677.35787964,0.01405954
4679.28668701,0.01395672
4681.21549438,0.01391756
4683.14430176,0.01393295
4685.07310913,0.01381440
4687.00191650,0.01384231
4688.93072388,0.01375519
4690.85953125,0.01372547
4692.78833862,0.01372788
4694.71714600,0.01369649
4696.64595337,0.01370557
4698.57476074,0.01360764
4700.50356812,0.01362385
4702.43237549,0.01359488
4704.36118286,0.01352777
4706.28999023,0.01354660
4708.21879761,0.01348284
4710.14760498,0.01345164
4712.07641235,0.01348100
4714.00521973,0.01342992
4715.93402710,0.01333353
4717.86283447,0.01330041
4719.79164185,0.01331686
4721.72044922,0.01327927
4723.64925659,0.01320302
4725.57806396,0.01317488
4727.50687134,0.01318013
4729.43567871,0.01316095
4731.36448608,0.01310835
4733.29329346,0.01309060
4735.22210083,0.01304714
4737.15090820,0.01305646
4739.07971558,0.01304413
4741.00852295,0.01289752
4742.93733032,0.01289383
4744.86613770,0.01290217
4746.79494507,0.01287035
4748.72375244,0.01282800
4750.65255981,0.01280295
4752.58136719,0.01281169
4754.51017456,0.01273433
4756.43898193,0.01272188
4758.36778931,0.01260541
4760.29659668,0.01256736
4762.22540405,0.01265470
4764.15421143,0.01256734
4766.08301880,0.01252911
4768.01182617,0.01254980
4769.94063354,0.01247786
4771.86944092,0.01240650
4773.79824829,0.01248597
4775.72705566,0.01239682
4777.65586304,0.01230631
4779.58467041,0.01241030
4781.51347778,0.01233105
4783.44228516,0.01226023
4785.37109253,0.01223118
4787.29989990,0.01222016
4789.22870728,0.01220551
4791.15751465,0.01213242
4793.08632202,0.01210360
4795.01512939,0.01210252
4796.94393677,0.01206957
4798.87274414,0.01200026
4800.80155151,0.01199948
4802.73035889,0.01192525
4804.65916626,0.01191680
4806.58797363,0.01194957
4808.51678101,0.01194131
4810.44558838,0.01188091
4812.37439575,0.01170240
4814.30320312,0.01175402
4816.23201050,0.01173694
4818.16081787,0.01167137
4820.08962524,0.01170570
4822.01843262,0.01161955
4823.94723999,0.01161954
4825.87604736,0.01165292
4827.80485474,0.01161142
4829.73366211,0.01157030
4831.66246948,0.01157981
4833.59127686,0.01147946
4835.52008423,0.01146674
4837.44889160,0.01151080
4839.37769897,0.01143341
4841.30650635,0.01140158
4843.23531372,0.01131209
4845.16412109,0.01132853
4847.09292847,0.01128442
4849.02173584,0.01125888
4850.95054321,0.01127580
4852.87935059,0.01119818
4854.80815796,0.01126452
4856.73696533,0.01116130
4858.66577270,0.01112712
4860.59458008,0.01118683
4862.52338745,0.01108406
4864.45219482,0.01101764
4866.38100220,0.01102129
4868.30980957,0.01103685
4870.23861694,0.01101966
4872.16742432,0.01101048
4874.09623169,0.01089943
4876.02503906,0.01089276
4877.95384644,0.01084869
4879.88265381,0.01076411
4881.81146118,0.01081688
4883.74026855,0.01076137
4885.66907593,0.01076332
4887.59788330,0.01074488
4889.52669067,0.01073975
4891.45549805,0.01068020
4893.38430542,0.01061756
4895.31311279,0.01063851
4897.24192017,0.01060108
4899.17072754,0.01063012
4901.09953491,0.01053053
4903.02834228,0.01052963
4904.95714966,0.01046521
4906.88595703,0.01036751
4908.81476440,0.01047221
4910.74357178,0.01040770
4912.67237915,0.01041161
4914.60118652,0.01036538
4916.52999390,0.01030299
4918.45880127,0.01031396
4920.38760864,0.01029618
4922.31641602,0.01036036
4924.24522339,0.01024396
4926.17403076,0.01010601
4928.10283813,0.01011528
4930.03164551,0.01012051
4931.96045288,0.01012383
4933.88926025,0.01013972
4935.81806763,0.01008709
4937.74687500,0.01001014
4939.67568237,0.00996514
4941.60448975,0.01000130
4943.53329712,0.01001619
4945.46210449,0.00986262
4947.39091187,0.00981230
4949.31971924,0.00983280
4951.24852661,0.00988023
4953.17733398,0.00987444
4955.10614136,0.00982340
4957.03494873,0.00981560
4958.96375610,0.00971720
4960.89256348,0.00973357
4962.82137085,0.00973917
4964.75017822,0.00973273
4966.67898560,0.00964361
4968.60779297,0.00953982
4970.53660034,0.00959990
4972.46540771,0.00957240
4974.39421509,0.00961860
4976.32302246,0.00954339
4978.25182983,0.00947529
4980.18063721,0.00949159
4982.10944458,0.00940244
4984.03825195,0.00944122
4985.96705933,0.00944041
4987.89586670,0.00942186
4989.82467407,0.00940703
4991.75348145,0.00939108
4993.68228882,0.00940365
4995.61109619,0.00933178
4997.53990356,0.00919090
4999.46871094,0.00924182
5001.39751831,0.00929336
5003.32632568,0.00913680
5005.25513306,0.00919548
5007.18394043,0.00916037
5009.11274780,0.00913238
5011.04155518,0.00912246
5012.97036255,0.00902594
5014.89916992,0.00913174
5016.82797729,0.00901913
5018.75678467,0.00897277
5020.68559204,0.00898012
5022.61439941,0.00895221
5024.54320679,0.00897092
5026.47201416,0.00892492
5028.40082153,0.00895692
5030.32962891,0.00885021
5032.25843628,0.00886406
5034.18724365,0.00880833
5036.11605103,0.00875926
5038.04485840,0.00884378
5039.97366577,0.00873744
5041.90247314,0.00874966
5043.83128052,0.00870010
5045.76008789,0.00870865
5047.68889526,0.00874582
5049.61770264,0.00865312
5051.54651001,0.00864805
5053.47531738,0.00865038
5055.40412476,0.00862475
5057.33293213,0.00850606
5059.26173950,0.00850084
5061.19054687,0.00852277
5063.11935425,0.00849683
5065.04816162,0.00847950
5066.97696899,0.00844021
5068.90577637,0.00847045
5070.83458374,0.00842308
5072.76339111,0.00840257
5074.69219849,0.00840330
5076.62100586,0.00838910
5078.54981323,0.00839809
5080.47862061,0.00833900
5082.40742798,0.00823129
5084.33623535,0.00824759
5086.26504272,0.00830980
5088.19385010,0.00812430
5090.12265747,0.00815198
5092.05146484,0.00826839
5093.98027222,0.00815422
5095.90907959,0.00817710
5097.83788696,0.00809508
5099.76669434,0.00804497
5101.69550171,0.00813029
5103.62430908,0.00804462
5105.55311645,0.00801055
5107.48192383,0.00800471
5109.41073120,0.00793522
5111.33953857,0.00790068
5113.26834595,0.00793031
5115.19715332,0.00793471
5117.12596069,0.00787220
5119.05476807,0.00788754
5120.98357544,0.00779774
5122.91238281,0.00780349
5124.84119019,0.00790201
5126.76999756,0.00775413
5128.69880493,0.00778232
5130.62761230,0.00779716
5132.55641968,0.00770928
5134.48522705,0.00767537
5136.41403442,0.00764918
5138.34284180,0.00774632
5140.27164917,0.00764602
5142.20045654,0.00759796
5144.12926392,0.00762845
5146.05807129,0.00763711
5147.98687866,0.00760025
5149.91568603,0.00747084
5151.84449341,0.00758766
5153.77330078,0.00756102
5155.70210815,0.00748933
5157.63091553,0.00740941
5159.55972290,0.00740619
5161.48853027,0.00752826
5163.41733765,0.00737927
5165.34614502,0.00745299
5167.27495239,0.00747386
5169.20375977,0.00739592
5171.13256714,0.00734236
5173.06137451,0.00722180
5174.99018188,0.00732565
5176.91898926,0.00728244
5178.84779663,0.00721394
5180.77660400,0.00721374
5182.70541138,0.00721210
5184.63421875,0.00713225
5186.56302612,0.00708900
5188.49183350,0.00720892
5190.42064087,0.00712640
5192.34944824,0.00717086
5194.27825562,0.00720248
5196.20706299,0.00701809
5198.13587036,0.00699177
5200.06467773,0.00707408
5201.99348511,0.00706583
5203.92229248,0.00702637
5205.85109985,0.00696477
5207.77990723,0.00681069
5209.70871460,0.00694230
5211.63752197,0.00703737
5213.56632935,0.00693213
5215.49513672,0.00694103
5217.42394409,0.00687928
5219.35275146,0.00688315
5221.28155884,0.00689693
5223.21036621,0.00680842
5225.13917358,0.00673145
5227.06798096,0.00678046
5228.99678833,0.00683995
5230.92559570,0.00676767
5232.85440308,0.00677100
5234.78321045,0.00681617
5236.71201782,0.00676195
5238.64082520,0.00669746
5240.56963257,0.00677021
5242.49843994,0.00668717
5244.42724731,0.00655196
5246.35605469,0.00662459
5248.28486206,0.00651020
5250.21366943,0.00646085
5252.14247681,0.00660782
5254.07128418,0.00651476
5256.00009155,0.00647517
5257.92889893,0.00659370
5259.85770630,0.00653552
5261.78651367,0.00651537
5263.71532104,0.00639417
5265.64412842,0.00634411
5267.57293579,0.00655128
5269.50174316,0.00645083
5271.43055054,0.00645393
5273.35935791,0.00651308
5275.28816528,0.00641899
5277.21697266,0.00642607
5279.14578003,0.00636387
5281.07458740,0.00642080
5283.00339478,0.00641066
5284.93220215,0.00631261
5286.86100952,0.00629189
5288.78981689,0.00627551
5290.71862427,0.00625823
5292.64743164,0.00627989
5294.57623901,0.00632025
5296.50504639,0.00618948
5298.43385376,0.00618425
5300.36266113,0.00619450
5302.29146851,0.00618284
5304.22027588,0.00627556
5306.14908325,0.00618332
5308.07789062,0.00610678
5310.00669800,0.00612232
5311.93550537,0.00612864
5313.86431274,0.00612620
5315.79312012,0.00606366
5317.72192749,0.00599442
5319.65073486,0.00610729
5321.57954224,0.00603667
5323.50834961,0.00591750
5325.43715698,0.00609464
5327.36596436,0.00592900
5329.29477173,0.00588549
5331.22357910,0.00597614
5333.15238647,0.00583822
5335.08119385,0.00596341
5337.01000122,0.00589530
5338.93880859,0.00562205
5340.86761597,0.00577417
5342.79642334,0.00589299
5344.72523071,0.00561096
5346.65403809,0.00568722
5348.58284546,0.00578214
5350.51165283,0.00571151
5352.44046020,0.00572794
5354.36926758,0.00552699
5356.29807495,0.00574462
5358.22688232,0.00578650
5360.15568970,0.00565076
5362.08449707,0.00576422
5364.01330444,0.00561164
5365.94211182,0.00566314
5367.87091919,0.00562787
5369.79972656,0.00561846
5371.72853394,0.00571009
5373.65734131,0.00559512
5375.58614868,0.00552739
5377.51495605,0.00544863
5379.44376343,0.00552594
5381.37257080,0.00557644
5383.30137817,0.00553213
5385.23018555,0.00543061
5387.15899292,0.00542744
5389.08780029,0.00551973
5391.01660767,0.00550008
5392.94541504,0.00549268
5394.87422241,0.00538457
5396.80302978,0.00538847
5398.73183716,0.00534632
5400.66064453,0.00537596
5402.58945190,0.00547285
5404.51825928,0.00533212
5406.44706665,0.00541226
5408.37587402,0.00532276
5410.30468140,0.00522810
5412.23348877,0.00530411
5414.16229614,0.00507111
5416.09110352,0.00516065
5418.01991089,0.00537866
5419.94871826,0.00529322
5421.87752563,0.00527194
5423.80633301,0.00516702
5425.73514038,0.00519746
5427.66394775,0.00523673
5429.59275513,0.00503790
5431.52156250,0.00518320
5433.45036987,0.00517336
5435.37917725,0.00496256
5437.30798462,0.00507355
5439.23679199,0.00512150
5441.16559936,0.00506859
5443.09440674,0.00501551
5445.02321411,0.00501113
5446.95202148,0.00498012
5448.88082886,0.00500690
5450.80963623,0.00499608
5452.73844360,0.00498886
5454.66725098,0.00507449
5456.59605835,0.00497641
5458.52486572,0.00504239
5460.45367310,0.00494167
5462.38248047,0.00486251
5464.31128784,0.00496157
5466.24009521,0.00482934
5468.16890259,0.00489262
5470.09770996,0.00486488
5472.02651733,0.00493019
5473.95532471,0.00491698
5475.88413208,0.00468775
5477.81293945,0.00478836
5479.74174683,0.00485336
5481.67055420,0.00486282
5483.59936157,0.00480093
5485.52816895,0.00480903
5487.45697632,0.00477308
5489.38578369,0.00469604
5491.31459106,0.00476360
5493.24339844,0.00464331
5495.17220581,0.00468939
5497.10101318,0.00472088
5499.02982056,0.00463052
5500.95862793,0.00465642
5502.88743530,0.00467440
5504.81624268,0.00468494
5506.74505005,0.00461258
5508.67385742,0.00463637
5510.60266479,0.00464721
5512.53147217,0.00461842
5514.46027954,0.00464079
5516.38908691,0.00458685
5518.31789429,0.00452375
5520.24670166,0.00451634
5522.17550903,0.00453991
5524.10431641,0.00455153
5526.03312378,0.00459343
5527.96193115,0.00452295
5529.89073853,0.00447923
5531.81954590,0.00453740
5533.74835327,0.00452098
5535.67716064,0.00449233
5537.60596802,0.00441064
5539.53477539,0.00441448
5541.46358276,0.00444168
5543.39239014,0.00444686
5545.32119751,0.00444414
5547.25000488,0.00434011
5549.17881226,0.00440452
5551.10761963,0.00442752
5553.03642700,0.00435954
5554.96523437,0.00441839
5556.89404175,0.00434627
5558.82284912,0.00437584
5560.75165649,0.00443776
5562.68046387,0.00429342
5564.60927124,0.00437370
5566.53807861,0.00441603
5568.46688599,0.00428492
5570.39569336,0.00430351
5572.32450073,0.00430141
5574.25330811,0.00425030
5576.18211548,0.00422082
5578.11092285,0.00423930
5580.03973022,0.00425066
5581.96853760,0.00423023
5583.89734497,0.00419725
5585.82615234,0.00420801
5587.75495972,0.00421029
5589.68376709,0.00410931
5591.61257446,0.00418267
5593.54138184,0.00417757
5595.47018921,0.00410373
5597.39899658,0.00415609
5599.32780395,0.00412173
5601.25661133,0.00420152
5603.18541870,0.00414772
5605.11422607,0.00401979
5607.04303345,0.00405451
5608.97184082,0.00402400
5610.90064819,0.00402290
5612.82945557,0.00402371
5614.75826294,0.00401759
5616.68707031,0.00400110
5618.61587769,0.00398304
5620.54468506,0.00400612
5622.47349243,0.00400205
5624.40229980,0.00400304
5626.33110718,0.00397851
5628.25991455,0.00391954
5630.18872192,0.00392071
5632.11752930,0.00396794
5634.04633667,0.00394061
5635.97514404,0.00389362
5637.90395142,0.00384334
5639.83275879,0.00380528
5641.76156616,0.00387775
5643.69037353,0.00392156
5645.61918091,0.00385316
5647.54798828,0.00385747
5649.47679565,0.00386918
5651.40560303,0.00377635
5653.33441040,0.00383165
5655.26321777,0.00383859
5657.19202515,0.00378416
5659.12083252,0.00380019
5661.04963989,0.00371449
5662.97844727,0.00374418
5664.90725464,0.00376155
5666.83606201,0.00374901
5668.76486938,0.00371536
5670.69367676,0.00363775
5672.62248413,0.00370707
5674.55129150,0.00367922
5676.48009888,0.00361923
5678.40890625,0.00360293
5680.33771362,0.00366928
5682.26652100,0.00375147
5684.19532837,0.00367576
5686.12413574,0.00362872
5688.05294311,0.00362692
5689.98175049,0.00367436
5691.91055786,0.00366081
5693.83936523,0.00359081
5695.76817261,0.00357783
5697.69697998,0.00355822
5699.62578735,0.00355013
5701.55459473,0.00358289
5703.48340210,0.00360999
5705.41220947,0.00359742
5707.34101685,0.00358616
5709.26982422,0.00351774
5711.19863159,0.00351178
5713.12743896,0.00351084
5715.05624634,0.00347129
5716.98505371,0.00341493
5718.91386108,0.00334119
5720.84266846,0.00346809
5722.77147583,0.00344969
5724.70028320,0.00341282
5726.62909058,0.00344670
5728.55789795,0.00337054
5730.48670532,0.00347051
5732.41551270,0.00346011
5734.34432007,0.00340556
5736.27312744,0.00343101
5738.20193481,0.00337191
5740.13074219,0.00332279
5742.05954956,0.00334018
5743.98835693,0.00338356
5745.91716431,0.00332319
5747.84597168,0.00329403
5749.77477905,0.00329457
5751.70358643,0.00326897
5753.63239380,0.00324233
5755.56120117,0.00329864
5757.49000854,0.00333259
5759.41881592,0.00320832
5761.34762329,0.00322093
5763.27643066,0.00326601
5765.20523804,0.00322943
5767.13404541,0.00320931
5769.06285278,0.00323388
5770.99166016,0.00318401
5772.92046753,0.00315229
5774.84927490,0.00325800
5776.77808228,0.00314384
5778.70688965,0.00309480
5780.63569702,0.00315852
5782.56450439,0.00311951
5784.49331177,0.00314251
5786.42211914,0.00310640
5788.35092651,0.00310125
5790.27973389,0.00317708
5792.20854126,0.00315839
5794.13734863,0.00301655
5796.06615601,0.00304692
5797.99496338,0.00312480
5799.92377075,0.00300596
5801.85257812,0.00300348
5803.78138550,0.00302599
5805.71019287,0.00300591
5807.63900024,0.00308186
5809.56780762,0.00307387
5811.49661499,0.00296783
5813.42542236,0.00302012
5815.35422974,0.00301093
5817.28303711,0.00295127
5819.21184448,0.00303540
5821.14065186,0.00295218
5823.06945923,0.00301603
5824.99826660,0.00306167
5826.92707397,0.00292126
5828.85588135,0.00297984
5830.78468872,0.00292176
5832.71349609,0.00287240
5834.64230347,0.00292436
5836.57111084,0.00293459
5838.49991821,0.00292633
5840.42872559,0.00288308
5842.35753296,0.00289258
5844.28634033,0.00289807
5846.21514770,0.00288273
5848.14395508,0.00280106
5850.07276245,0.00281057
5852.00156982,0.00284511
5853.93037720,0.00278917
5855.85918457,0.00281279
5857.78799194,0.00277397
5859.71679932,0.00276264
5861.64560669,0.00284980
5863.57441406,0.00284770
5865.50322144,0.00275836
5867.43202881,0.00274259
5869.36083618,0.00274161
5871.28964355,0.00273642
5873.21845093,0.00283461
5875.14725830,0.00276310
5877.07606567,0.00271820
5879.00487305,0.00276654
5880.93368042,0.00266413
5882.86248779,0.00267195
5884.79129517,0.00266913
5886.72010254,0.00266568
5888.64890991,0.00271509
5890.57771728,0.00267082
5892.50652466,0.00266982
5894.43533203,0.00260264
5896.36413940,0.00260459
5898.29294678,0.00265947
5900.22175415,0.00260406
5902.15056152,0.00264784
5904.07936890,0.00267102
5906.00817627,0.00266285
5907.93698364,0.00258214
5909.86579102,0.00251635
5911.79459839,0.00256511
5913.72340576,0.00251314
5915.65221313,0.00258450
5917.58102051,0.00261992
5919.50982788,0.00257434
5921.43863525,0.00258954
5923.36744263,0.00252535
5925.29625000,0.00257097
5927.22505737,0.00251413
5929.15386475,0.00244211
5931.08267212,0.00253261
5933.01147949,0.00251385
5934.94028686,0.00249588
5936.86909424,0.00249662
5938.79790161,0.00248403
5940.72670898,0.00250071
5942.65551636,0.00248823
5944.58432373,0.00243335
5946.51313110,0.00240442
5948.44193848,0.00241742
5950.37074585,0.00242095
5952.29955322,0.00240202
5954.22836060,0.00239787
5956.15716797,0.00243047
5958.08597534,0.00241702
5960.01478271,0.00241143
5961.94359009,0.00239366
5963.87239746,0.00234730
5965.80120483,0.00232406
5967.73001221,0.00232615
5969.65881958,0.00233788
5971.58762695,0.00231510
5973.51643433,0.00237898
5975.44524170,0.00236673
5977.37404907,0.00234345
5979.30285645,0.00238315
5981.23166382,0.00229609
5983.16047119,0.00231120
5985.08927856,0.00232959
5987.01808594,0.00230334
5988.94689331,0.00233236
5990.87570068,0.00230035
5992.80450806,0.00228144
5994.73331543,0.00231713
5996.66212280,0.00230080
5998.59093018,0.00225342
6000.51973755,0.00227328
