399.26312622,0.00110090
401.19193359,0.00115531
403.12074097,0.00101760
405.04954834,0.00093992
406.97835571,0.00126764
408.90716309,0.00122082
410.83597046,0.00090699
412.76477783,0.00115694
414.69358521,0.00112253
416.62239258,0.00133037
418.55119995,0.00155453
420.48000732,0.00070373
422.40881470,0.00099137
424.33762207,0.00178671
426.26642944,0.00139619
428.19523682,0.00097440
430.12404419,0.00111520
432.05285156,0.00108926
433.98165894,0.00087480
435.91046631,0.00140504
437.83927368,0.00127337
439.76808105,0.00090251
441.69688843,0.00121695
443.62569580,0.00119681
445.55450317,0.00146093
447.48331055,0.00127078
449.41211792,0.00074946
451.34092529,0.00067990
453.26973267,0.00103081
455.19854004,0.00137749
457.12734741,0.00104054
459.05615479,0.00117276
460.98496216,0.00114323
462.91376953,0.00107424
464.84257690,0.00116442
466.77138428,0.00062246
468.70019165,0.00057673
470.62899902,0.00072536
472.55780640,0.00062928
474.48661377,0.00036220
476.41542114,0.00026299
478.34422852,0.00042069
480.27303589,0.00069834
482.20184326,0.00084744
484.13065063,0.00054104
486.05945801,0.00060670
487.98826538,0.00023082
489.91707275,-0.00027169
491.84588013,0.00017841
493.77468750,0.00028281
495.70349487,0.00059340
497.63230225,0.00081652
499.56110962,0.00077519
501.48991699,0.00084272
503.41872437,0.00052428
505.34753174,0.00082795
507.27633911,0.00029428
509.20514648,0.00069413
511.13395386,0.00052867
513.06276123,0.00080967
514.99156860,0.00108386
516.92037598,0.00073472
518.84918335,0.00036128
520.77799072,0.00014255
522.70679810,0.00074744
524.63560547,0.00045434
526.56441284,0.00025998
528.49322021,0.00049079
530.42202759,0.00043660
532.35083496,0.00027375
534.27964233,0.00008461
536.20844971,0.00054342
538.13725708,0.00044895
540.06606445,0.00009571
541.99487183,0.00044258
543.92367920,0.00071326
545.85248657,0.00032688
547.78129395,0.00013690
549.71010132,0.00046189
551.63890869,0.00056513
553.56771606,0.00027320
555.49652344,0.00027816
557.42533081,0.00055931
559.35413818,0.00027950
561.28294556,0.00026185
563.21175293,0.00029449
565.14056030,0.00052008
567.06936768,0.00073768
568.99817505,-0.00005984
570.92698242,0.00033158
572.85578979,0.00065374
574.78459717,0.00032187
576.71340454,0.00074176
578.64221191,0.00026359
580.57101929,0.00010430
582.49982666,0.00043222
584.42863403,0.00043210
586.35744141,0.00053932
588.28624878,0.00054429
590.21505615,0.00062216
592.14386353,0.00047625
594.07267090,0.00073738
596.00147827,0.00070148
597.93028564,0.00012698
599.85909302,0.00036742
601.78790039,0.00044766
603.71670776,0.00020842
605.64551514,0.00030596
607.57432251,0.00025077
609.50312988,0.00032461
611.43193726,0.00060377
613.36074463,0.00055590
615.28955200,0.00023734
617.21835938,0.00018322
619.14716675,0.00019477
621.07597412,-0.00012354
623.00478149,0.00021898
624.93358887,0.00013440
626.86239624,-0.00003359
628.79120361,0.00033171
630.72001099,0.00030902
632.64881836,0.00084418
634.57762573,0.00125518
636.50643311,0.00127834
638.43524048,0.00160834
640.36404785,0.00152281
642.29285522,0.00144739
644.22166260,0.00170201
646.15046997,0.00167170
648.07927734,0.00215101
650.00808472,0.00250343
651.93689209,0.00214229
653.86569946,0.00239609
655.79450684,0.00285330
657.72331421,0.00294200
659.65212158,0.00280864
661.58092896,0.00263211
663.50973633,0.00309701
665.43854370,0.00336289
667.36735107,0.00291999
669.29615845,0.00324719
671.22496582,0.00373761
673.15377319,0.00366548
675.08258057,0.00393866
677.01138794,0.00404222
678.94019531,0.00440672
680.86900269,0.00458884
682.79781006,0.00393268
684.72661743,0.00396842
686.65542480,0.00427845
688.58423218,0.00443383
690.51303955,0.00450245
692.44184692,0.00461164
694.37065430,0.00497893
696.29946167,0.00564830
698.22826904,0.00686796
700.15707642,0.00714323
702.08588379,0.00686468
704.01469116,0.00667761
705.94349854,0.00591901
707.87230591,0.00514762
709.80111328,0.00417287
711.72992065,0.00304708
713.65872803,0.00162901
715.58753540,0.00069826
717.51634277,0.00083171
719.44515015,0.00038975
721.37395752,0.00006538
723.30276489,0.00042443
725.23157227,0.00033705
727.16037964,0.00019626
729.08918701,0.00021227
731.01799438,0.00013115
732.94680176,0.00007564
734.87560913,0.00007053
736.80441650,0.00013985
738.73322388,0.00022254
740.66203125,0.00027614
742.59083862,0.00020918
744.51964600,0.00007197
746.44845337,0.00008625
748.37726074,0.00054950
750.30606812,0.00048394
752.23487549,-0.00017228
754.16368286,0.00023938
756.09249023,0.00033530
758.02129761,0.00023453
759.95010498,0.00028005
761.87891235,0.00024955
763.80771973,0.00046852
765.73652710,0.00033378
767.66533447,0.00036289
769.59414185,0.00030206
771.52294922,0.00031126
773.45175659,0.00043694
775.38056396,0.00044352
777.30937134,0.00045703
779.23817871,0.00046669
781.16698608,0.00059447
783.09579346,0.00045727
785.02460083,0.00065108
786.95340820,0.00068925
788.88221558,0.00035827
790.81102295,0.00042835
792.73983032,0.00046658
794.66863770,0.00045279
796.59744507,0.00055717
798.52625244,0.00093855
800.45505981,0.00113370
802.38386719,0.00115837
804.31267456,0.00118460
806.24148193,0.00082996
808.17028931,0.00067087
810.09909668,0.00064547
812.02790405,0.00070739
813.95671143,0.00077973
815.88551880,0.00051158
817.81432617,0.00046258
819.74313354,0.00063986
821.67194092,0.00052202
823.60074829,0.00036670
825.52955566,0.00059633
827.45836304,0.00093213
829.38717041,0.00118998
831.31597778,0.00130246
833.24478516,0.00181690
835.17359253,0.00218752
837.10239990,0.00189567
839.03120728,0.00213046
840.96001465,0.00193313
842.88882202,0.00168455
844.81762939,0.00183496
846.74643677,0.00150272
848.67524414,0.00155151
850.60405151,0.00137309
852.53285889,0.00125461
854.46166626,0.00129342
856.39047363,0.00103941
858.31928101,0.00114081
860.24808838,0.00096410
862.17689575,0.00061933
864.10570313,0.00070356
866.03451050,0.00074735
867.96331787,0.00053980
869.89212524,0.00077100
871.82093262,0.00064581
873.74973999,0.00037578
875.67854736,0.00061036
877.60735474,0.00051488
879.53616211,0.00072612
881.46496948,0.00047084
883.39377686,0.00005542
885.32258423,0.00035806
887.25139160,0.00059095
889.18019897,0.00067470
891.10900635,0.00064530
893.03781372,0.00087439
894.96662109,0.00071200
896.89542847,0.00055912
898.82423584,0.00064874
900.75304321,0.00053185
902.68185059,0.00090532
904.61065796,0.00075934
906.53946533,0.00050223
908.46827271,0.00097955
910.39708008,0.00108269
912.32588745,0.00103234
914.25469482,0.00123717
916.18350220,0.00115047
918.11230957,0.00106187
920.04111694,0.00161567
921.96992432,0.00184997
923.89873169,0.00180175
925.82753906,0.00214251
927.75634644,0.00226344
929.68515381,0.00235480
931.61396118,0.00281835
933.54276855,0.00328350
935.47157593,0.00321093
937.40038330,0.00336699
939.32919067,0.00372560
941.25799805,0.00365007
943.18680542,0.00393957
945.11561279,0.00379427
947.04442017,0.00365169
948.97322754,0.00392441
950.90203491,0.00342323
952.83084229,0.00343462
954.75964966,0.00353519
956.68845703,0.00338571
958.61726440,0.00366054
960.54607178,0.00343615
962.47487915,0.00363106
964.40368652,0.00384366
966.33249390,0.00362837
968.26130127,0.00394063
970.19010864,0.00411675
972.11891602,0.00444193
974.04772339,0.00489222
975.97653076,0.00528426
977.90533813,0.00575200
979.83414551,0.00601476
981.76295288,0.00670008
983.69176025,0.00748561
985.62056763,0.00807675
987.54937500,0.00904354
989.47818237,0.01015499
991.40698975,0.01112149
993.33579712,0.01242662
995.26460449,0.01364984
997.19341187,0.01447523
999.12221924,0.01585770
1001.05102661,0.01710434
1002.97983398,0.01820558
1004.90864136,0.01968439
1006.83744873,0.02078910
1008.76625610,0.02201006
1010.69506348,0.02341327
1012.62387085,0.02460523
1014.55267822,0.02592188
1016.48148560,0.02741178
1018.41029297,0.02869006
1020.33910034,0.02999511
1022.26790771,0.03141305
1024.19671509,0.03264579
1026.12552246,0.03410371
1028.05432983,0.03509045
1029.98313721,0.03587237
1031.91194458,0.03691713
1033.84075195,0.03751805
1035.76955933,0.03825444
1037.69836670,0.03871184
1039.62717407,0.03881326
1041.55598145,0.03891366
1043.48478882,0.03859384
1045.41359619,0.03803449
1047.34240356,0.03731553
1049.27121094,0.03697726
1051.20001831,0.03650210
1053.12882568,0.03573258
1055.05763306,0.03525298
1056.98644043,0.03420879
1058.91524780,0.03321176
1060.84405518,0.03249129
1062.77286255,0.03143923
1064.70166992,0.03053137
1066.63047729,0.02927217
1068.55928467,0.02794299
1070.48809204,0.02698532
1072.41689941,0.02564120
1074.34570679,0.02434085
1076.27451416,0.02329310
1078.20332153,0.02202122
1080.13212891,0.02104215
1082.06093628,0.02030309
1083.98974365,0.01923866
1085.91855103,0.01840463
1087.84735840,0.01763801
1089.77616577,0.01657114
1091.70497314,0.01592086
1093.63378052,0.01543280
1095.56258789,0.01465738
1097.49139526,0.01411628
1099.42020264,0.01397590
1101.34901001,0.01348119
1103.27781738,0.01300440
1105.20662476,0.01295535
1107.13543213,0.01254909
1109.06423950,0.01236126
1110.99304687,0.01227372
1112.92185425,0.01208767
1114.85066162,0.01215118
1116.77946899,0.01202274
1118.70827637,0.01206782
1120.63708374,0.01205827
1122.56589111,0.01201447
1124.49469849,0.01227707
1126.42350586,0.01265241
1128.35231323,0.01283341
1130.28112061,0.01282523
1132.20992798,0.01327122
1134.13873535,0.01379043
1136.06754272,0.01438154
1137.99635010,0.01518168
1139.92515747,0.01595784
1141.85396484,0.01696483
1143.78277222,0.01825179
1145.71157959,0.01931060
1147.64038696,0.02020930
1149.56919434,0.02164733
1151.49800171,0.02272146
1153.42680908,0.02376639
1155.35561646,0.02511069
1157.28442383,0.02596273
1159.21323120,0.02686291
1161.14203857,0.02796238
1163.07084595,0.02919999
1164.99965332,0.03006349
1166.92846069,0.03115996
1168.85726807,0.03240177
1170.78607544,0.03345742
1172.71488281,0.03507514
1174.64369019,0.03608788
1176.57249756,0.03725289
1178.50130493,0.03883453
1180.43011230,0.04018762
1182.35891968,0.04204514
1184.28772705,0.04385531
1186.21653442,0.04563678
1188.14534180,0.04782462
1190.07414917,0.05024935
1192.00295654,0.05247726
1193.93176392,0.05496395
1195.86057129,0.05758743
1197.78937866,0.05998990
1199.71818604,0.06269469
1201.64699341,0.06536900
1203.57580078,0.06822010
1205.50460815,0.07078055
1207.43341553,0.07326619
1209.36222290,0.07592046
1211.29103027,0.07790765
1213.21983765,0.08003710
1215.14864502,0.08206897
1217.07745239,0.08379491
1219.00625977,0.08543555
1220.93506714,0.08673494
1222.86387451,0.08791371
1224.79268188,0.08857033
1226.72148926,0.08912615
1228.65029663,0.08978629
1230.57910400,0.09010316
1232.50791138,0.09030005
1234.43671875,0.09039353
1236.36552612,0.09052175
1238.29433350,0.09030668
1240.22314087,0.08993819
1242.15194824,0.08978732
1244.08075562,0.08921960
1246.00956299,0.08888757
1247.93837036,0.08840004
1249.86717773,0.08759604
1251.79598511,0.08707453
1253.72479248,0.08595142
1255.65359985,0.08501653
1257.58240723,0.08399080
1259.51121460,0.08247217
1261.44002197,0.08136098
1263.36882935,0.08026494
1265.29763672,0.07921965
1267.22644409,0.07816227
1269.15525146,0.07717636
1271.08405884,0.07601673
1273.01286621,0.07462828
1274.94167358,0.07330108
1276.87048096,0.07195072
1278.79928833,0.07058187
1280.72809570,0.06900694
1282.65690308,0.06770796
1284.58571045,0.06634074
1286.51451782,0.06516831
1288.44332520,0.06433304
1290.37213257,0.06331681
1292.30093994,0.06272736
1294.22974731,0.06216110
1296.15855469,0.06153063
1298.08736206,0.06143276
1300.01616943,0.06186409
1301.94497681,0.06202967
1303.87378418,0.06235196
1305.80259155,0.06307262
1307.73139893,0.06367643
1309.66020630,0.06493033
1311.58901367,0.06593324
1313.51782104,0.06702487
1315.44662842,0.06897239
1317.37543579,0.07057898
1319.30424316,0.07217373
1321.23305054,0.07464540
1323.16185791,0.07706374
1325.09066528,0.07898804
1327.01947266,0.08141010
1328.94828003,0.08334610
1330.87708740,0.08532485
1332.80589478,0.08742470
1334.73470215,0.08892360
1336.66350952,0.09000154
1338.59231689,0.08914386
1340.52112427,0.09045439
1342.44993164,0.09401865
1344.37873901,0.09465103
1346.30754639,0.09459112
1348.23635376,0.09419651
1350.16516113,0.09364027
1352.09396851,0.09362902
1354.02277588,0.09221351
1355.95158325,0.09134105
1357.88039062,0.09091279
1359.80919800,0.08962464
1361.73800537,0.08586279
1363.66681274,0.08435087
1365.59562012,0.08835576
1367.52442749,0.08661567
1369.45323486,0.08556703
1371.38204224,0.08707641
1373.31084961,0.08236238
1375.23965698,0.08300577
1377.16846436,0.08522990
1379.09727173,0.08440971
1381.02607910,0.08463719
1382.95488647,0.08462497
1384.88369385,0.08465607
1386.81250122,0.08086993
1388.74130859,0.08190648
1390.67011597,0.08840510
1392.59892334,0.08608043
1394.52773071,0.08092023
1396.45653809,0.08472790
1398.38534546,0.08476521
1400.31415283,0.08421328
1402.24296021,0.09069336
1404.17176758,0.08598118
1406.10057495,0.08622035
1408.02938232,0.08964823
1409.95818970,0.08624565
1411.88699707,0.08802614
1413.81580444,0.08502923
1415.74461182,0.08619677
1417.67341919,0.07841085
1419.60222656,0.07023506
1421.53103394,0.08012018
1423.45984131,0.07778987
1425.38864868,0.07538006
1427.31745605,0.07635171
1429.24626343,0.07084498
1431.17507080,0.06855464
1433.10387817,0.06956620
1435.03268555,0.06375656
1436.96149292,0.05383816
1438.89030029,0.06086146
1440.81910767,0.06242934
1442.74791504,0.05782818
1444.67672241,0.06033305
1446.60552979,0.05561829
1448.53433716,0.05642486
1450.46314453,0.05799764
1452.39195190,0.05948342
1454.32075928,0.06169642
1456.24956665,0.05130868
1458.17837402,0.05355089
1460.10718140,0.07066397
1462.03598877,0.07520223
1463.96479614,0.07464422
1465.89360352,0.07807760
1467.82241089,0.08854967
1469.75121826,0.09522559
1471.68002563,0.08535570
1473.60883301,0.08973770
1475.53764038,0.10231213
1477.46644775,0.10975179
1479.39525513,0.12050952
1481.32406250,0.12237716
1483.25286987,0.12992804
1485.18167725,0.13421252
1487.11048462,0.13229436
1489.03929199,0.13210039
1490.96809937,0.13278559
1492.89690674,0.15353031
1494.82571411,0.15030622
1496.75452148,0.13585445
1498.68332886,0.15317015
1500.61213623,0.15775925
1502.54094360,0.16866356
1504.46975098,0.15987700
1506.39855835,0.11802997
1508.32736572,0.14295983
1510.25617310,0.16685319
1512.18498047,0.16144460
1514.11378784,0.17453764
1516.04259521,0.15807354
1517.97140259,0.16449839
1519.90020996,0.15887403
1521.82901733,0.13838972
1523.75782471,0.16783953
1525.68663208,0.16469496
1527.61543945,0.16421612
1529.54424683,0.18071556
1531.47305420,0.17382188
1533.40186157,0.15970910
1535.33066895,0.16860098
1537.25947632,0.17985968
1539.18828369,0.13043529
1541.11709106,0.13587335
1543.04589844,0.16150886
1544.97470581,0.15495399
1546.90351318,0.18147847
1548.83232056,0.16963938
1550.76112793,0.17459169
1552.68993530,0.17315879
1554.61874268,0.15773037
1556.54755005,0.16810644
1558.47635742,0.12033185
1560.40516479,0.12855725
1562.33397217,0.18009266
1564.26277954,0.17029873
1566.19158691,0.17415772
1568.12039429,0.17245518
1570.04920166,0.15287517
1571.97800903,0.17495908
1573.90681641,0.17637101
1575.83562378,0.14024954
1577.76443115,0.15743764
1579.69323853,0.17621450
1581.62204590,0.16813374
1583.55085327,0.17188323
1585.47966064,0.16865444
1587.40846802,0.16892785
1589.33727539,0.16664313
1591.26608276,0.16565768
1593.19489014,0.16493110
1595.12369751,0.16194202
1597.05250488,0.16322711
1598.98131226,0.16104956
1600.91011963,0.16039133
1602.83892700,0.15640655
1604.76773437,0.15790929
1606.69654175,0.15450363
1608.62534912,0.15285584
1610.55415649,0.15147847
1612.48296387,0.15095833
1614.41177124,0.15178064
1616.34057861,0.12392666
1618.26938599,0.13274857
1620.19819336,0.15264732
1622.12700073,0.13477188
1624.05580811,0.13461624
1625.98461548,0.14018282
1627.91342285,0.13890851
1629.84223022,0.13747096
1631.77103760,0.14598240
1633.69984497,0.13486704
1635.62865234,0.11211486
1637.55745972,0.12972730
1639.48626709,0.14237663
1641.41507446,0.13958097
1643.34388184,0.14361340
1645.27268921,0.13054873
1647.20149658,0.11577566
1649.13030396,0.14392814
1651.05911133,0.13746481
1652.98791870,0.09006050
1654.91672607,0.12199620
1656.84553345,0.15326653
1658.77434082,0.14766161
1660.70314819,0.15297554
1662.63195557,0.14068615
1664.56076294,0.14893796
1666.48957031,0.16082567
1668.41837769,0.14224403
1670.34718506,0.13938299
1672.27599243,0.15863173
1674.20479980,0.14819656
1676.13360718,0.14314643
1678.06241455,0.16512573
1679.99122192,0.16071528
1681.92002930,0.16002360
1683.84883667,0.13231777
1685.77764404,0.13147148
1687.70645142,0.17958039
1689.63525879,0.15792090
1691.56406616,0.17362708
1693.49287354,0.17827366
1695.42168091,0.13200226
1697.35048828,0.16289794
1699.27929565,0.14518027
1701.20810303,0.13149635
1703.13691040,0.17832229
1705.06571777,0.16487715
1706.99452515,0.16694316
1708.92333252,0.18155849
1710.85213989,0.17537384
1712.78094727,0.17912319
1714.70975464,0.16735709
1716.63856201,0.15123478
1718.56736938,0.14914241
1720.49617676,0.17650883
1722.42498413,0.18333617
1724.35379150,0.17129755
1726.28259888,0.18619835
1728.21140625,0.17282717
1730.14021362,0.17456859
1732.06902100,0.17047255
1733.99782837,0.13167846
1735.92663574,0.16212906
1737.85544312,0.17939833
1739.78425049,0.16047564
1741.71305786,0.17459089
1743.64186523,0.17747465
1745.57067261,0.17779681
1747.49947998,0.17989729
1749.42828735,0.17241043
1751.35709473,0.16548331
1753.28590210,0.18265361
1755.21470947,0.19108295
1757.14351685,0.17528585
1759.07232422,0.19188175
1761.00113159,0.18115699
1762.92993896,0.17499869
1764.85874634,0.19929248
1766.78755371,0.18035340
1768.71636108,0.18223241
1770.64516846,0.18129462
1772.57397583,0.16349161
1774.50278320,0.18182343
1776.43159058,0.19175629
1778.36039795,0.18919848
1780.28920532,0.18715921
1782.21801270,0.18876757
1784.14682007,0.18856457
1786.07562744,0.18493551
1788.00443481,0.19409338
1789.93324219,0.18979603
1791.86204956,0.17245021
1793.79085693,0.17923567
1795.71966431,0.19219887
1797.64847168,0.18949559
1799.57727905,0.18679458
1801.50608643,0.18403119
1803.43489380,0.18952790
1805.36370117,0.19367716
1807.29250854,0.19112536
1809.22131592,0.19179131
1811.15012329,0.18689315
1813.07893066,0.19269340
1815.00773804,0.19348148
1816.93654541,0.19107023
1818.86535278,0.19281650
1820.79416016,0.19193205
1822.72296753,0.19491874
1824.65177490,0.18274975
1826.58058228,0.18880907
1828.50938965,0.18925428
1830.43819702,0.17793517
1832.36700439,0.19299643
1834.29581177,0.19176653
1836.22461914,0.19155309
1838.15342651,0.19085686
1840.08223389,0.19182837
1842.01104126,0.19224745
1843.93984863,0.17158943
1845.86865601,0.18217464
1847.79746338,0.19168293
1849.72627075,0.18774375
1851.65507812,0.19299778
1853.58388550,0.18929093
1855.51269287,0.19118041
1857.44150024,0.18993106
1859.37030762,0.18872765
1861.29911499,0.19008210
1863.22792236,0.18791783
1865.15672974,0.18983009
1867.08553711,0.18384665
1869.01434448,0.17652524
1870.94315186,0.18313198
1872.87195923,0.18962456
1874.80076660,0.18667901
1876.72957397,0.18763730
1878.65838135,0.18694131
1880.58718872,0.18596542
1882.51599609,0.18737185
1884.44480347,0.18434593
1886.37361084,0.18711689
1888.30241821,0.18309270
1890.23122559,0.17949465
1892.16003296,0.18593955
1894.08884033,0.18332914
1896.01764771,0.18259245
1897.94645508,0.18455711
1899.87526245,0.18340072
1901.80406982,0.18388411
1903.73287720,0.18281767
1905.66168457,0.18340954
1907.59049194,0.18161340
1909.51929932,0.18053281
1911.44810669,0.18159166
1913.37691406,0.18157113
1915.30572144,0.18296728
1917.23452881,0.17528738
1919.16333618,0.17547378
1921.09214355,0.18194133
1923.02095093,0.17637220
1924.94975830,0.17969579
1926.87856567,0.18138553
1928.80737305,0.17907055
1930.73618042,0.18110383
1932.66498779,0.17888123
1934.59379517,0.18036532
1936.52260254,0.17892495
1938.45140991,0.17949171
1940.38021729,0.17919618
1942.30902466,0.17381069
1944.23783203,0.17703725
1946.16663940,0.17850924
1948.09544678,0.17813189
1950.02425415,0.17856325
1951.95306152,0.17800337
1953.88186890,0.17810377
1955.81067627,0.17720187
1957.73948364,0.17776212
1959.66829102,0.17732109
1961.59709839,0.17696711
1963.52590576,0.17730007
1965.45471313,0.17631269
1967.38352051,0.17462127
1969.31232788,0.17574917
1971.24113525,0.17694755
1973.16994263,0.17568639
1975.09875000,0.17626137
1977.02755737,0.17540537
1978.95636475,0.17526308
1980.88517212,0.17505488
1982.81397949,0.17456162
1984.74278687,0.17499733
1986.67159424,0.17315039
1988.60040161,0.17363365
1990.52920898,0.17214631
1992.45801636,0.17024897
1994.38682373,0.17240170
1996.31563110,0.17259127
1998.24443848,0.17177451
2000.17324585,0.17167604
2002.10205322,0.17136919
2004.03086060,0.17089412
2005.95966797,0.17051531
2007.88847534,0.16979407
2009.81728271,0.16960093
2011.74609009,0.16929081
2013.67489746,0.16886505
2015.60370483,0.16803575
2017.53251221,0.16652936
2019.46131958,0.16742355
2021.39012695,0.16737938
2023.31893433,0.16663635
2025.24774170,0.16651151
2027.17654907,0.16575712
2029.10535645,0.16573942
2031.03416382,0.16507393
2032.96297119,0.16473566
2034.89177856,0.16431189
2036.82058594,0.16395429
2038.74939331,0.16367009
2040.67820068,0.16264693
2042.60700806,0.16246261
2044.53581543,0.16210836
2046.46462280,0.16180897
2048.39343018,0.16148990
2050.32223755,0.16109578
2052.25104492,0.16087812
2054.17985229,0.16035193
2056.10865967,0.16009475
2058.03746704,0.15979284
2059.96627441,0.15927956
2061.89508179,0.15893565
2063.82388916,0.15825918
2065.75269653,0.15754086
2067.68150391,0.15790710
2069.61031128,0.15757376
2071.53911865,0.15698633
2073.46792603,0.15684845
2075.39673340,0.15625337
2077.32554077,0.15614478
2079.25434814,0.15577386
2081.18315552,0.15560108
2083.11196289,0.15529111
2085.04077026,0.15483439
2086.96957764,0.15459439
2088.89838501,0.15396085
2090.82719238,0.15381441
2092.75599976,0.15351990
2094.68480713,0.15334645
2096.61361450,0.15310240
2098.54242187,0.15265104
2100.47122925,0.15236333
2102.40003662,0.15216708
2104.32884399,0.15191227
2106.25765137,0.15137035
2108.18645874,0.15133837
2110.11526611,0.15104482
2112.04407349,0.15080974
2113.97288086,0.15037712
2115.90168823,0.15007168
2117.83049561,0.15015519
2119.75930298,0.14963737
2121.68811035,0.14968824
2123.61691772,0.14938742
2125.54572510,0.14910069
2127.47453247,0.14889009
2129.40333984,0.14858371
2131.33214722,0.14861402
2133.26095459,0.14812782
2135.18976196,0.14807907
2137.11856934,0.14772843
2139.04737671,0.14738834
2140.97618408,0.14745739
2142.90499146,0.14731961
2144.83379883,0.14718650
2146.76260620,0.14688233
2148.69141357,0.14676861
2150.62022095,0.14658520
2152.54902832,0.14643931
2154.47783569,0.14624384
2156.40664307,0.14611645
2158.33545044,0.14593592
2160.26425781,0.14587842
2162.19306519,0.14574763
2164.12187256,0.14525896
2166.05067993,0.14531195
2167.97948730,0.14505976
2169.90829468,0.14497450
2171.83710205,0.14480722
2173.76590942,0.14450786
2175.69471680,0.14460388
2177.62352417,0.14428431
2179.55233154,0.14425448
2181.48113892,0.14407384
2183.40994629,0.14385313
2185.33875366,0.14368999
2187.26756104,0.14357194
2189.19636841,0.14343703
2191.12517578,0.14315167
2193.05398315,0.14318797
2194.98279053,0.14294292
2196.91159790,0.14290175
2198.84040527,0.14262956
2200.76921265,0.14241686
2202.69802002,0.14240012
2204.62682739,0.14215398
2206.55563477,0.14210764
2208.48444214,0.14186972
2210.41324951,0.14197107
2212.34205688,0.14175506
2214.27086426,0.14152457
2216.19967163,0.14139417
2218.12847900,0.14113195
2220.05728638,0.14115924
2221.98609375,0.14086214
2223.91490112,0.14079565
2225.84370850,0.14054868
2227.77251587,0.14035490
2229.70132324,0.14021023
2231.63013062,0.13992718
2233.55893799,0.13984248
2235.48774536,0.13962093
2237.41655273,0.13959372
2239.34536011,0.13930130
2241.27416748,0.13911426
2243.20297485,0.13889818
2245.13178223,0.13856493
2247.06058960,0.13841826
2248.98939697,0.13822509
2250.91820435,0.13806540
2252.84701172,0.13778922
2254.77581909,0.13772275
2256.70462646,0.13748127
2258.63343384,0.13734548
2260.56224121,0.13713169
2262.49104858,0.13693395
2264.41985596,0.13688724
2266.34866333,0.13657884
2268.27747070,0.13659088
2270.20627808,0.13635480
2272.13508545,0.13635334
2274.06389282,0.13614565
2275.99270020,0.13588294
2277.92150757,0.13603845
2279.85031494,0.13577713
2281.77912231,0.13565356
2283.70792969,0.13530093
2285.63673706,0.13518113
2287.56554443,0.13502531
2289.49435181,0.13468137
2291.42315918,0.13439804
2293.35196655,0.13397792
2295.28077393,0.13375095
2297.20958130,0.13315569
2299.13838867,0.13274392
2301.06719604,0.13234204
2302.99600342,0.13195091
2304.92481079,0.13119021
2306.85361816,0.13020904
2308.78242554,0.12949625
2310.71123291,0.12823033
2312.64004028,0.12710792
2314.56884766,0.12575915
2316.49765503,0.12439576
2318.42646240,0.12281721
2320.35526978,0.12101568
2322.28407715,0.11937951
2324.21288452,0.11777103
2326.14169189,0.11663786
2328.07049927,0.11494125
2329.99930664,0.11347257
2331.92811401,0.11256999
2333.85692139,0.11226209
2335.78572876,0.11178582
2337.71453613,0.11139721
2339.64334351,0.11166301
2341.57215088,0.11173540
2343.50095825,0.11366428
2345.42976562,0.11583079
2347.35857300,0.12065336
2349.28738037,0.12483452
2351.21618774,0.12020428
2353.14499512,0.11416497
2355.07380249,0.10995640
2357.00260986,0.10650061
2358.93141724,0.10458378
2360.86022461,0.10312250
2362.78903198,0.10302776
2364.71783936,0.10367487
2366.64664673,0.10505763
2368.57545410,0.10732107
2370.50426147,0.11015789
2372.43306885,0.11296448
2374.36187622,0.11629028
2376.29068359,0.11963332
2378.21949097,0.12202143
2380.14829834,0.12437065
2382.07710571,0.12565646
2384.00591309,0.12644607
2385.93472046,0.12689467
2387.86352783,0.12697226
2389.79233521,0.12699245
2391.72114258,0.12681168
2393.64994995,0.12679368
2395.57875732,0.12642048
2397.50756470,0.12645692
2399.43637207,0.12622869
2401.36517944,0.12600565
2403.29398682,0.12596269
2405.22279419,0.12560055
2407.15160156,0.12567076
2409.08040894,0.12542257
2411.00921631,0.12531741
2412.93802368,0.12507954
2414.86683105,0.12490546
2416.79563843,0.12489548
2418.72444580,0.12450537
2420.65325317,0.12446438
2422.58206055,0.12430198
2424.51086792,0.12412687
2426.43967529,0.12399481
2428.36848267,0.12386369
2430.29729004,0.12365919
2432.22609741,0.12342200
2434.15490479,0.12321408
2436.08371216,0.12303650
2438.01251953,0.12301154
2439.94132690,0.12275863
2441.87013428,0.12277137
2443.79894165,0.12250562
2445.72774902,0.12227447
2447.65655640,0.12236324
2449.58536377,0.12212892
2451.51417114,0.12191951
2453.44297852,0.12165517
2455.37178589,0.12160682
2457.30059326,0.12144327
2459.22940063,0.12134048
2461.15820801,0.12107714
2463.08701538,0.12076572
2465.01582275,0.12078110
2466.94463013,0.12046477
2468.87343750,0.12049201
2470.80224487,0.12033696
2472.73105225,0.12011260
2474.65985962,0.11999726
2476.58866699,0.11966371
2478.51747437,0.11967048
2480.44628174,0.11952677
2482.37508911,0.11934609
2484.30389648,0.11923438
2486.23270386,0.11905966
2488.16151123,0.11882708
2490.09031860,0.11882091
2492.01912598,0.11871195
2493.94793335,0.11841300
2495.87674072,0.11833385
2497.80554810,0.11803381
2499.73435547,0.11794933
2501.66316284,0.11778054
2503.59197021,0.11757476
2505.52077759,0.11748999
2507.44958496,0.11728711
2509.37839233,0.11717840
2511.30719971,0.11699957
2513.23600708,0.11696889
2515.16481445,0.11675882
2517.09362183,0.11665636
2519.02242920,0.11639616
2520.95123657,0.11619966
2522.88004395,0.11624633
2524.80885132,0.11587562
2526.73765869,0.11585774
2528.66646606,0.11559591
2530.59527344,0.11553908
2532.52408081,0.11557675
2534.45288818,0.11515373
2536.38169556,0.11513080
2538.31050293,0.11486000
2540.23931030,0.11471275
2542.16811768,0.11464831
2544.09692505,0.11442316
2546.02573242,0.11433123
2547.95453979,0.11420168
2549.88334717,0.11407489
2551.81215454,0.11389951
2553.74096191,0.11377648
2555.66976929,0.11351371
2557.59857666,0.11339688
2559.52738403,0.11326818
2561.45619141,0.11314119
2563.38499878,0.11305358
2565.31380615,0.11265051
2567.24261353,0.11250786
2569.17142090,0.11243708
2571.10022827,0.11225602
2573.02903564,0.11208843
2574.95784302,0.11192036
2576.88665039,0.11181866
2578.81545776,0.11167592
2580.74426514,0.11150038
2582.67307251,0.11142801
2584.60187988,0.11125733
2586.53068726,0.11092985
2588.45949463,0.11085642
2590.38830200,0.11067276
2592.31710937,0.11056688
2594.24591675,0.11049652
2596.17472412,0.11023736
2598.10353149,0.11009632
2600.03233887,0.10992390
2601.96114624,0.10989282
2603.88995361,0.10966355
2605.81876099,0.10948157
2607.74756836,0.10930781
2609.67637573,0.10906244
2611.60518311,0.10902886
2613.53399048,0.10879277
2615.46279785,0.10866873
2617.39160522,0.10847150
2619.32041260,0.10840918
2621.24921997,0.10830557
2623.17802734,0.10806915
2625.10683472,0.10794518
2627.03564209,0.10765764
2628.96444946,0.10767287
2630.89325684,0.10735576
2632.82206421,0.10715804
2634.75087158,0.10710800
2636.67967895,0.10673878
2638.60848633,0.10680333
2640.53729370,0.10672330
2642.46610107,0.10644720
2644.39490845,0.10615386
2646.32371582,0.10610801
2648.25252319,0.10601701
2650.18133057,0.10571385
2652.11013794,0.10559474
2654.03894531,0.10531661
2655.96775269,0.10521305
2657.89656006,0.10502017
2659.82536743,0.10482574
2661.75417480,0.10473280
2663.68298218,0.10463022
2665.61178955,0.10461313
2667.54059692,0.10432155
2669.46940430,0.10419950
2671.39821167,0.10399964
2673.32701904,0.10379589
2675.25582642,0.10365090
2677.18463379,0.10335266
2679.11344116,0.10334474
2681.04224854,0.10315664
2682.97105591,0.10295832
2684.89986328,0.10286212
2686.82867065,0.10252689
2688.75747803,0.10239998
2690.68628540,0.10234664
2692.61509277,0.10217570
2694.54390015,0.10204539
2696.47270752,0.10169251
2698.40151489,0.10148148
2700.33032227,0.10152796
2702.25912964,0.10130962
2704.18793701,0.10106194
2706.11674438,0.10082726
2708.04555176,0.10070080
2709.97435913,0.10054587
2711.90316650,0.10028921
2713.83197388,0.10023725
2715.76078125,0.10009426
2717.68958862,0.09990543
2719.61839600,0.09969091
2721.54720337,0.09953852
2723.47601074,0.09933408
2725.40481812,0.09915511
2727.33362549,0.09912802
2729.26243286,0.09884439
2731.19124023,0.09867941
2733.12004761,0.09846301
2735.04885498,0.09826292
2736.97766235,0.09820074
2738.90646973,0.09786747
2740.83527710,0.09770261
2742.76408447,0.09761851
2744.69289185,0.09735701
2746.62169922,0.09709033
2748.55050659,0.09701398
2750.47931396,0.09691238
2752.40812134,0.09663384
2754.33692871,0.09648272
2756.26573608,0.09630345
2758.19454346,0.09605531
2760.12335083,0.09589840
2762.05215820,0.09576848
2763.98096558,0.09558804
2765.90977295,0.09538286
2767.83858032,0.09514189
2769.76738770,0.09494198
2771.69619507,0.09475808
2773.62500244,0.09453627
2775.55380981,0.09435314
2777.48261719,0.09416430
2779.41142456,0.09403527
2781.34023193,0.09374675
2783.26903931,0.09345727
2785.19784668,0.09331571
2787.12665405,0.09312542
2789.05546143,0.09298667
2790.98426880,0.09279107
2792.91307617,0.09260769
2794.84188354,0.09231398
2796.77069092,0.09204719
2798.69949829,0.09197916
2800.62830566,0.09174821
2802.55711304,0.09142521
2804.48592041,0.09125692
2806.41472778,0.09113134
2808.34353516,0.09079686
2810.27234253,0.09058230
2812.20114990,0.09047533
2814.12995728,0.09027115
2816.05876465,0.09003443
2817.98757202,0.08976527
2819.91637939,0.08952170
2821.84518677,0.08926754
2823.77399414,0.08916804
2825.70280151,0.08887827
2827.63160889,0.08857955
2829.56041626,0.08847708
2831.48922363,0.08822957
2833.41803101,0.08796501
2835.34683838,0.08763076
2837.27564575,0.08741505
2839.20445312,0.08715616
2841.13326050,0.08682731
2843.06206787,0.08641956
2844.99087524,0.08598769
2846.91968262,0.08554573
2848.84848999,0.08483790
2850.77729736,0.08456148
2852.70610474,0.08447649
2854.63491211,0.08436650
2856.56371948,0.08412771
2858.49252686,0.08387759
2860.42133423,0.08385377
2862.35014160,0.08350569
2864.27894897,0.08344316
2866.20775635,0.08326277
2868.13656372,0.08297066
2870.06537109,0.08284765
2871.99417847,0.08254109
2873.92298584,0.08243957
2875.85179321,0.08210310
2877.78060059,0.08195976
2879.70940796,0.08191302
2881.63821533,0.08164953
2883.56702270,0.08142546
2885.49583008,0.08119027
2887.42463745,0.08109579
2889.35344482,0.08070947
2891.28225220,0.08045630
2893.21105957,0.08020288
2895.13986694,0.07981227
2897.06867432,0.07965015
2898.99748169,0.07938290
2900.92628906,0.07909149
2902.85509644,0.07867694
2904.78390381,0.07833640
2906.71271118,0.07800867
2908.64151855,0.07763010
2910.57032593,0.07726649
2912.49913330,0.07680871
2914.42794067,0.07637861
2916.35674805,0.07584092
2918.28555542,0.07553061
2920.21436279,0.07538758
2922.14317017,0.07511008
2924.07197754,0.07480577
2926.00078491,0.07454792
2927.92959229,0.07437557
2929.85839966,0.07424432
2931.78720703,0.07403883
2933.71601440,0.07389583
2935.64482178,0.07390787
2937.57362915,0.07364483
2939.50243652,0.07348314
2941.43124390,0.07336418
2943.36005127,0.07315426
2945.28885864,0.07298423
2947.21766602,0.07253293
2949.14647339,0.07240480
2951.07528076,0.07217966
2953.00408813,0.07179487
2954.93289551,0.07157099
2956.86170288,0.07116144
2958.79051025,0.07093407
2960.71931763,0.07047769
2962.64812500,0.07004006
2964.57693237,0.06993465
2966.50573975,0.06959370
2968.43454712,0.06939197
2970.36335449,0.06945135
2972.29216187,0.06926858
2974.22096924,0.06910379
2976.14977661,0.06900371
2978.07858398,0.06871610
2980.00739136,0.06859748
2981.93619873,0.06842847
2983.86500610,0.06829454
2985.79381348,0.06804539
2987.72262085,0.06766184
2989.65142822,0.06755324
2991.58023560,0.06716730
2993.50904297,0.06685497
2995.43785034,0.06658468
2997.36665771,0.06629521
2999.29546509,0.06612523
3001.22427246,0.06575882
3003.15307983,0.06548466
3005.08188721,0.06508769
3007.01069458,0.06480125
3008.93950195,0.06445002
3010.86830933,0.06399284
3012.79711670,0.06382968
3014.72592407,0.06344881
3016.65473145,0.06308708
3018.58353882,0.06286399
3020.51234619,0.06252307
3022.44115356,0.06213855
3024.36996094,0.06176808
3026.29876831,0.06140409
3028.22757568,0.06109979
3030.15638306,0.06067402
3032.08519043,0.06023990
3034.01399780,0.06005017
3035.94280518,0.05968243
3037.87161255,0.05941420
3039.80041992,0.05907398
3041.72922729,0.05860280
3043.65803467,0.05840749
3045.58684204,0.05804724
3047.51564941,0.05763848
3049.44445679,0.05723073
3051.37326416,0.05691316
3053.30207153,0.05667574
3055.23087891,0.05629554
3057.15968628,0.05591825
3059.08849365,0.05552029
3061.01730103,0.05519377
3062.94610840,0.05489418
3064.87491577,0.05441540
3066.80372314,0.05392068
3068.73253052,0.05375794
3070.66133789,0.05353348
3072.59014526,0.05314586
3074.51895264,0.05283965
3076.44776001,0.05243828
3078.37656738,0.05195152
3080.30537476,0.05158041
3082.23418213,0.05148219
3084.16298950,0.05105864
3086.09179687,0.05063976
3088.02060425,0.05038602
3089.94941162,0.04993244
3091.87821899,0.04968494
3093.80702637,0.04925337
3095.73583374,0.04886185
3097.66464111,0.04851268
3099.59344849,0.04812882
3101.52225586,0.04774492
3103.45106323,0.04725600
3105.37987061,0.04710087
3107.30867798,0.04670336
3109.23748535,0.04626816
3111.16629272,0.04600810
3113.09510010,0.04566568
3115.02390747,0.04515781
3116.95271484,0.04470092
3118.88152222,0.04458466
3120.81032959,0.04408211
3122.73913696,0.04375786
3124.66794434,0.04356728
3126.59675171,0.04310381
3128.52555908,0.04282870
3130.45436645,0.04252231
3132.38317383,0.04218249
3134.31198120,0.04174396
3136.24078857,0.04137754
3138.16959595,0.04106396
3140.09840332,0.04076064
3142.02721069,0.04031742
3143.95601807,0.03998456
3145.88482544,0.03986435
3147.81363281,0.03937846
3149.74244019,0.03903748
3151.67124756,0.03868086
3153.60005493,0.03841659
3155.52886230,0.03823078
3157.45766968,0.03780502
3159.38647705,0.03751104
3161.31528442,0.03716798
3163.24409180,0.03697426
3165.17289917,0.03659981
3167.10170654,0.03627364
3169.03051392,0.03612345
3170.95932129,0.03576010
3172.88812866,0.03548694
3174.81693604,0.03518713
3176.74574341,0.03495099
3178.67455078,0.03462559
3180.60335815,0.03444329
3182.53216553,0.03424552
3184.46097290,0.03389509
3186.38978027,0.03369053
3188.31858765,0.03335463
3190.24739502,0.03328199
3192.17620239,0.03311531
3194.10500977,0.03283335
3196.03381714,0.03270530
3197.96262451,0.03238213
3199.89143188,0.03218929
3201.82023926,0.03205792
3203.74904663,0.03178269
3205.67785400,0.03160299
3207.60666138,0.03152902
3209.53546875,0.03132446
3211.46427612,0.03119706
3213.39308350,0.03108064
3215.32189087,0.03093579
3217.25069824,0.03077688
3219.17950562,0.03052406
3221.10831299,0.03044624
3223.03712036,0.03027222
3224.96592773,0.03020862
3226.89473511,0.03021606
3228.82354248,0.03005481
3230.75234985,0.02988224
3232.68115723,0.02976114
3234.60996460,0.02972116
3236.53877197,0.02961729
3238.46757935,0.02965980
3240.39638672,0.02950415
3242.32519409,0.02935310
3244.25400146,0.02923477
3246.18280884,0.02912909
3248.11161621,0.02926307
3250.04042358,0.02910683
3251.96923096,0.02915327
3253.89803833,0.02906413
3255.82684570,0.02900135
3257.75565308,0.02903495
3259.68446045,0.02878569
3261.61326782,0.02889637
3263.54207520,0.02882676
3265.47088257,0.02880993
3267.39968994,0.02878936
3269.32849731,0.02875042
3271.25730469,0.02876186
3273.18611206,0.02858037
3275.11491943,0.02868799
3277.04372681,0.02855016
3278.97253418,0.02855286
3280.90134155,0.02865902
3282.83014893,0.02846274
3284.75895630,0.02837029
3286.68776367,0.02840096
3288.61657104,0.02840590
3290.54537842,0.02827295
3292.47418579,0.02838060
3294.40299316,0.02833308
3296.33180054,0.02821522
3298.26060791,0.02822724
3300.18941528,0.02819797
3302.11822266,0.02811564
3304.04703003,0.02803355
3305.97583740,0.02813857
3307.90464478,0.02790363
3309.83345215,0.02792756
3311.76225952,0.02805574
3313.69106689,0.02793424
3315.61987427,0.02796008
3317.54868164,0.02788142
3319.47748901,0.02798881
3321.40629639,0.02790596
3323.33510376,0.02775492
3325.26391113,0.02775905
3327.19271851,0.02773665
3329.12152588,0.02775507
3331.05033325,0.02773416
3332.97914062,0.02769152
3334.90794800,0.02763421
3336.83675537,0.02766378
3338.76556274,0.02744294
3340.69437012,0.02751446
3342.62317749,0.02762818
3344.55198486,0.02752662
3346.48079224,0.02768994
3348.40959961,0.02748228
3350.33840698,0.02739522
3352.26721436,0.02746865
3354.19602173,0.02747536
3356.12482910,0.02750323
3358.05363647,0.02744420
3359.98244385,0.02740780
3361.91125122,0.02730288
3363.84005859,0.02739996
3365.76886597,0.02741473
3367.69767334,0.02734371
3369.62648071,0.02735299
3371.55528809,0.02737309
3373.48409546,0.02736304
3375.41290283,0.02746199
3377.34171020,0.02756944
3379.27051758,0.02749283
3381.19932495,0.02758329
3383.12813232,0.02744846
3385.05693970,0.02742397
3386.98574707,0.02752415
3388.91455444,0.02761549
3390.84336182,0.02769272
3392.77216919,0.02754901
3394.70097656,0.02772285
3396.62978394,0.02768873
3398.55859131,0.02768352
3400.48739868,0.02766749
3402.41620605,0.02764412
3404.34501343,0.02778335
3406.27382080,0.02784995
3408.20262817,0.02812004
3410.13143555,0.02803345
3412.06024292,0.02819199
3413.98905029,0.02826451
3415.91785767,0.02830822
3417.84666504,0.02844920
3419.77547241,0.02819325
3421.70427979,0.02843814
3423.63308716,0.02858001
3425.56189453,0.02871566
3427.49070190,0.02870874
3429.41950928,0.02871824
3431.34831665,0.02882959
3433.27712402,0.02881472
3435.20593140,0.02906162
3437.13473877,0.02889349
3439.06354614,0.02918224
3440.99235352,0.02925216
3442.92116089,0.02917729
3444.84996826,0.02939783
3446.77877563,0.02911911
3448.70758301,0.02939409
3450.63639038,0.02968681
3452.56519775,0.02977105
3454.49400513,0.02978281
3456.42281250,0.02986860
3458.35161987,0.03003896
3460.28042725,0.03010699
3462.20923462,0.03019813
3464.13804199,0.03020307
3466.06684937,0.03045414
3467.99565674,0.03033785
3469.92446411,0.03049752
3471.85327148,0.03073049
3473.78207886,0.03071928
3475.71088623,0.03088864
3477.63969360,0.03097786
3479.56850098,0.03113902
3481.49730835,0.03078322
3483.42611572,0.03106335
3485.35492310,0.03149742
3487.28373047,0.03142278
3489.21253784,0.03150474
3491.14134521,0.03157827
3493.07015259,0.03193272
3494.99895996,0.03188207
3496.92776733,0.03191622
3498.85657471,0.03211593
3500.78538208,0.03222116
3502.71418945,0.03185030
3504.64299683,0.03196321
3506.57180420,0.03278764
3508.50061157,0.03239194
3510.42941895,0.03248740
3512.35822632,0.03281044
3514.28703369,0.03308580
3516.21584106,0.03331377
3518.14464844,0.03304448
3520.07345581,0.03352088
3522.00226318,0.03325495
3523.93107056,0.03300738
3525.85987793,0.03329048
3527.78868530,0.03331762
3529.71749268,0.03361152
3531.64630005,0.03404888
3533.57510742,0.03436921
3535.50391479,0.03411051
3537.43272217,0.03413311
3539.36152954,0.03459141
3541.29033691,0.03476468
3543.21914429,0.03465043
3545.14795166,0.03408237
3547.07675903,0.03368986
3549.00556641,0.03487723
3550.93437378,0.03513175
3552.86318115,0.03436754
3554.79198853,0.03533963
3556.72079590,0.03547553
3558.64960327,0.03550544
3560.57841064,0.03547438
3562.50721802,0.03535473
3564.43602539,0.03577876
3566.36483276,0.03360014
3568.29364014,0.03307624
3570.22244751,0.03564698
3572.15125488,0.03655966
3574.08006226,0.03620090
3576.00886963,0.03640996
3577.93767700,0.03654478
3579.86648437,0.03661884
3581.79529175,0.03673302
3583.72409912,0.03688769
3585.65290649,0.03632270
3587.58171387,0.03360386
3589.51052124,0.03464417
3591.43932861,0.03756256
3593.36813599,0.03669652
3595.29694336,0.03629811
3597.22575073,0.03689784
3599.15455811,0.03731040
3601.08336548,0.03706730
3603.01217285,0.03757419
3604.94098022,0.03829902
3606.86978760,0.03710865
3608.79859497,0.03521369
3610.72740234,0.03599823
3612.65620972,0.03698118
3614.58501709,0.03593343
3616.51382446,0.03850074
3618.44263184,0.03596201
3620.37143921,0.03478812
3622.30024658,0.03909547
3624.22905395,0.03818280
3626.15786133,0.04004385
3628.08666870,0.03441036
3630.01547607,0.03158786
3631.94428345,0.03919018
3633.87309082,0.03839566
3635.80189819,0.03917860
3637.73070557,0.03985310
3639.65951294,0.03938915
3641.58832031,0.03995515
3643.51712769,0.03958746
3645.44593506,0.04003909
3647.37474243,0.03631546
3649.30354980,0.03370322
3651.23235718,0.03418567
3653.16116455,0.04025570
3655.08997192,0.03999137
3657.01877930,0.03618409
3658.94758667,0.04134337
3660.87639404,0.04068118
3662.80520142,0.04135072
3664.73400879,0.04135592
3666.66281616,0.04099799
3668.59162354,0.04009315
3670.52043091,0.03326160
3672.44923828,0.03970194
3674.37804565,0.03821755
3676.30685303,0.03199030
3678.23566040,0.03977581
3680.16446777,0.04087150
3682.09327515,0.04089226
3684.02208252,0.04225390
3685.95088989,0.04159055
3687.87969727,0.03772886
3689.80850464,0.03488856
3691.73731201,0.03958555
3693.66611938,0.04069215
3695.59492676,0.04167565
3697.52373413,0.04178860
3699.45254150,0.04124794
3701.38134888,0.04049820
3703.31015625,0.03897331
3705.23896362,0.04259380
3707.16777100,0.04079023
3709.09657837,0.03977077
3711.02538574,0.03773620
3712.95419312,0.03542835
3714.88300049,0.04120181
3716.81180786,0.04065153
3718.74061523,0.04086125
3720.66942261,0.04012799
3722.59822998,0.03879046
3724.52703735,0.04013347
3726.45584473,0.03731321
3728.38465210,0.04039773
3730.31345947,0.03998934
3732.24226685,0.03697946
3734.17107422,0.03625086
3736.09988159,0.03440940
3738.02868896,0.03618131
3739.95749634,0.03904755
3741.88630371,0.04103797
3743.81511108,0.03221169
3745.74391846,0.03034066
3747.67272583,0.03894826
3749.60153320,0.03381895
3751.53034058,0.03127850
3753.45914795,0.03558572
3755.38795532,0.03829112
3757.31676270,0.03966289
3759.24557007,0.03684002
3761.17437744,0.03806531
3763.10318481,0.04025745
3765.03199219,0.03785782
3766.96079956,0.03844384
3768.88960693,0.03806065
3770.81841431,0.03639001
3772.74722168,0.03916623
3774.67602905,0.03935757
3776.60483643,0.03926417
3778.53364380,0.03828168
3780.46245117,0.03684352
3782.39125854,0.03920484
3784.32006592,0.03835221
3786.24887329,0.03810811
3788.17768066,0.03890455
3790.10648804,0.03859855
3792.03529541,0.03844690
3793.96410278,0.03890546
3795.89291016,0.03670233
3797.82171753,0.03637153
3799.75052490,0.03813144
3801.67933228,0.03057645
3803.60813965,0.03539649
3805.53694702,0.03846178
3807.46575439,0.03173124
3809.39456177,0.03793786
3811.32336914,0.03722353
3813.25217651,0.03840283
3815.18098389,0.03498728
3817.10979126,0.03074112
3819.03859863,0.03834712
3820.96740601,0.03155025
3822.89621338,0.03304169
3824.82502075,0.03818801
3826.75382812,0.03464502
3828.68263550,0.03721049
3830.61144287,0.03583127
3832.54025024,0.03468063
3834.46905762,0.03536355
3836.39786499,0.03371713
3838.32667236,0.03064944
3840.25547974,0.03291181
3842.18428711,0.03540694
3844.11309448,0.03388809
3846.04190186,0.03648233
3847.97070923,0.03590022
3849.89951660,0.03599869
3851.82832397,0.03268769
3853.75713135,0.02476583
3855.68593872,0.02900066
3857.61474609,0.03607670
3859.54355347,0.03511607
3861.47236084,0.03475265
3863.40116821,0.03408621
3865.32997559,0.03164452
3867.25878296,0.03513012
3869.18759033,0.03235574
3871.11639770,0.02997132
3873.04520508,0.03528317
3874.97401245,0.03260947
3876.90281982,0.03490943
3878.83162720,0.03555121
3880.76043457,0.03078685
3882.68924194,0.03510960
3884.61804932,0.03296222
3886.54685669,0.03036930
3888.47566406,0.03498085
3890.40447144,0.03326893
3892.33327881,0.03145810
3894.26208618,0.03416017
3896.19089355,0.03482184
3898.11970093,0.03324949
3900.04850830,0.03147609
3901.97731567,0.03116471
3903.90612305,0.03082203
3905.83493042,0.03129889
3907.76373779,0.03399545
3909.69254517,0.03391963
3911.62135254,0.03359028
3913.55015991,0.03414222
3915.47896728,0.03315169
3917.40777466,0.03231090
3919.33658203,0.03209086
3921.26538940,0.03312179
3923.19419678,0.03288293
3925.12300415,0.03239651
3927.05181152,0.03291498
3928.98061890,0.03309139
3930.90942627,0.03254766
3932.83823364,0.03154667
3934.76704102,0.03274778
3936.69584839,0.03312383
3938.62465576,0.03266881
3940.55346313,0.03288855
3942.48227051,0.03188539
3944.41107788,0.03203204
3946.33988525,0.03256467
3948.26869263,0.03181840
3950.19750000,0.03166254
3952.12630737,0.03226471
3954.05511475,0.03234426
3955.98392212,0.03215025
3957.91272949,0.03198931
3959.84153687,0.03201977
3961.77034424,0.03179795
3963.69915161,0.03164241
3965.62795898,0.03199877
3967.55676636,0.03169109
3969.48557373,0.03174498
3971.41438110,0.03163707
3973.34318848,0.03147694
3975.27199585,0.03148385
3977.20080322,0.03117289
3979.12961060,0.03152125
3981.05841797,0.03130932
3982.98722534,0.03121117
3984.91603271,0.03114383
3986.84484009,0.03108020
3988.77364746,0.03107107
3990.70245483,0.03078318
3992.63126221,0.03102113
3994.56006958,0.03075035
3996.48887695,0.03077668
3998.41768433,0.03068725
4000.34649170,0.03055258
4002.27529907,0.03054461
4004.20410645,0.03039484
4006.13291382,0.03065586
4008.06172119,0.03033414
4009.99052856,0.03036508
4011.91933594,0.03020667
4013.84814331,0.03015272
4015.77695068,0.03021381
4017.70575806,0.02992034
4019.63456543,0.03003993
4021.56337280,0.02984467
4023.49218018,0.02990956
4025.42098755,0.02966804
4027.34979492,0.02968663
4029.27860229,0.02973512
4031.20740967,0.02949082
4033.13621704,0.02961061
4035.06502441,0.02937566
4036.99383179,0.02952182
4038.92263916,0.02934700
4040.85144653,0.02932331
4042.78025391,0.02923920
4044.70906128,0.02896363
4046.63786865,0.02914870
4048.56667603,0.02896338
4050.49548340,0.02896754
4052.42429077,0.02880501
4054.35309814,0.02889481
4056.28190552,0.02882006
4058.21071289,0.02862110
4060.13952026,0.02867723
4062.06832764,0.02854643
4063.99713501,0.02871520
4065.92594238,0.02840564
4067.85474976,0.02833526
4069.78355713,0.02831923
4071.71236450,0.02824929
4073.64117187,0.02828700
4075.56997925,0.02813188
4077.49878662,0.02824495
4079.42759399,0.02800982
4081.35640137,0.02797620
4083.28520874,0.02790241
4085.21401611,0.02785456
4087.14282349,0.02780034
4089.07163086,0.02765181
4091.00043823,0.02771178
4092.92924561,0.02752474
4094.85805298,0.02759812
4096.78686035,0.02738738
4098.71566772,0.02736212
4100.64447510,0.02738468
4102.57328247,0.02727916
4104.50208984,0.02731322
4106.43089722,0.02697700
4108.35970459,0.02706002
4110.28851196,0.02701855
4112.21731934,0.02697885
4114.14612671,0.02691890
4116.07493408,0.02684763
4118.00374145,0.02685838
4119.93254883,0.02658514
4121.86135620,0.02670680
4123.79016357,0.02660345
4125.71897095,0.02652897
4127.64777832,0.02651244
4129.57658569,0.02643667
4131.50539307,0.02644794
4133.43420044,0.02630546
4135.36300781,0.02624572
4137.29181519,0.02608631
4139.22062256,0.02615637
4141.14942993,0.02603263
4143.07823730,0.02593126
4145.00704468,0.02602753
4146.93585205,0.02596931
4148.86465942,0.02587600
4150.79346680,0.02571116
4152.72227417,0.02577606
4154.65108154,0.02566529
4156.57988892,0.02562475
4158.50869629,0.02550711
4160.43750366,0.02540629
4162.36631103,0.02549226
4164.29511841,0.02534610
4166.22392578,0.02538789
4168.15273315,0.02523602
4170.08154053,0.02514404
4172.01034790,0.02516131
4173.93915527,0.02510726
4175.86796265,0.02506830
4177.79677002,0.02497773
4179.72557739,0.02493096
4181.65438477,0.02478947
4183.58319214,0.02482014
4185.51199951,0.02467917
4187.44080688,0.02465382
4189.36961426,0.02469470
4191.29842163,0.02452673
4193.22722900,0.02450483
4195.15603638,0.02444478
4197.08484375,0.02440217
4199.01365112,0.02424675
4200.94245850,0.02427342
4202.87126587,0.02422016
4204.80007324,0.02410929
4206.72888062,0.02414249
4208.65768799,0.02401232
4210.58649536,0.02399003
4212.51530273,0.02392282
4214.44411011,0.02389112
4216.37291748,0.02379576
4218.30172485,0.02382332
4220.23053223,0.02383369
4222.15933960,0.02371383
4224.08814697,0.02364201
4226.01695435,0.02344834
4227.94576172,0.02347148
4229.87456909,0.02338542
4231.80337646,0.02345650
4233.73218384,0.02343465
4235.66099121,0.02326153
4237.58979858,0.02327431
4239.51860596,0.02315305
4241.44741333,0.02318351
4243.37622070,0.02303653
4245.30502808,0.02309238
4247.23383545,0.02300979
4249.16264282,0.02281717
4251.09145020,0.02290358
4253.02025757,0.02270259
4254.94906494,0.02279678
4256.87787231,0.02280755
4258.80667969,0.02266802
4260.73548706,0.02260047
4262.66429443,0.02258018
4264.59310181,0.02256674
4266.52190918,0.02243026
4268.45071655,0.02242202
4270.37952393,0.02229112
4272.30833130,0.02227699
4274.23713867,0.02217252
4276.16594604,0.02213613
4278.09475342,0.02217417
4280.02356079,0.02209627
4281.95236816,0.02211384
4283.88117554,0.02194969
4285.80998291,0.02194014
4287.73879028,0.02183529
4289.66759766,0.02180356
4291.59640503,0.02181803
4293.52521240,0.02169915
4295.45401978,0.02166686
4297.38282715,0.02155524
4299.31163452,0.02159471
4301.24044189,0.02149712
4303.16924927,0.02149895
4305.09805664,0.02142064
4307.02686401,0.02132451
4308.95567139,0.02134961
4310.88447876,0.02117791
4312.81328613,0.02126307
4314.74209351,0.02115650
4316.67090088,0.02108988
4318.59970825,0.02110863
4320.52851562,0.02102117
4322.45732300,0.02096094
4324.38613037,0.02082120
4326.31493774,0.02088546
4328.24374512,0.02087046
4330.17255249,0.02083266
4332.10135986,0.02068700
4334.03016724,0.02063340
4335.95897461,0.02066319
4337.88778198,0.02057259
4339.81658936,0.02059470
4341.74539673,0.02044443
4343.67420410,0.02041269
4345.60301147,0.02038248
4347.53181885,0.02031337
4349.46062622,0.02031469
4351.38943359,0.02029787
4353.31824097,0.02024218
4355.24704834,0.02006102
4357.17585571,0.02006181
4359.10466309,0.01998669
4361.03347046,0.01994250
4362.96227783,0.01998151
4364.89108520,0.01991181
4366.81989258,0.01987209
4368.74869995,0.01982206
4370.67750732,0.01972383
4372.60631470,0.01971550
4374.53512207,0.01977929
4376.46392944,0.01957969
4378.39273682,0.01953952
4380.32154419,0.01954045
4382.25035156,0.01950134
4384.17915894,0.01949314
4386.10796631,0.01932873
4388.03677368,0.01939511
4389.96558105,0.01935095
4391.89438843,0.01932258
4393.82319580,0.01927852
4395.75200317,0.01918031
4397.68081055,0.01915052
4399.60961792,0.01905702
4401.53842529,0.01912107
4403.46723267,0.01900518
4405.39604004,0.01898838
4407.32484741,0.01896778
4409.25365478,0.01884637
4411.18246216,0.01876574
4413.11126953,0.01865128
4415.04007690,0.01870972
4416.96888428,0.01865161
4418.89769165,0.01867542
4420.82649902,0.01864528
4422.75530640,0.01847764
4424.68411377,0.01835080
4426.61292114,0.01841697
4428.54172852,0.01843525
4430.47053589,0.01827339
4432.39934326,0.01838326
4434.32815063,0.01821340
4436.25695801,0.01823672
4438.18576538,0.01826726
4440.11457275,0.01799797
4442.04338013,0.01807817
4443.97218750,0.01803454
4445.90099487,0.01800812
4447.82980225,0.01795923
4449.75860962,0.01791351
4451.68741699,0.01783522
4453.61622437,0.01778619
4455.54503174,0.01777471
4457.47383911,0.01762883
4459.40264648,0.01775149
4461.33145386,0.01763820
4463.26026123,0.01756127
4465.18906860,0.01758881
4467.11787598,0.01749039
4469.04668335,0.01746383
4470.97549072,0.01741425
4472.90429810,0.01743273
4474.83310547,0.01731386
4476.76191284,0.01737950
4478.69072021,0.01731072
4480.61952759,0.01716190
4482.54833496,0.01721852
4484.47714233,0.01714272
4486.40594971,0.01711326
4488.33475708,0.01702104
4490.26356445,0.01703677
4492.19237183,0.01696037
4494.12117920,0.01688152
4496.04998657,0.01686560
4497.97879395,0.01674863
4499.90760132,0.01676428
4501.83640869,0.01672450
4503.76521606,0.01672292
4505.69402344,0.01665369
4507.62283081,0.01666737
4509.55163818,0.01661899
4511.48044556,0.01650991
4513.40925293,0.01652982
4515.33806030,0.01641189
4517.26686768,0.01643636
4519.19567505,0.01634320
4521.12448242,0.01630172
4523.05328979,0.01634263
4524.98209717,0.01627219
4526.91090454,0.01625815
4528.83971191,0.01610390
4530.76851929,0.01605930
4532.69732666,0.01605516
4534.62613403,0.01601347
4536.55494141,0.01600309
4538.48374878,0.01602975
4540.41255615,0.01598522
4542.34136353,0.01591865
4544.27017090,0.01589711
4546.19897827,0.01567133
4548.12778564,0.01566406
4550.05659302,0.01576701
4551.98540039,0.01567514
4553.91420776,0.01564498
4555.84301514,0.01567334
4557.77182251,0.01556393
4559.70062988,0.01551937
4561.62943726,0.01557651
4563.55824463,0.01542618
4565.48705200,0.01542178
4567.41585937,0.01538954
4569.34466675,0.01527864
4571.27347412,0.01528746
4573.20228149,0.01527885
4575.13108887,0.01526079
4577.05989624,0.01516301
4578.98870361,0.01517562
4580.91751099,0.01509409
4582.84631836,0.01503053
4584.77512573,0.01499652
4586.70393311,0.01492500
4588.63274048,0.01496915
4590.56154785,0.01490904
4592.49035522,0.01490098
4594.41916260,0.01479090
4596.34796997,0.01474296
4598.27677734,0.01474065
4600.20558472,0.01470261
4602.13439209,0.01473147
4604.06319946,0.01464114
4605.99200684,0.01465184
4607.92081421,0.01454097
4609.84962158,0.01452696
4611.77842895,0.01453531
4613.70723633,0.01437483
4615.63604370,0.01437853
4617.56485107,0.01439437
4619.49365845,0.01441283
4621.42246582,0.01434229
4623.35127319,0.01428583
4625.28008057,0.01417425
4627.20888794,0.01418264
4629.13769531,0.01422532
4631.06650269,0.01404654
4632.99531006,0.01407485
4634.92411743,0.01405805
4636.85292480,0.01404848
4638.78173218,0.01400036
4640.71053955,0.01391382
4642.63934692,0.01396297
4644.56815430,0.01383434
4646.49696167,0.01379457
4648.42576904,0.01386014
4650.35457642,0.01385922
4652.28338379,0.01379767
4654.21219116,0.01370039
4656.14099853,0.01365989
4658.06980591,0.01368380
4659.99861328,0.01364072
4661.92742065,0.01355114
4663.85622803,0.01351751
4665.78503540,0.01347658
4667.71384277,0.01347022
4669.64265015,0.01338528
4671.57145752,0.01345183
4673.50026489,0.01346005
4675.42907227,0.01329258
4677.35787964,0.01328495
4679.28668701,0.01320021
4681.21549438,0.01321502
4683.14430176,0.01319987
4685.07310913,0.01315856
4687.00191650,0.01311114
4688.93072388,0.01303819
4690.85953125,0.01314727
4692.78833862,0.01303289
4694.71714600,0.01301261
4696.64595337,0.01304283
4698.57476074,0.01290590
4700.50356812,0.01291939
4702.43237549,0.01289727
4704.36118286,0.01281359
4706.28999023,0.01278445
4708.21879761,0.01280043
4710.14760498,0.01275298
4712.07641235,0.01269019
4714.00521973,0.01265246
4715.93402710,0.01262520
4717.86283447,0.01256467
4719.79164185,0.01258314
4721.72044922,0.01263575
4723.64925659,0.01250520
4725.57806396,0.01248143
4727.50687134,0.01243660
4729.43567871,0.01240603
4731.36448608,0.01245650
4733.29329346,0.01238229
4735.22210083,0.01230915
4737.15090820,0.01226689
4739.07971558,0.01227971
4741.00852295,0.01222789
4742.93733032,0.01224185
4744.86613770,0.01220581
4746.79494507,0.01212248
4748.72375244,0.01213884
4750.65255981,0.01204130
4752.58136719,0.01201293
4754.51017456,0.01199603
4756.43898193,0.01197309
4758.36778931,0.01192961
4760.29659668,0.01199440
4762.22540405,0.01207660
4764.15421143,0.01190403
4766.08301880,0.01187972
4768.01182617,0.01187114
4769.94063354,0.01176592
4771.86944092,0.01172092
4773.79824829,0.01175167
4775.72705566,0.01171932
4777.65586304,0.01164465
4779.58467041,0.01167457
4781.51347778,0.01163210
4783.44228516,0.01163615
4785.37109253,0.01156178
4787.29989990,0.01148339
4789.22870728,0.01150101
4791.15751465,0.01150363
4793.08632202,0.01149418
4795.01512939,0.01138689
4796.94393677,0.01135389
4798.87274414,0.01129908
4800.80155151,0.01133325
4802.73035889,0.01130045
4804.65916626,0.01119812
4806.58797363,0.01128040
4808.51678101,0.01118230
4810.44558838,0.01112511
4812.37439575,0.01117014
4814.30320312,0.01112866
4816.23201050,0.01107615
4818.16081787,0.01108076
4820.08962524,0.01106179
4822.01843262,0.01103666
4823.94723999,0.01103048
4825.87604736,0.01089390
4827.80485474,0.01090996
4829.73366211,0.01087342
4831.66246948,0.01082210
4833.59127686,0.01084508
4835.52008423,0.01078358
4837.44889160,0.01082878
4839.37769897,0.01074042
4841.30650635,0.01072757
4843.23531372,0.01068058
4845.16412109,0.01061582
4847.09292847,0.01070267
4849.02173584,0.01059678
4850.95054321,0.01063864
4852.87935059,0.01062997
4854.80815796,0.01047951
4856.73696533,0.01049680
4858.66577270,0.01048887
4860.59458008,0.01040948
4862.52338745,0.01036617
4864.45219482,0.01039906
4866.38100220,0.01031406
4868.30980957,0.01026177
4870.23861694,0.01031486
4872.16742432,0.01026508
4874.09623169,0.01028434
4876.02503906,0.01028596
4877.95384644,0.01021684
4879.88265381,0.01023788
4881.81146118,0.01015362
4883.74026855,0.01009091
4885.66907593,0.01012590
4887.59788330,0.01005226
4889.52669067,0.01003817
4891.45549805,0.01001707
4893.38430542,0.00998433
4895.31311279,0.00999708
4897.24192017,0.00993377
4899.17072754,0.00986777
4901.09953491,0.00988578
4903.02834228,0.00994316
4904.95714966,0.00984346
4906.88595703,0.00975959
4908.81476440,0.00975164
4910.74357178,0.00971370
4912.67237915,0.00970799
4914.60118652,0.00972652
4916.52999390,0.00970775
4918.45880127,0.00959323
4920.38760864,0.00962851
4922.31641602,0.00960755
4924.24522339,0.00953662
4926.17403076,0.00955522
4928.10283813,0.00945980
4930.03164551,0.00950582
4931.96045288,0.00952415
4933.88926025,0.00946528
4935.81806763,0.00945539
4937.74687500,0.00940129
4939.67568237,0.00939097
4941.60448975,0.00938322
4943.53329712,0.00930241
4945.46210449,0.00930791
4947.39091187,0.00938533
4949.31971924,0.00921943
4951.24852661,0.00919171
4953.17733398,0.00923063
4955.10614136,0.00912699
4957.03494873,0.00912381
4958.96375610,0.00904438
4960.89256348,0.00910780
4962.82137085,0.00913536
4964.75017822,0.00900786
4966.67898560,0.00897029
4968.60779297,0.00896706
4970.53660034,0.00893744
4972.46540771,0.00891739
4974.39421509,0.00893248
4976.32302246,0.00886739
4978.25182983,0.00890465
4980.18063721,0.00880454
4982.10944458,0.00878951
4984.03825195,0.00885656
4985.96705933,0.00867712
4987.89586670,0.00874007
4989.82467407,0.00869701
4991.75348145,0.00864492
4993.68228882,0.00865886
4995.61109619,0.00863001
4997.53990356,0.00868452
4999.46871094,0.00858274
5001.39751831,0.00860025
5003.32632568,0.00857091
5005.25513306,0.00855425
5007.18394043,0.00855980
5009.11274780,0.00849895
5011.04155518,0.00846995
5012.97036255,0.00841222
5014.89916992,0.00841885
5016.82797729,0.00831349
5018.75678467,0.00840078
5020.68559204,0.00838596
5022.61439941,0.00826606
5024.54320679,0.00834241
5026.47201416,0.00825955
5028.40082153,0.00821597
5030.32962891,0.00815127
5032.25843628,0.00825781
5034.18724365,0.00825506
5036.11605103,0.00805756
5038.04485840,0.00812676
5039.97366577,0.00810950
5041.90247314,0.00808300
5043.83128052,0.00807342
5045.76008789,0.00808559
5047.68889526,0.00810845
5049.61770264,0.00802589
5051.54651001,0.00799090
5053.47531738,0.00799785
5055.40412476,0.00792103
5057.33293213,0.00787077
5059.26173950,0.00795243
5061.19054687,0.00782492
5063.11935425,0.00782367
5065.04816162,0.00791732
5066.97696899,0.00779828
5068.90577637,0.00777797
5070.83458374,0.00774250
5072.76339111,0.00777417
5074.69219849,0.00777066
5076.62100586,0.00771803
5078.54981323,0.00770439
5080.47862061,0.00762891
5082.40742798,0.00768348
5084.33623535,0.00769202
5086.26504272,0.00761919
5088.19385010,0.00760565
5090.12265747,0.00755889
5092.05146484,0.00752056
5093.98027222,0.00751162
5095.90907959,0.00743730
5097.83788696,0.00747289
5099.76669434,0.00747793
5101.69550171,0.00733631
5103.62430908,0.00739081
5105.55311645,0.00744574
5107.48192383,0.00741413
5109.41073120,0.00735005
5111.33953857,0.00735668
5113.26834595,0.00735955
5115.19715332,0.00724726
5117.12596069,0.00730880
5119.05476807,0.00725744
5120.98357544,0.00720335
5122.91238281,0.00728016
5124.84119019,0.00722753
5126.76999756,0.00713557
5128.69880493,0.00712262
5130.62761230,0.00719750
5132.55641968,0.00716361
5134.48522705,0.00715226
5136.41403442,0.00709495
5138.34284180,0.00704462
5140.27164917,0.00708298
5142.20045654,0.00699072
5144.12926392,0.00698305
5146.05807129,0.00699831
5147.98687866,0.00700596
5149.91568603,0.00700181
5151.84449341,0.00698556
5153.77330078,0.00693003
5155.70210815,0.00681514
5157.63091553,0.00687251
5159.55972290,0.00688798
5161.48853027,0.00685608
5163.41733765,0.00680458
5165.34614502,0.00677954
5167.27495239,0.00687127
5169.20375977,0.00680353
5171.13256714,0.00673174
5173.06137451,0.00680302
5174.99018188,0.00680989
5176.91898926,0.00671196
5178.84779663,0.00664597
5180.77660400,0.00662516
5182.70541138,0.00661534
5184.63421875,0.00658050
5186.56302612,0.00658948
5188.49183350,0.00661662
5190.42064087,0.00650538
5192.34944824,0.00649280
5194.27825562,0.00655766
5196.20706299,0.00652566
5198.13587036,0.00646901
5200.06467773,0.00649808
5201.99348511,0.00654334
5203.92229248,0.00648938
5205.85109985,0.00640041
5207.77990723,0.00623740
5209.70871460,0.00627905
5211.63752197,0.00640574
5213.56632935,0.00637880
5215.49513672,0.00640655
5217.42394409,0.00638221
5219.35275146,0.00632425
5221.28155884,0.00631751
5223.21036621,0.00632598
5225.13917358,0.00617709
5227.06798096,0.00613749
5228.99678833,0.00627072
5230.92559570,0.00621964
5232.85440308,0.00625288
5234.78321045,0.00623055
5236.71201782,0.00616079
5238.64082520,0.00616005
5240.56963257,0.00614509
5242.49843994,0.00614825
5244.42724731,0.00604840
5246.35605469,0.00611698
5248.28486206,0.00600083
5250.21366943,0.00591759
5252.14247681,0.00619931
5254.07128418,0.00600137
5256.00009155,0.00588508
5257.92889893,0.00608109
5259.85770630,0.00601489
5261.78651367,0.00598687
5263.71532104,0.00585711
5265.64412842,0.00581873
5267.57293579,0.00600868
5269.50174316,0.00596094
5271.43055054,0.00588995
5273.35935791,0.00587361
5275.28816528,0.00584441
5277.21697266,0.00586334
5279.14578003,0.00582852
5281.07458740,0.00582146
5283.00339478,0.00579745
5284.93220215,0.00578232
5286.86100952,0.00584281
5288.78981689,0.00577824
5290.71862427,0.00564612
5292.64743164,0.00570483
5294.57623901,0.00580147
5296.50504639,0.00574559
5298.43385376,0.00568723
5300.36266113,0.00566168
5302.29146851,0.00568116
5304.22027588,0.00571253
5306.14908325,0.00568068
5308.07789062,0.00561947
5310.00669800,0.00561730
5311.93550537,0.00563666
5313.86431274,0.00557377
5315.79312012,0.00558668
5317.72192749,0.00555327
5319.65073486,0.00549533
5321.57954224,0.00554390
5323.50834961,0.00550302
5325.43715698,0.00547334
5327.36596436,0.00543687
5329.29477173,0.00540674
5331.22357910,0.00543396
5333.15238647,0.00538331
5335.08119385,0.00539167
5337.01000122,0.00537257
5338.93880859,0.00518366
5340.86761597,0.00528161
5342.79642334,0.00536210
5344.72523071,0.00509362
5346.65403809,0.00518624
5348.58284546,0.00525192
5350.51165283,0.00524272
5352.44046020,0.00528187
5354.36926758,0.00502913
5356.29807495,0.00517692
5358.22688232,0.00526239
5360.15568970,0.00515364
5362.08449707,0.00518914
5364.01330444,0.00510368
5365.94211182,0.00517132
5367.87091919,0.00515293
5369.79972656,0.00519276
5371.72853394,0.00522473
5373.65734131,0.00510127
5375.58614868,0.00504476
5377.51495605,0.00494093
5379.44376343,0.00503910
5381.37257080,0.00511171
5383.30137817,0.00505064
5385.23018555,0.00498048
5387.15899292,0.00492463
5389.08780029,0.00494399
5391.01660767,0.00496659
5392.94541504,0.00496141
5394.87422241,0.00482198
5396.80302978,0.00488205
5398.73183716,0.00493182
5400.66064453,0.00489192
5402.58945190,0.00497246
5404.51825928,0.00483560
5406.44706665,0.00485949
5408.37587402,0.00488684
5410.30468140,0.00473443
5412.23348877,0.00474491
5414.16229614,0.00460928
5416.09110352,0.00463241
5418.01991089,0.00481877
5419.94871826,0.00473176
5421.87752563,0.00475166
5423.80633301,0.00475365
5425.73514038,0.00473629
5427.66394775,0.00478238
5429.59275513,0.00458652
5431.52156250,0.00467263
5433.45036987,0.00470683
5435.37917725,0.00444160
5437.30798462,0.00460388
5439.23679199,0.00470593
5441.16559936,0.00454677
5443.09440674,0.00455053
5445.02321411,0.00455065
5446.95202148,0.00452210
5448.88082886,0.00458661
5450.80963623,0.00449025
5452.73844360,0.00445679
5454.66725098,0.00463273
5456.59605835,0.00452250
5458.52486572,0.00448523
5460.45367310,0.00448631
5462.38248047,0.00436214
5464.31128784,0.00442521
5466.24009521,0.00443707
5468.16890259,0.00449110
5470.09770996,0.00447982
5472.02651733,0.00445353
5473.95532471,0.00443718
5475.88413208,0.00425200
5477.81293945,0.00432558
5479.74174683,0.00441072
5481.67055420,0.00431315
5483.59936157,0.00434733
5485.52816895,0.00440335
5487.45697632,0.00431883
5489.38578369,0.00429106
5491.31459106,0.00432330
5493.24339844,0.00420030
5495.17220581,0.00422226
5497.10101318,0.00429287
5499.02982056,0.00422408
5500.95862793,0.00424815
5502.88743530,0.00425409
5504.81624268,0.00427530
5506.74505005,0.00425289
5508.67385742,0.00413497
5510.60266479,0.00417248
5512.53147217,0.00421007
5514.46027954,0.00420149
5516.38908691,0.00419046
5518.31789429,0.00408424
5520.24670166,0.00408674
5522.17550903,0.00411971
5524.10431641,0.00407153
5526.03312378,0.00407627
5527.96193115,0.00408647
5529.89073853,0.00409675
5531.81954590,0.00409519
5533.74835327,0.00402507
5535.67716064,0.00402061
5537.60596802,0.00410747
5539.53477539,0.00405479
5541.46358276,0.00404257
5543.39239014,0.00405378
5545.32119751,0.00392230
5547.25000488,0.00398861
5549.17881226,0.00403043
5551.10761963,0.00396259
5553.03642700,0.00397326
5554.96523437,0.00393998
5556.89404175,0.00391496
5558.82284912,0.00393665
5560.75165649,0.00394996
5562.68046387,0.00387529
5564.60927124,0.00391604
5566.53807861,0.00388608
5568.46688599,0.00381656
5570.39569336,0.00394761
5572.32450073,0.00385952
5574.25330811,0.00383379
5576.18211548,0.00386864
5578.11092285,0.00379382
5580.03973022,0.00383544
5581.96853760,0.00380557
5583.89734497,0.00379363
5585.82615234,0.00377524
5587.75495972,0.00374473
5589.68376709,0.00376333
5591.61257446,0.00372831
5593.54138184,0.00372635
5595.47018921,0.00378890
5597.39899658,0.00376747
5599.32780395,0.00370290
5601.25661133,0.00374131
5603.18541870,0.00367230
5605.11422607,0.00365951
5607.04303345,0.00372967
5608.97184082,0.00369571
5610.90064819,0.00368803
5612.82945557,0.00361472
5614.75826294,0.00363755
5616.68707031,0.00368065
5618.61587769,0.00362303
5620.54468506,0.00360856
5622.47349243,0.00357569
5624.40229980,0.00356609
5626.33110718,0.00353300
5628.25991455,0.00355220
5630.18872192,0.00358205
5632.11752930,0.00351365
5634.04633667,0.00347895
5635.97514404,0.00348804
5637.90395142,0.00351644
5639.83275879,0.00348667
5641.76156616,0.00348713
5643.69037353,0.00354124
5645.61918091,0.00349229
5647.54798828,0.00344768
5649.47679565,0.00346016
5651.40560303,0.00346413
5653.33441040,0.00343445
5655.26321777,0.00338012
5657.19202515,0.00339354
5659.12083252,0.00338475
5661.04963989,0.00335308
5662.97844727,0.00338836
5664.90725464,0.00334693
5666.83606201,0.00333302
5668.76486938,0.00335965
5670.69367676,0.00331427
5672.62248413,0.00330269
5674.55129150,0.00329944
5676.48009888,0.00331488
5678.40890625,0.00332428
5680.33771362,0.00332003
5682.26652100,0.00334253
5684.19532837,0.00333193
5686.12413574,0.00332305
5688.05294311,0.00331340
5689.98175049,0.00325203
5691.91055786,0.00323853
5693.83936523,0.00327566
5695.76817261,0.00319860
5697.69697998,0.00315951
5699.62578735,0.00322764
5701.55459473,0.00321182
5703.48340210,0.00311668
5705.41220947,0.00309510
5707.34101685,0.00318425
5709.26982422,0.00319530
5711.19863159,0.00313512
5713.12743896,0.00309188
5715.05624634,0.00313656
5716.98505371,0.00308436
5718.91386108,0.00298106
5720.84266846,0.00312243
5722.77147583,0.00306101
5724.70028320,0.00298697
5726.62909058,0.00307201
5728.55789795,0.00301164
5730.48670532,0.00305144
5732.41551270,0.00306460
5734.34432007,0.00305574
5736.27312744,0.00302315
5738.20193481,0.00294754
5740.13074219,0.00299453
5742.05954956,0.00299353
5743.98835693,0.00297287
5745.91716431,0.00299243
5747.84597168,0.00299652
5749.77477905,0.00296679
5751.70358643,0.00299230
5753.63239380,0.00294410
5755.56120117,0.00287169
5757.49000854,0.00294943
5759.41881592,0.00290645
5761.34762329,0.00291106
5763.27643066,0.00293546
5765.20523804,0.00287434
5767.13404541,0.00292405
5769.06285278,0.00285067
5770.99166016,0.00274993
5772.92046753,0.00280290
5774.84927490,0.00281252
5776.77808228,0.00280684
5778.70688965,0.00286587
5780.63569702,0.00281217
5782.56450439,0.00277631
5784.49331177,0.00285177
5786.42211914,0.00279460
5788.35092651,0.00275682
5790.27973389,0.00278943
5792.20854126,0.00275466
5794.13734863,0.00272227
5796.06615601,0.00273474
5797.99496338,0.00272139
5799.92377075,0.00270130
5801.85257812,0.00273865
5803.78138550,0.00268694
5805.71019287,0.00268605
5807.63900024,0.00275859
5809.56780762,0.00266111
5811.49661499,0.00259535
5813.42542236,0.00263850
5815.35422974,0.00263633
5817.28303711,0.00262740
5819.21184448,0.00266068
5821.14065186,0.00266392
5823.06945923,0.00262957
5824.99826660,0.00260470
5826.92707397,0.00257530
5828.85588135,0.00262413
5830.78468872,0.00268441
5832.71349609,0.00263012
5834.64230347,0.00257428
5836.57111084,0.00252239
5838.49991821,0.00251008
5840.42872559,0.00256577
5842.35753296,0.00255677
5844.28634033,0.00255345
5846.21514770,0.00259412
5848.14395508,0.00260000
5850.07276245,0.00251624
5852.00156982,0.00245356
5853.93037720,0.00247508
5855.85918457,0.00245306
5857.78799194,0.00250635
5859.71679932,0.00250437
5861.64560669,0.00243602
5863.57441406,0.00244647
5865.50322144,0.00239297
5867.43202881,0.00242944
5869.36083618,0.00242443
5871.28964355,0.00237759
5873.21845093,0.00243040
5875.14725830,0.00239178
5877.07606567,0.00241535
5879.00487305,0.00243013
5880.93368042,0.00236622
5882.86248779,0.00238379
5884.79129517,0.00239795
5886.72010254,0.00237775
5888.64890991,0.00237107
5890.57771728,0.00235703
5892.50652466,0.00231813
5894.43533203,0.00230382
5896.36413940,0.00230194
5898.29294678,0.00232255
5900.22175415,0.00231161
5902.15056152,0.00227282
5904.07936890,0.00230122
5906.00817627,0.00229892
5907.93698364,0.00228751
5909.86579102,0.00228022
5911.79459839,0.00223909
5913.72340576,0.00226086
5915.65221313,0.00230036
5917.58102051,0.00225398
5919.50982788,0.00224036
5921.43863525,0.00224737
5923.36744263,0.00219304
5925.29625000,0.00223053
5927.22505737,0.00221737
5929.15386475,0.00215564
5931.08267212,0.00221355
5933.01147949,0.00223351
5934.94028686,0.00221782
5936.86909424,0.00215505
5938.79790161,0.00213342
5940.72670898,0.00219824
5942.65551636,0.00216623
5944.58432373,0.00217286
5946.51313110,0.00217090
5948.44193848,0.00210456
5950.37074585,0.00219198
5952.29955322,0.00220579
5954.22836060,0.00211681
5956.15716797,0.00214352
5958.08597534,0.00214144
5960.01478271,0.00213635
5961.94359009,0.00210973
5963.87239746,0.00204848
5965.80120483,0.00208202
5967.73001221,0.00212442
5969.65881958,0.00215307
5971.58762695,0.00214336
5973.51643433,0.00210518
5975.44524170,0.00206777
5977.37404907,0.00205261
5979.30285645,0.00207055
5981.23166382,0.00202293
5983.16047119,0.00203045
5985.08927856,0.00208589
5987.01808594,0.00204724
5988.94689331,0.00200556
5990.87570068,0.00199354
5992.80450806,0.00198488
5994.73331543,0.00198796
5996.66212280,0.00202197
5998.59093018,0.00207691
6000.51973755,0.00202260
