399.26312622,0.00080361
401.19193359,0.00197904
403.12074097,0.00181788
405.04954834,0.00159644
406.97835571,0.00184760
408.90716309,0.00188495
410.83597046,0.00232291
412.76477783,0.00218991
414.69358521,0.00177887
416.62239258,0.00159882
418.55119995,0.00194838
420.48000732,0.00216572
422.40881470,0.00199928
424.33762207,0.00205847
426.26642944,0.00184386
428.19523682,0.00175869
430.12404419,0.00167986
432.05285156,0.00194573
433.98165894,0.00223202
435.91046631,0.00220510
437.83927368,0.00218485
439.76808105,0.00178863
441.69688843,0.00179182
443.62569580,0.00194818
445.55450317,0.00178576
447.48331055,0.00148517
449.41211792,0.00169346
451.34092529,0.00181691
453.26973267,0.00163065
455.19854004,0.00157956
457.12734741,0.00071642
459.05615479,0.00079021
460.98496216,0.00139731
462.91376953,0.00131137
464.84257690,0.00134626
466.77138428,0.00117098
468.70019165,0.00108852
470.62899902,0.00104457
472.55780640,0.00105953
474.48661377,0.00114003
476.41542114,0.00100655
478.34422852,0.00037726
480.27303589,0.00053701
482.20184326,0.00076791
484.13065063,0.00019483
486.05945801,0.00051076
487.98826538,0.00047917
489.91707275,0.00066276
491.84588013,0.00044042
493.77468750,0.00030366
495.70349487,0.00101977
497.63230225,0.00044875
499.56110962,0.00040754
501.48991699,0.00042373
503.41872437,0.00031528
505.34753174,0.00002026
507.27633911,-0.00001720
509.20514648,0.00036632
511.13395386,-0.00020823
513.06276123,0.00010670
514.99156860,0.00010630
516.92037598,0.00057167
518.84918335,0.00074100
520.77799072,-0.00019899
522.70679810,0.00052549
524.63560547,0.00045997
526.56441284,0.00003468
528.49322021,0.00038542
530.42202759,0.00030720
532.35083496,0.00029512
534.27964233,0.00033965
536.20844971,0.00025979
538.13725708,-0.00017317
540.06606445,0.00034525
541.99487183,0.00064996
543.92367920,0.00016343
545.85248657,0.00030118
547.78129395,0.00024208
549.71010132,0.00024565
551.63890869,0.00057141
553.56771606,0.00028034
555.49652344,0.00012763
557.42533081,0.00016727
559.35413818,-0.00027367
561.28294556,0.00013971
563.21175293,0.00048828
565.14056030,0.00026628
567.06936768,0.00021391
568.99817505,0.00027952
570.92698242,0.00037172
572.85578979,-0.00013328
574.78459717,0.00018941
576.71340454,0.00036501
578.64221191,0.00010083
580.57101929,0.00032813
582.49982666,0.00020629
584.42863403,0.00028513
586.35744141,0.00007277
588.28624878,0.00008598
590.21505615,0.00013679
592.14386353,-0.00010388
594.07267090,0.00023890
596.00147827,0.00012715
597.93028564,0.00017639
599.85909302,0.00006135
601.78790039,-0.00000116
603.71670776,0.00015238
605.64551514,-0.00012883
607.57432251,0.00030506
609.50312988,0.00036338
611.43193726,0.00026415
613.36074463,0.00003089
615.28955200,-0.00010178
617.21835938,0.00003536
619.14716675,0.00007294
621.07597412,-0.00002895
623.00478149,-0.00003756
624.93358887,0.00012063
626.86239624,0.00015050
628.79120361,-0.00007217
630.72001099,0.00029788
632.64881836,0.00122075
634.57762573,0.00121813
636.50643311,0.00154978
638.43524048,0.00167314
640.36404785,0.00146779
642.29285522,0.00190295
644.22166260,0.00198876
646.15046997,0.00233195
648.07927734,0.00217273
650.00808472,0.00240670
651.93689209,0.00296519
653.86569946,0.00270413
655.79450684,0.00311743
657.72331421,0.00328684
659.65212158,0.00326426
661.58092896,0.00337791
663.50973633,0.00354193
665.43854370,0.00357004
667.36735107,0.00335735
669.29615845,0.00370423
671.22496582,0.00409799
673.15377319,0.00448633
675.08258057,0.00423002
677.01138794,0.00429324
678.94019531,0.00484778
680.86900269,0.00455587
682.79781006,0.00456919
684.72661743,0.00473082
686.65542480,0.00474147
688.58423218,0.00472375
690.51303955,0.00479947
692.44184692,0.00499721
694.37065430,0.00541676
696.29946167,0.00626887
698.22826904,0.00708057
700.15707642,0.00797929
702.08588379,0.00776714
704.01469116,0.00680965
705.94349854,0.00629698
707.87230591,0.00536786
709.80111328,0.00435483
711.72992065,0.00324847
713.65872803,0.00179653
715.58753540,0.00111223
717.51634277,0.00102906
719.44515015,0.00055690
721.37395752,0.00039293
723.30276489,0.00048289
725.23157227,0.00031031
727.16037964,0.00018574
729.08918701,0.00012341
731.01799438,0.00017233
732.94680176,0.00013890
734.87560913,0.00030146
736.80441650,-0.00000911
738.73322388,-0.00021410
740.66203125,0.00011926
742.59083862,-0.00007959
744.51964600,0.00014142
746.44845337,0.00014012
748.37726074,0.00007815
750.30606812,0.00023921
752.23487549,0.00018552
754.16368286,0.00042127
756.09249023,0.00027281
758.02129761,0.00035505
759.95010498,0.00024711
761.87891235,0.00020399
763.80771973,0.00060454
765.73652710,0.00045740
767.66533447,0.00036722
769.59414185,0.00025991
771.52294922,0.00025175
773.45175659,0.00059206
775.38056396,0.00071377
777.30937134,0.00044436
779.23817871,0.00036985
781.16698608,0.00049297
783.09579346,0.00030505
785.02460083,0.00046075
786.95340820,0.00078130
788.88221558,0.00070457
790.81102295,0.00059304
792.73983032,0.00077597
794.66863770,0.00077635
796.59744507,0.00071755
798.52625244,0.00122458
800.45505981,0.00126301
802.38386719,0.00106921
804.31267456,0.00118074
806.24148193,0.00083587
808.17028931,0.00052254
810.09909668,0.00042507
812.02790405,0.00054625
813.95671143,0.00071164
815.88551880,0.00046386
817.81432617,0.00050854
819.74313354,0.00050632
821.67194092,0.00048489
823.60074829,0.00077621
825.52955566,0.00070121
827.45836304,0.00090428
829.38717041,0.00101592
831.31597778,0.00143705
833.24478516,0.00200080
835.17359253,0.00163149
837.10239990,0.00208869
839.03120728,0.00219121
840.96001465,0.00187403
842.88882202,0.00193116
844.81762939,0.00168563
846.74643677,0.00190333
848.67524414,0.00129024
850.60405151,0.00114990
852.53285889,0.00158038
854.46166626,0.00117111
856.39047363,0.00112551
858.31928101,0.00096987
860.24808838,0.00088758
862.17689575,0.00069091
864.10570313,0.00060312
866.03451050,0.00073749
867.96331787,0.00062256
869.89212524,0.00063049
871.82093262,0.00067306
873.74973999,0.00060644
875.67854736,0.00030407
877.60735474,0.00069970
879.53616211,0.00040936
881.46496948,0.00005414
883.39377686,0.00059162
885.32258423,0.00028482
887.25139160,0.00053534
889.18019897,0.00042780
891.10900635,0.00006688
893.03781372,0.00046134
894.96662109,0.00056197
896.89542847,0.00061979
898.82423584,0.00037827
900.75304321,0.00049308
902.68185059,0.00047782
904.61065796,0.00056367
906.53946533,0.00086861
908.46827271,0.00068826
910.39708008,0.00067133
912.32588745,0.00061125
914.25469482,0.00114453
916.18350220,0.00134652
918.11230957,0.00107783
920.04111694,0.00146724
921.96992432,0.00162474
923.89873169,0.00147725
925.82753906,0.00167118
927.75634644,0.00221489
929.68515381,0.00227218
931.61396118,0.00229287
933.54276855,0.00248445
935.47157593,0.00281878
937.40038330,0.00330334
939.32919067,0.00307366
941.25799805,0.00309671
943.18680542,0.00340530
945.11561279,0.00344849
947.04442017,0.00349259
948.97322754,0.00334103
950.90203491,0.00312471
952.83084229,0.00309409
954.75964966,0.00315768
956.68845703,0.00305588
958.61726440,0.00309037
960.54607178,0.00309666
962.47487915,0.00308171
964.40368652,0.00321663
966.33249390,0.00334841
968.26130127,0.00348848
970.19010864,0.00357943
972.11891602,0.00388541
974.04772339,0.00417537
975.97653076,0.00446471
977.90533813,0.00468497
979.83414551,0.00498837
981.76295288,0.00565579
983.69176025,0.00627409
985.62056763,0.00698022
987.54937500,0.00771046
989.47818237,0.00856111
991.40698975,0.00946471
993.33579712,0.01044828
995.26460449,0.01137338
997.19341187,0.01217232
999.12221924,0.01326527
1001.05102661,0.01424229
1002.97983398,0.01540175
1004.90864136,0.01646883
1006.83744873,0.01747055
1008.76625610,0.01852788
1010.69506348,0.01932820
1012.62387085,0.02058114
1014.55267822,0.02159023
1016.48148560,0.02246143
1018.41029297,0.02363559
1020.33910034,0.02480676
1022.26790771,0.02592147
1024.19671509,0.02682606
1026.12552246,0.02791237
1028.05432983,0.02884105
1029.98313721,0.02966134
1031.91194458,0.03041448
1033.84075195,0.03094466
1035.76955933,0.03157680
1037.69836670,0.03198942
1039.62717407,0.03211008
1041.55598145,0.03214956
1043.48478882,0.03188243
1045.41359619,0.03137293
1047.34240356,0.03103371
1049.27121094,0.03050769
1051.20001831,0.03008327
1053.12882568,0.02967889
1055.05763306,0.02911025
1056.98644043,0.02865602
1058.91524780,0.02761446
1060.84405518,0.02676508
1062.77286255,0.02600883
1064.70166992,0.02513880
1066.63047729,0.02447182
1068.55928467,0.02328940
1070.48809204,0.02207191
1072.41689941,0.02091358
1074.34570679,0.02021651
1076.27451416,0.01950737
1078.20332153,0.01839641
1080.13212891,0.01758932
1082.06093628,0.01673749
1083.98974365,0.01615552
1085.91855103,0.01536719
1087.84735840,0.01441923
1089.77616577,0.01383911
1091.70497314,0.01311134
1093.63378052,0.01267584
1095.56258789,0.01240501
1097.49139526,0.01172341
1099.42020264,0.01138437
1101.34901001,0.01140665
1103.27781738,0.01104287
1105.20662476,0.01076710
1107.13543213,0.01053019
1109.06423950,0.01037112
1110.99304687,0.01023543
1112.92185425,0.01000365
1114.85066162,0.01001142
1116.77946899,0.00990343
1118.70827637,0.01011959
1120.63708374,0.01016035
1122.56589111,0.01016920
1124.49469849,0.01040058
1126.42350586,0.01035173
1128.35231323,0.01059162
1130.28112061,0.01067370
1132.20992798,0.01102511
1134.13873535,0.01131800
1136.06754272,0.01157092
1137.99635010,0.01250850
1139.92515747,0.01330380
1141.85396484,0.01410512
1143.78277222,0.01493593
1145.71157959,0.01602891
1147.64038696,0.01713099
1149.56919434,0.01807592
1151.49800171,0.01893216
1153.42680908,0.01968062
1155.35561646,0.02067151
1157.28442383,0.02136260
1159.21323120,0.02216655
1161.14203857,0.02305087
1163.07084595,0.02392174
1164.99965332,0.02480587
1166.92846069,0.02585201
1168.85726807,0.02692407
1170.78607544,0.02770875
1172.71488281,0.02914524
1174.64369019,0.02996849
1176.57249756,0.03088403
1178.50130493,0.03237582
1180.43011230,0.03328345
1182.35891968,0.03487113
1184.28772705,0.03647700
1186.21653442,0.03808607
1188.14534180,0.03997549
1190.07414917,0.04156891
1192.00295654,0.04336641
1193.93176392,0.04564890
1195.86057129,0.04786776
1197.78937866,0.04989810
1199.71818604,0.05227836
1201.64699341,0.05427940
1203.57580078,0.05666664
1205.50460815,0.05902607
1207.43341553,0.06089278
1209.36222290,0.06323953
1211.29103027,0.06494340
1213.21983765,0.06675282
1215.14864502,0.06859262
1217.07745239,0.06993593
1219.00625977,0.07133684
1220.93506714,0.07240355
1222.86387451,0.07332044
1224.79268188,0.07389870
1226.72148926,0.07460265
1228.65029663,0.07515103
1230.57910400,0.07505714
1232.50791138,0.07519646
1234.43671875,0.07548317
1236.36552612,0.07540482
1238.29433350,0.07527900
1240.22314087,0.07513298
1242.15194824,0.07461160
1244.08075562,0.07442394
1246.00956299,0.07408519
1247.93837036,0.07351595
1249.86717773,0.07335799
1251.79598511,0.07259455
1253.72479248,0.07168874
1255.65359985,0.07101537
1257.58240723,0.06994820
1259.51121460,0.06873357
1261.44002197,0.06769289
1263.36882935,0.06687114
1265.29763672,0.06601904
1267.22644409,0.06523841
1269.15525146,0.06444582
1271.08405884,0.06324358
1273.01286621,0.06204183
1274.94167358,0.06106876
1276.87048096,0.05986216
1278.79928833,0.05865239
1280.72809570,0.05760647
1282.65690308,0.05645487
1284.58571045,0.05544688
1286.51451782,0.05449763
1288.44332520,0.05332544
1290.37213257,0.05245753
1292.30093994,0.05214380
1294.22974731,0.05166352
1296.15855469,0.05120254
1298.08736206,0.05133767
1300.01616943,0.05146234
1301.94497681,0.05142505
1303.87378418,0.05203028
1305.80259155,0.05271917
1307.73139893,0.05302694
1309.66020630,0.05413635
1311.58901367,0.05503108
1313.51782104,0.05578359
1315.44662842,0.05758142
1317.37543579,0.05853714
1319.30424316,0.05980475
1321.23305054,0.06231613
1323.16185791,0.06393941
1325.09066528,0.06564817
1327.01947266,0.06791671
1328.94828003,0.06949675
1330.87708740,0.07119264
1332.80589478,0.07311232
1334.73470215,0.07430483
1336.66350952,0.07498972
1338.59231689,0.07453120
1340.52112427,0.07526942
1342.44993164,0.07837561
1344.37873901,0.07911675
1346.30754639,0.07875748
1348.23635376,0.07871668
1350.16516113,0.07815707
1352.09396851,0.07824601
1354.02277588,0.07705032
1355.95158325,0.07637121
1357.88039062,0.07617550
1359.80919800,0.07465367
1361.73800537,0.07185338
1363.66681274,0.07073364
1365.59562012,0.07381754
1367.52442749,0.07246928
1369.45323486,0.07137686
1371.38204224,0.07260872
1373.31084961,0.06882602
1375.23965698,0.06917450
1377.16846436,0.07102181
1379.09727173,0.07067312
1381.02607910,0.07095237
1382.95488647,0.07061672
1384.88369385,0.07054196
1386.81250122,0.06776150
1388.74130859,0.06845778
1390.67011597,0.07377666
1392.59892334,0.07229529
1394.52773071,0.06780403
1396.45653809,0.07087661
1398.38534546,0.07094635
1400.31415283,0.07030313
1402.24296021,0.07580119
1404.17176758,0.07168269
1406.10057495,0.07199544
1408.02938232,0.07533465
1409.95818970,0.07228933
1411.88699707,0.07362230
1413.81580444,0.07119119
1415.74461182,0.07240568
1417.67341919,0.06601007
1419.60222656,0.05865376
1421.53103394,0.06720239
1423.45984131,0.06537423
1425.38864868,0.06312668
1427.31745605,0.06422628
1429.24626343,0.05932543
1431.17507080,0.05744014
1433.10387817,0.05830196
1435.03268555,0.05350460
1436.96149292,0.04523608
1438.89030029,0.05075312
1440.81910767,0.05241472
1442.74791504,0.04856673
1444.67672241,0.05069749
1446.60552979,0.04670304
1448.53433716,0.04724247
1450.46314453,0.04881381
1452.39195190,0.04986245
1454.32075928,0.05185471
1456.24956665,0.04321735
1458.17837402,0.04476052
1460.10718140,0.05902246
1462.03598877,0.06320769
1463.96479614,0.06274676
1465.89360352,0.06527437
1467.82241089,0.07431035
1469.75121826,0.08018623
1471.68002563,0.07208411
1473.60883301,0.07561018
1475.53764038,0.08638028
1477.46644775,0.09285384
1479.39525513,0.10160572
1481.32406250,0.10331404
1483.25286987,0.10962056
1485.18167725,0.11351504
1487.11048462,0.11223173
1489.03929199,0.11208995
1490.96809937,0.11263972
1492.89690674,0.13019061
1494.82571411,0.12805247
1496.75452148,0.11552063
1498.68332886,0.13005719
1500.61213623,0.13437742
1502.54094360,0.14347351
1504.46975098,0.13700506
1506.39855835,0.10132305
1508.32736572,0.12133859
1510.25617310,0.14255251
1512.18498047,0.13794492
1514.11378784,0.14904958
1516.04259521,0.13548610
1517.97140259,0.14078471
1519.90020996,0.13679041
1521.82901733,0.11856255
1523.75782471,0.14367072
1525.68663208,0.14178935
1527.61543945,0.14067373
1529.54424683,0.15517485
1531.47305420,0.14981729
1533.40186157,0.13771653
1535.33066895,0.14463413
1537.25947632,0.15536398
1539.18828369,0.11317667
1541.11709106,0.11642350
1543.04589844,0.13985631
1544.97470581,0.13394150
1546.90351318,0.15708528
1548.83232056,0.14744563
1550.76112793,0.15114138
1552.68993530,0.15098606
1554.61874268,0.13702264
1556.54755005,0.14702164
1558.47635742,0.10594600
1560.40516479,0.11125194
1562.33397217,0.15719712
1564.26277954,0.14953646
1566.19158691,0.15282199
1568.12039429,0.15211377
1570.04920166,0.13477951
1571.97800903,0.15374337
1573.90681641,0.15664539
1575.83562378,0.12491526
1577.76443115,0.13931459
1579.69323853,0.15717763
1581.62204590,0.15035030
1583.55085327,0.15400308
1585.47966064,0.15153643
1587.40846802,0.15207832
1589.33727539,0.15078703
1591.26608276,0.15048933
1593.19489014,0.15053420
1595.12369751,0.14827654
1597.05250488,0.14987642
1598.98131226,0.14862895
1600.91011963,0.14918086
1602.83892700,0.14597288
1604.76773437,0.14787725
1606.69654175,0.14556991
1608.62534912,0.14446510
1610.55415649,0.14393027
1612.48296387,0.14403442
1614.41177124,0.14617935
1616.34057861,0.11991444
1618.26938599,0.12796679
1620.19819336,0.14866152
1622.12700073,0.13189931
1624.05580811,0.13178846
1625.98461548,0.13756140
1627.91342285,0.13668475
1629.84223022,0.13557279
1631.77103760,0.14377710
1633.69984497,0.13363005
1635.62865234,0.11065076
1637.55745972,0.12727502
1639.48626709,0.14000641
1641.41507446,0.13671547
1643.34388184,0.14037064
1645.27268921,0.12772389
1647.20149658,0.11250339
1649.13030396,0.13829210
1651.05911133,0.13313487
1652.98791870,0.08710547
1654.91672607,0.11551447
1656.84553345,0.14565840
1658.77434082,0.13966233
1660.70314819,0.14406976
1662.63195557,0.13224100
1664.56076294,0.13880441
1666.48957031,0.14965875
1668.41837769,0.13241580
1670.34718506,0.12860481
1672.27599243,0.14543003
1674.20479980,0.13580148
1676.13360718,0.13017635
1678.06241455,0.14964932
1679.99122192,0.14512685
1681.92002930,0.14412183
1683.84883667,0.11918098
1685.77764404,0.11657955
1687.70645142,0.15943336
1689.63525879,0.14018601
1691.56406616,0.15264285
1693.49287354,0.15777305
1695.42168091,0.11608481
1697.35048828,0.14189956
1699.27929565,0.12743130
1701.20810303,0.11363223
1703.13691040,0.15397173
1705.06571777,0.14288631
1706.99452515,0.14332724
1708.92333252,0.15606549
1710.85213989,0.15013582
1712.78094727,0.15308450
1714.70975464,0.14329448
1716.63856201,0.12913522
1718.56736938,0.12670986
1720.49617676,0.14917065
1722.42498413,0.15556458
1724.35379150,0.14474882
1726.28259888,0.15692218
1728.21140625,0.14588416
1730.14021362,0.14664817
1732.06902100,0.14400920
1733.99782837,0.11094102
1735.92663574,0.13549879
1737.85544312,0.15066852
1739.78425049,0.13446346
1741.71305786,0.14575960
1743.64186523,0.14833765
1745.57067261,0.14829583
1747.49947998,0.14981914
1749.42828735,0.14400809
1751.35709473,0.13800693
1753.28590210,0.15178016
1755.21470947,0.15936309
1757.14351685,0.14577124
1759.07232422,0.15919384
1761.00113159,0.15105930
1762.92993896,0.14512092
1764.85874634,0.16534442
1766.78755371,0.15005696
1768.71636108,0.15095225
1770.64516846,0.15071546
1772.57397583,0.13551405
1774.50278320,0.15020448
1776.43159058,0.15895343
1778.36039795,0.15673761
1780.28920532,0.15486719
1782.21801270,0.15603925
1784.14682007,0.15595652
1786.07562744,0.15282667
1788.00443481,0.16038314
1789.93324219,0.15704882
1791.86204956,0.14259577
1793.79085693,0.14789359
1795.71966431,0.15862644
1797.64847168,0.15676048
1799.57727905,0.15445849
1801.50608643,0.15199617
1803.43489380,0.15625134
1805.36370117,0.15983494
1807.29250854,0.15774050
1809.22131592,0.15821359
1811.15012329,0.15430045
1813.07893066,0.15864664
1815.00773804,0.15962277
1816.93654541,0.15767372
1818.86535278,0.15915468
1820.79416016,0.15847732
1822.72296753,0.16058014
1824.65177490,0.15075961
1826.58058228,0.15558009
1828.50938965,0.15631938
1830.43819702,0.14676166
1832.36700439,0.15895358
1834.29581177,0.15832134
1836.22461914,0.15787138
1838.15342651,0.15754995
1840.08223389,0.15820733
1842.01104126,0.15877908
1843.93984863,0.14156444
1845.86865601,0.14991409
1847.79746338,0.15836574
1849.72627075,0.15484641
1851.65507812,0.15931132
1853.58388550,0.15634899
1855.51269287,0.15770930
1857.44150024,0.15682228
1859.37030762,0.15568733
1861.29911499,0.15698780
1863.22792236,0.15529433
1865.15672974,0.15684271
1867.08553711,0.15201712
1869.01434448,0.14585444
1870.94315186,0.15105909
1872.87195923,0.15663441
1874.80076660,0.15430686
1876.72957397,0.15514760
1878.65838135,0.15474398
1880.58718872,0.15370524
1882.51599609,0.15515050
1884.44480347,0.15265077
1886.37361084,0.15476856
1888.30241821,0.15162086
1890.23122559,0.14850102
1892.16003296,0.15394428
1894.08884033,0.15170220
1896.01764771,0.15103289
1897.94645508,0.15285358
1899.87526245,0.15191852
1901.80406982,0.15235972
1903.73287720,0.15136954
1905.66168457,0.15195270
1907.59049194,0.15062405
1909.51929932,0.14958498
1911.44810669,0.15050140
1913.37691406,0.15058768
1915.30572144,0.15188821
1917.23452881,0.14566627
1919.16333618,0.14545636
1921.09214355,0.15085658
1923.02095093,0.14645728
1924.94975830,0.14912654
1926.87856567,0.15073268
1928.80737305,0.14877611
1930.73618042,0.15047538
1932.66498779,0.14856699
1934.59379517,0.14982291
1936.52260254,0.14883867
1938.45140991,0.14921507
1940.38021729,0.14923553
1942.30902466,0.14467654
1944.23783203,0.14717171
1946.16663940,0.14857738
1948.09544678,0.14825204
1950.02425415,0.14859155
1951.95306152,0.14813861
1953.88186890,0.14837262
1955.81067627,0.14762735
1957.73948364,0.14825496
1959.66829102,0.14794174
1961.59709839,0.14754358
1963.52590576,0.14810352
1965.45471313,0.14712119
1967.38352051,0.14559194
1969.31232788,0.14676228
1971.24113525,0.14771590
1973.16994263,0.14661241
1975.09875000,0.14709640
1977.02755737,0.14644957
1978.95636475,0.14663903
1980.88517212,0.14654654
1982.81397949,0.14588612
1984.74278687,0.14644414
1986.67159424,0.14515308
1988.60040161,0.14550249
1990.52920898,0.14422253
1992.45801636,0.14264075
1994.38682373,0.14457777
1996.31563110,0.14472088
1998.24443848,0.14410172
2000.17324585,0.14415663
2002.10205322,0.14379294
2004.03086060,0.14349172
2005.95966797,0.14333068
2007.88847534,0.14286864
2009.81728271,0.14272341
2011.74609009,0.14234355
2013.67489746,0.14224878
2015.60370483,0.14154935
2017.53251221,0.14015424
2019.46131958,0.14111240
2021.39012695,0.14096737
2023.31893433,0.14042328
2025.24774170,0.14066458
2027.17654907,0.14006230
2029.10535645,0.13995144
2031.03416382,0.13932236
2032.96297119,0.13915467
2034.89177856,0.13895902
2036.82058594,0.13867010
2038.74939331,0.13852051
2040.67820068,0.13767056
2042.60700806,0.13744546
2044.53581543,0.13748559
2046.46462280,0.13731241
2048.39343018,0.13696468
2050.32223755,0.13673934
2052.25104492,0.13629445
2054.17985229,0.13612710
2056.10865967,0.13608575
2058.03746704,0.13557394
2059.96627441,0.13531053
2061.89508179,0.13500877
2063.82388916,0.13445142
2065.75269653,0.13393301
2067.68150391,0.13438542
2069.61031128,0.13420349
2071.53911865,0.13371509
2073.46792603,0.13361123
2075.39673340,0.13315585
2077.32554077,0.13326634
2079.25434814,0.13271037
2081.18315552,0.13260746
2083.11196289,0.13239196
2085.04077026,0.13192743
2086.96957764,0.13206160
2088.89838501,0.13145265
2090.82719238,0.13127248
2092.75599976,0.13089305
2094.68480713,0.13079463
2096.61361450,0.13076493
2098.54242187,0.13045546
2100.47122925,0.13039383
2102.40003662,0.12994462
2104.32884399,0.12989131
2106.25765137,0.12964995
2108.18645874,0.12946057
2110.11526611,0.12921605
2112.04407349,0.12913905
2113.97288086,0.12893024
2115.90168823,0.12852514
2117.83049561,0.12871981
2119.75930298,0.12821358
2121.68811035,0.12804271
2123.61691772,0.12796122
2125.54572510,0.12763813
2127.47453247,0.12753160
2129.40333984,0.12741007
2131.33214722,0.12736404
2133.26095459,0.12708138
2135.18976196,0.12698701
2137.11856934,0.12652902
2139.04737671,0.12648422
2140.97618408,0.12647355
2142.90499146,0.12624711
2144.83379883,0.12625283
2146.76260620,0.12593706
2148.69141357,0.12591639
2150.62022095,0.12562716
2152.54902832,0.12560549
2154.47783569,0.12543039
2156.40664307,0.12524587
2158.33545044,0.12528907
2160.26425781,0.12488332
2162.19306519,0.12491445
2164.12187256,0.12468779
2166.05067993,0.12460503
2167.97948730,0.12442712
2169.90829468,0.12423374
2171.83710205,0.12422104
2173.76590942,0.12392952
2175.69471680,0.12393698
2177.62352417,0.12370788
2179.55233154,0.12369579
2181.48113892,0.12358653
2183.40994629,0.12342373
2185.33875366,0.12325892
2187.26756104,0.12313465
2189.19636841,0.12310542
2191.12517578,0.12274069
2193.05398315,0.12286186
2194.98279053,0.12249107
2196.91159790,0.12238695
2198.84040527,0.12248684
2200.76921265,0.12209769
2202.69802002,0.12213387
2204.62682739,0.12191842
2206.55563477,0.12187342
2208.48444214,0.12175207
2210.41324951,0.12156187
2212.34205688,0.12137439
2214.27086426,0.12116694
2216.19967163,0.12108512
2218.12847900,0.12088017
2220.05728638,0.12098138
2221.98609375,0.12072185
2223.91490112,0.12053750
2225.84370850,0.12056098
2227.77251587,0.12036376
2229.70132324,0.12013698
2231.63013062,0.12001580
2233.55893799,0.11984298
2235.48774536,0.11946102
2237.41655273,0.11949943
2239.34536011,0.11920495
2241.27416748,0.11898845
2243.20297485,0.11897461
2245.13178223,0.11867723
2247.06058960,0.11862166
2248.98939697,0.11842202
2250.91820435,0.11838291
2252.84701172,0.11821052
2254.77581909,0.11795034
2256.70462646,0.11785594
2258.63343384,0.11761486
2260.56224121,0.11751652
2262.49104858,0.11739382
2264.41985596,0.11709157
2266.34866333,0.11706032
2268.27747070,0.11707790
2270.20627808,0.11670472
2272.13508545,0.11672381
2274.06389282,0.11652893
2275.99270020,0.11636925
2277.92150757,0.11655444
2279.85031494,0.11621118
2281.77912231,0.11617249
2283.70792969,0.11606850
2285.63673706,0.11587995
2287.56554443,0.11571237
2289.49435181,0.11540736
2291.42315918,0.11508690
2293.35196655,0.11474177
2295.28077393,0.11464065
2297.20958130,0.11419403
2299.13838867,0.11388948
2301.06719604,0.11355440
2302.99600342,0.11295751
2304.92481079,0.11230757
2306.85361816,0.11163621
2308.78242554,0.11101133
2310.71123291,0.11002821
2312.64004028,0.10905381
2314.56884766,0.10781224
2316.49765503,0.10678381
2318.42646240,0.10551735
2320.35526978,0.10389978
2322.28407715,0.10271898
2324.21288452,0.10137428
2326.14169189,0.10018761
2328.07049927,0.09892818
2329.99930664,0.09783818
2331.92811401,0.09701216
2333.85692139,0.09659600
2335.78572876,0.09618703
2337.71453613,0.09592870
2339.64334351,0.09614644
2341.57215088,0.09619621
2343.50095825,0.09776220
2345.42976562,0.09960274
2347.35857300,0.10344274
2349.28738037,0.10704690
2351.21618774,0.10351060
2353.14499512,0.09835553
2355.07380249,0.09484257
2357.00260986,0.09188232
2358.93141724,0.09019057
2360.86022461,0.08913269
2362.78903198,0.08900086
2364.71783936,0.08947517
2366.64664673,0.09066577
2368.57545410,0.09241451
2370.50426147,0.09482288
2372.43306885,0.09735268
2374.36187622,0.09992163
2376.29068359,0.10260420
2378.21949097,0.10471210
2380.14829834,0.10661104
2382.07710571,0.10775454
2384.00591309,0.10855868
2385.93472046,0.10885377
2387.86352783,0.10887167
2389.79233521,0.10891448
2391.72114258,0.10860915
2393.64994995,0.10855531
2395.57875732,0.10819416
2397.50756470,0.10813150
2399.43637207,0.10810511
2401.36517944,0.10789497
2403.29398682,0.10785559
2405.22279419,0.10763691
2407.15160156,0.10762471
2409.08040894,0.10745218
2411.00921631,0.10732694
2412.93802368,0.10712279
2414.86683105,0.10704514
2416.79563843,0.10703418
2418.72444580,0.10673084
2420.65325317,0.10664678
2422.58206055,0.10656990
2424.51086792,0.10647090
2426.43967529,0.10621822
2428.36848267,0.10615088
2430.29729004,0.10603167
2432.22609741,0.10587290
2434.15490479,0.10579273
2436.08371216,0.10544613
2438.01251953,0.10548538
2439.94132690,0.10545827
2441.87013428,0.10522081
2443.79894165,0.10498717
2445.72774902,0.10489196
2447.65655640,0.10483463
2449.58536377,0.10466306
2451.51417114,0.10464462
2453.44297852,0.10451587
2455.37178589,0.10439890
2457.30059326,0.10410334
2459.22940063,0.10399164
2461.15820801,0.10395835
2463.08701538,0.10378465
2465.01582275,0.10364589
2466.94463013,0.10339054
2468.87343750,0.10345496
2470.80224487,0.10330503
2472.73105225,0.10321572
2474.65985962,0.10312174
2476.58866699,0.10280885
2478.51747437,0.10275850
2480.44628174,0.10270157
2482.37508911,0.10260330
2484.30389648,0.10215996
2486.23270386,0.10211156
2488.16151123,0.10217888
2490.09031860,0.10192331
2492.01912598,0.10188347
2493.94793335,0.10175566
2495.87674072,0.10171108
2497.80554810,0.10152527
2499.73435547,0.10137501
2501.66316284,0.10126714
2503.59197021,0.10105667
2505.52077759,0.10094014
2507.44958496,0.10086922
2509.37839233,0.10077988
2511.30719971,0.10055374
2513.23600708,0.10057239
2515.16481445,0.10035932
2517.09362183,0.10012651
2519.02242920,0.10018067
2520.95123657,0.10000525
2522.88004395,0.09985581
2524.80885132,0.09978642
2526.73765869,0.09962103
2528.66646606,0.09936140
2530.59527344,0.09937672
2532.52408081,0.09930527
2534.45288818,0.09915160
2536.38169556,0.09905470
2538.31050293,0.09888454
2540.23931030,0.09888753
2542.16811768,0.09861156
2544.09692505,0.09849660
2546.02573242,0.09850153
2547.95453979,0.09834714
2549.88334717,0.09815781
2551.81215454,0.09793496
2553.74096191,0.09793280
2555.66976929,0.09769385
2557.59857666,0.09758081
2559.52738403,0.09758028
2561.45619141,0.09740692
2563.38499878,0.09729136
2565.31380615,0.09714180
2567.24261353,0.09702170
2569.17142090,0.09688252
2571.10022827,0.09677212
2573.02903564,0.09659623
2574.95784302,0.09648761
2576.88665039,0.09636097
2578.81545776,0.09625033
2580.74426514,0.09614723
2582.67307251,0.09597121
2584.60187988,0.09591386
2586.53068726,0.09569424
2588.45949463,0.09567323
2590.38830200,0.09558661
2592.31710937,0.09536467
2594.24591675,0.09533364
2596.17472412,0.09517837
2598.10353149,0.09502039
2600.03233887,0.09486696
2601.96114624,0.09473313
2603.88995361,0.09462237
2605.81876099,0.09465733
2607.74756836,0.09434350
2609.67637573,0.09415004
2611.60518311,0.09428535
2613.53399048,0.09397760
2615.46279785,0.09394526
2617.39160522,0.09376360
2619.32041260,0.09359682
2621.24921997,0.09354392
2623.17802734,0.09339979
2625.10683472,0.09349141
2627.03564209,0.09308933
2628.96444946,0.09290270
2630.89325684,0.09281683
2632.82206421,0.09270918
2634.75087158,0.09268665
2636.67967895,0.09239471
2638.60848633,0.09240028
2640.53729370,0.09228773
2642.46610107,0.09218954
2644.39490845,0.09203725
2646.32371582,0.09182471
2648.25252319,0.09178130
2650.18133057,0.09164214
2652.11013794,0.09163447
2654.03894531,0.09142879
2655.96775269,0.09125150
2657.89656006,0.09122396
2659.82536743,0.09104866
2661.75417480,0.09088024
2663.68298218,0.09073803
2665.61178955,0.09054197
2667.54059692,0.09043393
2669.46940430,0.09040470
2671.39821167,0.09021340
2673.32701904,0.09021057
2675.25582642,0.09015536
2677.18463379,0.08990928
2679.11344116,0.08970931
2681.04224854,0.08961383
2682.97105591,0.08963297
2684.89986328,0.08936362
2686.82867065,0.08922291
2688.75747803,0.08919849
2690.68628540,0.08900411
2692.61509277,0.08885410
2694.54390015,0.08866781
2696.47270752,0.08857178
2698.40151489,0.08854310
2700.33032227,0.08834880
2702.25912964,0.08814830
2704.18793701,0.08815024
2706.11674438,0.08795150
2708.04555176,0.08781816
2709.97435913,0.08777955
2711.90316650,0.08753393
2713.83197388,0.08742897
2715.76078125,0.08726117
2717.68958862,0.08720402
2719.61839600,0.08707201
2721.54720337,0.08694475
2723.47601074,0.08691280
2725.40481812,0.08654034
2727.33362549,0.08645044
2729.26243286,0.08641684
2731.19124023,0.08624387
2733.12004761,0.08606211
2735.04885498,0.08584481
2736.97766235,0.08581245
2738.90646973,0.08572353
2740.83527710,0.08562352
2742.76408447,0.08551981
2744.69289185,0.08540632
2746.62169922,0.08521442
2748.55050659,0.08511963
2750.47931396,0.08500429
2752.40812134,0.08472347
2754.33692871,0.08469268
2756.26573608,0.08444816
2758.19454346,0.08432660
2760.12335083,0.08433782
2762.05215820,0.08405879
2763.98096558,0.08406868
2765.90977295,0.08390814
2767.83858032,0.08367005
2769.76738770,0.08361562
2771.69619507,0.08335957
2773.62500244,0.08321790
2775.55380981,0.08318213
2777.48261719,0.08314505
2779.41142456,0.08294771
2781.34023193,0.08256923
2783.26903931,0.08247167
2785.19784668,0.08242387
2787.12665405,0.08217390
2789.05546143,0.08205768
2790.98426880,0.08197136
2792.91307617,0.08173896
2794.84188354,0.08162125
2796.77069092,0.08152318
2798.69949829,0.08133319
2800.62830566,0.08118513
2802.55711304,0.08100918
2804.48592041,0.08085571
2806.41472778,0.08063795
2808.34353516,0.08051527
2810.27234253,0.08049184
2812.20114990,0.08020858
2814.12995728,0.08007254
2816.05876465,0.07997434
2817.98757202,0.07977727
2819.91637939,0.07969928
2821.84518677,0.07957850
2823.77399414,0.07947923
2825.70280151,0.07920133
2827.63160889,0.07902303
2829.56041626,0.07895079
2831.48922363,0.07866398
2833.41803101,0.07849181
2835.34683838,0.07837095
2837.27564575,0.07821365
2839.20445312,0.07794163
2841.13326050,0.07774049
2843.06206787,0.07746394
2844.99087524,0.07703038
2846.91968262,0.07671942
2848.84848999,0.07612339
2850.77729736,0.07584715
2852.70610474,0.07588227
2854.63491211,0.07566333
2856.56371948,0.07568260
2858.49252686,0.07561050
2860.42133423,0.07549545
2862.35014160,0.07546161
2864.27894897,0.07517461
2866.20775635,0.07502579
2868.13656372,0.07494095
2870.06537109,0.07482203
2871.99417847,0.07477263
2873.92298584,0.07458163
2875.85179321,0.07446328
2877.78060059,0.07440949
2879.70940796,0.07427338
2881.63821533,0.07414606
2883.56702270,0.07397330
2885.49583008,0.07382308
2887.42463745,0.07372969
2889.35344482,0.07366487
2891.28225220,0.07346007
2893.21105957,0.07319839
2895.13986694,0.07298754
2897.06867432,0.07281934
2898.99748169,0.07278137
2900.92628906,0.07246456
2902.85509644,0.07215676
2904.78390381,0.07205012
2906.71271118,0.07181054
2908.64151855,0.07151990
2910.57032593,0.07110156
2912.49913330,0.07078741
2914.42794067,0.07040989
2916.35674805,0.06999290
2918.28555542,0.06994420
2920.21436279,0.06988444
2922.14317017,0.06964507
2924.07197754,0.06947607
2926.00078491,0.06939152
2927.92959229,0.06933165
2929.85839966,0.06933956
2931.78720703,0.06915407
2933.71601440,0.06908420
2935.64482178,0.06912148
2937.57362915,0.06897696
2939.50243652,0.06909922
2941.43124390,0.06904684
2943.36005127,0.06879262
2945.28885864,0.06864561
2947.21766602,0.06861621
2949.14647339,0.06853799
2951.07528076,0.06822295
2953.00408813,0.06817102
2954.93289551,0.06797093
2956.86170288,0.06763414
2958.79051025,0.06747463
2960.71931763,0.06728902
2962.64812500,0.06716341
2964.57693237,0.06695528
2966.50573975,0.06679724
2968.43454712,0.06675897
2970.36335449,0.06682247
2972.29216187,0.06677287
2974.22096924,0.06676713
2976.14977661,0.06685981
2978.07858398,0.06671040
2980.00739136,0.06664132
2981.93619873,0.06663473
2983.86500610,0.06666820
2985.79381348,0.06648839
2987.72262085,0.06619003
2989.65142822,0.06617384
2991.58023560,0.06612795
2993.50904297,0.06594911
2995.43785034,0.06568526
2997.36665771,0.06555739
2999.29546509,0.06550846
3001.22427246,0.06545565
3003.15307983,0.06524122
3005.08188721,0.06495058
3007.01069458,0.06481596
3008.93950195,0.06466511
3010.86830933,0.06448473
3012.79711670,0.06410085
3014.72592407,0.06399433
3016.65473145,0.06393857
3018.58353882,0.06372824
3020.51234619,0.06363495
3022.44115356,0.06339687
3024.36996094,0.06332231
3026.29876831,0.06302764
3028.22757568,0.06279674
3030.15638306,0.06257910
3032.08519043,0.06224987
3034.01399780,0.06224228
3035.94280518,0.06194158
3037.87161255,0.06181539
3039.80041992,0.06172091
3041.72922729,0.06150531
3043.65803467,0.06130894
3045.58684204,0.06108535
3047.51564941,0.06096675
3049.44445679,0.06051933
3051.37326416,0.06048455
3053.30207153,0.06049034
3055.23087891,0.06013497
3057.15968628,0.05991391
3059.08849365,0.05973970
3061.01730103,0.05963285
3062.94610840,0.05932150
3064.87491577,0.05914116
3066.80372314,0.05897162
3068.73253052,0.05879348
3070.66133789,0.05867131
3072.59014526,0.05842420
3074.51895264,0.05822821
3076.44776001,0.05797097
3078.37656738,0.05782761
3080.30537476,0.05758670
3082.23418213,0.05747276
3084.16298950,0.05731807
3086.09179687,0.05700892
3088.02060425,0.05690441
3089.94941162,0.05664740
3091.87821899,0.05647283
3093.80702637,0.05614021
3095.73583374,0.05588337
3097.66464111,0.05579332
3099.59344849,0.05548505
3101.52225586,0.05520169
3103.45106323,0.05501045
3105.37987061,0.05502587
3107.30867798,0.05467648
3109.23748535,0.05437960
3111.16629272,0.05427404
3113.09510010,0.05389979
3115.02390747,0.05362311
3116.95271484,0.05330261
3118.88152222,0.05319485
3120.81032959,0.05293280
3122.73913696,0.05256991
3124.66794434,0.05253816
3126.59675171,0.05228364
3128.52555908,0.05203672
3130.45436645,0.05186591
3132.38317383,0.05150815
3134.31198120,0.05128344
3136.24078857,0.05122408
3138.16959595,0.05080993
3140.09840332,0.05041857
3142.02721069,0.05032307
3143.95601807,0.05009308
3145.88482544,0.04992522
3147.81363281,0.04964375
3149.74244019,0.04924043
3151.67124756,0.04899807
3153.60005493,0.04878727
3155.52886230,0.04858282
3157.45766968,0.04829340
3159.38647705,0.04795444
3161.31528442,0.04776742
3163.24409180,0.04753363
3165.17289917,0.04722116
3167.10170654,0.04710304
3169.03051392,0.04688782
3170.95932129,0.04654160
3172.88812866,0.04627204
3174.81693604,0.04609293
3176.74574341,0.04584508
3178.67455078,0.04555622
3180.60335815,0.04542606
3182.53216553,0.04516888
3184.46097290,0.04494299
3186.38978027,0.04464597
3188.31858765,0.04447909
3190.24739502,0.04443812
3192.17620239,0.04406916
3194.10500977,0.04392926
3196.03381714,0.04361812
3197.96262451,0.04334693
3199.89143188,0.04332987
3201.82023926,0.04301789
3203.74904663,0.04280673
3205.67785400,0.04261348
3207.60666138,0.04248043
3209.53546875,0.04235223
3211.46427612,0.04216522
3213.39308350,0.04192156
3215.32189087,0.04164504
3217.25069824,0.04161903
3219.17950562,0.04151767
3221.10831299,0.04129086
3223.03712036,0.04111551
3224.96592773,0.04099964
3226.89473511,0.04083452
3228.82354248,0.04072441
3230.75234985,0.04055218
3232.68115723,0.04035413
3234.60996460,0.04031195
3236.53877197,0.04010695
3238.46757935,0.04000520
3240.39638672,0.03991013
3242.32519409,0.03983530
3244.25400146,0.03972926
3246.18280884,0.03953477
3248.11161621,0.03947851
3250.04042358,0.03929432
3251.96923096,0.03931874
3253.89803833,0.03921343
3255.82684570,0.03903019
3257.75565308,0.03903398
3259.68446045,0.03890000
3261.61326782,0.03888997
3263.54207520,0.03888190
3265.47088257,0.03878437
3267.39968994,0.03857132
3269.32849731,0.03855427
3271.25730469,0.03853378
3273.18611206,0.03835889
3275.11491943,0.03829972
3277.04372681,0.03824235
3278.97253418,0.03830592
3280.90134155,0.03809559
3282.83014893,0.03801745
3284.75895630,0.03807602
3286.68776367,0.03795338
3288.61657104,0.03796518
3290.54537842,0.03781503
3292.47418579,0.03762162
3294.40299316,0.03752723
3296.33180054,0.03763570
3298.26060791,0.03753660
3300.18941528,0.03733056
3302.11822266,0.03736849
3304.04703003,0.03731433
3305.97583740,0.03723740
3307.90464478,0.03711963
3309.83345215,0.03710014
3311.76225952,0.03691722
3313.69106689,0.03685788
3315.61987427,0.03689910
3317.54868164,0.03678280
3319.47748901,0.03687229
3321.40629639,0.03670349
3323.33510376,0.03656330
3325.26391113,0.03649408
3327.19271851,0.03642596
3329.12152588,0.03636018
3331.05033325,0.03623424
3332.97914062,0.03632269
3334.90794800,0.03618176
3336.83675537,0.03602812
3338.76556274,0.03601449
3340.69437012,0.03599010
3342.62317749,0.03592989
3344.55198486,0.03583904
3346.48079224,0.03572634
3348.40959961,0.03563700
3350.33840698,0.03558788
3352.26721436,0.03554097
3354.19602173,0.03560711
3356.12482910,0.03538593
3358.05363647,0.03534164
3359.98244385,0.03527470
3361.91125122,0.03517849
3363.84005859,0.03525413
3365.76886597,0.03496378
3367.69767334,0.03500145
3369.62648071,0.03491166
3371.55528809,0.03491657
3373.48409546,0.03498735
3375.41290283,0.03491364
3377.34171020,0.03494563
3379.27051758,0.03466522
3381.19932495,0.03475612
3383.12813232,0.03453431
3385.05693970,0.03456116
3386.98574707,0.03469086
3388.91455444,0.03454084
3390.84336182,0.03475836
3392.77216919,0.03435438
3394.70097656,0.03440344
3396.62978394,0.03444829
3398.55859131,0.03430130
3400.48739868,0.03442254
3402.41620605,0.03429052
3404.34501343,0.03448226
3406.27382080,0.03444746
3408.20262817,0.03443941
3410.13143555,0.03442381
3412.06024292,0.03439815
3413.98905029,0.03436834
3415.91785767,0.03437789
3417.84666504,0.03454229
3419.77547241,0.03426763
3421.70427979,0.03427406
3423.63308716,0.03436273
3425.56189453,0.03444881
3427.49070190,0.03440678
3429.41950928,0.03436458
3431.34831665,0.03444720
3433.27712402,0.03429602
3435.20593140,0.03440212
3437.13473877,0.03435715
3439.06354614,0.03450121
3440.99235352,0.03441017
3442.92116089,0.03436926
3444.84996826,0.03450901
3446.77877563,0.03406470
3448.70758301,0.03431756
3450.63639038,0.03461967
3452.56519775,0.03461299
3454.49400513,0.03470244
3456.42281250,0.03470613
3458.35161987,0.03472857
3460.28042725,0.03466700
3462.20923462,0.03466122
3464.13804199,0.03476576
3466.06684937,0.03486396
3467.99565674,0.03472281
3469.92446411,0.03494189
3471.85327148,0.03503913
3473.78207886,0.03489922
3475.71088623,0.03492479
3477.63969360,0.03507432
3479.56850098,0.03523095
3481.49730835,0.03483662
3483.42611572,0.03503534
3485.35492310,0.03519434
3487.28373047,0.03509733
3489.21253784,0.03528510
3491.14134521,0.03535327
3493.07015259,0.03555088
3494.99895996,0.03538270
3496.92776733,0.03544289
3498.85657471,0.03555315
3500.78538208,0.03564491
3502.71418945,0.03524623
3504.64299683,0.03521579
3506.57180420,0.03605710
3508.50061157,0.03552368
3510.42941895,0.03553624
3512.35822632,0.03601714
3514.28703369,0.03607262
3516.21584106,0.03621191
3518.14464844,0.03609068
3520.07345581,0.03636958
3522.00226318,0.03600994
3523.93107056,0.03565295
3525.85987793,0.03585440
3527.78868530,0.03602856
3529.71749268,0.03611379
3531.64630005,0.03643232
3533.57510742,0.03685257
3535.50391479,0.03646206
3537.43272217,0.03638318
3539.36152954,0.03673439
3541.29033691,0.03690854
3543.21914429,0.03678028
3545.14795166,0.03610271
3547.07675903,0.03575131
3549.00556641,0.03686853
3550.93437378,0.03712252
3552.86318115,0.03627534
3554.79198853,0.03715239
3556.72079590,0.03737918
3558.64960327,0.03720018
3560.57841064,0.03704765
3562.50721802,0.03691325
3564.43602539,0.03731905
3566.36483276,0.03511746
3568.29364014,0.03432664
3570.22244751,0.03685282
3572.15125488,0.03783946
3574.08006226,0.03747514
3576.00886963,0.03766946
3577.93767700,0.03763725
3579.86648437,0.03762908
3581.79529175,0.03779167
3583.72409912,0.03784830
3585.65290649,0.03723453
3587.58171387,0.03453489
3589.51052124,0.03540768
3591.43932861,0.03826226
3593.36813599,0.03738554
3595.29694336,0.03695386
3597.22575073,0.03754398
3599.15455811,0.03796657
3601.08336548,0.03765561
3603.01217285,0.03784894
3604.94098022,0.03858715
3606.86978760,0.03750524
3608.79859497,0.03551415
3610.72740234,0.03626516
3612.65620972,0.03723649
3614.58501709,0.03620445
3616.51382446,0.03870650
3618.44263184,0.03615461
3620.37143921,0.03482476
3622.30024658,0.03904931
3624.22905395,0.03809260
3626.15786133,0.03982926
3628.08666870,0.03433099
3630.01547607,0.03132588
3631.94428345,0.03881723
3633.87309082,0.03800762
3635.80189819,0.03869650
3637.73070557,0.03950946
3639.65951294,0.03898747
3641.58832031,0.03944210
3643.51712769,0.03889592
3645.44593506,0.03944502
3647.37474243,0.03583347
3649.30354980,0.03301869
3651.23235718,0.03343114
3653.16116455,0.03917304
3655.08997192,0.03889401
3657.01877930,0.03523793
3658.94758667,0.04009544
3660.87639404,0.03932327
3662.80520142,0.03992479
3664.73400879,0.03980880
3666.66281616,0.03946649
3668.59162354,0.03874179
3670.52043091,0.03194855
3672.44923828,0.03799084
3674.37804565,0.03670046
3676.30685303,0.03077298
3678.23566040,0.03802202
3680.16446777,0.03902091
3682.09327515,0.03905551
3684.02208252,0.04012297
3685.95088989,0.03960809
3687.87969727,0.03594317
3689.80850464,0.03305862
3691.73731201,0.03759075
3693.66611938,0.03860604
3695.59492676,0.03936465
3697.52373413,0.03953437
3699.45254150,0.03912710
3701.38134888,0.03821571
3703.31015625,0.03687742
3705.23896362,0.04034099
3707.16777100,0.03847943
3709.09657837,0.03757922
3711.02538574,0.03560958
3712.95419312,0.03347930
3714.88300049,0.03888415
3716.81180786,0.03834854
3718.74061523,0.03861489
3720.66942261,0.03785517
3722.59822998,0.03667013
3724.52703735,0.03802451
3726.45584473,0.03529843
3728.38465210,0.03806940
3730.31345947,0.03768107
3732.24226685,0.03483217
3734.17107422,0.03421417
3736.09988159,0.03255537
3738.02868896,0.03421241
3739.95749634,0.03687018
3741.88630371,0.03863004
3743.81511108,0.03055647
3745.74391846,0.02881052
3747.67272583,0.03676219
3749.60153320,0.03195367
3751.53034058,0.02950021
3753.45914795,0.03365158
3755.38795532,0.03606152
3757.31676270,0.03736179
3759.24557007,0.03487880
3761.17437744,0.03589447
3763.10318481,0.03791883
3765.03199219,0.03571358
3766.96079956,0.03631642
3768.88960693,0.03596546
3770.81841431,0.03445045
3772.74722168,0.03704485
3774.67602905,0.03713768
3776.60483643,0.03708729
3778.53364380,0.03623398
3780.46245117,0.03485348
3782.39125854,0.03690140
3784.32006592,0.03618484
3786.24887329,0.03603208
3788.17768066,0.03672106
3790.10648804,0.03649049
3792.03529541,0.03630385
3793.96410278,0.03689133
3795.89291016,0.03490027
3797.82171753,0.03432154
3799.75052490,0.03605361
3801.67933228,0.02913028
3803.60813965,0.03350943
3805.53694702,0.03639415
3807.46575439,0.03011833
3809.39456177,0.03593294
3811.32336914,0.03531034
3813.25217651,0.03630596
3815.18098389,0.03310847
3817.10979126,0.02917049
3819.03859863,0.03638430
3820.96740601,0.03003157
3822.89621338,0.03116879
3824.82502075,0.03616872
3826.75382812,0.03303508
3828.68263550,0.03529065
3830.61144287,0.03407066
3832.54025024,0.03294069
3834.46905762,0.03353772
3836.39786499,0.03203704
3838.32667236,0.02908954
3840.25547974,0.03130418
3842.18428711,0.03363564
3844.11309448,0.03215182
3846.04190186,0.03465874
3847.97070923,0.03413509
3849.89951660,0.03426019
3851.82832397,0.03110331
3853.75713135,0.02365128
3855.68593872,0.02761569
3857.61474609,0.03419805
3859.54355347,0.03337026
3861.47236084,0.03294473
3863.40116821,0.03234745
3865.32997559,0.03025974
3867.25878296,0.03345001
3869.18759033,0.03082706
3871.11639770,0.02856057
3873.04520508,0.03348050
3874.97401245,0.03110199
3876.90281982,0.03327639
3878.83162720,0.03390578
3880.76043457,0.02938468
3882.68924194,0.03335207
3884.61804932,0.03143650
3886.54685669,0.02901333
3888.47566406,0.03343460
3890.40447144,0.03175274
3892.33327881,0.02995025
3894.26208618,0.03265977
3896.19089355,0.03319655
3898.11970093,0.03172822
3900.04850830,0.03007412
3901.97731567,0.02975480
3903.90612305,0.02955058
3905.83493042,0.02992590
3907.76373779,0.03255060
3909.69254517,0.03250711
3911.62135254,0.03219230
3913.55015991,0.03270106
3915.47896728,0.03157794
3917.40777466,0.03088883
3919.33658203,0.03073080
3921.26538940,0.03176927
3923.19419678,0.03159508
3925.12300415,0.03091079
3927.05181152,0.03146180
3928.98061890,0.03168720
3930.90942627,0.03105709
3932.83823364,0.03023203
3934.76704102,0.03131532
3936.69584839,0.03148087
3938.62465576,0.03126493
3940.55346313,0.03151415
3942.48227051,0.03041781
3944.41107788,0.03067181
3946.33988525,0.03117480
3948.26869263,0.03049001
3950.19750000,0.03042103
3952.12630737,0.03091987
3954.05511475,0.03098484
3955.98392212,0.03094099
3957.91272949,0.03081277
3959.84153687,0.03079319
3961.77034424,0.03061590
3963.69915161,0.03035652
3965.62795898,0.03076067
3967.55676636,0.03051041
3969.48557373,0.03044232
3971.41438110,0.03043224
3973.34318848,0.03025288
3975.27199585,0.03027466
3977.20080322,0.03008370
3979.12961060,0.03034562
3981.05841797,0.03003715
3982.98722534,0.03005245
3984.91603271,0.03008664
3986.84484009,0.02993150
3988.77364746,0.02991259
3990.70245483,0.02953004
3992.63126221,0.02984687
3994.56006958,0.02965405
3996.48887695,0.02961161
3998.41768433,0.02966040
4000.34649170,0.02944583
4002.27529907,0.02956139
4004.20410645,0.02936809
4006.13291382,0.02940744
4008.06172119,0.02923561
4009.99052856,0.02925431
4011.91933594,0.02923176
4013.84814331,0.02912973
4015.77695068,0.02916925
4017.70575806,0.02901319
4019.63456543,0.02894340
4021.56337280,0.02886883
4023.49218018,0.02901282
4025.42098755,0.02868207
4027.34979492,0.02870926
4029.27860229,0.02872403
4031.20740967,0.02851642
4033.13621704,0.02869562
4035.06502441,0.02837455
4036.99383179,0.02845745
4038.92263916,0.02839076
4040.85144653,0.02829640
4042.78025391,0.02831917
4044.70906128,0.02812028
4046.63786865,0.02818551
4048.56667603,0.02813329
4050.49548340,0.02813457
4052.42429077,0.02796033
4054.35309814,0.02794695
4056.28190552,0.02782799
4058.21071289,0.02779537
4060.13952026,0.02788395
4062.06832764,0.02768371
4063.99713501,0.02764045
4065.92594238,0.02752002
4067.85474976,0.02765061
4069.78355713,0.02749088
4071.71236450,0.02740670
4073.64117187,0.02746379
4075.56997925,0.02742003
4077.49878662,0.02746584
4079.42759399,0.02713735
4081.35640137,0.02719262
4083.28520874,0.02709373
4085.21401611,0.02701773
4087.14282349,0.02698009
4089.07163086,0.02685442
4091.00043823,0.02697641
4092.92924561,0.02680042
4094.85805298,0.02680596
4096.78686035,0.02670016
4098.71566772,0.02670057
4100.64447510,0.02665804
4102.57328247,0.02653582
4104.50208984,0.02652183
4106.43089722,0.02636771
4108.35970459,0.02645143
4110.28851196,0.02635863
4112.21731934,0.02633523
4114.14612671,0.02621445
4116.07493408,0.02621126
4118.00374145,0.02619088
4119.93254883,0.02602603
4121.86135620,0.02607614
4123.79016357,0.02585703
4125.71897095,0.02595038
4127.64777832,0.02586372
4129.57658569,0.02574540
4131.50539307,0.02574597
4133.43420044,0.02566867
4135.36300781,0.02569870
4137.29181519,0.02547744
4139.22062256,0.02557930
4141.14942993,0.02547553
4143.07823730,0.02536525
4145.00704468,0.02538211
4146.93585205,0.02527454
4148.86465942,0.02527753
4150.79346680,0.02521430
4152.72227417,0.02524024
4154.65108154,0.02505839
4156.57988892,0.02505457
4158.50869629,0.02499652
4160.43750366,0.02494294
4162.36631103,0.02493889
4164.29511841,0.02476441
4166.22392578,0.02484277
4168.15273315,0.02474826
4170.08154053,0.02465825
4172.01034790,0.02458227
4173.93915527,0.02464549
4175.86796265,0.02456062
4177.79677002,0.02449461
4179.72557739,0.02457139
4181.65438477,0.02430335
4183.58319214,0.02435254
4185.51199951,0.02432610
4187.44080688,0.02430449
4189.36961426,0.02414621
4191.29842163,0.02404921
4193.22722900,0.02415416
4195.15603638,0.02394830
4197.08484375,0.02400002
4199.01365112,0.02389350
4200.94245850,0.02387078
4202.87126587,0.02384638
4204.80007324,0.02384604
4206.72888062,0.02381654
4208.65768799,0.02363953
4210.58649536,0.02372888
4212.51530273,0.02347744
4214.44411011,0.02354323
4216.37291748,0.02353455
4218.30172485,0.02345251
4220.23053223,0.02352456
4222.15933960,0.02327732
4224.08814697,0.02324641
4226.01695435,0.02314793
4227.94576172,0.02312000
4229.87456909,0.02303144
4231.80337646,0.02310400
4233.73218384,0.02308476
4235.66099121,0.02295040
4237.58979858,0.02303762
4239.51860596,0.02286180
4241.44741333,0.02286357
4243.37622070,0.02270789
4245.30502808,0.02275805
4247.23383545,0.02276151
4249.16264282,0.02264321
4251.09145020,0.02273261
4253.02025757,0.02248764
4254.94906494,0.02254363
4256.87787231,0.02248306
4258.80667969,0.02242113
4260.73548706,0.02234399
4262.66429443,0.02226440
4264.59310181,0.02230543
4266.52190918,0.02215789
4268.45071655,0.02223902
4270.37952393,0.02204291
4272.30833130,0.02208366
4274.23713867,0.02208090
4276.16594604,0.02193346
4278.09475342,0.02201364
4280.02356079,0.02187879
4281.95236816,0.02194897
4283.88117554,0.02178336
4285.80998291,0.02170889
4287.73879028,0.02177188
4289.66759766,0.02170973
4291.59640503,0.02164640
4293.52521240,0.02150302
4295.45401978,0.02151833
4297.38282715,0.02140908
4299.31163452,0.02145197
4301.24044189,0.02142039
4303.16924927,0.02126590
4305.09805664,0.02128613
4307.02686401,0.02125679
4308.95567139,0.02118624
4310.88447876,0.02119784
4312.81328613,0.02119880
4314.74209351,0.02102144
4316.67090088,0.02109654
4318.59970825,0.02100873
4320.52851562,0.02086653
4322.45732300,0.02087095
4324.38613037,0.02077984
4326.31493774,0.02085525
4328.24374512,0.02076778
4330.17255249,0.02076017
4332.10135986,0.02072166
4334.03016724,0.02069483
4335.95897461,0.02069921
4337.88778198,0.02051329
4339.81658936,0.02047598
4341.74539673,0.02044485
4343.67420410,0.02041380
4345.60301147,0.02037650
4347.53181885,0.02038764
4349.46062622,0.02020681
4351.38943359,0.02014482
4353.31824097,0.02018395
4355.24704834,0.02010378
4357.17585571,0.02019055
4359.10466309,0.01998869
4361.03347046,0.02002134
4362.96227783,0.02003074
4364.89108520,0.01986625
4366.81989258,0.01983308
4368.74869995,0.01976497
4370.67750732,0.01986248
4372.60631470,0.01970346
4374.53512207,0.01971051
4376.46392944,0.01964306
4378.39273682,0.01956208
4380.32154419,0.01968495
4382.25035156,0.01951480
4384.17915894,0.01950718
4386.10796631,0.01947514
4388.03677368,0.01948220
4389.96558105,0.01940447
4391.89438843,0.01934695
4393.82319580,0.01938925
4395.75200317,0.01918522
4397.68081055,0.01913718
4399.60961792,0.01913630
4401.53842529,0.01913203
4403.46723267,0.01907023
4405.39604004,0.01903718
4407.32484741,0.01901508
4409.25365478,0.01896998
4411.18246216,0.01893167
4413.11126953,0.01886155
4415.04007690,0.01891097
4416.96888428,0.01875889
4418.89769165,0.01871309
4420.82649902,0.01873687
4422.75530640,0.01871943
4424.68411377,0.01870032
4426.61292114,0.01854981
4428.54172852,0.01855179
4430.47053589,0.01848409
4432.39934326,0.01844699
4434.32815063,0.01841355
4436.25695801,0.01838822
4438.18576538,0.01835709
4440.11457275,0.01824106
4442.04338013,0.01818701
4443.97218750,0.01815852
4445.90099487,0.01821367
4447.82980225,0.01806280
4449.75860962,0.01805048
4451.68741699,0.01810326
4453.61622437,0.01805648
4455.54503174,0.01805069
4457.47383911,0.01787582
4459.40264648,0.01787572
4461.33145386,0.01785471
4463.26026123,0.01784495
4465.18906860,0.01779137
4467.11787598,0.01766410
4469.04668335,0.01769243
4470.97549072,0.01770608
4472.90429810,0.01770896
4474.83310547,0.01754690
4476.76191284,0.01749824
4478.69072021,0.01744722
4480.61952759,0.01734566
4482.54833496,0.01738095
4484.47714233,0.01738672
4486.40594971,0.01735541
4488.33475708,0.01724050
4490.26356445,0.01725498
4492.19237183,0.01720737
4494.12117920,0.01712578
4496.04998657,0.01712081
4497.97879395,0.01711725
4499.90760132,0.01707168
4501.83640869,0.01696580
4503.76521606,0.01698573
4505.69402344,0.01693496
4507.62283081,0.01694059
4509.55163818,0.01684416
4511.48044556,0.01675814
4513.40925293,0.01679141
4515.33806030,0.01670923
4517.26686768,0.01672541
4519.19567505,0.01660157
4521.12448242,0.01658157
4523.05328979,0.01657230
4524.98209717,0.01645903
4526.91090454,0.01649764
4528.83971191,0.01649371
4530.76851929,0.01649656
4532.69732666,0.01640487
4534.62613403,0.01637370
4536.55494141,0.01638472
4538.48374878,0.01627568
4540.41255615,0.01628228
4542.34136353,0.01635800
4544.27017090,0.01616797
4546.19897827,0.01609584
4548.12778564,0.01627251
4550.05659302,0.01612750
4551.98540039,0.01603497
4553.91420776,0.01601656
4555.84301514,0.01596707
4557.77182251,0.01588140
4559.70062988,0.01584508
4561.62943726,0.01595465
4563.55824463,0.01580855
4565.48705200,0.01583596
4567.41585937,0.01578755
4569.34466675,0.01563985
4571.27347412,0.01568847
4573.20228149,0.01564809
4575.13108887,0.01563851
4577.05989624,0.01555082
4578.98870361,0.01555860
4580.91751099,0.01550424
4582.84631836,0.01546552
4584.77512573,0.01547224
4586.70393311,0.01535561
4588.63274048,0.01539157
4590.56154785,0.01528588
4592.49035522,0.01520482
4594.41916260,0.01524743
4596.34796997,0.01518561
4598.27677734,0.01508441
4600.20558472,0.01513496
4602.13439209,0.01518145
4604.06319946,0.01509734
4605.99200684,0.01509020
4607.92081421,0.01497990
4609.84962158,0.01494907
4611.77842895,0.01491157
4613.70723633,0.01487820
4615.63604370,0.01489772
4617.56485107,0.01477214
4619.49365845,0.01474865
4621.42246582,0.01472471
4623.35127319,0.01469369
4625.28008057,0.01461697
4627.20888794,0.01458441
4629.13769531,0.01456622
4631.06650269,0.01453824
4632.99531006,0.01457067
4634.92411743,0.01446243
4636.85292480,0.01444568
4638.78173218,0.01446844
4640.71053955,0.01449377
4642.63934692,0.01440375
4644.56815430,0.01434229
4646.49696167,0.01438920
4648.42576904,0.01429093
4650.35457642,0.01429703
4652.28338379,0.01420501
4654.21219116,0.01411804
4656.14099853,0.01410342
4658.06980591,0.01409823
4659.99861328,0.01408990
4661.92742065,0.01402522
4663.85622803,0.01404677
4665.78503540,0.01398018
4667.71384277,0.01403662
4669.64265015,0.01399195
4671.57145752,0.01392655
4673.50026489,0.01399182
4675.42907227,0.01386276
4677.35787964,0.01382039
4679.28668701,0.01378204
4681.21549438,0.01371196
4683.14430176,0.01365898
4685.07310913,0.01365380
4687.00191650,0.01367106
4688.93072388,0.01364823
4690.85953125,0.01356079
4692.78833862,0.01350282
4694.71714600,0.01359986
4696.64595337,0.01353752
4698.57476074,0.01354014
4700.50356812,0.01347885
4702.43237549,0.01336838
4704.36118286,0.01341521
4706.28999023,0.01333827
4708.21879761,0.01329013
4710.14760498,0.01322611
4712.07641235,0.01321210
4714.00521973,0.01318025
4715.93402710,0.01323763
4717.86283447,0.01324384
4719.79164185,0.01307655
4721.72044922,0.01313338
4723.64925659,0.01309951
4725.57806396,0.01304459
4727.50687134,0.01299038
4729.43567871,0.01298171
4731.36448608,0.01305245
4733.29329346,0.01299454
4735.22210083,0.01292481
4737.15090820,0.01284770
4739.07971558,0.01287929
4741.00852295,0.01281446
4742.93733032,0.01273704
4744.86613770,0.01273211
4746.79494507,0.01279000
4748.72375244,0.01280041
4750.65255981,0.01269716
4752.58136719,0.01275251
4754.51017456,0.01260734
4756.43898193,0.01253848
4758.36778931,0.01251135
4760.29659668,0.01243900
4762.22540405,0.01253865
4764.15421143,0.01244012
4766.08301880,0.01242896
4768.01182617,0.01246035
4769.94063354,0.01243434
4771.86944092,0.01236154
4773.79824829,0.01229185
4775.72705566,0.01228892
4777.65586304,0.01227313
4779.58467041,0.01234029
4781.51347778,0.01221297
4783.44228516,0.01215013
4785.37109253,0.01218692
4787.29989990,0.01213815
4789.22870728,0.01212986
4791.15751465,0.01208359
4793.08632202,0.01205755
4795.01512939,0.01208591
4796.94393677,0.01208353
4798.87274414,0.01192487
4800.80155151,0.01190870
4802.73035889,0.01192793
4804.65916626,0.01188559
4806.58797363,0.01186232
4808.51678101,0.01179286
4810.44558838,0.01190799
4812.37439575,0.01183071
4814.30320312,0.01172889
4816.23201050,0.01175932
4818.16081787,0.01168319
4820.08962524,0.01168122
4822.01843262,0.01168919
4823.94723999,0.01168172
4825.87604736,0.01159808
4827.80485474,0.01154037
4829.73366211,0.01146049
4831.66246948,0.01144621
4833.59127686,0.01148590
4835.52008423,0.01138085
4837.44889160,0.01143815
4839.37769897,0.01146433
4841.30650635,0.01136276
4843.23531372,0.01133470
4845.16412109,0.01134974
4847.09292847,0.01128547
4849.02173584,0.01123219
4850.95054321,0.01128826
4852.87935059,0.01121687
4854.80815796,0.01119162
4856.73696533,0.01117651
4858.66577270,0.01105363
4860.59458008,0.01103351
4862.52338745,0.01104990
4864.45219482,0.01106518
4866.38100220,0.01101733
4868.30980957,0.01093432
4870.23861694,0.01099480
4872.16742432,0.01095094
4874.09623169,0.01084827
4876.02503906,0.01092062
4877.95384644,0.01086991
4879.88265381,0.01081997
4881.81146118,0.01082848
4883.74026855,0.01081028
4885.66907593,0.01073215
4887.59788330,0.01064641
4889.52669067,0.01075938
4891.45549805,0.01071425
4893.38430542,0.01067517
4895.31311279,0.01057272
4897.24192017,0.01049933
4899.17072754,0.01066968
4901.09953491,0.01054226
4903.02834228,0.01047050
4904.95714966,0.01047854
4906.88595703,0.01049644
4908.81476440,0.01047614
4910.74357178,0.01041912
4912.67237915,0.01050929
4914.60118652,0.01038657
4916.52999390,0.01035146
4918.45880127,0.01035217
4920.38760864,0.01031101
4922.31641602,0.01024162
4924.24522339,0.01019335
4926.17403076,0.01028913
4928.10283813,0.01021035
4930.03164551,0.01016979
4931.96045288,0.01015804
4933.88926025,0.01018281
4935.81806763,0.01008894
4937.74687500,0.01008169
4939.67568237,0.01015877
4941.60448975,0.00998802
4943.53329712,0.01006855
4945.46210449,0.01000022
4947.39091187,0.00994040
4949.31971924,0.00998919
4951.24852661,0.00991540
4953.17733398,0.00993676
4955.10614136,0.00985410
4957.03494873,0.00985937
4958.96375610,0.00980991
4960.89256348,0.00986332
4962.82137085,0.00978652
4964.75017822,0.00965772
4966.67898560,0.00983197
4968.60779297,0.00967152
4970.53660034,0.00962777
4972.46540771,0.00969491
4974.39421509,0.00962656
4976.32302246,0.00964266
4978.25182983,0.00962926
4980.18063721,0.00960844
4982.10944458,0.00951755
4984.03825195,0.00951546
4985.96705933,0.00953825
4987.89586670,0.00950741
4989.82467407,0.00945639
4991.75348145,0.00941084
4993.68228882,0.00939652
4995.61109619,0.00939122
4997.53990356,0.00936512
4999.46871094,0.00931659
5001.39751831,0.00932004
5003.32632568,0.00923370
5005.25513306,0.00926121
5007.18394043,0.00926638
5009.11274780,0.00915695
5011.04155518,0.00918289
5012.97036255,0.00924507
5014.89916992,0.00926248
5016.82797729,0.00913152
5018.75678467,0.00914607
5020.68559204,0.00910918
5022.61439941,0.00899602
5024.54320679,0.00906914
5026.47201416,0.00899787
5028.40082153,0.00898259
5030.32962891,0.00903132
5032.25843628,0.00894561
5034.18724365,0.00888295
5036.11605103,0.00895593
5038.04485840,0.00894869
5039.97366577,0.00892432
5041.90247314,0.00894022
5043.83128052,0.00882647
5045.76008789,0.00884180
5047.68889526,0.00878678
5049.61770264,0.00871095
5051.54651001,0.00869557
5053.47531738,0.00867457
5055.40412476,0.00873717
5057.33293213,0.00866665
5059.26173950,0.00861950
5061.19054687,0.00859606
5063.11935425,0.00865379
5065.04816162,0.00866349
5066.97696899,0.00857151
5068.90577637,0.00858209
5070.83458374,0.00852273
5072.76339111,0.00851020
5074.69219849,0.00853657
5076.62100586,0.00854528
5078.54981323,0.00843464
5080.47862061,0.00837065
5082.40742798,0.00840526
5084.33623535,0.00839785
5086.26504272,0.00842688
5088.19385010,0.00828949
5090.12265747,0.00835607
5092.05146484,0.00839872
5093.98027222,0.00825911
5095.90907959,0.00830823
5097.83788696,0.00821964
5099.76669434,0.00821502
5101.69550171,0.00822919
5103.62430908,0.00812093
5105.55311645,0.00813633
5107.48192383,0.00815180
5109.41073120,0.00813837
5111.33953857,0.00810504
5113.26834595,0.00808926
5115.19715332,0.00807269
5117.12596069,0.00802297
5119.05476807,0.00801790
5120.98357544,0.00803165
5122.91238281,0.00801989
5124.84119019,0.00801719
5126.76999756,0.00795366
5128.69880493,0.00797057
5130.62761230,0.00798666
5132.55641968,0.00785713
5134.48522705,0.00787304
5136.41403442,0.00783006
5138.34284180,0.00784527
5140.27164917,0.00788048
5142.20045654,0.00772814
5144.12926392,0.00779013
5146.05807129,0.00776396
5147.98687866,0.00767468
5149.91568603,0.00771526
5151.84449341,0.00771372
5153.77330078,0.00774069
5155.70210815,0.00766674
5157.63091553,0.00759944
5159.55972290,0.00757709
5161.48853027,0.00758866
5163.41733765,0.00762726
5165.34614502,0.00750938
5167.27495239,0.00754781
5169.20375977,0.00761749
5171.13256714,0.00746045
5173.06137451,0.00749960
5174.99018188,0.00754192
5176.91898926,0.00748709
5178.84779663,0.00744832
5180.77660400,0.00735838
5182.70541138,0.00743718
5184.63421875,0.00736655
5186.56302612,0.00730486
5188.49183350,0.00740833
5190.42064087,0.00734405
5192.34944824,0.00732476
5194.27825562,0.00730996
5196.20706299,0.00727809
5198.13587036,0.00726718
5200.06467773,0.00730530
5201.99348511,0.00725406
5203.92229248,0.00715206
5205.85109985,0.00716057
5207.77990723,0.00704074
5209.70871460,0.00707470
5211.63752197,0.00716438
5213.56632935,0.00715310
5215.49513672,0.00713512
5217.42394409,0.00708964
5219.35275146,0.00710014
5221.28155884,0.00708764
5223.21036621,0.00711361
5225.13917358,0.00695828
5227.06798096,0.00695489
5228.99678833,0.00705041
5230.92559570,0.00692067
5232.85440308,0.00696208
5234.78321045,0.00693125
5236.71201782,0.00693817
5238.64082520,0.00692529
5240.56963257,0.00691727
5242.49843994,0.00696771
5244.42724731,0.00677031
5246.35605469,0.00677822
5248.28486206,0.00672493
5250.21366943,0.00669293
5252.14247681,0.00688803
5254.07128418,0.00672693
5256.00009155,0.00662547
5257.92889893,0.00677598
5259.85770630,0.00675728
5261.78651367,0.00670894
5263.71532104,0.00670727
5265.64412842,0.00664116
5267.57293579,0.00664439
5269.50174316,0.00662901
5271.43055054,0.00662001
5273.35935791,0.00670417
5275.28816528,0.00671674
5277.21697266,0.00665449
5279.14578003,0.00653268
5281.07458740,0.00659466
5283.00339478,0.00664041
5284.93220215,0.00648684
5286.86100952,0.00652130
5288.78981689,0.00648885
5290.71862427,0.00639191
5292.64743164,0.00646492
5294.57623901,0.00646690
5296.50504639,0.00645101
5298.43385376,0.00646637
5300.36266113,0.00644435
5302.29146851,0.00642331
5304.22027588,0.00643744
5306.14908325,0.00640701
5308.07789062,0.00634019
5310.00669800,0.00641144
5311.93550537,0.00638979
5313.86431274,0.00630910
5315.79312012,0.00630495
5317.72192749,0.00625498
5319.65073486,0.00629152
5321.57954224,0.00623728
5323.50834961,0.00626806
5325.43715698,0.00626481
5327.36596436,0.00606069
5329.29477173,0.00619999
5331.22357910,0.00624663
5333.15238647,0.00609403
5335.08119385,0.00610695
5337.01000122,0.00602853
5338.93880859,0.00584948
5340.86761597,0.00599346
5342.79642334,0.00612417
5344.72523071,0.00588797
5346.65403809,0.00597617
5348.58284546,0.00599942
5350.51165283,0.00597373
5352.44046020,0.00599723
5354.36926758,0.00577434
5356.29807495,0.00596300
5358.22688232,0.00601001
5360.15568970,0.00595010
5362.08449707,0.00597220
5364.01330444,0.00586788
5365.94211182,0.00592531
5367.87091919,0.00591314
5369.79972656,0.00592431
5371.72853394,0.00580781
5373.65734131,0.00580639
5375.58614868,0.00576705
5377.51495605,0.00566873
5379.44376343,0.00583430
5381.37257080,0.00575584
5383.30137817,0.00581730
5385.23018555,0.00577002
5387.15899292,0.00565206
5389.08780029,0.00578471
5391.01660767,0.00572677
5392.94541504,0.00560832
5394.87422241,0.00556054
5396.80302978,0.00570302
5398.73183716,0.00559242
5400.66064453,0.00552539
5402.58945190,0.00568814
5404.51825928,0.00558749
5406.44706665,0.00560253
5408.37587402,0.00558470
5410.30468140,0.00554921
5412.23348877,0.00547714
5414.16229614,0.00533944
5416.09110352,0.00550498
5418.01991089,0.00555744
5419.94871826,0.00545653
5421.87752563,0.00553323
5423.80633301,0.00554566
5425.73514038,0.00547696
5427.66394775,0.00539424
5429.59275513,0.00528823
5431.52156250,0.00543299
5433.45036987,0.00538358
5435.37917725,0.00518463
5437.30798462,0.00541927
5439.23679199,0.00549042
5441.16559936,0.00528626
5443.09440674,0.00531975
5445.02321411,0.00534335
5446.95202148,0.00515526
5448.88082886,0.00518571
5450.80963623,0.00522998
5452.73844360,0.00522592
5454.66725098,0.00533180
5456.59605835,0.00522410
5458.52486572,0.00522811
5460.45367310,0.00517850
5462.38248047,0.00514001
5464.31128784,0.00520625
5466.24009521,0.00512408
5468.16890259,0.00517678
5470.09770996,0.00509375
5472.02651733,0.00509581
5473.95532471,0.00512348
5475.88413208,0.00503711
5477.81293945,0.00510816
5479.74174683,0.00513282
5481.67055420,0.00512519
5483.59936157,0.00502564
5485.52816895,0.00502127
5487.45697632,0.00500817
5489.38578369,0.00503684
5491.31459106,0.00506601
5493.24339844,0.00491486
5495.17220581,0.00499449
5497.10101318,0.00497036
5499.02982056,0.00492516
5500.95862793,0.00494418
5502.88743530,0.00493900
5504.81624268,0.00501967
5506.74505005,0.00490054
5508.67385742,0.00489644
5510.60266479,0.00494643
5512.53147217,0.00488110
5514.46027954,0.00488954
5516.38908691,0.00488133
5518.31789429,0.00484898
5520.24670166,0.00485469
5522.17550903,0.00485667
5524.10431641,0.00482741
5526.03312378,0.00484590
5527.96193115,0.00483731
5529.89073853,0.00483715
5531.81954590,0.00478662
5533.74835327,0.00473994
5535.67716064,0.00477106
5537.60596802,0.00468802
5539.53477539,0.00468380
5541.46358276,0.00473650
5543.39239014,0.00470839
5545.32119751,0.00469804
5547.25000488,0.00471136
5549.17881226,0.00467751
5551.10761963,0.00464359
5553.03642700,0.00463413
5554.96523437,0.00461687
5556.89404175,0.00467005
5558.82284912,0.00463417
5560.75165649,0.00457800
5562.68046387,0.00457655
5564.60927124,0.00458697
5566.53807861,0.00457931
5568.46688599,0.00448299
5570.39569336,0.00455837
5572.32450073,0.00459953
5574.25330811,0.00450181
5576.18211548,0.00453006
5578.11092285,0.00452203
5580.03973022,0.00445124
5581.96853760,0.00451275
5583.89734497,0.00454374
5585.82615234,0.00445112
5587.75495972,0.00447878
5589.68376709,0.00445419
5591.61257446,0.00437398
5593.54138184,0.00439318
5595.47018921,0.00442099
5597.39899658,0.00442867
5599.32780395,0.00438521
5601.25661133,0.00439954
5603.18541870,0.00436840
5605.11422607,0.00437135
5607.04303345,0.00442767
5608.97184082,0.00434984
5610.90064819,0.00431875
5612.82945557,0.00432733
5614.75826294,0.00429594
5616.68707031,0.00429784
5618.61587769,0.00432658
5620.54468506,0.00424735
5622.47349243,0.00423115
5624.40229980,0.00425540
5626.33110718,0.00419338
5628.25991455,0.00420088
5630.18872192,0.00413385
5632.11752930,0.00424331
5634.04633667,0.00429527
5635.97514404,0.00408823
5637.90395142,0.00415691
5639.83275879,0.00417961
5641.76156616,0.00411770
5643.69037353,0.00418174
5645.61918091,0.00417238
5647.54798828,0.00414647
5649.47679565,0.00412152
5651.40560303,0.00410646
5653.33441040,0.00408407
5655.26321777,0.00405852
5657.19202515,0.00410990
5659.12083252,0.00410395
5661.04963989,0.00402312
5662.97844727,0.00401789
5664.90725464,0.00401769
5666.83606201,0.00403352
5668.76486938,0.00402569
5670.69367676,0.00395657
5672.62248413,0.00398555
5674.55129150,0.00400763
5676.48009888,0.00396727
5678.40890625,0.00393537
5680.33771362,0.00392024
5682.26652100,0.00393148
5684.19532837,0.00393858
5686.12413574,0.00389749
5688.05294311,0.00387931
5689.98175049,0.00390116
5691.91055786,0.00387504
5693.83936523,0.00389696
5695.76817261,0.00388039
5697.69697998,0.00386936
5699.62578735,0.00388682
5701.55459473,0.00379193
5703.48340210,0.00376601
5705.41220947,0.00374206
5707.34101685,0.00374409
5709.26982422,0.00382098
5711.19863159,0.00378641
5713.12743896,0.00371648
5715.05624634,0.00373321
5716.98505371,0.00376979
5718.91386108,0.00377964
5720.84266846,0.00378440
5722.77147583,0.00372296
5724.70028320,0.00368451
5726.62909058,0.00366806
5728.55789795,0.00368755
5730.48670532,0.00367820
5732.41551270,0.00362016
5734.34432007,0.00367281
5736.27312744,0.00364000
5738.20193481,0.00363935
5740.13074219,0.00362246
5742.05954956,0.00358291
5743.98835693,0.00362621
5745.91716431,0.00358084
5747.84597168,0.00360512
5749.77477905,0.00358284
5751.70358643,0.00361801
5753.63239380,0.00358037
5755.56120117,0.00349020
5757.49000854,0.00358742
5759.41881592,0.00352658
5761.34762329,0.00359197
5763.27643066,0.00357676
5765.20523804,0.00346804
5767.13404541,0.00358298
5769.06285278,0.00355818
5770.99166016,0.00355700
5772.92046753,0.00354784
5774.84927490,0.00346523
5776.77808228,0.00345571
5778.70688965,0.00347663
5780.63569702,0.00345893
5782.56450439,0.00340235
5784.49331177,0.00336063
5786.42211914,0.00330527
5788.35092651,0.00337435
5790.27973389,0.00338771
5792.20854126,0.00334616
5794.13734863,0.00339189
5796.06615601,0.00334702
5797.99496338,0.00337131
5799.92377075,0.00339445
5801.85257812,0.00330838
5803.78138550,0.00331393
5805.71019287,0.00333134
5807.63900024,0.00330921
5809.56780762,0.00329553
5811.49661499,0.00325413
5813.42542236,0.00324898
5815.35422974,0.00324151
5817.28303711,0.00327745
5819.21184448,0.00332514
5821.14065186,0.00323055
5823.06945923,0.00317323
5824.99826660,0.00314724
5826.92707397,0.00320839
5828.85588135,0.00324170
5830.78468872,0.00315194
5832.71349609,0.00319634
5834.64230347,0.00312242
5836.57111084,0.00307485
5838.49991821,0.00316290
5840.42872559,0.00314434
5842.35753296,0.00309688
5844.28634033,0.00305883
5846.21514770,0.00315171
5848.14395508,0.00314225
5850.07276245,0.00306450
5852.00156982,0.00313168
5853.93037720,0.00310183
5855.85918457,0.00308859
5857.78799194,0.00310554
5859.71679932,0.00306511
5861.64560669,0.00310401
5863.57441406,0.00307445
5865.50322144,0.00301549
5867.43202881,0.00305896
5869.36083618,0.00300101
5871.28964355,0.00298267
5873.21845093,0.00298709
5875.14725830,0.00293534
5877.07606567,0.00299558
5879.00487305,0.00294419
5880.93368042,0.00293937
5882.86248779,0.00295843
5884.79129517,0.00290174
5886.72010254,0.00297564
5888.64890991,0.00292319
5890.57771728,0.00290347
5892.50652466,0.00292785
5894.43533203,0.00288705
5896.36413940,0.00291534
5898.29294678,0.00289668
5900.22175415,0.00295850
5902.15056152,0.00287623
5904.07936890,0.00277224
5906.00817627,0.00292471
5907.93698364,0.00286025
5909.86579102,0.00280017
5911.79459839,0.00286928
5913.72340576,0.00283829
5915.65221313,0.00287564
5917.58102051,0.00281804
5919.50982788,0.00278744
5921.43863525,0.00283386
5923.36744263,0.00275667
5925.29625000,0.00278742
5927.22505737,0.00283146
5929.15386475,0.00276337
5931.08267212,0.00275356
5933.01147949,0.00276132
5934.94028686,0.00268332
5936.86909424,0.00273867
5938.79790161,0.00282395
5940.72670898,0.00270802
5942.65551636,0.00272066
5944.58432373,0.00272506
5946.51313110,0.00268840
5948.44193848,0.00269406
5950.37074585,0.00268439
5952.29955322,0.00278832
5954.22836060,0.00269273
5956.15716797,0.00265747
5958.08597534,0.00268910
5960.01478271,0.00262247
5961.94359009,0.00270820
5963.87239746,0.00263765
5965.80120483,0.00263337
5967.73001221,0.00267115
5969.65881958,0.00262565
5971.58762695,0.00268434
5973.51643433,0.00264095
5975.44524170,0.00264305
5977.37404907,0.00264433
5979.30285645,0.00259402
5981.23166382,0.00254290
5983.16047119,0.00253871
5985.08927856,0.00263843
5987.01808594,0.00263071
5988.94689331,0.00259153
5990.87570068,0.00254151
5992.80450806,0.00258001
5994.73331543,0.00261952
5996.66212280,0.00252157
5998.59093018,0.00253342
6000.51973755,0.00252101
