399.26312622,0.00039053
401.19193359,0.00068085
403.12074097,0.00038892
405.04954834,0.00086529
406.97835571,0.00064429
408.90716309,0.00025730
410.83597046,0.00041295
412.76477783,0.00031512
414.69358521,0.00094657
416.62239258,0.00077589
418.55119995,0.00003410
420.48000732,0.00049192
422.40881470,0.00093506
424.33762207,0.00057738
426.26642944,0.00044090
428.19523682,0.00072401
430.12404419,0.00063977
432.05285156,0.00023610
433.98165894,0.00058141
435.91046631,0.00105543
437.83927368,0.00091880
439.76808105,0.00094330
441.69688843,0.00034576
443.62569580,0.00052674
445.55450317,0.00116243
447.48331055,0.00049692
449.41211792,0.00072857
451.34092529,0.00074667
453.26973267,0.00035208
455.19854004,0.00070866
457.12734741,0.00051746
459.05615479,0.00042660
460.98496216,0.00040236
462.91376953,0.00026329
464.84257690,0.00036044
466.77138428,0.00030576
468.70019165,0.00035174
470.62899902,0.00034612
472.55780640,0.00022139
474.48661377,0.00020375
476.41542114,0.00021625
478.34422852,0.00011252
480.27303589,-0.00008103
482.20184326,-0.00011044
484.13065063,-0.00016693
486.05945801,0.00000505
487.98826538,0.00041969
489.91707275,0.00020805
491.84588013,0.00014491
493.77468750,0.00056456
495.70349487,0.00062253
497.63230225,0.00001901
499.56110962,-0.00032074
501.48991699,0.00018656
503.41872437,0.00017256
505.34753174,0.00025922
507.27633911,0.00030809
509.20514648,0.00003486
511.13395386,0.00038760
513.06276123,-0.00001258
514.99156860,-0.00028157
516.92037598,0.00016362
518.84918335,0.00024621
520.77799072,0.00012678
522.70679810,0.00004187
524.63560547,0.00009797
526.56441284,0.00001890
528.49322021,0.00006801
530.42202759,0.00013728
532.35083496,0.00010094
534.27964233,0.00043741
536.20844971,0.00023272
538.13725708,-0.00028527
540.06606445,0.00003707
541.99487183,0.00018222
543.92367920,0.00013606
545.85248657,0.00000627
547.78129395,0.00002073
549.71010132,0.00021622
551.63890869,-0.00028714
553.56771606,0.00016671
555.49652344,0.00037974
557.42533081,-0.00038688
559.35413818,0.00003085
561.28294556,0.00024191
563.21175293,0.00030847
565.14056030,0.00045386
567.06936768,0.00010376
568.99817505,0.00015569
570.92698242,0.00018025
572.85578979,-0.00018409
574.78459717,-0.00007496
576.71340454,0.00034483
578.64221191,0.00018471
580.57101929,-0.00002736
582.49982666,0.00025903
584.42863403,0.00016442
586.35744141,-0.00002656
588.28624878,0.00022461
590.21505615,0.00015619
592.14386353,-0.00017160
594.07267090,-0.00009069
596.00147827,0.00023420
597.93028564,0.00014458
599.85909302,0.00008194
601.78790039,-0.00001716
603.71670776,-0.00001847
605.64551514,0.00026781
607.57432251,0.00021775
609.50312988,0.00015411
611.43193726,-0.00000166
613.36074463,-0.00000263
615.28955200,0.00034364
617.21835938,0.00013964
619.14716675,0.00002575
621.07597412,-0.00005992
623.00478149,0.00011247
624.93358887,-0.00010545
626.86239624,0.00005295
628.79120361,0.00037738
630.72001099,0.00016515
632.64881836,0.00038841
634.57762573,0.00029224
636.50643311,0.00072952
638.43524048,0.00082401
640.36404785,0.00019655
642.29285522,0.00063869
644.22166260,0.00086028
646.15046997,0.00102040
648.07927734,0.00108347
650.00808472,0.00086891
651.93689209,0.00110246
653.86569946,0.00124980
655.79450684,0.00136362
657.72331421,0.00135990
659.65212158,0.00162840
661.58092896,0.00166998
663.50973633,0.00149129
665.43854370,0.00171998
667.36735107,0.00149399
669.29615845,0.00154480
671.22496582,0.00169670
673.15377319,0.00166712
675.08258057,0.00210949
677.01138794,0.00237370
678.94019531,0.00232917
680.86900269,0.00187959
682.79781006,0.00180313
684.72661743,0.00232705
686.65542480,0.00229552
688.58423218,0.00183071
690.51303955,0.00196709
692.44184692,0.00251828
694.37065430,0.00235308
696.29946167,0.00260138
698.22826904,0.00314600
700.15707642,0.00316442
702.08588379,0.00319618
704.01469116,0.00282011
705.94349854,0.00267278
707.87230591,0.00234803
709.80111328,0.00193028
711.72992065,0.00148012
713.65872803,0.00050470
715.58753540,0.00037178
717.51634277,0.00018182
719.44515015,0.00004086
721.37395752,0.00017850
723.30276489,0.00002728
725.23157227,0.00035424
727.16037964,0.00022099
729.08918701,0.00009592
731.01799438,0.00016217
732.94680176,-0.00014238
734.87560913,0.00011853
736.80441650,-0.00024857
738.73322388,-0.00021913
740.66203125,0.00043306
742.59083862,0.00015711
744.51964600,0.00033526
746.44845337,0.00032626
748.37726074,0.00007203
750.30606812,0.00029225
752.23487549,0.00053833
754.16368286,0.00016881
756.09249023,0.00012193
758.02129761,0.00020233
759.95010498,-0.00010076
761.87891235,0.00020549
763.80771973,0.00022056
765.73652710,0.00000547
767.66533447,0.00031516
769.59414185,0.00033971
771.52294922,0.00010817
773.45175659,0.00050162
775.38056396,0.00023696
777.30937134,0.00014665
779.23817871,0.00007861
781.16698608,-0.00001743
783.09579346,0.00015796
785.02460083,0.00007457
786.95340820,0.00034214
788.88221558,0.00018448
790.81102295,0.00026721
792.73983032,0.00028303
794.66863770,0.00029024
796.59744507,0.00043741
798.52625244,0.00005631
800.45505981,0.00055672
802.38386719,0.00051509
804.31267456,0.00050496
806.24148193,0.00065028
808.17028931,0.00027717
810.09909668,0.00058982
812.02790405,0.00044072
813.95671143,0.00047957
815.88551880,0.00027109
817.81432617,0.00016426
819.74313354,0.00052169
821.67194092,0.00037784
823.60074829,0.00062441
825.52955566,0.00029699
827.45836304,0.00027914
829.38717041,0.00075867
831.31597778,0.00077734
833.24478516,0.00082561
835.17359253,0.00072634
837.10239990,0.00082414
839.03120728,0.00094102
840.96001465,0.00098551
842.88882202,0.00066227
844.81762939,0.00072287
846.74643677,0.00094888
848.67524414,0.00055806
850.60405151,0.00061990
852.53285889,0.00056663
854.46166626,0.00048443
856.39047363,0.00076127
858.31928101,0.00075489
860.24808838,0.00021150
862.17689575,0.00025858
864.10570313,0.00053849
866.03451050,0.00009477
867.96331787,0.00028978
869.89212524,0.00035705
871.82093262,0.00034753
873.74973999,0.00023339
875.67854736,0.00009147
877.60735474,0.00048928
879.53616211,0.00006666
881.46496948,0.00023932
883.39377686,0.00040848
885.32258423,0.00009155
887.25139160,0.00050512
889.18019897,0.00045078
891.10900635,0.00033242
893.03781372,0.00028879
894.96662109,0.00030747
896.89542847,0.00043254
898.82423584,0.00018807
900.75304321,0.00037985
902.68185059,0.00058336
904.61065796,0.00037376
906.53946533,0.00055291
908.46827271,0.00053510
910.39708008,0.00033394
912.32588745,0.00062564
914.25469482,0.00058847
916.18350220,0.00049376
918.11230957,0.00065497
920.04111694,0.00082774
921.96992432,0.00087323
923.89873169,0.00073248
925.82753906,0.00096435
927.75634644,0.00083987
929.68515381,0.00069617
931.61396118,0.00094439
933.54276855,0.00100162
935.47157593,0.00117939
937.40038330,0.00121322
939.32919067,0.00134715
941.25799805,0.00129064
943.18680542,0.00118526
945.11561279,0.00156771
947.04442017,0.00130670
948.97322754,0.00088280
950.90203491,0.00129523
952.83084229,0.00160049
954.75964966,0.00121556
956.68845703,0.00110849
958.61726440,0.00139411
960.54607178,0.00119574
962.47487915,0.00097030
964.40368652,0.00126103
966.33249390,0.00130859
968.26130127,0.00115182
970.19010864,0.00131214
972.11891602,0.00142267
974.04772339,0.00164524
975.97653076,0.00175595
977.90533813,0.00175696
979.83414551,0.00193082
981.76295288,0.00192015
983.69176025,0.00214441
985.62056763,0.00250948
987.54937500,0.00286618
989.47818237,0.00301680
991.40698975,0.00310931
993.33579712,0.00357296
995.26460449,0.00393795
997.19341187,0.00431753
999.12221924,0.00443134
1001.05102661,0.00476449
1002.97983398,0.00526076
1004.90864136,0.00528308
1006.83744873,0.00568819
1008.76625610,0.00598427
1010.69506348,0.00628079
1012.62387085,0.00691037
1014.55267822,0.00723926
1016.48148560,0.00745763
1018.41029297,0.00775334
1020.33910034,0.00799901
1022.26790771,0.00842431
1024.19671509,0.00883319
1026.12552246,0.00873294
1028.05432983,0.00928787
1029.98313721,0.00969388
1031.91194458,0.00962182
1033.84075195,0.01011984
1035.76955933,0.00996775
1037.69836670,0.01008679
1039.62717407,0.01023556
1041.55598145,0.01003937
1043.48478882,0.01023216
1045.41359619,0.00995693
1047.34240356,0.00994080
1049.27121094,0.00977359
1051.20001831,0.00940548
1053.12882568,0.00910695
1055.05763306,0.00880021
1056.98644043,0.00887374
1058.91524780,0.00856214
1060.84405518,0.00840624
1062.77286255,0.00814493
1064.70166992,0.00778629
1066.63047729,0.00768149
1068.55928467,0.00738961
1070.48809204,0.00689561
1072.41689941,0.00616184
1074.34570679,0.00625373
1076.27451416,0.00611346
1078.20332153,0.00555444
1080.13212891,0.00540519
1082.06093628,0.00516084
1083.98974365,0.00528853
1085.91855103,0.00483879
1087.84735840,0.00436975
1089.77616577,0.00425107
1091.70497314,0.00407314
1093.63378052,0.00429447
1095.56258789,0.00401112
1097.49139526,0.00383990
1099.42020264,0.00355614
1101.34901001,0.00333767
1103.27781738,0.00369905
1105.20662476,0.00343772
1107.13543213,0.00325373
1109.06423950,0.00316957
1110.99304687,0.00308012
1112.92185425,0.00323484
1114.85066162,0.00320473
1116.77946899,0.00315591
1118.70827637,0.00312450
1120.63708374,0.00314045
1122.56589111,0.00304103
1124.49469849,0.00316563
1126.42350586,0.00335604
1128.35231323,0.00334621
1130.28112061,0.00344558
1132.20992798,0.00355881
1134.13873535,0.00358688
1136.06754272,0.00351025
1137.99635010,0.00404041
1139.92515747,0.00426247
1141.85396484,0.00416722
1143.78277222,0.00470861
1145.71157959,0.00472247
1147.64038696,0.00525523
1149.56919434,0.00571727
1151.49800171,0.00540991
1153.42680908,0.00601609
1155.35561646,0.00615591
1157.28442383,0.00627123
1159.21323120,0.00703761
1161.14203857,0.00713908
1163.07084595,0.00728568
1164.99965332,0.00750060
1166.92846069,0.00758183
1168.85726807,0.00788249
1170.78607544,0.00820780
1172.71488281,0.00851727
1174.64369019,0.00884332
1176.57249756,0.00926965
1178.50130493,0.00966710
1180.43011230,0.00993071
1182.35891968,0.01020843
1184.28772705,0.01068322
1186.21653442,0.01123264
1188.14534180,0.01176066
1190.07414917,0.01219802
1192.00295654,0.01256365
1193.93176392,0.01340567
1195.86057129,0.01424352
1197.78937866,0.01459601
1199.71818604,0.01509712
1201.64699341,0.01568729
1203.57580078,0.01617355
1205.50460815,0.01692403
1207.43341553,0.01766674
1209.36222290,0.01807009
1211.29103027,0.01869487
1213.21983765,0.01928009
1215.14864502,0.01971759
1217.07745239,0.02019403
1219.00625977,0.02027123
1220.93506714,0.02068727
1222.86387451,0.02093217
1224.79268188,0.02087374
1226.72148926,0.02144014
1228.65029663,0.02150552
1230.57910400,0.02139233
1232.50791138,0.02148869
1234.43671875,0.02140428
1236.36552612,0.02148690
1238.29433350,0.02136306
1240.22314087,0.02130727
1242.15194824,0.02122357
1244.08075562,0.02101913
1246.00956299,0.02106493
1247.93837036,0.02092177
1249.86717773,0.02066137
1251.79598511,0.02056407
1253.72479248,0.02057630
1255.65359985,0.02017484
1257.58240723,0.01954511
1259.51121460,0.01943286
1261.44002197,0.01930736
1263.36882935,0.01889330
1265.29763672,0.01859126
1267.22644409,0.01849797
1269.15525146,0.01832347
1271.08405884,0.01799601
1273.01286621,0.01779621
1274.94167358,0.01743973
1276.87048096,0.01697293
1278.79928833,0.01674619
1280.72809570,0.01650563
1282.65690308,0.01620342
1284.58571045,0.01593395
1286.51451782,0.01557462
1288.44332520,0.01514177
1290.37213257,0.01488309
1292.30093994,0.01493798
1294.22974731,0.01484935
1296.15855469,0.01457028
1298.08736206,0.01455047
1300.01616943,0.01459856
1301.94497681,0.01470811
1303.87378418,0.01487871
1305.80259155,0.01499584
1307.73139893,0.01519309
1309.66020630,0.01542826
1311.58901367,0.01569380
1313.51782104,0.01580585
1315.44662842,0.01619060
1317.37543579,0.01683347
1319.30424316,0.01709745
1321.23305054,0.01745572
1323.16185791,0.01796356
1325.09066528,0.01852587
1327.01947266,0.01916640
1328.94828003,0.01964159
1330.87708740,0.02001818
1332.80589478,0.02030908
1334.73470215,0.02077953
1336.66350952,0.02115094
1338.59231689,0.02101539
1340.52112427,0.02122926
1342.44993164,0.02194420
1344.37873901,0.02205530
1346.30754639,0.02195454
1348.23635376,0.02194929
1350.16516113,0.02179752
1352.09396851,0.02194644
1354.02277588,0.02163017
1355.95158325,0.02132783
1357.88039062,0.02138830
1359.80919800,0.02092252
1361.73800537,0.02010499
1363.66681274,0.01977378
1365.59562012,0.02039646
1367.52442749,0.02011469
1369.45323486,0.02001928
1371.38204224,0.02022308
1373.31084961,0.01911064
1375.23965698,0.01933594
1377.16846436,0.01979138
1379.09727173,0.01966157
1381.02607910,0.01974664
1382.95488647,0.01965903
1384.88369385,0.01966764
1386.81250122,0.01876096
1388.74130859,0.01905056
1390.67011597,0.02052172
1392.59892334,0.01989373
1394.52773071,0.01881161
1396.45653809,0.01971023
1398.38534546,0.01969457
1400.31415283,0.01947497
1402.24296021,0.02082107
1404.17176758,0.01991901
1406.10057495,0.01995425
1408.02938232,0.02067954
1409.95818970,0.02002489
1411.88699707,0.02030406
1413.81580444,0.01979313
1415.74461182,0.02010137
1417.67341919,0.01819654
1419.60222656,0.01638524
1421.53103394,0.01857967
1423.45984131,0.01828275
1425.38864868,0.01764654
1427.31745605,0.01779395
1429.24626343,0.01665514
1431.17507080,0.01591806
1433.10387817,0.01626791
1435.03268555,0.01490770
1436.96149292,0.01267239
1438.89030029,0.01439540
1440.81910767,0.01458726
1442.74791504,0.01362991
1444.67672241,0.01424779
1446.60552979,0.01321317
1448.53433716,0.01324101
1450.46314453,0.01349883
1452.39195190,0.01409166
1454.32075928,0.01452412
1456.24956665,0.01210107
1458.17837402,0.01253484
1460.10718140,0.01628304
1462.03598877,0.01733486
1463.96479614,0.01717269
1465.89360352,0.01803756
1467.82241089,0.02048058
1469.75121826,0.02198930
1471.68002563,0.01960739
1473.60883301,0.02054607
1475.53764038,0.02356410
1477.46644775,0.02507834
1479.39525513,0.02736789
1481.32406250,0.02778316
1483.25286987,0.02955376
1485.18167725,0.03060362
1487.11048462,0.02997085
1489.03929199,0.02982435
1490.96809937,0.03009701
1492.89690674,0.03474582
1494.82571411,0.03358980
1496.75452148,0.03039356
1498.68332886,0.03444406
1500.61213623,0.03532434
1502.54094360,0.03793148
1504.46975098,0.03553230
1506.39855835,0.02638352
1508.32736572,0.03230334
1510.25617310,0.03715450
1512.18498047,0.03623325
1514.11378784,0.03885039
1516.04259521,0.03502708
1517.97140259,0.03672823
1519.90020996,0.03505121
1521.82901733,0.03084798
1523.75782471,0.03755840
1525.68663208,0.03660242
1527.61543945,0.03659429
1529.54424683,0.04021272
1531.47305420,0.03857508
1533.40186157,0.03547109
1535.33066895,0.03769213
1537.25947632,0.03982391
1539.18828369,0.02869852
1541.11709106,0.03038683
1543.04589844,0.03593790
1544.97470581,0.03469615
1546.90351318,0.04073784
1548.83232056,0.03780493
1550.76112793,0.03895516
1552.68993530,0.03852903
1554.61874268,0.03527627
1556.54755005,0.03745422
1558.47635742,0.02679002
1560.40516479,0.02925416
1562.33397217,0.04044364
1564.26277954,0.03813988
1566.19158691,0.03931207
1568.12039429,0.03879639
1570.04920166,0.03452595
1571.97800903,0.03968143
1573.90681641,0.03991497
1575.83562378,0.03181068
1577.76443115,0.03590921
1579.69323853,0.04004239
1581.62204590,0.03844407
1583.55085327,0.03955700
1585.47966064,0.03878828
1587.40846802,0.03922654
1589.33727539,0.03874852
1591.26608276,0.03858519
1593.19489014,0.03874808
1595.12369751,0.03822615
1597.05250488,0.03879283
1598.98131226,0.03852772
1600.91011963,0.03856403
1602.83892700,0.03803044
1604.76773437,0.03843392
1606.69654175,0.03761332
1608.62534912,0.03783755
1610.55415649,0.03767715
1612.48296387,0.03795965
1614.41177124,0.03841580
1616.34057861,0.03167562
1618.26938599,0.03467587
1620.19819336,0.03976082
1622.12700073,0.03583998
1624.05580811,0.03624702
1625.98461548,0.03786621
1627.91342285,0.03814461
1629.84223022,0.03807154
1631.77103760,0.04093134
1633.69984497,0.03768189
1635.62865234,0.03165428
1637.55745972,0.03719024
1639.48626709,0.04079922
1641.41507446,0.04025722
1643.34388184,0.04141280
1645.27268921,0.03786530
1647.20149658,0.03385069
1649.13030396,0.04185171
1651.05911133,0.03973391
1652.98791870,0.02630622
1654.91672607,0.03574499
1656.84553345,0.04440544
1658.77434082,0.04283707
1660.70314819,0.04421815
1662.63195557,0.04043215
1664.56076294,0.04285890
1666.48957031,0.04608201
1668.41837769,0.04043582
1670.34718506,0.03954050
1672.27599243,0.04479758
1674.20479980,0.04145230
1676.13360718,0.04019460
1678.06241455,0.04596155
1679.99122192,0.04435891
1681.92002930,0.04389878
1683.84883667,0.03580268
1685.77764404,0.03598979
1687.70645142,0.04836414
1689.63525879,0.04216762
1691.56406616,0.04659688
1693.49287354,0.04682917
1695.42168091,0.03482092
1697.35048828,0.04273164
1699.27929565,0.03731004
1701.20810303,0.03407945
1703.13691040,0.04568143
1705.06571777,0.04171636
1706.99452515,0.04226195
1708.92333252,0.04556056
1710.85213989,0.04361708
1712.78094727,0.04435315
1714.70975464,0.04114132
1716.63856201,0.03696345
1718.56736938,0.03634300
1720.49617676,0.04293349
1722.42498413,0.04419366
1724.35379150,0.04094314
1726.28259888,0.04452717
1728.21140625,0.04104437
1730.14021362,0.04131919
1732.06902100,0.04000802
1733.99782837,0.03079200
1735.92663574,0.03815493
1737.85544312,0.04167420
1739.78425049,0.03720611
1741.71305786,0.04033058
1743.64186523,0.04069109
1745.57067261,0.04078539
1747.49947998,0.04105916
1749.42828735,0.03923949
1751.35709473,0.03763054
1753.28590210,0.04153760
1755.21470947,0.04313117
1757.14351685,0.03959384
1759.07232422,0.04330827
1761.00113159,0.04054987
1762.92993896,0.03943260
1764.85874634,0.04455833
1766.78755371,0.04017365
1768.71636108,0.04061408
1770.64516846,0.04010269
1772.57397583,0.03641213
1774.50278320,0.04016762
1776.43159058,0.04215927
1778.36039795,0.04177506
1780.28920532,0.04107986
1782.21801270,0.04152322
1784.14682007,0.04137558
1786.07562744,0.04049794
1788.00443481,0.04259190
1789.93324219,0.04130591
1791.86204956,0.03761109
1793.79085693,0.03914589
1795.71966431,0.04179706
1797.64847168,0.04122987
1799.57727905,0.04036822
1801.50608643,0.03985965
1803.43489380,0.04113747
1805.36370117,0.04179979
1807.29250854,0.04128990
1809.22131592,0.04137112
1811.15012329,0.04024451
1813.07893066,0.04141245
1815.00773804,0.04148488
1816.93654541,0.04103935
1818.86535278,0.04137871
1820.79416016,0.04102475
1822.72296753,0.04155967
1824.65177490,0.03890225
1826.58058228,0.04022539
1828.50938965,0.04042347
1830.43819702,0.03789345
1832.36700439,0.04106363
1834.29581177,0.04072890
1836.22461914,0.04047763
1838.15342651,0.04057487
1840.08223389,0.04074958
1842.01104126,0.04051617
1843.93984863,0.03633484
1845.86865601,0.03859667
1847.79746338,0.04041500
1849.72627075,0.03962495
1851.65507812,0.04069745
1853.58388550,0.03999427
1855.51269287,0.04032899
1857.44150024,0.03988297
1859.37030762,0.03976723
1861.29911499,0.03997662
1863.22792236,0.03946860
1865.15672974,0.03985307
1867.08553711,0.03844192
1869.01434448,0.03701306
1870.94315186,0.03849104
1872.87195923,0.03978077
1874.80076660,0.03910597
1876.72957397,0.03929146
1878.65838135,0.03901283
1880.58718872,0.03885949
1882.51599609,0.03914095
1884.44480347,0.03836189
1886.37361084,0.03908880
1888.30241821,0.03813670
1890.23122559,0.03740312
1892.16003296,0.03873301
1894.08884033,0.03798179
1896.01764771,0.03794687
1897.94645508,0.03834528
1899.87526245,0.03810283
1901.80406982,0.03810360
1903.73287720,0.03796023
1905.66168457,0.03827783
1907.59049194,0.03761727
1909.51929932,0.03726746
1911.44810669,0.03763500
1913.37691406,0.03759512
1915.30572144,0.03770294
1917.23452881,0.03630885
1919.16333618,0.03644292
1921.09214355,0.03758832
1923.02095093,0.03647035
1924.94975830,0.03709304
1926.87856567,0.03746637
1928.80737305,0.03689963
1930.73618042,0.03723115
1932.66498779,0.03684613
1934.59379517,0.03706912
1936.52260254,0.03687434
1938.45140991,0.03698280
1940.38021729,0.03696290
1942.30902466,0.03592828
1944.23783203,0.03647353
1946.16663940,0.03677150
1948.09544678,0.03650857
1950.02425415,0.03661377
1951.95306152,0.03667500
1953.88186890,0.03656350
1955.81067627,0.03633025
1957.73948364,0.03646202
1959.66829102,0.03629756
1961.59709839,0.03623985
1963.52590576,0.03638891
1965.45471313,0.03608186
1967.38352051,0.03574157
1969.31232788,0.03608547
1971.24113525,0.03618868
1973.16994263,0.03599908
1975.09875000,0.03623011
1977.02755737,0.03601626
1978.95636475,0.03601319
1980.88517212,0.03585613
1982.81397949,0.03575052
1984.74278687,0.03583481
1986.67159424,0.03538512
1988.60040161,0.03558519
1990.52920898,0.03522982
1992.45801636,0.03473661
1994.38682373,0.03531615
1996.31563110,0.03542837
1998.24443848,0.03506069
2000.17324585,0.03502518
2002.10205322,0.03505269
2004.03086060,0.03486375
2005.95966797,0.03477499
2007.88847534,0.03463756
2009.81728271,0.03464062
2011.74609009,0.03455441
2013.67489746,0.03444060
2015.60370483,0.03440963
2017.53251221,0.03404097
2019.46131958,0.03408261
2021.39012695,0.03409640
2023.31893433,0.03400875
2025.24774170,0.03409947
2027.17654907,0.03404064
2029.10535645,0.03392220
2031.03416382,0.03374337
2032.96297119,0.03372841
2034.89177856,0.03350574
2036.82058594,0.03338597
2038.74939331,0.03334932
2040.67820068,0.03317630
2042.60700806,0.03323580
2044.53581543,0.03317841
2046.46462280,0.03312426
2048.39343018,0.03303153
2050.32223755,0.03286559
2052.25104492,0.03281146
2054.17985229,0.03279962
2056.10865967,0.03268747
2058.03746704,0.03260885
2059.96627441,0.03258410
2061.89508179,0.03239342
2063.82388916,0.03228661
2065.75269653,0.03220903
2067.68150391,0.03227063
2069.61031128,0.03226474
2071.53911865,0.03218818
2073.46792603,0.03218976
2075.39673340,0.03193994
2077.32554077,0.03181842
2079.25434814,0.03172839
2081.18315552,0.03171109
2083.11196289,0.03176334
2085.04077026,0.03158292
2086.96957764,0.03151502
2088.89838501,0.03149704
2090.82719238,0.03137460
2092.75599976,0.03131888
2094.68480713,0.03127888
2096.61361450,0.03122517
2098.54242187,0.03118261
2100.47122925,0.03099357
2102.40003662,0.03107773
2104.32884399,0.03115480
2106.25765137,0.03097815
2108.18645874,0.03094273
2110.11526611,0.03080009
2112.04407349,0.03085828
2113.97288086,0.03077860
2115.90168823,0.03062929
2117.83049561,0.03067813
2119.75930298,0.03055398
2121.68811035,0.03059482
2123.61691772,0.03044666
2125.54572510,0.03029542
2127.47453247,0.03038651
2129.40333984,0.03030097
2131.33214722,0.03016486
2133.26095459,0.03024388
2135.18976196,0.03023143
2137.11856934,0.03008921
2139.04737671,0.03012104
2140.97618408,0.03004668
2142.90499146,0.03008294
2144.83379883,0.02990773
2146.76260620,0.02993536
2148.69141357,0.03006865
2150.62022095,0.02976120
2152.54902832,0.02996297
2154.47783569,0.02978422
2156.40664307,0.02966271
2158.33545044,0.02979117
2160.26425781,0.02951149
2162.19306519,0.02965523
2164.12187256,0.02958231
2166.05067993,0.02944594
2167.97948730,0.02945398
2169.90829468,0.02948619
2171.83710205,0.02945388
2173.76590942,0.02918230
2175.69471680,0.02919728
2177.62352417,0.02925006
2179.55233154,0.02921619
2181.48113892,0.02908552
2183.40994629,0.02909296
2185.33875366,0.02917447
2187.26756104,0.02905660
2189.19636841,0.02892471
2191.12517578,0.02893632
2193.05398315,0.02898388
2194.98279053,0.02880526
2196.91159790,0.02879920
2198.84040527,0.02873939
2200.76921265,0.02872856
2202.69802002,0.02873311
2204.62682739,0.02862430
2206.55563477,0.02874446
2208.48444214,0.02855269
2210.41324951,0.02852768
2212.34205688,0.02856155
2214.27086426,0.02835945
2216.19967163,0.02831685
2218.12847900,0.02828175
2220.05728638,0.02831617
2221.98609375,0.02825794
2223.91490112,0.02818111
2225.84370850,0.02816277
2227.77251587,0.02817021
2229.70132324,0.02800485
2231.63013062,0.02795370
2233.55893799,0.02801807
2235.48774536,0.02783492
2237.41655273,0.02782408
2239.34536011,0.02781662
2241.27416748,0.02785701
2243.20297485,0.02770368
2245.13178223,0.02764565
2247.06058960,0.02771583
2248.98939697,0.02744905
2250.91820435,0.02753631
2252.84701172,0.02745117
2254.77581909,0.02736391
2256.70462646,0.02736082
2258.63343384,0.02721390
2260.56224121,0.02727111
2262.49104858,0.02713819
2264.41985596,0.02720205
2266.34866333,0.02715287
2268.27747070,0.02702990
2270.20627808,0.02712812
2272.13508545,0.02705923
2274.06389282,0.02701322
2275.99270020,0.02690624
2277.92150757,0.02680988
2279.85031494,0.02677317
2281.77912231,0.02680930
2283.70792969,0.02675613
2285.63673706,0.02660819
2287.56554443,0.02649524
2289.49435181,0.02639991
2291.42315918,0.02646360
2293.35196655,0.02644056
2295.28077393,0.02637829
2297.20958130,0.02619144
2299.13838867,0.02602104
2301.06719604,0.02598484
2302.99600342,0.02579449
2304.92481079,0.02565048
2306.85361816,0.02545939
2308.78242554,0.02530006
2310.71123291,0.02512911
2312.64004028,0.02477702
2314.56884766,0.02453458
2316.49765503,0.02426210
2318.42646240,0.02384824
2320.35526978,0.02349684
2322.28407715,0.02302908
2324.21288452,0.02267316
2326.14169189,0.02263885
2328.07049927,0.02224757
2329.99930664,0.02183837
2331.92811401,0.02179115
2333.85692139,0.02162902
2335.78572876,0.02152225
2337.71453613,0.02161822
2339.64334351,0.02151686
2341.57215088,0.02148899
2343.50095825,0.02196101
2345.42976562,0.02237160
2347.35857300,0.02336140
2349.28738037,0.02416572
2351.21618774,0.02310381
2353.14499512,0.02188760
2355.07380249,0.02107226
2357.00260986,0.02037812
2358.93141724,0.02008918
2360.86022461,0.01972026
2362.78903198,0.01958346
2364.71783936,0.01971062
2366.64664673,0.01997311
2368.57545410,0.02036249
2370.50426147,0.02098011
2372.43306885,0.02171458
2374.36187622,0.02229805
2376.29068359,0.02296729
2378.21949097,0.02345001
2380.14829834,0.02389073
2382.07710571,0.02422065
2384.00591309,0.02422087
2385.93472046,0.02445562
2387.86352783,0.02447664
2389.79233521,0.02425786
2391.72114258,0.02438180
2393.64994995,0.02434744
2395.57875732,0.02419684
2397.50756470,0.02419647
2399.43637207,0.02406722
2401.36517944,0.02407121
2403.29398682,0.02421249
2405.22279419,0.02409891
2407.15160156,0.02391775
2409.08040894,0.02388842
2411.00921631,0.02384873
2412.93802368,0.02384739
2414.86683105,0.02393813
2416.79563843,0.02390641
2418.72444580,0.02384166
2420.65325317,0.02382535
2422.58206055,0.02376549
2424.51086792,0.02370983
2426.43967529,0.02365545
2428.36848267,0.02357496
2430.29729004,0.02351884
2432.22609741,0.02342358
2434.15490479,0.02340326
2436.08371216,0.02347355
2438.01251953,0.02334112
2439.94132690,0.02325505
2441.87013428,0.02322303
2443.79894165,0.02318306
2445.72774902,0.02317132
2447.65655640,0.02311844
2449.58536377,0.02317832
2451.51417114,0.02308640
2453.44297852,0.02314948
2455.37178589,0.02307730
2457.30059326,0.02282592
2459.22940063,0.02294415
2461.15820801,0.02282178
2463.08701538,0.02286948
2465.01582275,0.02284525
2466.94463013,0.02267745
2468.87343750,0.02283229
2470.80224487,0.02269079
2472.73105225,0.02265498
2474.65985962,0.02264429
2476.58866699,0.02258670
2478.51747437,0.02259358
2480.44628174,0.02250900
2482.37508911,0.02247503
2484.30389648,0.02234703
2486.23270386,0.02236485
2488.16151123,0.02232398
2490.09031860,0.02228327
2492.01912598,0.02228675
2493.94793335,0.02210943
2495.87674072,0.02206844
2497.80554810,0.02212037
2499.73435547,0.02217433
2501.66316284,0.02210619
2503.59197021,0.02206460
2505.52077759,0.02202032
2507.44958496,0.02185648
2509.37839233,0.02190170
2511.30719971,0.02196395
2513.23600708,0.02180180
2515.16481445,0.02174111
2517.09362183,0.02183494
2519.02242920,0.02177137
2520.95123657,0.02170309
2522.88004395,0.02163846
2524.80885132,0.02159432
2526.73765869,0.02158498
2528.66646606,0.02151142
2530.59527344,0.02146903
2532.52408081,0.02143752
2534.45288818,0.02144350
2536.38169556,0.02129138
2538.31050293,0.02136090
2540.23931030,0.02135864
2542.16811768,0.02115322
2544.09692505,0.02135300
2546.02573242,0.02122309
2547.95453979,0.02113400
2549.88334717,0.02114930
2551.81215454,0.02092301
2553.74096191,0.02102290
2555.66976929,0.02111384
2557.59857666,0.02104481
2559.52738403,0.02089747
2561.45619141,0.02094366
2563.38499878,0.02093272
2565.31380615,0.02071375
2567.24261353,0.02069981
2569.17142090,0.02066761
2571.10022827,0.02071049
2573.02903564,0.02072915
2574.95784302,0.02059119
2576.88665039,0.02054225
2578.81545776,0.02054575
2580.74426514,0.02048020
2582.67307251,0.02050735
2584.60187988,0.02051918
2586.53068726,0.02041044
2588.45949463,0.02035057
2590.38830200,0.02022375
2592.31710937,0.02031222
2594.24591675,0.02029727
2596.17472412,0.02009903
2598.10353149,0.02010309
2600.03233887,0.02016667
2601.96114624,0.02020714
2603.88995361,0.01995512
2605.81876099,0.01998255
2607.74756836,0.02003814
2609.67637573,0.01985869
2611.60518311,0.01993616
2613.53399048,0.01982295
2615.46279785,0.01967912
2617.39160522,0.01961560
2619.32041260,0.01974870
2621.24921997,0.01973559
2623.17802734,0.01956757
2625.10683472,0.01972720
2627.03564209,0.01957279
2628.96444946,0.01953319
2630.89325684,0.01962892
2632.82206421,0.01947425
2634.75087158,0.01944336
2636.67967895,0.01944425
2638.60848633,0.01944501
2640.53729370,0.01930820
2642.46610107,0.01929092
2644.39490845,0.01933260
2646.32371582,0.01914695
2648.25252319,0.01923627
2650.18133057,0.01928517
2652.11013794,0.01906241
2654.03894531,0.01914396
2655.96775269,0.01915509
2657.89656006,0.01902663
2659.82536743,0.01900982
2661.75417480,0.01891380
2663.68298218,0.01900064
2665.61178955,0.01887269
2667.54059692,0.01868915
2669.46940430,0.01878030
2671.39821167,0.01866217
2673.32701904,0.01863465
2675.25582642,0.01863717
2677.18463379,0.01855918
2679.11344116,0.01855462
2681.04224854,0.01859145
2682.97105591,0.01853302
2684.89986328,0.01840867
2686.82867065,0.01847864
2688.75747803,0.01842934
2690.68628540,0.01837488
2692.61509277,0.01834515
2694.54390015,0.01821373
2696.47270752,0.01822407
2698.40151489,0.01823257
2700.33032227,0.01815767
2702.25912964,0.01817317
2704.18793701,0.01821026
2706.11674438,0.01804013
2708.04555176,0.01800747
2709.97435913,0.01793665
2711.90316650,0.01781128
2713.83197388,0.01795475
2715.76078125,0.01787635
2717.68958862,0.01782106
2719.61839600,0.01789388
2721.54720337,0.01783963
2723.47601074,0.01774897
2725.40481812,0.01771020
2727.33362549,0.01769477
2729.26243286,0.01764812
2731.19124023,0.01760965
2733.12004761,0.01744043
2735.04885498,0.01749626
2736.97766235,0.01753611
2738.90646973,0.01745339
2740.83527710,0.01748826
2742.76408447,0.01731334
2744.69289185,0.01725867
2746.62169922,0.01726827
2748.55050659,0.01728048
2750.47931396,0.01720250
2752.40812134,0.01706817
2754.33692871,0.01713639
2756.26573608,0.01706604
2758.19454346,0.01702073
2760.12335083,0.01693688
2762.05215820,0.01693270
2763.98096558,0.01698247
2765.90977295,0.01685625
2767.83858032,0.01684577
2769.76738770,0.01681904
2771.69619507,0.01684955
2773.62500244,0.01683487
2775.55380981,0.01676597
2777.48261719,0.01675126
2779.41142456,0.01660495
2781.34023193,0.01648138
2783.26903931,0.01657362
2785.19784668,0.01659970
2787.12665405,0.01642703
2789.05546143,0.01655733
2790.98426880,0.01648094
2792.91307617,0.01628675
2794.84188354,0.01639554
2796.77069092,0.01617263
2798.69949829,0.01613301
2800.62830566,0.01621262
2802.55711304,0.01609685
2804.48592041,0.01604275
2806.41472778,0.01596336
2808.34353516,0.01605884
2810.27234253,0.01605794
2812.20114990,0.01594457
2814.12995728,0.01589061
2816.05876465,0.01587866
2817.98757202,0.01590457
2819.91637939,0.01583313
2821.84518677,0.01582381
2823.77399414,0.01565707
2825.70280151,0.01545170
2827.63160889,0.01554303
2829.56041626,0.01555410
2831.48922363,0.01543355
2833.41803101,0.01546642
2835.34683838,0.01553609
2837.27564575,0.01536601
2839.20445312,0.01527085
2841.13326050,0.01531854
2843.06206787,0.01515494
2844.99087524,0.01507991
2846.91968262,0.01500408
2848.84848999,0.01483681
2850.77729736,0.01488478
2852.70610474,0.01478526
2854.63491211,0.01471993
2856.56371948,0.01486054
2858.49252686,0.01473914
2860.42133423,0.01462566
2862.35014160,0.01467606
2864.27894897,0.01462675
2866.20775635,0.01450884
2868.13656372,0.01450040
2870.06537109,0.01455548
2871.99417847,0.01451699
2873.92298584,0.01448600
2875.85179321,0.01442635
2877.78060059,0.01439584
2879.70940796,0.01436316
2881.63821533,0.01424807
2883.56702270,0.01433469
2885.49583008,0.01433344
2887.42463745,0.01418668
2889.35344482,0.01421444
2891.28225220,0.01416124
2893.21105957,0.01412186
2895.13986694,0.01417317
2897.06867432,0.01404404
2898.99748169,0.01388622
2900.92628906,0.01389714
2902.85509644,0.01387825
2904.78390381,0.01377470
2906.71271118,0.01380230
2908.64151855,0.01372757
2910.57032593,0.01356380
2912.49913330,0.01356166
2914.42794067,0.01346635
2916.35674805,0.01335081
2918.28555542,0.01333229
2920.21436279,0.01332316
2922.14317017,0.01335737
2924.07197754,0.01333608
2926.00078491,0.01324813
2927.92959229,0.01321118
2929.85839966,0.01320496
2931.78720703,0.01318587
2933.71601440,0.01317389
2935.64482178,0.01315199
2937.57362915,0.01318578
2939.50243652,0.01307676
2941.43124390,0.01298941
2943.36005127,0.01310390
2945.28885864,0.01297749
2947.21766602,0.01296758
2949.14647339,0.01298610
2951.07528076,0.01282538
2953.00408813,0.01284438
2954.93289551,0.01282396
2956.86170288,0.01276152
2958.79051025,0.01263322
2960.71931763,0.01269360
2962.64812500,0.01269985
2964.57693237,0.01252193
2966.50573975,0.01261134
2968.43454712,0.01258140
2970.36335449,0.01263760
2972.29216187,0.01257660
2974.22096924,0.01245400
2976.14977661,0.01254913
2978.07858398,0.01244313
2980.00739136,0.01252764
2981.93619873,0.01249336
2983.86500610,0.01241543
2985.79381348,0.01247338
2987.72262085,0.01233514
2989.65142822,0.01234170
2991.58023560,0.01238278
2993.50904297,0.01231210
2995.43785034,0.01219981
2997.36665771,0.01233423
2999.29546509,0.01234170
3001.22427246,0.01213173
3003.15307983,0.01216549
3005.08188721,0.01206684
3007.01069458,0.01201499
3008.93950195,0.01193312
3010.86830933,0.01185407
3012.79711670,0.01193106
3014.72592407,0.01187396
3016.65473145,0.01192176
3018.58353882,0.01188310
3020.51234619,0.01176968
3022.44115356,0.01173361
3024.36996094,0.01166017
3026.29876831,0.01164186
3028.22757568,0.01173167
3030.15638306,0.01171620
3032.08519043,0.01154983
3034.01399780,0.01158491
3035.94280518,0.01149922
3037.87161255,0.01138790
3039.80041992,0.01144124
3041.72922729,0.01132056
3043.65803467,0.01130720
3045.58684204,0.01127083
3047.51564941,0.01115862
3049.44445679,0.01125436
3051.37326416,0.01127824
3053.30207153,0.01114648
3055.23087891,0.01106720
3057.15968628,0.01101031
3059.08849365,0.01103965
3061.01730103,0.01106956
3062.94610840,0.01095677
3064.87491577,0.01099467
3066.80372314,0.01094915
3068.73253052,0.01081676
3070.66133789,0.01088154
3072.59014526,0.01089277
3074.51895264,0.01085702
3076.44776001,0.01077996
3078.37656738,0.01075963
3080.30537476,0.01070425
3082.23418213,0.01059896
3084.16298950,0.01066061
3086.09179687,0.01062253
3088.02060425,0.01056697
3089.94941162,0.01054991
3091.87821899,0.01051984
3093.80702637,0.01052956
3095.73583374,0.01042690
3097.66464111,0.01038256
3099.59344849,0.01034300
3101.52225586,0.01025075
3103.45106323,0.01029568
3105.37987061,0.01025838
3107.30867798,0.01023016
3109.23748535,0.01027070
3111.16629272,0.01019935
3113.09510010,0.01018472
3115.02390747,0.01009397
3116.95271484,0.01005089
3118.88152222,0.01004504
3120.81032959,0.00996131
3122.73913696,0.01005189
3124.66794434,0.00989121
3126.59675171,0.00983478
3128.52555908,0.00996676
3130.45436645,0.00979533
3132.38317383,0.00981308
3134.31198120,0.00975624
3136.24078857,0.00962309
3138.16959595,0.00967878
3140.09840332,0.00967138
3142.02721069,0.00965960
3143.95601807,0.00959344
3145.88482544,0.00959094
3147.81363281,0.00964361
3149.74244019,0.00963973
3151.67124756,0.00955687
3153.60005493,0.00950333
3155.52886230,0.00944170
3157.45766968,0.00931278
3159.38647705,0.00939633
3161.31528442,0.00937689
3163.24409180,0.00938457
3165.17289917,0.00948004
3167.10170654,0.00930614
3169.03051392,0.00930716
3170.95932129,0.00934485
3172.88812866,0.00929984
3174.81693604,0.00932055
3176.74574341,0.00920132
3178.67455078,0.00920241
3180.60335815,0.00928331
3182.53216553,0.00920908
3184.46097290,0.00914396
3186.38978027,0.00911115
3188.31858765,0.00914354
3190.24739502,0.00917528
3192.17620239,0.00907393
3194.10500977,0.00906248
3196.03381714,0.00910332
3197.96262451,0.00904816
3199.89143188,0.00900902
3201.82023926,0.00897983
3203.74904663,0.00897717
3205.67785400,0.00897639
3207.60666138,0.00899937
3209.53546875,0.00902641
3211.46427612,0.00890529
3213.39308350,0.00888779
3215.32189087,0.00906567
3217.25069824,0.00903556
3219.17950562,0.00897924
3221.10831299,0.00906078
3223.03712036,0.00897352
3224.96592773,0.00900043
3226.89473511,0.00906531
3228.82354248,0.00898916
3230.75234985,0.00899991
3232.68115723,0.00897175
3234.60996460,0.00905515
3236.53877197,0.00907221
3238.46757935,0.00895363
3240.39638672,0.00903187
3242.32519409,0.00910609
3244.25400146,0.00908473
3246.18280884,0.00897826
3248.11161621,0.00897052
3250.04042358,0.00912735
3251.96923096,0.00921434
3253.89803833,0.00913729
3255.82684570,0.00908793
3257.75565308,0.00919005
3259.68446045,0.00910982
3261.61326782,0.00909017
3263.54207520,0.00916460
3265.47088257,0.00911565
3267.39968994,0.00919585
3269.32849731,0.00919462
3271.25730469,0.00917907
3273.18611206,0.00921826
3275.11491943,0.00925143
3277.04372681,0.00933940
3278.97253418,0.00929729
3280.90134155,0.00923861
3282.83014893,0.00917497
3284.75895630,0.00921042
3286.68776367,0.00932891
3288.61657104,0.00928318
3290.54537842,0.00927129
3292.47418579,0.00932033
3294.40299316,0.00930881
3296.33180054,0.00926412
3298.26060791,0.00927541
3300.18941528,0.00930120
3302.11822266,0.00933989
3304.04703003,0.00937549
3305.97583740,0.00926944
3307.90464478,0.00927124
3309.83345215,0.00931579
3311.76225952,0.00929459
3313.69106689,0.00939416
3315.61987427,0.00941054
3317.54868164,0.00937879
3319.47748901,0.00946085
3321.40629639,0.00945736
3323.33510376,0.00938622
3325.26391113,0.00943587
3327.19271851,0.00943936
3329.12152588,0.00945765
3331.05033325,0.00947958
3332.97914062,0.00936241
3334.90794800,0.00949670
3336.83675537,0.00959009
3338.76556274,0.00949573
3340.69437012,0.00961658
3342.62317749,0.00970471
3344.55198486,0.00963287
3346.48079224,0.00961049
3348.40959961,0.00968702
3350.33840698,0.00962926
3352.26721436,0.00958716
3354.19602173,0.00959995
3356.12482910,0.00960299
3358.05363647,0.00973048
3359.98244385,0.00972108
3361.91125122,0.00976749
3363.84005859,0.00980331
3365.76886597,0.00979930
3367.69767334,0.00982022
3369.62648071,0.00974075
3371.55528809,0.00984731
3373.48409546,0.00988913
3375.41290283,0.00994349
3377.34171020,0.00992742
3379.27051758,0.00989231
3381.19932495,0.01003339
3383.12813232,0.01001759
3385.05693970,0.01003462
3386.98574707,0.00994250
3388.91455444,0.01006487
3390.84336182,0.01017447
3392.77216919,0.01002978
3394.70097656,0.01009418
3396.62978394,0.01007292
3398.55859131,0.01026228
3400.48739868,0.01031470
3402.41620605,0.01026102
3404.34501343,0.01033535
3406.27382080,0.01025707
3408.20262817,0.01039702
3410.13143555,0.01038996
3412.06024292,0.01036763
3413.98905029,0.01039769
3415.91785767,0.01044163
3417.84666504,0.01052727
3419.77547241,0.01044089
3421.70427979,0.01052450
3423.63308716,0.01055846
3425.56189453,0.01056969
3427.49070190,0.01059050
3429.41950928,0.01070073
3431.34831665,0.01072251
3433.27712402,0.01053240
3435.20593140,0.01071306
3437.13473877,0.01078499
3439.06354614,0.01074614
3440.99235352,0.01081328
3442.92116089,0.01083718
3444.84996826,0.01084640
3446.77877563,0.01076929
3448.70758301,0.01082933
3450.63639038,0.01088687
3452.56519775,0.01098389
3454.49400513,0.01103667
3456.42281250,0.01099139
3458.35161987,0.01107428
3460.28042725,0.01106890
3462.20923462,0.01103667
3464.13804199,0.01112301
3466.06684937,0.01118782
3467.99565674,0.01118108
3469.92446411,0.01117334
3471.85327148,0.01116027
3473.78207886,0.01118271
3475.71088623,0.01114107
3477.63969360,0.01127078
3479.56850098,0.01143211
3481.49730835,0.01123816
3483.42611572,0.01129889
3485.35492310,0.01140337
3487.28373047,0.01134351
3489.21253784,0.01135539
3491.14134521,0.01138614
3493.07015259,0.01150260
3494.99895996,0.01145877
3496.92776733,0.01137151
3498.85657471,0.01140984
3500.78538208,0.01154723
3502.71418945,0.01146606
3504.64299683,0.01145000
3506.57180420,0.01165180
3508.50061157,0.01146265
3510.42941895,0.01145770
3512.35822632,0.01167928
3514.28703369,0.01171582
3516.21584106,0.01168513
3518.14464844,0.01169097
3520.07345581,0.01170569
3522.00226318,0.01157317
3523.93107056,0.01153391
3525.85987793,0.01154613
3527.78868530,0.01156851
3529.71749268,0.01157377
3531.64630005,0.01171996
3533.57510742,0.01192159
3535.50391479,0.01184114
3537.43272217,0.01185756
3539.36152954,0.01187161
3541.29033691,0.01178591
3543.21914429,0.01184637
3545.14795166,0.01163162
3547.07675903,0.01134057
3549.00556641,0.01180693
3550.93437378,0.01185488
3552.86318115,0.01156054
3554.79198853,0.01192599
3556.72079590,0.01180891
3558.64960327,0.01184834
3560.57841064,0.01183276
3562.50721802,0.01168344
3564.43602539,0.01189468
3566.36483276,0.01109161
3568.29364014,0.01084410
3570.22244751,0.01168834
3572.15125488,0.01198887
3574.08006226,0.01188374
3576.00886963,0.01193788
3577.93767700,0.01198151
3579.86648437,0.01179683
3581.79529175,0.01180553
3583.72409912,0.01191563
3585.65290649,0.01161852
3587.58171387,0.01078395
3589.51052124,0.01102482
3591.43932861,0.01190894
3593.36813599,0.01160637
3595.29694336,0.01136934
3597.22575073,0.01159224
3599.15455811,0.01165571
3601.08336548,0.01156483
3603.01217285,0.01169797
3604.94098022,0.01184070
3606.86978760,0.01142553
3608.79859497,0.01080120
3610.72740234,0.01108523
3612.65620972,0.01132903
3614.58501709,0.01092571
3616.51382446,0.01168503
3618.44263184,0.01092574
3620.37143921,0.01055309
3622.30024658,0.01178839
3624.22905395,0.01147978
3626.15786133,0.01198074
3628.08666870,0.01027700
3630.01547607,0.00944710
3631.94428345,0.01171180
3633.87309082,0.01137778
3635.80189819,0.01149892
3637.73070557,0.01175480
3639.65951294,0.01164346
3641.58832031,0.01178849
3643.51712769,0.01163776
3645.44593506,0.01165839
3647.37474243,0.01056575
3649.30354980,0.00971907
3651.23235718,0.00977618
3653.16116455,0.01160829
3655.08997192,0.01134897
3657.01877930,0.01022993
3658.94758667,0.01173815
3660.87639404,0.01138719
3662.80520142,0.01167364
3664.73400879,0.01152325
3666.66281616,0.01135820
3668.59162354,0.01113521
3670.52043091,0.00905732
3672.44923828,0.01089683
3674.37804565,0.01037260
3676.30685303,0.00858946
3678.23566040,0.01063610
3680.16446777,0.01086933
3682.09327515,0.01089538
3684.02208252,0.01108957
3685.95088989,0.01092508
3687.87969727,0.00985723
3689.80850464,0.00904735
3691.73731201,0.01022212
3693.66611938,0.01044210
3695.59492676,0.01062390
3697.52373413,0.01056525
3699.45254150,0.01049058
3701.38134888,0.01013605
3703.31015625,0.00979511
3705.23896362,0.01071792
3707.16777100,0.01005947
3709.09657837,0.00973987
3711.02538574,0.00909903
3712.95419312,0.00864111
3714.88300049,0.01002412
3716.81180786,0.00981581
3718.74061523,0.00989074
3720.66942261,0.00958976
3722.59822998,0.00926152
3724.52703735,0.00953338
3726.45584473,0.00892755
3728.38465210,0.00955893
3730.31345947,0.00934350
3732.24226685,0.00875154
3734.17107422,0.00844936
3736.09988159,0.00800144
3738.02868896,0.00848724
3739.95749634,0.00909963
3741.88630371,0.00949505
3743.81511108,0.00741986
3745.74391846,0.00706203
3747.67272583,0.00896823
3749.60153320,0.00764365
3751.53034058,0.00705744
3753.45914795,0.00807976
3755.38795532,0.00872537
3757.31676270,0.00894071
3759.24557007,0.00822089
3761.17437744,0.00862450
3763.10318481,0.00908816
3765.03199219,0.00847233
3766.96079956,0.00864746
3768.88960693,0.00843390
3770.81841431,0.00801954
3772.74722168,0.00871836
3774.67602905,0.00872705
3776.60483643,0.00865403
3778.53364380,0.00848311
3780.46245117,0.00815246
3782.39125854,0.00860327
3784.32006592,0.00849545
3786.24887329,0.00836031
3788.17768066,0.00851691
3790.10648804,0.00853323
3792.03529541,0.00833193
3793.96410278,0.00848246
3795.89291016,0.00801706
3797.82171753,0.00778441
3799.75052490,0.00820712
3801.67933228,0.00661166
3803.60813965,0.00765644
3805.53694702,0.00826912
3807.46575439,0.00681133
3809.39456177,0.00817898
3811.32336914,0.00807320
3813.25217651,0.00831528
3815.18098389,0.00741123
3817.10979126,0.00655641
3819.03859863,0.00821227
3820.96740601,0.00671261
3822.89621338,0.00710586
3824.82502075,0.00816578
3826.75382812,0.00741230
3828.68263550,0.00793503
3830.61144287,0.00762688
3832.54025024,0.00734344
3834.46905762,0.00747339
3836.39786499,0.00718245
3838.32667236,0.00643239
3840.25547974,0.00697345
3842.18428711,0.00748908
3844.11309448,0.00708448
3846.04190186,0.00772823
3847.97070923,0.00759412
3849.89951660,0.00764016
3851.82832397,0.00687019
3853.75713135,0.00512498
3855.68593872,0.00605572
3857.61474609,0.00750428
3859.54355347,0.00736325
3861.47236084,0.00731836
3863.40116821,0.00712212
3865.32997559,0.00660673
3867.25878296,0.00730243
3869.18759033,0.00673456
3871.11639770,0.00629425
3873.04520508,0.00733177
3874.97401245,0.00676021
3876.90281982,0.00729961
3878.83162720,0.00733614
3880.76043457,0.00631953
3882.68924194,0.00733105
3884.61804932,0.00680232
3886.54685669,0.00618170
3888.47566406,0.00729003
3890.40447144,0.00687509
3892.33327881,0.00644555
3894.26208618,0.00703075
3896.19089355,0.00706465
3898.11970093,0.00686842
3900.04850830,0.00644991
3901.97731567,0.00634969
3903.90612305,0.00638138
3905.83493042,0.00636266
3907.76373779,0.00696631
3909.69254517,0.00697495
3911.62135254,0.00691735
3913.55015991,0.00699175
3915.47896728,0.00676621
3917.40777466,0.00665332
3919.33658203,0.00651229
3921.26538940,0.00679080
3923.19419678,0.00668622
3925.12300415,0.00654045
3927.05181152,0.00675577
3928.98061890,0.00676916
3930.90942627,0.00663980
3932.83823364,0.00635450
3934.76704102,0.00663976
3936.69584839,0.00673731
3938.62465576,0.00661018
3940.55346313,0.00668736
3942.48227051,0.00646335
3944.41107788,0.00646132
3946.33988525,0.00642874
3948.26869263,0.00631019
3950.19750000,0.00643962
3952.12630737,0.00657940
3954.05511475,0.00656452
3955.98392212,0.00646896
3957.91272949,0.00643024
3959.84153687,0.00646339
3961.77034424,0.00642251
3963.69915161,0.00637542
3965.62795898,0.00645342
3967.55676636,0.00631154
3969.48557373,0.00626272
3971.41438110,0.00635354
3973.34318848,0.00638201
3975.27199585,0.00635792
3977.20080322,0.00622452
3979.12961060,0.00629899
3981.05841797,0.00628138
3982.98722534,0.00623202
3984.91603271,0.00627035
3986.84484009,0.00621950
3988.77364746,0.00615837
3990.70245483,0.00609251
3992.63126221,0.00611926
3994.56006958,0.00614875
3996.48887695,0.00616216
3998.41768433,0.00609699
4000.34649170,0.00607179
4002.27529907,0.00601934
4004.20410645,0.00605387
4006.13291382,0.00615131
4008.06172119,0.00599919
4009.99052856,0.00604437
4011.91933594,0.00607891
4013.84814331,0.00604623
4015.77695068,0.00603311
4017.70575806,0.00597849
4019.63456543,0.00596035
4021.56337280,0.00584601
4023.49218018,0.00588712
4025.42098755,0.00589205
4027.34979492,0.00589911
4029.27860229,0.00588931
4031.20740967,0.00589205
4033.13621704,0.00596170
4035.06502441,0.00580801
4036.99383179,0.00582560
4038.92263916,0.00581542
4040.85144653,0.00570054
4042.78025391,0.00578403
4044.70906128,0.00585389
4046.63786865,0.00570247
4048.56667603,0.00561429
4050.49548340,0.00573364
4052.42429077,0.00570627
4054.35309814,0.00571895
4056.28190552,0.00565226
4058.21071289,0.00557977
4060.13952026,0.00561596
4062.06832764,0.00558937
4063.99713501,0.00570076
4065.92594238,0.00563754
4067.85474976,0.00549702
4069.78355713,0.00553553
4071.71236450,0.00550735
4073.64117187,0.00546760
4075.56997925,0.00556636
4077.49878662,0.00551283
4079.42759399,0.00543340
4081.35640137,0.00546169
4083.28520874,0.00538298
4085.21401611,0.00550661
4087.14282349,0.00545825
4089.07163086,0.00531509
4091.00043823,0.00536205
4092.92924561,0.00536943
4094.85805298,0.00542535
4096.78686035,0.00530611
4098.71566772,0.00533076
4100.64447510,0.00536725
4102.57328247,0.00527165
4104.50208984,0.00530250
4106.43089722,0.00529663
4108.35970459,0.00530561
4110.28851196,0.00520059
4112.21731934,0.00520102
4114.14612671,0.00527166
4116.07493408,0.00520407
4118.00374145,0.00513810
4119.93254883,0.00513064
4121.86135620,0.00514930
4123.79016357,0.00513033
4125.71897095,0.00517654
4127.64777832,0.00511978
4129.57658569,0.00510660
4131.50539307,0.00510410
4133.43420044,0.00503320
4135.36300781,0.00505578
4137.29181519,0.00504660
4139.22062256,0.00511707
4141.14942993,0.00504730
4143.07823730,0.00493713
4145.00704468,0.00499312
4146.93585205,0.00497543
4148.86465942,0.00492098
4150.79346680,0.00490875
4152.72227417,0.00488076
4154.65108154,0.00487265
4156.57988892,0.00494498
4158.50869629,0.00488955
4160.43750366,0.00484958
4162.36631103,0.00483156
4164.29511841,0.00479593
4166.22392578,0.00484816
4168.15273315,0.00484716
4170.08154053,0.00484904
4172.01034790,0.00472875
4173.93915527,0.00475469
4175.86796265,0.00489216
4177.79677002,0.00484973
4179.72557739,0.00485377
4181.65438477,0.00477396
4183.58319214,0.00471683
4185.51199951,0.00476686
4187.44080688,0.00473184
4189.36961426,0.00470128
4191.29842163,0.00469888
4193.22722900,0.00466237
4195.15603638,0.00473003
4197.08484375,0.00470435
4199.01365112,0.00458132
4200.94245850,0.00457372
4202.87126587,0.00453344
4204.80007324,0.00457275
4206.72888062,0.00447094
4208.65768799,0.00453352
4210.58649536,0.00466089
4212.51530273,0.00446257
4214.44411011,0.00451973
4216.37291748,0.00448296
4218.30172485,0.00447536
4220.23053223,0.00451646
4222.15933960,0.00448015
4224.08814697,0.00454158
4226.01695435,0.00438497
4227.94576172,0.00445488
4229.87456909,0.00444948
4231.80337646,0.00435333
4233.73218384,0.00443987
4235.66099121,0.00439127
4237.58979858,0.00436713
4239.51860596,0.00435856
4241.44741333,0.00438513
4243.37622070,0.00431525
4245.30502808,0.00432047
4247.23383545,0.00437828
4249.16264282,0.00430162
4251.09145020,0.00427514
4253.02025757,0.00430806
4254.94906494,0.00437457
4256.87787231,0.00430073
4258.80667969,0.00428018
4260.73548706,0.00427350
4262.66429443,0.00426484
4264.59310181,0.00423132
4266.52190918,0.00415298
4268.45071655,0.00422288
4270.37952393,0.00415185
4272.30833130,0.00421539
4274.23713867,0.00420263
4276.16594604,0.00408250
4278.09475342,0.00423234
4280.02356079,0.00419556
4281.95236816,0.00411277
4283.88117554,0.00410434
4285.80998291,0.00408320
4287.73879028,0.00405704
4289.66759766,0.00405694
4291.59640503,0.00409426
4293.52521240,0.00403674
4295.45401978,0.00399259
4297.38282715,0.00402226
4299.31163452,0.00402832
4301.24044189,0.00392614
4303.16924927,0.00396224
4305.09805664,0.00403646
4307.02686401,0.00396353
4308.95567139,0.00393334
4310.88447876,0.00395728
4312.81328613,0.00396810
4314.74209351,0.00393953
4316.67090088,0.00398373
4318.59970825,0.00393794
4320.52851562,0.00391891
4322.45732300,0.00397934
4324.38613037,0.00391678
4326.31493774,0.00388883
4328.24374512,0.00385572
4330.17255249,0.00386359
4332.10135986,0.00382431
4334.03016724,0.00382517
4335.95897461,0.00383054
4337.88778198,0.00373810
4339.81658936,0.00382357
4341.74539673,0.00382049
4343.67420410,0.00377184
4345.60301147,0.00378794
4347.53181885,0.00378235
4349.46062622,0.00376431
4351.38943359,0.00371023
4353.31824097,0.00375248
4355.24704834,0.00374063
4357.17585571,0.00371867
4359.10466309,0.00373121
4361.03347046,0.00365824
4362.96227783,0.00362215
4364.89108520,0.00362401
4366.81989258,0.00358224
4368.74869995,0.00364824
4370.67750732,0.00368408
4372.60631470,0.00352618
4374.53512207,0.00357273
4376.46392944,0.00365626
4378.39273682,0.00364034
4380.32154419,0.00362054
4382.25035156,0.00355143
4384.17915894,0.00361791
4386.10796631,0.00358097
4388.03677368,0.00356198
4389.96558105,0.00358210
4391.89438843,0.00347626
4393.82319580,0.00352115
4395.75200317,0.00359227
4397.68081055,0.00359037
4399.60961792,0.00344539
4401.53842529,0.00345449
4403.46723267,0.00362847
4405.39604004,0.00345097
4407.32484741,0.00341688
4409.25365478,0.00349378
4411.18246216,0.00338122
4413.11126953,0.00348296
4415.04007690,0.00348276
4416.96888428,0.00339176
4418.89769165,0.00342979
4420.82649902,0.00337503
4422.75530640,0.00333976
4424.68411377,0.00333165
4426.61292114,0.00337978
4428.54172852,0.00337561
4430.47053589,0.00331008
4432.39934326,0.00334260
4434.32815063,0.00332972
4436.25695801,0.00333626
4438.18576538,0.00331602
4440.11457275,0.00332953
4442.04338013,0.00337830
4443.97218750,0.00331216
4445.90099487,0.00328869
4447.82980225,0.00324677
4449.75860962,0.00323762
4451.68741699,0.00330315
4453.61622437,0.00329420
4455.54503174,0.00323548
4457.47383911,0.00318001
4459.40264648,0.00318427
4461.33145386,0.00324148
4463.26026123,0.00319436
4465.18906860,0.00311111
4467.11787598,0.00311096
4469.04668335,0.00308442
4470.97549072,0.00317893
4472.90429810,0.00319141
4474.83310547,0.00310384
4476.76191284,0.00315522
4478.69072021,0.00306296
4480.61952759,0.00304607
4482.54833496,0.00312278
4484.47714233,0.00311647
4486.40594971,0.00310818
4488.33475708,0.00307205
4490.26356445,0.00307913
4492.19237183,0.00303224
4494.12117920,0.00301001
4496.04998657,0.00304187
4497.97879395,0.00304425
4499.90760132,0.00302651
4501.83640869,0.00299262
4503.76521606,0.00297141
4505.69402344,0.00295270
4507.62283081,0.00296854
4509.55163818,0.00298180
4511.48044556,0.00294842
4513.40925293,0.00289879
4515.33806030,0.00297406
4517.26686768,0.00296122
4519.19567505,0.00292901
4521.12448242,0.00296966
4523.05328979,0.00282486
4524.98209717,0.00287959
4526.91090454,0.00289677
4528.83971191,0.00281188
4530.76851929,0.00289891
4532.69732666,0.00287366
4534.62613403,0.00288100
4536.55494141,0.00290111
4538.48374878,0.00288819
4540.41255615,0.00287703
4542.34136353,0.00284558
4544.27017090,0.00281234
4546.19897827,0.00283210
4548.12778564,0.00278915
4550.05659302,0.00272613
4551.98540039,0.00283964
4553.91420776,0.00275831
4555.84301514,0.00274928
4557.77182251,0.00277927
4559.70062988,0.00272300
4561.62943726,0.00281267
4563.55824463,0.00278095
4565.48705200,0.00279435
4567.41585937,0.00270516
4569.34466675,0.00268267
4571.27347412,0.00272427
4573.20228149,0.00265825
4575.13108887,0.00274641
4577.05989624,0.00269368
4578.98870361,0.00266088
4580.91751099,0.00265656
4582.84631836,0.00266219
4584.77512573,0.00268642
4586.70393311,0.00266334
4588.63274048,0.00269274
4590.56154785,0.00266444
4592.49035522,0.00268181
4594.41916260,0.00261070
4596.34796997,0.00260242
4598.27677734,0.00257852
4600.20558472,0.00254932
4602.13439209,0.00263622
4604.06319946,0.00256501
4605.99200684,0.00252182
4607.92081421,0.00249476
4609.84962158,0.00260878
4611.77842895,0.00258636
4613.70723633,0.00251950
4615.63604370,0.00262681
4617.56485107,0.00259379
4619.49365845,0.00261297
4621.42246582,0.00249326
4623.35127319,0.00260112
4625.28008057,0.00264510
4627.20888794,0.00243921
4629.13769531,0.00254314
4631.06650269,0.00251012
4632.99531006,0.00256549
4634.92411743,0.00256091
4636.85292480,0.00243643
4638.78173218,0.00245028
4640.71053955,0.00245314
4642.63934692,0.00253774
4644.56815430,0.00244529
4646.49696167,0.00242397
4648.42576904,0.00241325
4650.35457642,0.00233182
4652.28338379,0.00241107
4654.21219116,0.00235640
4656.14099853,0.00231045
4658.06980591,0.00235733
4659.99861328,0.00236891
4661.92742065,0.00238247
4663.85622803,0.00240563
4665.78503540,0.00241687
4667.71384277,0.00239345
4669.64265015,0.00232040
4671.57145752,0.00234835
4673.50026489,0.00241762
4675.42907227,0.00235726
4677.35787964,0.00238642
4679.28668701,0.00236406
4681.21549438,0.00232555
4683.14430176,0.00232660
4685.07310913,0.00222281
4687.00191650,0.00226274
4688.93072388,0.00228913
4690.85953125,0.00227263
4692.78833862,0.00231825
4694.71714600,0.00226553
4696.64595337,0.00222369
4698.57476074,0.00225437
4700.50356812,0.00225703
4702.43237549,0.00228260
4704.36118286,0.00229424
4706.28999023,0.00215638
4708.21879761,0.00211011
4710.14760498,0.00219839
4712.07641235,0.00224475
4714.00521973,0.00230365
4715.93402710,0.00229070
4717.86283447,0.00222417
4719.79164185,0.00219282
4721.72044922,0.00213139
4723.64925659,0.00216268
4725.57806396,0.00225439
4727.50687134,0.00222186
4729.43567871,0.00219874
4731.36448608,0.00215698
4733.29329346,0.00214136
4735.22210083,0.00220911
4737.15090820,0.00215756
4739.07971558,0.00212423
4741.00852295,0.00215144
4742.93733032,0.00211653
4744.86613770,0.00211295
4746.79494507,0.00217979
4748.72375244,0.00209391
4750.65255981,0.00204024
4752.58136719,0.00214789
4754.51017456,0.00210361
4756.43898193,0.00211500
4758.36778931,0.00205846
4760.29659668,0.00199713
4762.22540405,0.00207297
4764.15421143,0.00204849
4766.08301880,0.00211557
4768.01182617,0.00202278
4769.94063354,0.00197765
4771.86944092,0.00210958
4773.79824829,0.00205238
4775.72705566,0.00196998
4777.65586304,0.00190829
4779.58467041,0.00197602
4781.51347778,0.00203911
4783.44228516,0.00203377
4785.37109253,0.00206112
4787.29989990,0.00204479
4789.22870728,0.00198234
4791.15751465,0.00193248
4793.08632202,0.00193686
4795.01512939,0.00190108
4796.94393677,0.00200740
4798.87274414,0.00204664
4800.80155151,0.00199183
4802.73035889,0.00207180
4804.65916626,0.00199338
4806.58797363,0.00188460
4808.51678101,0.00190594
4810.44558838,0.00194288
4812.37439575,0.00189074
4814.30320312,0.00193520
4816.23201050,0.00193823
4818.16081787,0.00184223
4820.08962524,0.00194418
4822.01843262,0.00187833
4823.94723999,0.00179630
4825.87604736,0.00183787
4827.80485474,0.00191155
4829.73366211,0.00192754
4831.66246948,0.00184614
4833.59127686,0.00192835
4835.52008423,0.00185386
4837.44889160,0.00185831
4839.37769897,0.00185127
4841.30650635,0.00176246
4843.23531372,0.00187984
4845.16412109,0.00179633
4847.09292847,0.00184093
4849.02173584,0.00184584
4850.95054321,0.00179100
4852.87935059,0.00188013
4854.80815796,0.00176523
4856.73696533,0.00179975
4858.66577270,0.00183130
4860.59458008,0.00183057
4862.52338745,0.00184889
4864.45219482,0.00172729
4866.38100220,0.00176339
4868.30980957,0.00176922
4870.23861694,0.00171758
4872.16742432,0.00178253
4874.09623169,0.00180507
4876.02503906,0.00173834
4877.95384644,0.00171414
4879.88265381,0.00173929
4881.81146118,0.00171956
4883.74026855,0.00170520
4885.66907593,0.00175347
4887.59788330,0.00177574
4889.52669067,0.00171599
4891.45549805,0.00170904
4893.38430542,0.00166263
4895.31311279,0.00164535
4897.24192017,0.00170945
4899.17072754,0.00165825
4901.09953491,0.00167892
4903.02834228,0.00166950
4904.95714966,0.00162419
4906.88595703,0.00166359
4908.81476440,0.00165745
4910.74357178,0.00170367
4912.67237915,0.00169750
4914.60118652,0.00170603
4916.52999390,0.00172492
4918.45880127,0.00160472
4920.38760864,0.00162015
4922.31641602,0.00168494
4924.24522339,0.00162590
4926.17403076,0.00160821
4928.10283813,0.00163339
4930.03164551,0.00158341
4931.96045288,0.00156486
4933.88926025,0.00163260
4935.81806763,0.00157535
4937.74687500,0.00154042
4939.67568237,0.00158043
4941.60448975,0.00154547
4943.53329712,0.00160712
4945.46210449,0.00157845
4947.39091187,0.00151556
4949.31971924,0.00156951
4951.24852661,0.00150738
4953.17733398,0.00153561
4955.10614136,0.00150782
4957.03494873,0.00142251
4958.96375610,0.00148496
4960.89256348,0.00148434
4962.82137085,0.00154662
4964.75017822,0.00155288
4966.67898560,0.00151907
4968.60779297,0.00151184
4970.53660034,0.00149087
4972.46540771,0.00151839
4974.39421509,0.00142979
4976.32302246,0.00145250
4978.25182983,0.00143315
4980.18063721,0.00138216
4982.10944458,0.00147860
4984.03825195,0.00145347
4985.96705933,0.00145533
4987.89586670,0.00148442
4989.82467407,0.00152841
4991.75348145,0.00144830
4993.68228882,0.00139139
4995.61109619,0.00150184
4997.53990356,0.00146947
4999.46871094,0.00145265
5001.39751831,0.00139319
5003.32632568,0.00141493
5005.25513306,0.00145632
5007.18394043,0.00144067
5009.11274780,0.00147669
5011.04155518,0.00134807
5012.97036255,0.00137784
5014.89916992,0.00137643
5016.82797729,0.00132886
5018.75678467,0.00137694
5020.68559204,0.00138011
5022.61439941,0.00147120
5024.54320679,0.00138108
5026.47201416,0.00139293
5028.40082153,0.00143662
5030.32962891,0.00135987
5032.25843628,0.00142629
5034.18724365,0.00138735
5036.11605103,0.00138858
5038.04485840,0.00138133
5039.97366577,0.00132710
5041.90247314,0.00130524
5043.83128052,0.00125125
5045.76008789,0.00131194
5047.68889526,0.00135182
5049.61770264,0.00134868
5051.54651001,0.00134249
5053.47531738,0.00125284
5055.40412476,0.00121718
5057.33293213,0.00132103
5059.26173950,0.00134257
5061.19054687,0.00130630
5063.11935425,0.00130121
5065.04816162,0.00126215
5066.97696899,0.00133067
5068.90577637,0.00132993
5070.83458374,0.00126743
5072.76339111,0.00129254
5074.69219849,0.00125906
5076.62100586,0.00125287
5078.54981323,0.00129885
5080.47862061,0.00131429
5082.40742798,0.00129828
5084.33623535,0.00127166
5086.26504272,0.00126665
5088.19385010,0.00129554
5090.12265747,0.00127583
5092.05146484,0.00123691
5093.98027222,0.00125610
5095.90907959,0.00125925
5097.83788696,0.00121381
5099.76669434,0.00120455
5101.69550171,0.00128152
5103.62430908,0.00123955
5105.55311645,0.00122433
5107.48192383,0.00126875
5109.41073120,0.00118725
5111.33953857,0.00119468
5113.26834595,0.00122498
5115.19715332,0.00122336
5117.12596069,0.00118420
5119.05476807,0.00122458
5120.98357544,0.00126961
5122.91238281,0.00113020
5124.84119019,0.00110434
5126.76999756,0.00114642
5128.69880493,0.00119858
5130.62761230,0.00120565
5132.55641968,0.00119837
5134.48522705,0.00117651
5136.41403442,0.00114398
5138.34284180,0.00122740
5140.27164917,0.00112308
5142.20045654,0.00107073
5144.12926392,0.00113340
5146.05807129,0.00120267
5147.98687866,0.00120142
5149.91568603,0.00110204
5151.84449341,0.00121196
5153.77330078,0.00111415
5155.70210815,0.00107563
5157.63091553,0.00120200
5159.55972290,0.00113925
5161.48853027,0.00113626
5163.41733765,0.00108929
5165.34614502,0.00110622
5167.27495239,0.00113650
5169.20375977,0.00111907
5171.13256714,0.00108247
5173.06137451,0.00107396
5174.99018188,0.00113139
5176.91898926,0.00103069
5178.84779663,0.00104393
5180.77660400,0.00110271
5182.70541138,0.00106591
5184.63421875,0.00108486
5186.56302612,0.00107476
5188.49183350,0.00101282
5190.42064087,0.00105315
5192.34944824,0.00115741
5194.27825562,0.00107505
5196.20706299,0.00103684
5198.13587036,0.00106879
5200.06467773,0.00106644
5201.99348511,0.00102819
5203.92229248,0.00098481
5205.85109985,0.00104832
5207.77990723,0.00106436
5209.70871460,0.00108444
5211.63752197,0.00100437
5213.56632935,0.00101281
5215.49513672,0.00108587
5217.42394409,0.00100885
5219.35275146,0.00106803
5221.28155884,0.00103205
5223.21036621,0.00102910
5225.13917358,0.00100399
5227.06798096,0.00092366
5228.99678833,0.00104477
5230.92559570,0.00101022
5232.85440308,0.00098441
5234.78321045,0.00097348
5236.71201782,0.00096327
5238.64082520,0.00102280
5240.56963257,0.00098149
5242.49843994,0.00099702
5244.42724731,0.00096941
5246.35605469,0.00096157
5248.28486206,0.00100980
5250.21366943,0.00103243
5252.14247681,0.00101937
5254.07128418,0.00093589
5256.00009155,0.00095371
5257.92889893,0.00093088
5259.85770630,0.00094019
5261.78651367,0.00101932
5263.71532104,0.00096438
5265.64412842,0.00096197
5267.57293579,0.00094488
5269.50174316,0.00091831
5271.43055054,0.00096073
5273.35935791,0.00089801
5275.28816528,0.00084008
5277.21697266,0.00088574
5279.14578003,0.00094470
5281.07458740,0.00095336
5283.00339478,0.00092713
5284.93220215,0.00091667
5286.86100952,0.00094654
5288.78981689,0.00089949
5290.71862427,0.00084961
5292.64743164,0.00096398
5294.57623901,0.00092887
5296.50504639,0.00085295
5298.43385376,0.00091273
5300.36266113,0.00090034
5302.29146851,0.00092369
5304.22027588,0.00092711
5306.14908325,0.00091268
5308.07789062,0.00086579
5310.00669800,0.00081576
5311.93550537,0.00088887
5313.86431274,0.00088559
5315.79312012,0.00086807
5317.72192749,0.00086538
5319.65073486,0.00082024
5321.57954224,0.00078686
5323.50834961,0.00081429
5325.43715698,0.00084944
5327.36596436,0.00082434
5329.29477173,0.00087484
5331.22357910,0.00088688
5333.15238647,0.00086060
5335.08119385,0.00089873
5337.01000122,0.00087932
5338.93880859,0.00077208
5340.86761597,0.00079606
5342.79642334,0.00086369
5344.72523071,0.00076441
5346.65403809,0.00084513
5348.58284546,0.00090377
5350.51165283,0.00082006
5352.44046020,0.00080512
5354.36926758,0.00077733
5356.29807495,0.00085230
5358.22688232,0.00085314
5360.15568970,0.00081594
5362.08449707,0.00082547
5364.01330444,0.00080675
5365.94211182,0.00077975
5367.87091919,0.00078580
5369.79972656,0.00081852
5371.72853394,0.00075888
5373.65734131,0.00080608
5375.58614868,0.00073815
5377.51495605,0.00072076
5379.44376343,0.00087070
5381.37257080,0.00083600
5383.30137817,0.00085208
5385.23018555,0.00074322
5387.15899292,0.00074921
5389.08780029,0.00083249
5391.01660767,0.00073007
5392.94541504,0.00076500
5394.87422241,0.00072621
5396.80302978,0.00075910
5398.73183716,0.00077786
5400.66064453,0.00074724
5402.58945190,0.00083795
5404.51825928,0.00076367
5406.44706665,0.00075495
5408.37587402,0.00078272
5410.30468140,0.00072042
5412.23348877,0.00076791
5414.16229614,0.00075727
5416.09110352,0.00070687
5418.01991089,0.00076907
5419.94871826,0.00077175
5421.87752563,0.00077663
5423.80633301,0.00073863
5425.73514038,0.00071631
5427.66394775,0.00083574
5429.59275513,0.00070557
5431.52156250,0.00068667
5433.45036987,0.00077858
5435.37917725,0.00071296
5437.30798462,0.00080490
5439.23679199,0.00070980
5441.16559936,0.00061655
5443.09440674,0.00072169
5445.02321411,0.00073157
5446.95202148,0.00068845
5448.88082886,0.00069989
5450.80963623,0.00074948
5452.73844360,0.00068707
5454.66725098,0.00073334
5456.59605835,0.00072775
5458.52486572,0.00067073
5460.45367310,0.00073043
5462.38248047,0.00064437
5464.31128784,0.00066856
5466.24009521,0.00067196
5468.16890259,0.00062942
5470.09770996,0.00070941
5472.02651733,0.00067365
5473.95532471,0.00068012
5475.88413208,0.00067678
5477.81293945,0.00065454
5479.74174683,0.00069635
5481.67055420,0.00065216
5483.59936157,0.00062197
5485.52816895,0.00066598
5487.45697632,0.00068448
5489.38578369,0.00064353
5491.31459106,0.00065315
5493.24339844,0.00065019
5495.17220581,0.00063496
5497.10101318,0.00068201
5499.02982056,0.00063730
5500.95862793,0.00064558
5502.88743530,0.00064925
5504.81624268,0.00060788
5506.74505005,0.00067795
5508.67385742,0.00063780
5510.60266479,0.00061702
5512.53147217,0.00063931
5514.46027954,0.00060155
5516.38908691,0.00061126
5518.31789429,0.00062478
5520.24670166,0.00066527
5522.17550903,0.00064605
5524.10431641,0.00065394
5526.03312378,0.00063871
5527.96193115,0.00058595
5529.89073853,0.00065492
5531.81954590,0.00062998
5533.74835327,0.00063112
5535.67716064,0.00065144
5537.60596802,0.00058736
5539.53477539,0.00060367
5541.46358276,0.00064348
5543.39239014,0.00065342
5545.32119751,0.00062350
5547.25000488,0.00060649
5549.17881226,0.00060668
5551.10761963,0.00059447
5553.03642700,0.00055839
5554.96523437,0.00059601
5556.89404175,0.00064315
5558.82284912,0.00059694
5560.75165649,0.00061992
5562.68046387,0.00059079
5564.60927124,0.00056442
5566.53807861,0.00055222
5568.46688599,0.00054204
5570.39569336,0.00061831
5572.32450073,0.00060040
5574.25330811,0.00062758
5576.18211548,0.00061548
5578.11092285,0.00057593
5580.03973022,0.00062904
5581.96853760,0.00057834
5583.89734497,0.00057024
5585.82615234,0.00061605
5587.75495972,0.00055723
5589.68376709,0.00049236
5591.61257446,0.00053897
5593.54138184,0.00053965
5595.47018921,0.00050721
5597.39899658,0.00054494
5599.32780395,0.00054070
5601.25661133,0.00054394
5603.18541870,0.00057853
5605.11422607,0.00058277
5607.04303345,0.00052216
5608.97184082,0.00061303
5610.90064819,0.00064258
5612.82945557,0.00046881
5614.75826294,0.00056724
5616.68707031,0.00060023
5618.61587769,0.00050319
5620.54468506,0.00054389
5622.47349243,0.00055504
5624.40229980,0.00055530
5626.33110718,0.00048558
5628.25991455,0.00049714
5630.18872192,0.00055835
5632.11752930,0.00051423
5634.04633667,0.00049818
5635.97514404,0.00054501
5637.90395142,0.00057371
5639.83275879,0.00048944
5641.76156616,0.00047544
5643.69037353,0.00052428
5645.61918091,0.00051022
5647.54798828,0.00051920
5649.47679565,0.00051934
5651.40560303,0.00052310
5653.33441040,0.00049765
5655.26321777,0.00047166
5657.19202515,0.00054680
5659.12083252,0.00059984
5661.04963989,0.00058683
5662.97844727,0.00057078
5664.90725464,0.00053092
5666.83606201,0.00050515
5668.76486938,0.00050563
5670.69367676,0.00049058
5672.62248413,0.00052405
5674.55129150,0.00056267
5676.48009888,0.00050956
5678.40890625,0.00052212
5680.33771362,0.00056276
5682.26652100,0.00046565
5684.19532837,0.00042470
5686.12413574,0.00046705
5688.05294311,0.00047336
5689.98175049,0.00048315
5691.91055786,0.00050194
5693.83936523,0.00046683
5695.76817261,0.00043454
5697.69697998,0.00049820
5699.62578735,0.00050263
5701.55459473,0.00050667
5703.48340210,0.00049901
5705.41220947,0.00046255
5707.34101685,0.00053472
5709.26982422,0.00052707
5711.19863159,0.00050150
5713.12743896,0.00044323
5715.05624634,0.00040901
5716.98505371,0.00044753
5718.91386108,0.00041097
5720.84266846,0.00047836
5722.77147583,0.00046414
5724.70028320,0.00041232
5726.62909058,0.00044531
5728.55789795,0.00043650
5730.48670532,0.00044211
5732.41551270,0.00043498
5734.34432007,0.00048833
5736.27312744,0.00044670
5738.20193481,0.00039225
5740.13074219,0.00044105
5742.05954956,0.00043070
5743.98835693,0.00043513
5745.91716431,0.00044407
5747.84597168,0.00045202
5749.77477905,0.00042271
5751.70358643,0.00043339
5753.63239380,0.00044198
5755.56120117,0.00041681
5757.49000854,0.00045725
5759.41881592,0.00041602
5761.34762329,0.00045283
5763.27643066,0.00049121
5765.20523804,0.00036157
5767.13404541,0.00036740
5769.06285278,0.00045147
5770.99166016,0.00043055
5772.92046753,0.00043165
5774.84927490,0.00041537
5776.77808228,0.00040618
5778.70688965,0.00047397
5780.63569702,0.00043398
5782.56450439,0.00041073
5784.49331177,0.00042106
5786.42211914,0.00036138
5788.35092651,0.00035961
5790.27973389,0.00040313
5792.20854126,0.00044234
5794.13734863,0.00041826
5796.06615601,0.00038760
5797.99496338,0.00039876
5799.92377075,0.00044545
5801.85257812,0.00038822
5803.78138550,0.00035068
5805.71019287,0.00043007
5807.63900024,0.00033129
5809.56780762,0.00038751
5811.49661499,0.00041011
5813.42542236,0.00028588
5815.35422974,0.00041539
5817.28303711,0.00039880
5819.21184448,0.00039091
5821.14065186,0.00043258
5823.06945923,0.00031420
5824.99826660,0.00034350
5826.92707397,0.00044196
5828.85588135,0.00041602
5830.78468872,0.00034057
5832.71349609,0.00039350
5834.64230347,0.00042070
5836.57111084,0.00035916
5838.49991821,0.00035914
5840.42872559,0.00038035
5842.35753296,0.00036541
5844.28634033,0.00032935
5846.21514770,0.00033626
5848.14395508,0.00033853
5850.07276245,0.00039078
5852.00156982,0.00041254
5853.93037720,0.00037297
5855.85918457,0.00037474
5857.78799194,0.00032148
5859.71679932,0.00031932
5861.64560669,0.00037447
5863.57441406,0.00039301
5865.50322144,0.00040080
5867.43202881,0.00039295
5869.36083618,0.00036315
5871.28964355,0.00035691
5873.21845093,0.00034163
5875.14725830,0.00032840
5877.07606567,0.00038644
5879.00487305,0.00034541
5880.93368042,0.00034346
5882.86248779,0.00034106
5884.79129517,0.00028261
5886.72010254,0.00035764
5888.64890991,0.00031228
5890.57771728,0.00032279
5892.50652466,0.00035988
5894.43533203,0.00031587
5896.36413940,0.00040321
5898.29294678,0.00033888
5900.22175415,0.00025666
5902.15056152,0.00032327
5904.07936890,0.00035452
5906.00817627,0.00034169
5907.93698364,0.00038556
5909.86579102,0.00039236
5911.79459839,0.00026368
5913.72340576,0.00030406
5915.65221313,0.00038670
5917.58102051,0.00035620
5919.50982788,0.00034543
5921.43863525,0.00030519
5923.36744263,0.00028116
5925.29625000,0.00028836
5927.22505737,0.00033589
5929.15386475,0.00032330
5931.08267212,0.00031137
5933.01147949,0.00033701
5934.94028686,0.00028838
5936.86909424,0.00031224
5938.79790161,0.00030908
5940.72670898,0.00031660
5942.65551636,0.00034063
5944.58432373,0.00027430
5946.51313110,0.00029619
5948.44193848,0.00026473
5950.37074585,0.00021696
5952.29955322,0.00028709
5954.22836060,0.00031647
5956.15716797,0.00032713
5958.08597534,0.00034117
5960.01478271,0.00027782
5961.94359009,0.00028251
5963.87239746,0.00038319
5965.80120483,0.00032276
5967.73001221,0.00031636
5969.65881958,0.00037422
5971.58762695,0.00027407
5973.51643433,0.00024448
5975.44524170,0.00028012
5977.37404907,0.00034082
5979.30285645,0.00033802
5981.23166382,0.00031582
5983.16047119,0.00035433
5985.08927856,0.00028147
5987.01808594,0.00026030
5988.94689331,0.00025971
5990.87570068,0.00026293
5992.80450806,0.00030756
5994.73331543,0.00028815
5996.66212280,0.00029787
5998.59093018,0.00027873
6000.51973755,0.00026458
