399.26312622,0.00096615
401.19193359,0.00118002
403.12074097,0.00141217
405.04954834,0.00186560
406.97835571,0.00121293
408.90716309,0.00131201
410.83597046,0.00173399
412.76477783,0.00127888
414.69358521,0.00205813
416.62239258,0.00193549
418.55119995,0.00160027
420.48000732,0.00192803
422.40881470,0.00143581
424.33762207,0.00170696
426.26642944,0.00224786
428.19523682,0.00194957
430.12404419,0.00174026
432.05285156,0.00155681
433.98165894,0.00139160
435.91046631,0.00158404
437.83927368,0.00176479
439.76808105,0.00197420
441.69688843,0.00170981
443.62569580,0.00147617
445.55450317,0.00157950
447.48331055,0.00151567
449.41211792,0.00177668
451.34092529,0.00140404
453.26973267,0.00101027
455.19854004,0.00120669
457.12734741,0.00131802
459.05615479,0.00134396
460.98496216,0.00104917
462.91376953,0.00123311
464.84257690,0.00131796
466.77138428,0.00094743
468.70019165,0.00066960
470.62899902,0.00060943
472.55780640,0.00111786
474.48661377,0.00110936
476.41542114,0.00057265
478.34422852,0.00048676
480.27303589,0.00074469
482.20184326,0.00058326
484.13065063,0.00027260
486.05945801,0.00026147
487.98826538,0.00012687
489.91707275,0.00037223
491.84588013,0.00051863
493.77468750,0.00057686
495.70349487,0.00044809
497.63230225,0.00008299
499.56110962,0.00038749
501.48991699,0.00026523
503.41872437,0.00030806
505.34753174,0.00049658
507.27633911,0.00028664
509.20514648,0.00055587
511.13395386,0.00060556
513.06276123,0.00032176
514.99156860,0.00027987
516.92037598,0.00051220
518.84918335,0.00061757
520.77799072,0.00026561
522.70679810,0.00008082
524.63560547,0.00037787
526.56441284,0.00046920
528.49322021,0.00028725
530.42202759,0.00023692
532.35083496,0.00035939
534.27964233,0.00049635
536.20844971,0.00084991
538.13725708,-0.00006268
540.06606445,0.00002055
541.99487183,0.00044804
543.92367920,-0.00013327
545.85248657,0.00026319
547.78129395,0.00012611
549.71010132,0.00011231
551.63890869,0.00017060
553.56771606,0.00024165
555.49652344,0.00038957
557.42533081,-0.00017863
559.35413818,0.00004065
561.28294556,0.00051949
563.21175293,0.00043238
565.14056030,0.00027301
567.06936768,0.00026837
568.99817505,0.00021977
570.92698242,0.00027724
572.85578979,0.00034372
574.78459717,0.00030633
576.71340454,0.00044195
578.64221191,0.00028707
580.57101929,0.00032507
582.49982666,0.00027368
584.42863403,-0.00010490
586.35744141,0.00004687
588.28624878,0.00015170
590.21505615,0.00025073
592.14386353,0.00030102
594.07267090,0.00020000
596.00147827,0.00002519
597.93028564,0.00012160
599.85909302,0.00011753
601.78790039,0.00012374
603.71670776,0.00035495
605.64551514,-0.00002154
607.57432251,0.00033217
609.50312988,0.00034491
611.43193726,-0.00004187
613.36074463,0.00046494
615.28955200,0.00015861
617.21835938,-0.00008076
619.14716675,0.00029865
621.07597412,-0.00001563
623.00478149,0.00001605
624.93358887,-0.00001548
626.86239624,-0.00003875
628.79120361,0.00018549
630.72001099,0.00026138
632.64881836,0.00088457
634.57762573,0.00126155
636.50643311,0.00143747
638.43524048,0.00165942
640.36404785,0.00160616
642.29285522,0.00177590
644.22166260,0.00211700
646.15046997,0.00199320
648.07927734,0.00190892
650.00808472,0.00237673
651.93689209,0.00215416
653.86569946,0.00219320
655.79450684,0.00283961
657.72331421,0.00277710
659.65212158,0.00274123
661.58092896,0.00267038
663.50973633,0.00301348
665.43854370,0.00321245
667.36735107,0.00261475
669.29615845,0.00294939
671.22496582,0.00336514
673.15377319,0.00357665
675.08258057,0.00396404
677.01138794,0.00388048
678.94019531,0.00418328
680.86900269,0.00427141
682.79781006,0.00405764
684.72661743,0.00418700
686.65542480,0.00395789
688.58423218,0.00380218
690.51303955,0.00421754
692.44184692,0.00483403
694.37065430,0.00492561
696.29946167,0.00522437
698.22826904,0.00612735
700.15707642,0.00651576
702.08588379,0.00660331
704.01469116,0.00601260
705.94349854,0.00547482
707.87230591,0.00496629
709.80111328,0.00343421
711.72992065,0.00281725
713.65872803,0.00201671
715.58753540,0.00056698
717.51634277,0.00046194
719.44515015,0.00041794
721.37395752,0.00017438
723.30276489,0.00039103
725.23157227,0.00057469
727.16037964,0.00029092
729.08918701,-0.00011048
731.01799438,0.00001132
732.94680176,0.00016132
734.87560913,0.00022078
736.80441650,0.00025475
738.73322388,0.00013823
740.66203125,0.00019692
742.59083862,0.00010331
744.51964600,0.00012540
746.44845337,0.00043388
748.37726074,0.00025395
750.30606812,0.00010714
752.23487549,0.00037931
754.16368286,0.00041160
756.09249023,0.00019092
758.02129761,0.00009381
759.95010498,0.00011701
761.87891235,0.00030636
763.80771973,0.00035891
765.73652710,0.00021752
767.66533447,0.00039738
769.59414185,0.00039175
771.52294922,0.00048612
773.45175659,0.00066371
775.38056396,0.00049210
777.30937134,0.00062429
779.23817871,0.00056369
781.16698608,0.00036769
783.09579346,0.00026051
785.02460083,0.00043385
786.95340820,0.00063371
788.88221558,0.00041488
790.81102295,0.00052849
792.73983032,0.00059460
794.66863770,0.00067190
796.59744507,0.00068471
798.52625244,0.00086800
800.45505981,0.00118884
802.38386719,0.00070540
804.31267456,0.00066615
806.24148193,0.00059071
808.17028931,0.00042087
810.09909668,0.00055952
812.02790405,0.00022389
813.95671143,0.00034143
815.88551880,0.00041646
817.81432617,0.00052404
819.74313354,0.00058217
821.67194092,0.00040848
823.60074829,0.00071733
825.52955566,0.00048097
827.45836304,0.00049304
829.38717041,0.00084084
831.31597778,0.00101086
833.24478516,0.00147239
835.17359253,0.00143866
837.10239990,0.00150076
839.03120728,0.00174975
840.96001465,0.00164231
842.88882202,0.00146065
844.81762939,0.00125626
846.74643677,0.00123712
848.67524414,0.00120947
850.60405151,0.00112405
852.53285889,0.00106782
854.46166626,0.00097912
856.39047363,0.00088651
858.31928101,0.00081676
860.24808838,0.00073833
862.17689575,0.00059301
864.10570313,0.00058220
866.03451050,0.00060941
867.96331787,0.00051965
869.89212524,0.00047259
871.82093262,0.00056382
873.74973999,0.00058661
875.67854736,0.00044894
877.60735474,0.00045103
879.53616211,0.00041109
881.46496948,0.00033079
883.39377686,0.00031063
885.32258423,0.00037890
887.25139160,0.00056143
889.18019897,0.00029297
891.10900635,0.00035862
893.03781372,0.00053157
894.96662109,0.00038790
896.89542847,0.00077965
898.82423584,0.00060438
900.75304321,0.00035938
902.68185059,0.00072800
904.61065796,0.00072934
906.53946533,0.00051532
908.46827271,0.00069074
910.39708008,0.00070823
912.32588745,0.00049017
914.25469482,0.00090468
916.18350220,0.00093649
918.11230957,0.00091212
920.04111694,0.00128425
921.96992432,0.00125928
923.89873169,0.00151569
925.82753906,0.00189464
927.75634644,0.00188071
929.68515381,0.00169969
931.61396118,0.00190065
933.54276855,0.00218980
935.47157593,0.00237572
937.40038330,0.00269517
939.32919067,0.00263588
941.25799805,0.00241992
943.18680542,0.00268228
945.11561279,0.00297121
947.04442017,0.00280929
948.97322754,0.00287513
950.90203491,0.00272271
952.83084229,0.00260586
954.75964966,0.00264911
956.68845703,0.00248249
958.61726440,0.00276685
960.54607178,0.00253090
962.47487915,0.00275344
964.40368652,0.00286146
966.33249390,0.00243552
968.26130127,0.00286749
970.19010864,0.00291783
972.11891602,0.00336681
974.04772339,0.00356235
975.97653076,0.00361249
977.90533813,0.00400149
979.83414551,0.00427158
981.76295288,0.00496472
983.69176025,0.00496838
985.62056763,0.00569999
987.54937500,0.00639145
989.47818237,0.00693915
991.40698975,0.00806905
993.33579712,0.00848848
995.26460449,0.00941673
997.19341187,0.01009729
999.12221924,0.01083946
1001.05102661,0.01171664
1002.97983398,0.01242661
1004.90864136,0.01338367
1006.83744873,0.01410231
1008.76625610,0.01498115
1010.69506348,0.01569435
1012.62387085,0.01702047
1014.55267822,0.01793638
1016.48148560,0.01846930
1018.41029297,0.01955470
1020.33910034,0.02055028
1022.26790771,0.02149074
1024.19671509,0.02188867
1026.12552246,0.02293345
1028.05432983,0.02375715
1029.98313721,0.02430299
1031.91194458,0.02506585
1033.84075195,0.02545248
1035.76955933,0.02615345
1037.69836670,0.02626376
1039.62717407,0.02639843
1041.55598145,0.02635228
1043.48478882,0.02623153
1045.41359619,0.02596138
1047.34240356,0.02543609
1049.27121094,0.02549377
1051.20001831,0.02482080
1053.12882568,0.02429445
1055.05763306,0.02360948
1056.98644043,0.02306428
1058.91524780,0.02287656
1060.84405518,0.02197669
1062.77286255,0.02129780
1064.70166992,0.02049876
1066.63047729,0.01988081
1068.55928467,0.01904150
1070.48809204,0.01836142
1072.41689941,0.01759809
1074.34570679,0.01657674
1076.27451416,0.01601934
1078.20332153,0.01491632
1080.13212891,0.01453750
1082.06093628,0.01389511
1083.98974365,0.01312126
1085.91855103,0.01287359
1087.84735840,0.01183167
1089.77616577,0.01129798
1091.70497314,0.01100647
1093.63378052,0.01062246
1095.56258789,0.01000946
1097.49139526,0.00959992
1099.42020264,0.00957591
1101.34901001,0.00931293
1103.27781738,0.00912824
1105.20662476,0.00876101
1107.13543213,0.00870614
1109.06423950,0.00871298
1110.99304687,0.00867403
1112.92185425,0.00849900
1114.85066162,0.00844837
1116.77946899,0.00864916
1118.70827637,0.00839626
1120.63708374,0.00843951
1122.56589111,0.00835274
1124.49469849,0.00847569
1126.42350586,0.00868646
1128.35231323,0.00860939
1130.28112061,0.00894816
1132.20992798,0.00911689
1134.13873535,0.00957443
1136.06754272,0.01006731
1137.99635010,0.01041717
1139.92515747,0.01099114
1141.85396484,0.01171147
1143.78277222,0.01255458
1145.71157959,0.01324375
1147.64038696,0.01407890
1149.56919434,0.01474822
1151.49800171,0.01559920
1153.42680908,0.01659031
1155.35561646,0.01722484
1157.28442383,0.01795473
1159.21323120,0.01849655
1161.14203857,0.01911982
1163.07084595,0.01991842
1164.99965332,0.02042879
1166.92846069,0.02121493
1168.85726807,0.02230715
1170.78607544,0.02300999
1172.71488281,0.02379060
1174.64369019,0.02483463
1176.57249756,0.02568998
1178.50130493,0.02676957
1180.43011230,0.02792779
1182.35891968,0.02890043
1184.28772705,0.03005886
1186.21653442,0.03125370
1188.14534180,0.03278912
1190.07414917,0.03464848
1192.00295654,0.03594995
1193.93176392,0.03763288
1195.86057129,0.03947558
1197.78937866,0.04096749
1199.71818604,0.04314972
1201.64699341,0.04482173
1203.57580078,0.04648383
1205.50460815,0.04856709
1207.43341553,0.05025548
1209.36222290,0.05214796
1211.29103027,0.05363543
1213.21983765,0.05512038
1215.14864502,0.05662641
1217.07745239,0.05778984
1219.00625977,0.05873522
1220.93506714,0.05949849
1222.86387451,0.06056521
1224.79268188,0.06107020
1226.72148926,0.06141156
1228.65029663,0.06180224
1230.57910400,0.06198724
1232.50791138,0.06245906
1234.43671875,0.06252544
1236.36552612,0.06231386
1238.29433350,0.06214097
1240.22314087,0.06197208
1242.15194824,0.06190798
1244.08075562,0.06172086
1246.00956299,0.06135147
1247.93837036,0.06096558
1249.86717773,0.06049185
1251.79598511,0.06006477
1253.72479248,0.05960108
1255.65359985,0.05866033
1257.58240723,0.05787802
1259.51121460,0.05692043
1261.44002197,0.05593892
1263.36882935,0.05555890
1265.29763672,0.05473529
1267.22644409,0.05380262
1269.15525146,0.05306854
1271.08405884,0.05230804
1273.01286621,0.05162782
1274.94167358,0.05072941
1276.87048096,0.04963639
1278.79928833,0.04851922
1280.72809570,0.04765201
1282.65690308,0.04686743
1284.58571045,0.04600605
1286.51451782,0.04510691
1288.44332520,0.04429631
1290.37213257,0.04380547
1292.30093994,0.04335681
1294.22974731,0.04277265
1296.15855469,0.04230484
1298.08736206,0.04236370
1300.01616943,0.04249687
1301.94497681,0.04248604
1303.87378418,0.04310698
1305.80259155,0.04362196
1307.73139893,0.04381257
1309.66020630,0.04472902
1311.58901367,0.04547373
1313.51782104,0.04619482
1315.44662842,0.04749086
1317.37543579,0.04829731
1319.30424316,0.04951089
1321.23305054,0.05139119
1323.16185791,0.05300076
1325.09066528,0.05451285
1327.01947266,0.05599155
1328.94828003,0.05746068
1330.87708740,0.05892028
1332.80589478,0.06034154
1334.73470215,0.06122046
1336.66350952,0.06185424
1338.59231689,0.06175952
1340.52112427,0.06218628
1342.44993164,0.06470846
1344.37873901,0.06535081
1346.30754639,0.06506602
1348.23635376,0.06526430
1350.16516113,0.06463741
1352.09396851,0.06471714
1354.02277588,0.06389511
1355.95158325,0.06321426
1357.88039062,0.06290874
1359.80919800,0.06159960
1361.73800537,0.05920647
1363.66681274,0.05839521
1365.59562012,0.06111576
1367.52442749,0.05969075
1369.45323486,0.05891756
1371.38204224,0.06017817
1373.31084961,0.05685220
1375.23965698,0.05725844
1377.16846436,0.05881125
1379.09727173,0.05843384
1381.02607910,0.05858985
1382.95488647,0.05830057
1384.88369385,0.05831937
1386.81250122,0.05591921
1388.74130859,0.05661448
1390.67011597,0.06118939
1392.59892334,0.05991028
1394.52773071,0.05608936
1396.45653809,0.05852935
1398.38534546,0.05874503
1400.31415283,0.05831058
1402.24296021,0.06280525
1404.17176758,0.05961441
1406.10057495,0.05969104
1408.02938232,0.06213021
1409.95818970,0.05980262
1411.88699707,0.06094261
1413.81580444,0.05878590
1415.74461182,0.05975671
1417.67341919,0.05471947
1419.60222656,0.04875812
1421.53103394,0.05556501
1423.45984131,0.05409816
1425.38864868,0.05236676
1427.31745605,0.05308808
1429.24626343,0.04899600
1431.17507080,0.04765978
1433.10387817,0.04832784
1435.03268555,0.04436980
1436.96149292,0.03766628
1438.89030029,0.04217814
1440.81910767,0.04361373
1442.74791504,0.04042913
1444.67672241,0.04228095
1446.60552979,0.03892504
1448.53433716,0.03930099
1450.46314453,0.04069620
1452.39195190,0.04133129
1454.32075928,0.04301908
1456.24956665,0.03595264
1458.17837402,0.03709668
1460.10718140,0.04898101
1462.03598877,0.05261938
1463.96479614,0.05224715
1465.89360352,0.05426106
1467.82241089,0.06164036
1469.75121826,0.06633498
1471.68002563,0.05985178
1473.60883301,0.06264311
1475.53764038,0.07122441
1477.46644775,0.07682662
1479.39525513,0.08431114
1481.32406250,0.08576947
1483.25286987,0.09075161
1485.18167725,0.09404617
1487.11048462,0.09306467
1489.03929199,0.09284998
1490.96809937,0.09333372
1492.89690674,0.10779598
1494.82571411,0.10632077
1496.75452148,0.09593334
1498.68332886,0.10806620
1500.61213623,0.11167097
1502.54094360,0.11885995
1504.46975098,0.11402044
1506.39855835,0.08433995
1508.32736572,0.10071556
1510.25617310,0.11869042
1512.18498047,0.11454357
1514.11378784,0.12395649
1516.04259521,0.11285250
1517.97140259,0.11694869
1519.90020996,0.11401885
1521.82901733,0.09880819
1523.75782471,0.11947760
1525.68663208,0.11818045
1527.61543945,0.11726406
1529.54424683,0.12937412
1531.47305420,0.12488231
1533.40186157,0.11477102
1535.33066895,0.12045626
1537.25947632,0.12955204
1539.18828369,0.09477044
1541.11709106,0.09715471
1543.04589844,0.11661360
1544.97470581,0.11168777
1546.90351318,0.13102555
1548.83232056,0.12322114
1550.76112793,0.12594175
1552.68993530,0.12606639
1554.61874268,0.11451170
1556.54755005,0.12258272
1558.47635742,0.08867404
1560.40516479,0.09290084
1562.33397217,0.13115935
1564.26277954,0.12497211
1566.19158691,0.12753406
1568.12039429,0.12715349
1570.04920166,0.11268629
1571.97800903,0.12850186
1573.90681641,0.13136417
1575.83562378,0.10461895
1577.76443115,0.11664197
1579.69323853,0.13187423
1581.62204590,0.12589493
1583.55085327,0.12903620
1585.47966064,0.12709193
1587.40846802,0.12768883
1589.33727539,0.12669773
1591.26608276,0.12618773
1593.19489014,0.12631178
1595.12369751,0.12460887
1597.05250488,0.12609069
1598.98131226,0.12503824
1600.91011963,0.12558419
1602.83892700,0.12303045
1604.76773437,0.12466564
1606.69654175,0.12288542
1608.62534912,0.12207583
1610.55415649,0.12188058
1612.48296387,0.12182117
1614.41177124,0.12364468
1616.34057861,0.10181870
1618.26938599,0.10842156
1620.19819336,0.12613787
1622.12700073,0.11222327
1624.05580811,0.11215417
1625.98461548,0.11727507
1627.91342285,0.11650410
1629.84223022,0.11535516
1631.77103760,0.12239879
1633.69984497,0.11417742
1635.62865234,0.09442891
1637.55745972,0.10839389
1639.48626709,0.11960216
1641.41507446,0.11679325
1643.34388184,0.11985998
1645.27268921,0.10908287
1647.20149658,0.09603843
1649.13030396,0.11801115
1651.05911133,0.11361863
1652.98791870,0.07417232
1654.91672607,0.09833162
1656.84553345,0.12419490
1658.77434082,0.11897932
1660.70314819,0.12276763
1662.63195557,0.11242835
1664.56076294,0.11781387
1666.48957031,0.12725371
1668.41837769,0.11236690
1670.34718506,0.10882880
1672.27599243,0.12315707
1674.20479980,0.11516231
1676.13360718,0.11007431
1678.06241455,0.12656146
1679.99122192,0.12280180
1681.92002930,0.12176687
1683.84883667,0.10090014
1685.77764404,0.09805110
1687.70645142,0.13427013
1689.63525879,0.11840013
1691.56406616,0.12813789
1693.49287354,0.13287714
1695.42168091,0.09785044
1697.35048828,0.11915852
1699.27929565,0.10741450
1701.20810303,0.09550844
1703.13691040,0.12920737
1705.06571777,0.11999738
1706.99452515,0.12019429
1708.92333252,0.13099587
1710.85213989,0.12599514
1712.78094727,0.12835073
1714.70975464,0.12004301
1716.63856201,0.10806584
1718.56736938,0.10597213
1720.49617676,0.12477516
1722.42498413,0.13029175
1724.35379150,0.12102766
1726.28259888,0.13119252
1728.21140625,0.12225083
1730.14021362,0.12265268
1732.06902100,0.12054898
1733.99782837,0.09288685
1735.92663574,0.11301684
1737.85544312,0.12588421
1739.78425049,0.11237301
1741.71305786,0.12168176
1743.64186523,0.12386501
1745.57067261,0.12395910
1747.49947998,0.12529247
1749.42828735,0.12036303
1751.35709473,0.11527938
1753.28590210,0.12643641
1755.21470947,0.13298321
1757.14351685,0.12185777
1759.07232422,0.13292003
1761.00113159,0.12610564
1762.92993896,0.12090269
1764.85874634,0.13798606
1766.78755371,0.12511340
1768.71636108,0.12585177
1770.64516846,0.12595190
1772.57397583,0.11302381
1774.50278320,0.12543523
1776.43159058,0.13262731
1778.36039795,0.13089959
1780.28920532,0.12951159
1782.21801270,0.13014749
1784.14682007,0.13025200
1786.07562744,0.12760884
1788.00443481,0.13383287
1789.93324219,0.13116619
1791.86204956,0.11917678
1793.79085693,0.12340565
1795.71966431,0.13228461
1797.64847168,0.13097662
1799.57727905,0.12884836
1801.50608643,0.12686808
1803.43489380,0.13050503
1805.36370117,0.13339886
1807.29250854,0.13176417
1809.22131592,0.13215265
1811.15012329,0.12897125
1813.07893066,0.13248841
1815.00773804,0.13302131
1816.93654541,0.13149166
1818.86535278,0.13299197
1820.79416016,0.13220415
1822.72296753,0.13399260
1824.65177490,0.12582779
1826.58058228,0.12968126
1828.50938965,0.13061780
1830.43819702,0.12242558
1832.36700439,0.13266224
1834.29581177,0.13223559
1836.22461914,0.13166119
1838.15342651,0.13154516
1840.08223389,0.13192132
1842.01104126,0.13270029
1843.93984863,0.11829251
1845.86865601,0.12497951
1847.79746338,0.13224477
1849.72627075,0.12922436
1851.65507812,0.13292882
1853.58388550,0.13034441
1855.51269287,0.13161828
1857.44150024,0.13107288
1859.37030762,0.12999237
1861.29911499,0.13090318
1863.22792236,0.12954803
1865.15672974,0.13111119
1867.08553711,0.12703624
1869.01434448,0.12191488
1870.94315186,0.12616198
1872.87195923,0.13083807
1874.80076660,0.12896109
1876.72957397,0.12950549
1878.65838135,0.12932298
1880.58718872,0.12833449
1882.51599609,0.12955216
1884.44480347,0.12749493
1886.37361084,0.12913293
1888.30241821,0.12680924
1890.23122559,0.12408324
1892.16003296,0.12848915
1894.08884033,0.12700042
1896.01764771,0.12642692
1897.94645508,0.12773894
1899.87526245,0.12695947
1901.80406982,0.12730706
1903.73287720,0.12659156
1905.66168457,0.12718901
1907.59049194,0.12606363
1909.51929932,0.12505946
1911.44810669,0.12576473
1913.37691406,0.12591374
1915.30572144,0.12699839
1917.23452881,0.12190703
1919.16333618,0.12166835
1921.09214355,0.12627849
1923.02095093,0.12256265
1924.94975830,0.12453966
1926.87856567,0.12617892
1928.80737305,0.12456173
1930.73618042,0.12589797
1932.66498779,0.12417836
1934.59379517,0.12524134
1936.52260254,0.12454991
1938.45140991,0.12464058
1940.38021729,0.12496217
1942.30902466,0.12113166
1944.23783203,0.12304765
1946.16663940,0.12433099
1948.09544678,0.12393210
1950.02425415,0.12442645
1951.95306152,0.12407041
1953.88186890,0.12423505
1955.81067627,0.12370420
1957.73948364,0.12398425
1959.66829102,0.12367937
1961.59709839,0.12359096
1963.52590576,0.12393125
1965.45471313,0.12311720
1967.38352051,0.12201945
1969.31232788,0.12272213
1971.24113525,0.12357990
1973.16994263,0.12280041
1975.09875000,0.12331282
1977.02755737,0.12272604
1978.95636475,0.12272958
1980.88517212,0.12292913
1982.81397949,0.12218060
1984.74278687,0.12269920
1986.67159424,0.12174249
1988.60040161,0.12185486
1990.52920898,0.12103623
1992.45801636,0.11957525
1994.38682373,0.12106350
1996.31563110,0.12137100
1998.24443848,0.12085855
2000.17324585,0.12080503
2002.10205322,0.12053268
2004.03086060,0.12026998
2005.95966797,0.12015637
2007.88847534,0.11995701
2009.81728271,0.11979932
2011.74609009,0.11950587
2013.67489746,0.11935394
2015.60370483,0.11888698
2017.53251221,0.11780798
2019.46131958,0.11839604
2021.39012695,0.11851154
2023.31893433,0.11803865
2025.24774170,0.11807624
2027.17654907,0.11756003
2029.10535645,0.11751650
2031.03416382,0.11718461
2032.96297119,0.11701670
2034.89177856,0.11679556
2036.82058594,0.11650874
2038.74939331,0.11639465
2040.67820068,0.11581077
2042.60700806,0.11580669
2044.53581543,0.11563119
2046.46462280,0.11524593
2048.39343018,0.11510716
2050.32223755,0.11500129
2052.25104492,0.11481301
2054.17985229,0.11449859
2056.10865967,0.11436044
2058.03746704,0.11413534
2059.96627441,0.11385831
2061.89508179,0.11370863
2063.82388916,0.11335006
2065.75269653,0.11292250
2067.68150391,0.11313488
2069.61031128,0.11293308
2071.53911865,0.11258043
2073.46792603,0.11248112
2075.39673340,0.11208332
2077.32554077,0.11198515
2079.25434814,0.11174848
2081.18315552,0.11178040
2083.11196289,0.11149693
2085.04077026,0.11121989
2086.96957764,0.11127195
2088.89838501,0.11070724
2090.82719238,0.11060253
2092.75599976,0.11047867
2094.68480713,0.11034975
2096.61361450,0.11020131
2098.54242187,0.10992418
2100.47122925,0.10977034
2102.40003662,0.10957830
2104.32884399,0.10956851
2106.25765137,0.10931441
2108.18645874,0.10928504
2110.11526611,0.10903126
2112.04407349,0.10885379
2113.97288086,0.10866664
2115.90168823,0.10833549
2117.83049561,0.10852297
2119.75930298,0.10816742
2121.68811035,0.10804004
2123.61691772,0.10793929
2125.54572510,0.10767831
2127.47453247,0.10768984
2129.40333984,0.10743532
2131.33214722,0.10731336
2133.26095459,0.10727685
2135.18976196,0.10717456
2137.11856934,0.10691211
2139.04737671,0.10690938
2140.97618408,0.10671184
2142.90499146,0.10650678
2144.83379883,0.10657717
2146.76260620,0.10631564
2148.69141357,0.10629394
2150.62022095,0.10615765
2152.54902832,0.10599075
2154.47783569,0.10590237
2156.40664307,0.10580471
2158.33545044,0.10567146
2160.26425781,0.10546546
2162.19306519,0.10541397
2164.12187256,0.10526764
2166.05067993,0.10523944
2167.97948730,0.10508801
2169.90829468,0.10501765
2171.83710205,0.10488991
2173.76590942,0.10474280
2175.69471680,0.10462645
2177.62352417,0.10451905
2179.55233154,0.10471728
2181.48113892,0.10432669
2183.40994629,0.10414131
2185.33875366,0.10411870
2187.26756104,0.10404222
2189.19636841,0.10406731
2191.12517578,0.10382132
2193.05398315,0.10388529
2194.98279053,0.10366908
2196.91159790,0.10347749
2198.84040527,0.10337137
2200.76921265,0.10330770
2202.69802002,0.10319152
2204.62682739,0.10302308
2206.55563477,0.10307515
2208.48444214,0.10275313
2210.41324951,0.10279252
2212.34205688,0.10259913
2214.27086426,0.10247210
2216.19967163,0.10256720
2218.12847900,0.10226194
2220.05728638,0.10227604
2221.98609375,0.10202896
2223.91490112,0.10188995
2225.84370850,0.10184060
2227.77251587,0.10176223
2229.70132324,0.10161437
2231.63013062,0.10140663
2233.55893799,0.10139526
2235.48774536,0.10115182
2237.41655273,0.10113298
2239.34536011,0.10091195
2241.27416748,0.10069309
2243.20297485,0.10062172
2245.13178223,0.10046718
2247.06058960,0.10035896
2248.98939697,0.10012831
2250.91820435,0.10000098
2252.84701172,0.09985453
2254.77581909,0.09983723
2256.70462646,0.09957972
2258.63343384,0.09957707
2260.56224121,0.09958664
2262.49104858,0.09925368
2264.41985596,0.09923062
2266.34866333,0.09905282
2268.27747070,0.09898196
2270.20627808,0.09873855
2272.13508545,0.09875442
2274.06389282,0.09869627
2275.99270020,0.09842652
2277.92150757,0.09865059
2279.85031494,0.09842931
2281.77912231,0.09833980
2283.70792969,0.09830961
2285.63673706,0.09816954
2287.56554443,0.09786589
2289.49435181,0.09755890
2291.42315918,0.09746736
2293.35196655,0.09707189
2295.28077393,0.09695870
2297.20958130,0.09654160
2299.13838867,0.09625287
2301.06719604,0.09610820
2302.99600342,0.09555995
2304.92481079,0.09520340
2306.85361816,0.09451325
2308.78242554,0.09377628
2310.71123291,0.09327670
2312.64004028,0.09243187
2314.56884766,0.09134383
2316.49765503,0.09060249
2318.42646240,0.08946975
2320.35526978,0.08811539
2322.28407715,0.08696297
2324.21288452,0.08585835
2326.14169189,0.08508926
2328.07049927,0.08393452
2329.99930664,0.08308478
2331.92811401,0.08238070
2333.85692139,0.08201854
2335.78572876,0.08182921
2337.71453613,0.08139389
2339.64334351,0.08156972
2341.57215088,0.08167670
2343.50095825,0.08291321
2345.42976562,0.08449128
2347.35857300,0.08775190
2349.28738037,0.09088837
2351.21618774,0.08788610
2353.14499512,0.08351619
2355.07380249,0.08045346
2357.00260986,0.07802407
2358.93141724,0.07667689
2360.86022461,0.07563604
2362.78903198,0.07566044
2364.71783936,0.07592328
2366.64664673,0.07689255
2368.57545410,0.07839777
2370.50426147,0.08032994
2372.43306885,0.08276629
2374.36187622,0.08480630
2376.29068359,0.08698285
2378.21949097,0.08881634
2380.14829834,0.09022415
2382.07710571,0.09119819
2384.00591309,0.09189945
2385.93472046,0.09224524
2387.86352783,0.09216126
2389.79233521,0.09221998
2391.72114258,0.09219706
2393.64994995,0.09211396
2395.57875732,0.09184164
2397.50756470,0.09173569
2399.43637207,0.09165870
2401.36517944,0.09154727
2403.29398682,0.09156127
2405.22279419,0.09135808
2407.15160156,0.09120508
2409.08040894,0.09105797
2411.00921631,0.09101048
2412.93802368,0.09093839
2414.86683105,0.09081048
2416.79563843,0.09064652
2418.72444580,0.09057815
2420.65325317,0.09053527
2422.58206055,0.09034632
2424.51086792,0.09032144
2426.43967529,0.09015557
2428.36848267,0.09010880
2430.29729004,0.08995914
2432.22609741,0.08978636
2434.15490479,0.08976281
2436.08371216,0.08962341
2438.01251953,0.08963197
2439.94132690,0.08941020
2441.87013428,0.08937831
2443.79894165,0.08931278
2445.72774902,0.08913589
2447.65655640,0.08900229
2449.58536377,0.08873682
2451.51417114,0.08880889
2453.44297852,0.08864085
2455.37178589,0.08850023
2457.30059326,0.08846669
2459.22940063,0.08834442
2461.15820801,0.08832654
2463.08701538,0.08812000
2465.01582275,0.08792968
2466.94463013,0.08786567
2468.87343750,0.08789029
2470.80224487,0.08769788
2472.73105225,0.08755988
2474.65985962,0.08749006
2476.58866699,0.08733034
2478.51747437,0.08736034
2480.44628174,0.08727174
2482.37508911,0.08712077
2484.30389648,0.08705788
2486.23270386,0.08695414
2488.16151123,0.08672193
2490.09031860,0.08671503
2492.01912598,0.08664451
2493.94793335,0.08640732
2495.87674072,0.08635545
2497.80554810,0.08619571
2499.73435547,0.08618817
2501.66316284,0.08606257
2503.59197021,0.08592109
2505.52077759,0.08589460
2507.44958496,0.08563378
2509.37839233,0.08556195
2511.30719971,0.08563936
2513.23600708,0.08545659
2515.16481445,0.08526067
2517.09362183,0.08536644
2519.02242920,0.08510859
2520.95123657,0.08495066
2522.88004395,0.08499017
2524.80885132,0.08481113
2526.73765869,0.08480275
2528.66646606,0.08455789
2530.59527344,0.08452614
2532.52408081,0.08443198
2534.45288818,0.08423865
2536.38169556,0.08418726
2538.31050293,0.08403409
2540.23931030,0.08409394
2542.16811768,0.08383607
2544.09692505,0.08387612
2546.02573242,0.08380015
2547.95453979,0.08345458
2549.88334717,0.08355570
2551.81215454,0.08328056
2553.74096191,0.08321571
2555.66976929,0.08325680
2557.59857666,0.08301966
2559.52738403,0.08301079
2561.45619141,0.08294880
2563.38499878,0.08275416
2565.31380615,0.08265954
2567.24261353,0.08258235
2569.17142090,0.08245990
2571.10022827,0.08239047
2573.02903564,0.08228201
2574.95784302,0.08223511
2576.88665039,0.08209770
2578.81545776,0.08205975
2580.74426514,0.08193835
2582.67307251,0.08165305
2584.60187988,0.08172256
2586.53068726,0.08157051
2588.45949463,0.08141072
2590.38830200,0.08137748
2592.31710937,0.08125564
2594.24591675,0.08116063
2596.17472412,0.08102395
2598.10353149,0.08095043
2600.03233887,0.08085614
2601.96114624,0.08081239
2603.88995361,0.08063681
2605.81876099,0.08062673
2607.74756836,0.08055858
2609.67637573,0.08032545
2611.60518311,0.08025502
2613.53399048,0.08008331
2615.46279785,0.08018891
2617.39160522,0.08006190
2619.32041260,0.07985976
2621.24921997,0.07978885
2623.17802734,0.07958999
2625.10683472,0.07961747
2627.03564209,0.07944325
2628.96444946,0.07936840
2630.89325684,0.07932277
2632.82206421,0.07913608
2634.75087158,0.07898936
2636.67967895,0.07888034
2638.60848633,0.07889318
2640.53729370,0.07872069
2642.46610107,0.07860019
2644.39490845,0.07848361
2646.32371582,0.07831911
2648.25252319,0.07826187
2650.18133057,0.07821609
2652.11013794,0.07804151
2654.03894531,0.07792428
2655.96775269,0.07792351
2657.89656006,0.07773958
2659.82536743,0.07769608
2661.75417480,0.07759811
2663.68298218,0.07748254
2665.61178955,0.07738131
2667.54059692,0.07727630
2669.46940430,0.07723672
2671.39821167,0.07703429
2673.32701904,0.07710194
2675.25582642,0.07690842
2677.18463379,0.07673219
2679.11344116,0.07675938
2681.04224854,0.07647713
2682.97105591,0.07648090
2684.89986328,0.07637329
2686.82867065,0.07616062
2688.75747803,0.07608299
2690.68628540,0.07602333
2692.61509277,0.07599100
2694.54390015,0.07584032
2696.47270752,0.07573703
2698.40151489,0.07564062
2700.33032227,0.07555194
2702.25912964,0.07538430
2704.18793701,0.07526788
2706.11674438,0.07525099
2708.04555176,0.07514703
2709.97435913,0.07502440
2711.90316650,0.07495668
2713.83197388,0.07486244
2715.76078125,0.07466141
2717.68958862,0.07450524
2719.61839600,0.07439522
2721.54720337,0.07441972
2723.47601074,0.07429184
2725.40481812,0.07409137
2727.33362549,0.07399297
2729.26243286,0.07380827
2731.19124023,0.07378593
2733.12004761,0.07365400
2735.04885498,0.07358757
2736.97766235,0.07351525
2738.90646973,0.07325321
2740.83527710,0.07319692
2742.76408447,0.07313631
2744.69289185,0.07300998
2746.62169922,0.07297204
2748.55050659,0.07297171
2750.47931396,0.07278511
2752.40812134,0.07267579
2754.33692871,0.07244357
2756.26573608,0.07225426
2758.19454346,0.07231724
2760.12335083,0.07213426
2762.05215820,0.07213616
2763.98096558,0.07189545
2765.90977295,0.07178488
2767.83858032,0.07183444
2769.76738770,0.07155256
2771.69619507,0.07158761
2773.62500244,0.07137656
2775.55380981,0.07128304
2777.48261719,0.07121354
2779.41142456,0.07104091
2781.34023193,0.07101242
2783.26903931,0.07070144
2785.19784668,0.07066975
2787.12665405,0.07057837
2789.05546143,0.07043809
2790.98426880,0.07033774
2792.91307617,0.07022939
2794.84188354,0.07016854
2796.77069092,0.06990048
2798.69949829,0.06984255
2800.62830566,0.06960860
2802.55711304,0.06942394
2804.48592041,0.06942891
2806.41472778,0.06925722
2808.34353516,0.06917540
2810.27234253,0.06910347
2812.20114990,0.06901662
2814.12995728,0.06880474
2816.05876465,0.06860502
2817.98757202,0.06850021
2819.91637939,0.06840974
2821.84518677,0.06823212
2823.77399414,0.06811711
2825.70280151,0.06812563
2827.63160889,0.06790136
2829.56041626,0.06777230
2831.48922363,0.06770138
2833.41803101,0.06758996
2835.34683838,0.06742598
2837.27564575,0.06712561
2839.20445312,0.06699339
2841.13326050,0.06684148
2843.06206787,0.06656222
2844.99087524,0.06628369
2846.91968262,0.06592260
2848.84848999,0.06545964
2850.77729736,0.06524297
2852.70610474,0.06527850
2854.63491211,0.06527107
2856.56371948,0.06512578
2858.49252686,0.06502053
2860.42133423,0.06502260
2862.35014160,0.06478202
2864.27894897,0.06471464
2866.20775635,0.06469333
2868.13656372,0.06453312
2870.06537109,0.06444922
2871.99417847,0.06421368
2873.92298584,0.06423393
2875.85179321,0.06414862
2877.78060059,0.06395622
2879.70940796,0.06394140
2881.63821533,0.06378511
2883.56702270,0.06375217
2885.49583008,0.06367210
2887.42463745,0.06354718
2889.35344482,0.06341193
2891.28225220,0.06323332
2893.21105957,0.06313211
2895.13986694,0.06293695
2897.06867432,0.06269307
2898.99748169,0.06258555
2900.92628906,0.06256165
2902.85509644,0.06230775
2904.78390381,0.06212811
2906.71271118,0.06202194
2908.64151855,0.06169616
2910.57032593,0.06141037
2912.49913330,0.06112564
2914.42794067,0.06083947
2916.35674805,0.06053032
2918.28555542,0.06034207
2920.21436279,0.06028053
2922.14317017,0.06009269
2924.07197754,0.06007687
2926.00078491,0.06004903
2927.92959229,0.05982903
2929.85839966,0.05982339
2931.78720703,0.05982117
2933.71601440,0.05979036
2935.64482178,0.05978973
2937.57362915,0.05966905
2939.50243652,0.05973741
2941.43124390,0.05971770
2943.36005127,0.05961826
2945.28885864,0.05956765
2947.21766602,0.05941267
2949.14647339,0.05937085
2951.07528076,0.05916096
2953.00408813,0.05899867
2954.93289551,0.05878644
2956.86170288,0.05852978
2958.79051025,0.05853361
2960.71931763,0.05832122
2962.64812500,0.05817107
2964.57693237,0.05801318
2966.50573975,0.05792241
2968.43454712,0.05795670
2970.36335449,0.05791803
2972.29216187,0.05803855
2974.22096924,0.05795094
2976.14977661,0.05797650
2978.07858398,0.05802326
2980.00739136,0.05786476
2981.93619873,0.05780217
2983.86500610,0.05775932
2985.79381348,0.05769259
2987.72262085,0.05746511
2989.65142822,0.05753092
2991.58023560,0.05746903
2993.50904297,0.05718958
2995.43785034,0.05722590
2997.36665771,0.05703944
2999.29546509,0.05700659
3001.22427246,0.05705684
3003.15307983,0.05679557
3005.08188721,0.05652668
3007.01069458,0.05635720
3008.93950195,0.05637097
3010.86830933,0.05620147
3012.79711670,0.05601130
3014.72592407,0.05588809
3016.65473145,0.05561360
3018.58353882,0.05554934
3020.51234619,0.05550753
3022.44115356,0.05532962
3024.36996094,0.05511392
3026.29876831,0.05499659
3028.22757568,0.05497898
3030.15638306,0.05468512
3032.08519043,0.05447369
3034.01399780,0.05435140
3035.94280518,0.05416313
3037.87161255,0.05410856
3039.80041992,0.05390166
3041.72922729,0.05382473
3043.65803467,0.05375428
3045.58684204,0.05350614
3047.51564941,0.05334164
3049.44445679,0.05311134
3051.37326416,0.05300121
3053.30207153,0.05291330
3055.23087891,0.05274209
3057.15968628,0.05254077
3059.08849365,0.05244286
3061.01730103,0.05240206
3062.94610840,0.05218739
3064.87491577,0.05201034
3066.80372314,0.05178581
3068.73253052,0.05175860
3070.66133789,0.05172250
3072.59014526,0.05143665
3074.51895264,0.05126762
3076.44776001,0.05110883
3078.37656738,0.05099436
3080.30537476,0.05074934
3082.23418213,0.05066802
3084.16298950,0.05062357
3086.09179687,0.05031229
3088.02060425,0.05020451
3089.94941162,0.05001504
3091.87821899,0.04984495
3093.80702637,0.04969007
3095.73583374,0.04946657
3097.66464111,0.04939006
3099.59344849,0.04917803
3101.52225586,0.04894262
3103.45106323,0.04879858
3105.37987061,0.04871299
3107.30867798,0.04854164
3109.23748535,0.04826709
3111.16629272,0.04814827
3113.09510010,0.04798052
3115.02390747,0.04763491
3116.95271484,0.04747725
3118.88152222,0.04741016
3120.81032959,0.04718893
3122.73913696,0.04701409
3124.66794434,0.04680910
3126.59675171,0.04659335
3128.52555908,0.04641567
3130.45436645,0.04624093
3132.38317383,0.04601533
3134.31198120,0.04580985
3136.24078857,0.04575180
3138.16959595,0.04551215
3140.09840332,0.04531216
3142.02721069,0.04511131
3143.95601807,0.04482024
3145.88482544,0.04471679
3147.81363281,0.04453617
3149.74244019,0.04436513
3151.67124756,0.04414010
3153.60005493,0.04386736
3155.52886230,0.04375473
3157.45766968,0.04356648
3159.38647705,0.04331633
3161.31528442,0.04318266
3163.24409180,0.04301148
3165.17289917,0.04285714
3167.10170654,0.04270059
3169.03051392,0.04233032
3170.95932129,0.04213084
3172.88812866,0.04192765
3174.81693604,0.04177679
3176.74574341,0.04167692
3178.67455078,0.04137861
3180.60335815,0.04132836
3182.53216553,0.04113175
3184.46097290,0.04093053
3186.38978027,0.04069909
3188.31858765,0.04041588
3190.24739502,0.04035677
3192.17620239,0.04015885
3194.10500977,0.04012552
3196.03381714,0.03981905
3197.96262451,0.03952572
3199.89143188,0.03951173
3201.82023926,0.03937063
3203.74904663,0.03924938
3205.67785400,0.03896412
3207.60666138,0.03893661
3209.53546875,0.03875249
3211.46427612,0.03846913
3213.39308350,0.03843391
3215.32189087,0.03825692
3217.25069824,0.03819887
3219.17950562,0.03801753
3221.10831299,0.03785980
3223.03712036,0.03781909
3224.96592773,0.03772783
3226.89473511,0.03757282
3228.82354248,0.03738932
3230.75234985,0.03736886
3232.68115723,0.03728013
3234.60996460,0.03712281
3236.53877197,0.03700114
3238.46757935,0.03691248
3240.39638672,0.03679362
3242.32519409,0.03678204
3244.25400146,0.03666338
3246.18280884,0.03650678
3248.11161621,0.03650416
3250.04042358,0.03636172
3251.96923096,0.03635549
3253.89803833,0.03620923
3255.82684570,0.03613288
3257.75565308,0.03604282
3259.68446045,0.03586732
3261.61326782,0.03606504
3263.54207520,0.03586220
3265.47088257,0.03572500
3267.39968994,0.03577529
3269.32849731,0.03564791
3271.25730469,0.03568687
3273.18611206,0.03558248
3275.11491943,0.03537833
3277.04372681,0.03537892
3278.97253418,0.03543124
3280.90134155,0.03523379
3282.83014893,0.03525242
3284.75895630,0.03527207
3286.68776367,0.03508593
3288.61657104,0.03508458
3290.54537842,0.03500238
3292.47418579,0.03490209
3294.40299316,0.03486072
3296.33180054,0.03487045
3298.26060791,0.03470519
3300.18941528,0.03464390
3302.11822266,0.03457390
3304.04703003,0.03442387
3305.97583740,0.03459035
3307.90464478,0.03437215
3309.83345215,0.03430885
3311.76225952,0.03439238
3313.69106689,0.03423853
3315.61987427,0.03427705
3317.54868164,0.03415524
3319.47748901,0.03405603
3321.40629639,0.03408257
3323.33510376,0.03404354
3325.26391113,0.03382269
3327.19271851,0.03377632
3329.12152588,0.03384859
3331.05033325,0.03372349
3332.97914062,0.03370671
3334.90794800,0.03359808
3336.83675537,0.03343487
3338.76556274,0.03345657
3340.69437012,0.03356848
3342.62317749,0.03340676
3344.55198486,0.03323209
3346.48079224,0.03317978
3348.40959961,0.03309974
3350.33840698,0.03310126
3352.26721436,0.03295474
3354.19602173,0.03294448
3356.12482910,0.03291941
3358.05363647,0.03287408
3359.98244385,0.03277101
3361.91125122,0.03266161
3363.84005859,0.03268865
3365.76886597,0.03258791
3367.69767334,0.03263869
3369.62648071,0.03244125
3371.55528809,0.03249757
3373.48409546,0.03256258
3375.41290283,0.03232703
3377.34171020,0.03239892
3379.27051758,0.03225398
3381.19932495,0.03228648
3383.12813232,0.03222452
3385.05693970,0.03211769
3386.98574707,0.03217227
3388.91455444,0.03219200
3390.84336182,0.03208124
3392.77216919,0.03177829
3394.70097656,0.03197704
3396.62978394,0.03189869
3398.55859131,0.03173449
3400.48739868,0.03172404
3402.41620605,0.03172614
3404.34501343,0.03182795
3406.27382080,0.03172827
3408.20262817,0.03186061
3410.13143555,0.03173794
3412.06024292,0.03172567
3413.98905029,0.03169235
3415.91785767,0.03172281
3417.84666504,0.03186736
3419.77547241,0.03159235
3421.70427979,0.03170024
3423.63308716,0.03172240
3425.56189453,0.03177372
3427.49070190,0.03167792
3429.41950928,0.03163080
3431.34831665,0.03172191
3433.27712402,0.03160061
3435.20593140,0.03178940
3437.13473877,0.03163269
3439.06354614,0.03177592
3440.99235352,0.03171381
3442.92116089,0.03162556
3444.84996826,0.03179141
3446.77877563,0.03128362
3448.70758301,0.03145211
3450.63639038,0.03173383
3452.56519775,0.03175276
3454.49400513,0.03176716
3456.42281250,0.03170423
3458.35161987,0.03183391
3460.28042725,0.03180709
3462.20923462,0.03171802
3464.13804199,0.03174003
3466.06684937,0.03186878
3467.99565674,0.03173908
3469.92446411,0.03189320
3471.85327148,0.03205088
3473.78207886,0.03198156
3475.71088623,0.03195543
3477.63969360,0.03193767
3479.56850098,0.03201242
3481.49730835,0.03165539
3483.42611572,0.03192804
3485.35492310,0.03221988
3487.28373047,0.03204065
3489.21253784,0.03202705
3491.14134521,0.03207061
3493.07015259,0.03230070
3494.99895996,0.03205979
3496.92776733,0.03218675
3498.85657471,0.03238757
3500.78538208,0.03236933
3502.71418945,0.03204507
3504.64299683,0.03193957
3506.57180420,0.03265439
3508.50061157,0.03220810
3510.42941895,0.03218555
3512.35822632,0.03269149
3514.28703369,0.03268798
3516.21584106,0.03276998
3518.14464844,0.03259706
3520.07345581,0.03285425
3522.00226318,0.03260991
3523.93107056,0.03226730
3525.85987793,0.03249627
3527.78868530,0.03252647
3529.71749268,0.03261887
3531.64630005,0.03293471
3533.57510742,0.03318686
3535.50391479,0.03299513
3537.43272217,0.03294095
3539.36152954,0.03314511
3541.29033691,0.03324350
3543.21914429,0.03308172
3545.14795166,0.03252352
3547.07675903,0.03221262
3549.00556641,0.03312809
3550.93437378,0.03336363
3552.86318115,0.03267177
3554.79198853,0.03331361
3556.72079590,0.03356580
3558.64960327,0.03352901
3560.57841064,0.03334663
3562.50721802,0.03323989
3564.43602539,0.03343482
3566.36483276,0.03140465
3568.29364014,0.03078867
3570.22244751,0.03310579
3572.15125488,0.03402241
3574.08006226,0.03359259
3576.00886963,0.03369803
3577.93767700,0.03368602
3579.86648437,0.03370590
3581.79529175,0.03378735
3583.72409912,0.03389088
3585.65290649,0.03334061
3587.58171387,0.03081094
3589.51052124,0.03175209
3591.43932861,0.03435016
3593.36813599,0.03345987
3595.29694336,0.03302455
3597.22575073,0.03355483
3599.15455811,0.03391126
3601.08336548,0.03357413
3603.01217285,0.03384385
3604.94098022,0.03450809
3606.86978760,0.03346567
3608.79859497,0.03167430
3610.72740234,0.03232856
3612.65620972,0.03318997
3614.58501709,0.03224091
3616.51382446,0.03443428
3618.44263184,0.03219492
3620.37143921,0.03103952
3622.30024658,0.03474332
3624.22905395,0.03393349
3626.15786133,0.03548323
3628.08666870,0.03055542
3630.01547607,0.02785241
3631.94428345,0.03445191
3633.87309082,0.03377944
3635.80189819,0.03438026
3637.73070557,0.03509096
3639.65951294,0.03456903
3641.58832031,0.03499371
3643.51712769,0.03457009
3645.44593506,0.03494906
3647.37474243,0.03174535
3649.30354980,0.02925362
3651.23235718,0.02970744
3653.16116455,0.03485119
3655.08997192,0.03454176
3657.01877930,0.03116354
3658.94758667,0.03542798
3660.87639404,0.03496056
3662.80520142,0.03537473
3664.73400879,0.03528571
3666.66281616,0.03500963
3668.59162354,0.03415438
3670.52043091,0.02821432
3672.44923828,0.03361752
3674.37804565,0.03252419
3676.30685303,0.02711468
3678.23566040,0.03349619
3680.16446777,0.03447427
3682.09327515,0.03442628
3684.02208252,0.03555135
3685.95088989,0.03502546
3687.87969727,0.03173643
3689.80850464,0.02926544
3691.73731201,0.03312624
3693.66611938,0.03401715
3695.59492676,0.03477085
3697.52373413,0.03487745
3699.45254150,0.03448447
3701.38134888,0.03385918
3703.31015625,0.03256090
3705.23896362,0.03551094
3707.16777100,0.03397886
3709.09657837,0.03315882
3711.02538574,0.03150352
3712.95419312,0.02961874
3714.88300049,0.03442778
3716.81180786,0.03386901
3718.74061523,0.03405143
3720.66942261,0.03348069
3722.59822998,0.03225521
3724.52703735,0.03352315
3726.45584473,0.03119171
3728.38465210,0.03361950
3730.31345947,0.03333591
3732.24226685,0.03076901
3734.17107422,0.03023449
3736.09988159,0.02873911
3738.02868896,0.03022092
3739.95749634,0.03255779
3741.88630371,0.03412719
3743.81511108,0.02699845
3745.74391846,0.02538316
3747.67272583,0.03250492
3749.60153320,0.02830359
3751.53034058,0.02612954
3753.45914795,0.02973720
3755.38795532,0.03190777
3757.31676270,0.03312400
3759.24557007,0.03077530
3761.17437744,0.03171349
3763.10318481,0.03361458
3765.03199219,0.03157753
3766.96079956,0.03207871
3768.88960693,0.03184439
3770.81841431,0.03043921
3772.74722168,0.03269516
3774.67602905,0.03285758
3776.60483643,0.03277854
3778.53364380,0.03198427
3780.46245117,0.03076611
3782.39125854,0.03273072
3784.32006592,0.03212681
3786.24887329,0.03181814
3788.17768066,0.03244826
3790.10648804,0.03222894
3792.03529541,0.03200658
3793.96410278,0.03258456
3795.89291016,0.03089402
3797.82171753,0.03040210
3799.75052490,0.03201295
3801.67933228,0.02592769
3803.60813965,0.02965332
3805.53694702,0.03217955
3807.46575439,0.02660888
3809.39456177,0.03170411
3811.32336914,0.03118421
3813.25217651,0.03210764
3815.18098389,0.02938221
3817.10979126,0.02585248
3819.03859863,0.03212996
3820.96740601,0.02656983
3822.89621338,0.02762576
3824.82502075,0.03194129
3826.75382812,0.02922197
3828.68263550,0.03130716
3830.61144287,0.03011459
3832.54025024,0.02919856
3834.46905762,0.02975800
3836.39786499,0.02842155
3838.32667236,0.02583237
3840.25547974,0.02775382
3842.18428711,0.02996626
3844.11309448,0.02853010
3846.04190186,0.03071399
3847.97070923,0.03035488
3849.89951660,0.03025120
3851.82832397,0.02757107
3853.75713135,0.02105746
3855.68593872,0.02443484
3857.61474609,0.03032812
3859.54355347,0.02956900
3861.47236084,0.02929339
3863.40116821,0.02883332
3865.32997559,0.02682625
3867.25878296,0.02974499
3869.18759033,0.02745549
3871.11639770,0.02530890
3873.04520508,0.02969297
3874.97401245,0.02754055
3876.90281982,0.02939777
3878.83162720,0.03004830
3880.76043457,0.02606335
3882.68924194,0.02954216
3884.61804932,0.02785591
3886.54685669,0.02565257
3888.47566406,0.02963598
3890.40447144,0.02829025
3892.33327881,0.02665178
3894.26208618,0.02896153
3896.19089355,0.02933859
3898.11970093,0.02810280
3900.04850830,0.02674489
3901.97731567,0.02635289
3903.90612305,0.02619367
3905.83493042,0.02661425
3907.76373779,0.02889176
3909.69254517,0.02883453
3911.62135254,0.02856136
3913.55015991,0.02900798
3915.47896728,0.02811386
3917.40777466,0.02751285
3919.33658203,0.02720315
3921.26538940,0.02812303
3923.19419678,0.02810901
3925.12300415,0.02754802
3927.05181152,0.02794500
3928.98061890,0.02824097
3930.90942627,0.02772660
3932.83823364,0.02679587
3934.76704102,0.02792670
3936.69584839,0.02815725
3938.62465576,0.02781591
3940.55346313,0.02807581
3942.48227051,0.02713333
3944.41107788,0.02730119
3946.33988525,0.02768989
3948.26869263,0.02714069
3950.19750000,0.02706677
3952.12630737,0.02760672
3954.05511475,0.02761984
3955.98392212,0.02735083
3957.91272949,0.02736348
3959.84153687,0.02732287
3961.77034424,0.02721200
3963.69915161,0.02713637
3965.62795898,0.02742678
3967.55676636,0.02720257
3969.48557373,0.02712557
3971.41438110,0.02709925
3973.34318848,0.02681328
3975.27199585,0.02688534
3977.20080322,0.02677443
3979.12961060,0.02687792
3981.05841797,0.02675401
3982.98722534,0.02678227
3984.91603271,0.02685507
3986.84484009,0.02681335
3988.77364746,0.02671142
3990.70245483,0.02646330
3992.63126221,0.02666284
3994.56006958,0.02640494
3996.48887695,0.02642569
3998.41768433,0.02642069
4000.34649170,0.02634747
4002.27529907,0.02636690
4004.20410645,0.02603901
4006.13291382,0.02625837
4008.06172119,0.02611412
4009.99052856,0.02606994
4011.91933594,0.02609866
4013.84814331,0.02602621
4015.77695068,0.02602620
4017.70575806,0.02584145
4019.63456543,0.02589159
4021.56337280,0.02579451
4023.49218018,0.02588051
4025.42098755,0.02565508
4027.34979492,0.02562873
4029.27860229,0.02567432
4031.20740967,0.02543396
4033.13621704,0.02551380
4035.06502441,0.02539765
4036.99383179,0.02551442
4038.92263916,0.02535984
4040.85144653,0.02540575
4042.78025391,0.02540387
4044.70906128,0.02508356
4046.63786865,0.02517923
4048.56667603,0.02505591
4050.49548340,0.02507693
4052.42429077,0.02492111
4054.35309814,0.02497432
4056.28190552,0.02502439
4058.21071289,0.02479998
4060.13952026,0.02481623
4062.06832764,0.02473278
4063.99713501,0.02480695
4065.92594238,0.02464780
4067.85474976,0.02464695
4069.78355713,0.02464529
4071.71236450,0.02453741
4073.64117187,0.02454937
4075.56997925,0.02439529
4077.49878662,0.02442895
4079.42759399,0.02432160
4081.35640137,0.02429393
4083.28520874,0.02430896
4085.21401611,0.02425647
4087.14282349,0.02410807
4089.07163086,0.02408599
4091.00043823,0.02413894
4092.92924561,0.02392160
4094.85805298,0.02396784
4096.78686035,0.02388403
4098.71566772,0.02388940
4100.64447510,0.02383989
4102.57328247,0.02369606
4104.50208984,0.02368075
4106.43089722,0.02351150
4108.35970459,0.02358272
4110.28851196,0.02356682
4112.21731934,0.02360565
4114.14612671,0.02355177
4116.07493408,0.02343018
4118.00374145,0.02338174
4119.93254883,0.02338003
4121.86135620,0.02338936
4123.79016357,0.02318287
4125.71897095,0.02329915
4127.64777832,0.02312805
4129.57658569,0.02307301
4131.50539307,0.02312702
4133.43420044,0.02289522
4135.36300781,0.02300362
4137.29181519,0.02295000
4139.22062256,0.02292580
4141.14942993,0.02283864
4143.07823730,0.02280129
4145.00704468,0.02279424
4146.93585205,0.02267539
4148.86465942,0.02266500
4150.79346680,0.02256026
4152.72227417,0.02259926
4154.65108154,0.02254902
4156.57988892,0.02248254
4158.50869629,0.02239669
4160.43750366,0.02237593
4162.36631103,0.02232908
4164.29511841,0.02225339
4166.22392578,0.02222009
4168.15273315,0.02205727
4170.08154053,0.02217934
4172.01034790,0.02204217
4173.93915527,0.02209160
4175.86796265,0.02209351
4177.79677002,0.02189427
4179.72557739,0.02207111
4181.65438477,0.02183872
4183.58319214,0.02186295
4185.51199951,0.02186449
4187.44080688,0.02168457
4189.36961426,0.02175484
4191.29842163,0.02167292
4193.22722900,0.02161136
4195.15603638,0.02156798
4197.08484375,0.02152334
4199.01365112,0.02146698
4200.94245850,0.02154422
4202.87126587,0.02139014
4204.80007324,0.02133199
4206.72888062,0.02139465
4208.65768799,0.02132636
4210.58649536,0.02131838
4212.51530273,0.02111328
4214.44411011,0.02120064
4216.37291748,0.02107096
4218.30172485,0.02103190
4220.23053223,0.02114426
4222.15933960,0.02095945
4224.08814697,0.02098228
4226.01695435,0.02092373
4227.94576172,0.02099073
4229.87456909,0.02079551
4231.80337646,0.02078623
4233.73218384,0.02087330
4235.66099121,0.02064734
4237.58979858,0.02068052
4239.51860596,0.02052449
4241.44741333,0.02059058
4243.37622070,0.02059730
4245.30502808,0.02049598
4247.23383545,0.02047345
4249.16264282,0.02037969
4251.09145020,0.02036548
4253.02025757,0.02027733
4254.94906494,0.02031000
4256.87787231,0.02018484
4258.80667969,0.02024369
4260.73548706,0.02018734
4262.66429443,0.02005224
4264.59310181,0.02011459
4266.52190918,0.01998723
4268.45071655,0.02002195
4270.37952393,0.01988900
4272.30833130,0.01991028
4274.23713867,0.01989744
4276.16594604,0.01980869
4278.09475342,0.01984695
4280.02356079,0.01969028
4281.95236816,0.01968906
4283.88117554,0.01955603
4285.80998291,0.01956807
4287.73879028,0.01959048
4289.66759766,0.01958293
4291.59640503,0.01964447
4293.52521240,0.01947565
4295.45401978,0.01943660
4297.38282715,0.01936191
4299.31163452,0.01933702
4301.24044189,0.01930707
4303.16924927,0.01920621
4305.09805664,0.01918189
4307.02686401,0.01920619
4308.95567139,0.01914438
4310.88447876,0.01915432
4312.81328613,0.01913972
4314.74209351,0.01887665
4316.67090088,0.01902022
4318.59970825,0.01899470
4320.52851562,0.01888372
4322.45732300,0.01889584
4324.38613037,0.01873595
4326.31493774,0.01882632
4328.24374512,0.01874313
4330.17255249,0.01871525
4332.10135986,0.01867667
4334.03016724,0.01866143
4335.95897461,0.01862239
4337.88778198,0.01846678
4339.81658936,0.01862513
4341.74539673,0.01852487
4343.67420410,0.01849084
4345.60301147,0.01854280
4347.53181885,0.01838602
4349.46062622,0.01831220
4351.38943359,0.01833958
4353.31824097,0.01828695
4355.24704834,0.01817152
4357.17585571,0.01817800
4359.10466309,0.01805630
4361.03347046,0.01808287
4362.96227783,0.01802894
4364.89108520,0.01797991
4366.81989258,0.01800159
4368.74869995,0.01784401
4370.67750732,0.01795037
4372.60631470,0.01794080
4374.53512207,0.01789423
4376.46392944,0.01783367
4378.39273682,0.01773193
4380.32154419,0.01771000
4382.25035156,0.01768639
4384.17915894,0.01766457
4386.10796631,0.01762619
4388.03677368,0.01775787
4389.96558105,0.01757246
4391.89438843,0.01748719
4393.82319580,0.01753593
4395.75200317,0.01742486
4397.68081055,0.01742329
4399.60961792,0.01734802
4401.53842529,0.01738532
4403.46723267,0.01730572
4405.39604004,0.01733353
4407.32484741,0.01729111
4409.25365478,0.01716389
4411.18246216,0.01717758
4413.11126953,0.01708092
4415.04007690,0.01712311
4416.96888428,0.01701172
4418.89769165,0.01706560
4420.82649902,0.01699428
4422.75530640,0.01682722
4424.68411377,0.01695061
4426.61292114,0.01688068
4428.54172852,0.01684927
4430.47053589,0.01675821
4432.39934326,0.01678115
4434.32815063,0.01673702
4436.25695801,0.01666162
4438.18576538,0.01665521
4440.11457275,0.01653357
4442.04338013,0.01657515
4443.97218750,0.01649360
4445.90099487,0.01650047
4447.82980225,0.01648519
4449.75860962,0.01647901
4451.68741699,0.01640625
4453.61622437,0.01629876
4455.54503174,0.01640702
4457.47383911,0.01625043
4459.40264648,0.01626016
4461.33145386,0.01618551
4463.26026123,0.01607404
4465.18906860,0.01613874
4467.11787598,0.01607059
4469.04668335,0.01612476
4470.97549072,0.01600913
4472.90429810,0.01594705
4474.83310547,0.01598307
4476.76191284,0.01591213
4478.69072021,0.01586268
4480.61952759,0.01583935
4482.54833496,0.01583025
4484.47714233,0.01582137
4486.40594971,0.01577666
4488.33475708,0.01569931
4490.26356445,0.01573600
4492.19237183,0.01563616
4494.12117920,0.01560396
4496.04998657,0.01561445
4497.97879395,0.01559685
4499.90760132,0.01560450
4501.83640869,0.01543686
4503.76521606,0.01543947
4505.69402344,0.01541031
4507.62283081,0.01535558
4509.55163818,0.01529946
4511.48044556,0.01533583
4513.40925293,0.01535444
4515.33806030,0.01518125
4517.26686768,0.01525562
4519.19567505,0.01517932
4521.12448242,0.01512750
4523.05328979,0.01508201
4524.98209717,0.01502965
4526.91090454,0.01508455
4528.83971191,0.01498439
4530.76851929,0.01505316
4532.69732666,0.01495375
4534.62613403,0.01490945
4536.55494141,0.01494004
4538.48374878,0.01484677
4540.41255615,0.01487289
4542.34136353,0.01484292
4544.27017090,0.01477845
4546.19897827,0.01469273
4548.12778564,0.01468539
4550.05659302,0.01461828
4551.98540039,0.01466111
4553.91420776,0.01462760
4555.84301514,0.01453834
4557.77182251,0.01460661
4559.70062988,0.01446913
4561.62943726,0.01447349
4563.55824463,0.01435344
4565.48705200,0.01430375
4567.41585937,0.01442320
4569.34466675,0.01432715
4571.27347412,0.01434371
4573.20228149,0.01429211
4575.13108887,0.01418054
4577.05989624,0.01412527
4578.98870361,0.01416157
4580.91751099,0.01413253
4582.84631836,0.01414240
4584.77512573,0.01411247
4586.70393311,0.01399129
4588.63274048,0.01405161
4590.56154785,0.01394967
4592.49035522,0.01397504
4594.41916260,0.01392828
4596.34796997,0.01385224
4598.27677734,0.01391830
4600.20558472,0.01381189
4602.13439209,0.01383369
4604.06319946,0.01376191
4605.99200684,0.01375230
4607.92081421,0.01371326
4609.84962158,0.01367805
4611.77842895,0.01371463
4613.70723633,0.01358337
4615.63604370,0.01361724
4617.56485107,0.01351674
4619.49365845,0.01350999
4621.42246582,0.01360283
4623.35127319,0.01349847
4625.28008057,0.01346589
4627.20888794,0.01342786
4629.13769531,0.01337648
4631.06650269,0.01334985
4632.99531006,0.01337036
4634.92411743,0.01331404
4636.85292480,0.01327466
4638.78173218,0.01329746
4640.71053955,0.01325283
4642.63934692,0.01314375
4644.56815430,0.01311596
4646.49696167,0.01319232
4648.42576904,0.01312186
4650.35457642,0.01309487
4652.28338379,0.01309105
4654.21219116,0.01305188
4656.14099853,0.01296697
4658.06980591,0.01292621
4659.99861328,0.01297944
4661.92742065,0.01292021
4663.85622803,0.01293888
4665.78503540,0.01285161
4667.71384277,0.01281954
4669.64265015,0.01286061
4671.57145752,0.01275286
4673.50026489,0.01272032
4675.42907227,0.01266062
4677.35787964,0.01265945
4679.28668701,0.01264632
4681.21549438,0.01263969
4683.14430176,0.01262523
4685.07310913,0.01258586
4687.00191650,0.01261245
4688.93072388,0.01251968
4690.85953125,0.01245633
4692.78833862,0.01241178
4694.71714600,0.01238548
4696.64595337,0.01244114
4698.57476074,0.01244097
4700.50356812,0.01235068
4702.43237549,0.01235300
4704.36118286,0.01234457
4706.28999023,0.01223014
4708.21879761,0.01227005
4710.14760498,0.01226186
4712.07641235,0.01220739
4714.00521973,0.01218517
4715.93402710,0.01219748
4717.86283447,0.01214748
4719.79164185,0.01208772
4721.72044922,0.01211989
4723.64925659,0.01197548
4725.57806396,0.01201785
4727.50687134,0.01199282
4729.43567871,0.01190330
4731.36448608,0.01198960
4733.29329346,0.01193228
4735.22210083,0.01195320
4737.15090820,0.01184248
4739.07971558,0.01184701
4741.00852295,0.01188339
4742.93733032,0.01173864
4744.86613770,0.01179753
4746.79494507,0.01174808
4748.72375244,0.01170255
4750.65255981,0.01169953
4752.58136719,0.01161849
4754.51017456,0.01163138
4756.43898193,0.01167669
4758.36778931,0.01166371
4760.29659668,0.01157330
4762.22540405,0.01146708
4764.15421143,0.01145459
4766.08301880,0.01147148
4768.01182617,0.01142337
4769.94063354,0.01139091
4771.86944092,0.01131308
4773.79824829,0.01137638
4775.72705566,0.01140542
4777.65586304,0.01135234
4779.58467041,0.01134803
4781.51347778,0.01121143
4783.44228516,0.01127954
4785.37109253,0.01122931
4787.29989990,0.01114829
4789.22870728,0.01120521
4791.15751465,0.01115836
4793.08632202,0.01120378
4795.01512939,0.01113287
4796.94393677,0.01108565
4798.87274414,0.01100084
4800.80155151,0.01105265
4802.73035889,0.01106552
4804.65916626,0.01090701
4806.58797363,0.01104952
4808.51678101,0.01096610
4810.44558838,0.01094672
4812.37439575,0.01093150
4814.30320312,0.01075814
4816.23201050,0.01084823
4818.16081787,0.01082220
4820.08962524,0.01083984
4822.01843262,0.01082750
4823.94723999,0.01068536
4825.87604736,0.01070376
4827.80485474,0.01073410
4829.73366211,0.01064357
4831.66246948,0.01058356
4833.59127686,0.01058341
4835.52008423,0.01056770
4837.44889160,0.01055967
4839.37769897,0.01050576
4841.30650635,0.01052660
4843.23531372,0.01049862
4845.16412109,0.01045407
4847.09292847,0.01045766
4849.02173584,0.01042312
4850.95054321,0.01044751
4852.87935059,0.01039330
4854.80815796,0.01036914
4856.73696533,0.01036601
4858.66577270,0.01031005
4860.59458008,0.01026416
4862.52338745,0.01030957
4864.45219482,0.01027212
4866.38100220,0.01013059
4868.30980957,0.01021149
4870.23861694,0.01020477
4872.16742432,0.01013120
4874.09623169,0.01008956
4876.02503906,0.01016442
4877.95384644,0.01020063
4879.88265381,0.01004472
4881.81146118,0.01004331
4883.74026855,0.00997090
4885.66907593,0.01006098
4887.59788330,0.01001056
4889.52669067,0.00983281
4891.45549805,0.00994284
4893.38430542,0.00986896
4895.31311279,0.00986637
4897.24192017,0.00981512
4899.17072754,0.00980961
4901.09953491,0.00985137
4903.02834228,0.00976612
4904.95714966,0.00979554
4906.88595703,0.00970499
4908.81476440,0.00972092
4910.74357178,0.00971558
4912.67237915,0.00974576
4914.60118652,0.00978655
4916.52999390,0.00961776
4918.45880127,0.00961602
4920.38760864,0.00957158
4922.31641602,0.00954141
4924.24522339,0.00954645
4926.17403076,0.00947388
4928.10283813,0.00947966
4930.03164551,0.00948886
4931.96045288,0.00947528
4933.88926025,0.00941131
4935.81806763,0.00936929
4937.74687500,0.00938480
4939.67568237,0.00940934
4941.60448975,0.00937637
4943.53329712,0.00930908
4945.46210449,0.00928074
4947.39091187,0.00928221
4949.31971924,0.00923501
4951.24852661,0.00917219
4953.17733398,0.00919187
4955.10614136,0.00920006
4957.03494873,0.00920040
4958.96375610,0.00914196
4960.89256348,0.00913278
4962.82137085,0.00916113
4964.75017822,0.00907472
4966.67898560,0.00903278
4968.60779297,0.00904382
4970.53660034,0.00905978
4972.46540771,0.00897499
4974.39421509,0.00894039
4976.32302246,0.00896809
4978.25182983,0.00889330
4980.18063721,0.00887099
4982.10944458,0.00889627
4984.03825195,0.00892958
4985.96705933,0.00887049
4987.89586670,0.00882467
4989.82467407,0.00881957
4991.75348145,0.00878124
4993.68228882,0.00879703
4995.61109619,0.00874903
4997.53990356,0.00869976
4999.46871094,0.00870455
5001.39751831,0.00872518
5003.32632568,0.00869266
5005.25513306,0.00863259
5007.18394043,0.00856907
5009.11274780,0.00850466
5011.04155518,0.00857530
5012.97036255,0.00856612
5014.89916992,0.00850292
5016.82797729,0.00853019
5018.75678467,0.00850528
5020.68559204,0.00849075
5022.61439941,0.00846926
5024.54320679,0.00842967
5026.47201416,0.00850070
5028.40082153,0.00846974
5030.32962891,0.00838434
5032.25843628,0.00840268
5034.18724365,0.00831094
5036.11605103,0.00834767
5038.04485840,0.00835015
5039.97366577,0.00823750
5041.90247314,0.00825910
5043.83128052,0.00817870
5045.76008789,0.00819712
5047.68889526,0.00822717
5049.61770264,0.00821320
5051.54651001,0.00814329
5053.47531738,0.00808945
5055.40412476,0.00822391
5057.33293213,0.00805060
5059.26173950,0.00804264
5061.19054687,0.00820156
5063.11935425,0.00808307
5065.04816162,0.00808837
5066.97696899,0.00805707
5068.90577637,0.00800760
5070.83458374,0.00801377
5072.76339111,0.00796145
5074.69219849,0.00794417
5076.62100586,0.00795085
5078.54981323,0.00788840
5080.47862061,0.00782302
5082.40742798,0.00785984
5084.33623535,0.00790210
5086.26504272,0.00793282
5088.19385010,0.00782892
5090.12265747,0.00777409
5092.05146484,0.00786419
5093.98027222,0.00777541
5095.90907959,0.00771230
5097.83788696,0.00778992
5099.76669434,0.00774180
5101.69550171,0.00765041
5103.62430908,0.00767305
5105.55311645,0.00766021
5107.48192383,0.00761320
5109.41073120,0.00759717
5111.33953857,0.00760712
5113.26834595,0.00758510
5115.19715332,0.00755277
5117.12596069,0.00763948
5119.05476807,0.00760485
5120.98357544,0.00749979
5122.91238281,0.00745070
5124.84119019,0.00739626
5126.76999756,0.00742513
5128.69880493,0.00741264
5130.62761230,0.00736772
5132.55641968,0.00742036
5134.48522705,0.00745846
5136.41403442,0.00736287
5138.34284180,0.00735550
5140.27164917,0.00737029
5142.20045654,0.00731271
5144.12926392,0.00732134
5146.05807129,0.00729952
5147.98687866,0.00731189
5149.91568603,0.00723852
5151.84449341,0.00723407
5153.77330078,0.00724081
5155.70210815,0.00711262
5157.63091553,0.00715050
5159.55972290,0.00711674
5161.48853027,0.00715957
5163.41733765,0.00715541
5165.34614502,0.00706303
5167.27495239,0.00717162
5169.20375977,0.00714959
5171.13256714,0.00715540
5173.06137451,0.00709268
5174.99018188,0.00701512
5176.91898926,0.00703650
5178.84779663,0.00692745
5180.77660400,0.00699510
5182.70541138,0.00701225
5184.63421875,0.00689856
5186.56302612,0.00693656
5188.49183350,0.00692799
5190.42064087,0.00687196
5192.34944824,0.00695479
5194.27825562,0.00700338
5196.20706299,0.00683007
5198.13587036,0.00680877
5200.06467773,0.00690784
5201.99348511,0.00685525
5203.92229248,0.00683943
5205.85109985,0.00670710
5207.77990723,0.00660837
5209.70871460,0.00671800
5211.63752197,0.00675248
5213.56632935,0.00679110
5215.49513672,0.00673288
5217.42394409,0.00667345
5219.35275146,0.00670748
5221.28155884,0.00670335
5223.21036621,0.00673390
5225.13917358,0.00659117
5227.06798096,0.00653288
5228.99678833,0.00657443
5230.92559570,0.00654599
5232.85440308,0.00659604
5234.78321045,0.00656344
5236.71201782,0.00657061
5238.64082520,0.00657335
5240.56963257,0.00661862
5242.49843994,0.00654556
5244.42724731,0.00639702
5246.35605469,0.00647290
5248.28486206,0.00631299
5250.21366943,0.00633353
5252.14247681,0.00650287
5254.07128418,0.00634235
5256.00009155,0.00630723
5257.92889893,0.00637755
5259.85770630,0.00639912
5261.78651367,0.00635812
5263.71532104,0.00626886
5265.64412842,0.00627456
5267.57293579,0.00639676
5269.50174316,0.00633427
5271.43055054,0.00628050
5273.35935791,0.00638895
5275.28816528,0.00631440
5277.21697266,0.00632630
5279.14578003,0.00623790
5281.07458740,0.00615711
5283.00339478,0.00621282
5284.93220215,0.00611451
5286.86100952,0.00624263
5288.78981689,0.00622770
5290.71862427,0.00605824
5292.64743164,0.00611371
5294.57623901,0.00617949
5296.50504639,0.00618425
5298.43385376,0.00611566
5300.36266113,0.00606545
5302.29146851,0.00598702
5304.22027588,0.00607759
5306.14908325,0.00615054
5308.07789062,0.00597670
5310.00669800,0.00598129
5311.93550537,0.00601664
5313.86431274,0.00596692
5315.79312012,0.00593755
5317.72192749,0.00592416
5319.65073486,0.00599568
5321.57954224,0.00601207
5323.50834961,0.00594166
5325.43715698,0.00592867
5327.36596436,0.00587329
5329.29477173,0.00579338
5331.22357910,0.00588138
5333.15238647,0.00585471
5335.08119385,0.00582224
5337.01000122,0.00586589
5338.93880859,0.00569054
5340.86761597,0.00577764
5342.79642334,0.00582036
5344.72523071,0.00557044
5346.65403809,0.00568652
5348.58284546,0.00573550
5350.51165283,0.00567623
5352.44046020,0.00567926
5354.36926758,0.00554613
5356.29807495,0.00568393
5358.22688232,0.00575944
5360.15568970,0.00564540
5362.08449707,0.00561225
5364.01330444,0.00554942
5365.94211182,0.00564520
5367.87091919,0.00569597
5369.79972656,0.00562572
5371.72853394,0.00561953
5373.65734131,0.00557811
5375.58614868,0.00547923
5377.51495605,0.00546661
5379.44376343,0.00552238
5381.37257080,0.00549590
5383.30137817,0.00553398
5385.23018555,0.00541958
5387.15899292,0.00534582
5389.08780029,0.00552616
5391.01660767,0.00543882
5392.94541504,0.00532969
5394.87422241,0.00533976
5396.80302978,0.00537508
5398.73183716,0.00544976
5400.66064453,0.00544864
5402.58945190,0.00539530
5404.51825928,0.00530312
5406.44706665,0.00535892
5408.37587402,0.00531534
5410.30468140,0.00521657
5412.23348877,0.00519592
5414.16229614,0.00509196
5416.09110352,0.00522131
5418.01991089,0.00529520
5419.94871826,0.00521001
5421.87752563,0.00519290
5423.80633301,0.00518710
5425.73514038,0.00527159
5427.66394775,0.00515910
5429.59275513,0.00502716
5431.52156250,0.00515690
5433.45036987,0.00512242
5435.37917725,0.00500417
5437.30798462,0.00512897
5439.23679199,0.00515515
5441.16559936,0.00507152
5443.09440674,0.00515929
5445.02321411,0.00509947
5446.95202148,0.00500501
5448.88082886,0.00504424
5450.80963623,0.00501959
5452.73844360,0.00510856
5454.66725098,0.00511912
5456.59605835,0.00497874
5458.52486572,0.00501631
5460.45367310,0.00502485
5462.38248047,0.00493903
5464.31128784,0.00501223
5466.24009521,0.00500427
5468.16890259,0.00487324
5470.09770996,0.00495535
5472.02651733,0.00496844
5473.95532471,0.00483868
5475.88413208,0.00483063
5477.81293945,0.00482310
5479.74174683,0.00488793
5481.67055420,0.00493878
5483.59936157,0.00485466
5485.52816895,0.00482512
5487.45697632,0.00481563
5489.38578369,0.00483145
5491.31459106,0.00482965
5493.24339844,0.00471154
5495.17220581,0.00472388
5497.10101318,0.00484515
5499.02982056,0.00478555
5500.95862793,0.00473582
5502.88743530,0.00477216
5504.81624268,0.00475878
5506.74505005,0.00474387
5508.67385742,0.00467672
5510.60266479,0.00468577
5512.53147217,0.00468539
5514.46027954,0.00459502
5516.38908691,0.00463415
5518.31789429,0.00465248
5520.24670166,0.00464091
5522.17550903,0.00463630
5524.10431641,0.00462174
5526.03312378,0.00464861
5527.96193115,0.00461283
5529.89073853,0.00457417
5531.81954590,0.00455831
5533.74835327,0.00459393
5535.67716064,0.00464652
5537.60596802,0.00457114
5539.53477539,0.00450378
5541.46358276,0.00455003
5543.39239014,0.00457446
5545.32119751,0.00456553
5547.25000488,0.00453747
5549.17881226,0.00447328
5551.10761963,0.00452899
5553.03642700,0.00449247
5554.96523437,0.00437321
5556.89404175,0.00446159
5558.82284912,0.00447224
5560.75165649,0.00441610
5562.68046387,0.00441111
5564.60927124,0.00441765
5566.53807861,0.00446059
5568.46688599,0.00442235
5570.39569336,0.00439631
5572.32450073,0.00438857
5574.25330811,0.00436257
5576.18211548,0.00432789
5578.11092285,0.00429795
5580.03973022,0.00433638
5581.96853760,0.00430808
5583.89734497,0.00429137
5585.82615234,0.00431078
5587.75495972,0.00428851
5589.68376709,0.00432949
5591.61257446,0.00429332
5593.54138184,0.00424744
5595.47018921,0.00426447
5597.39899658,0.00418792
5599.32780395,0.00420472
5601.25661133,0.00424179
5603.18541870,0.00420146
5605.11422607,0.00423423
5607.04303345,0.00423589
5608.97184082,0.00422174
5610.90064819,0.00417145
5612.82945557,0.00415491
5614.75826294,0.00424983
5616.68707031,0.00423109
5618.61587769,0.00417298
5620.54468506,0.00409704
5622.47349243,0.00402141
5624.40229980,0.00409319
5626.33110718,0.00411724
5628.25991455,0.00409380
5630.18872192,0.00412697
5632.11752930,0.00412265
5634.04633667,0.00407592
5635.97514404,0.00405170
5637.90395142,0.00405840
5639.83275879,0.00399936
5641.76156616,0.00401707
5643.69037353,0.00407688
5645.61918091,0.00400575
5647.54798828,0.00402411
5649.47679565,0.00399406
5651.40560303,0.00396279
5653.33441040,0.00405682
5655.26321777,0.00400369
5657.19202515,0.00394566
5659.12083252,0.00393896
5661.04963989,0.00393949
5662.97844727,0.00388876
5664.90725464,0.00389592
5666.83606201,0.00394789
5668.76486938,0.00381646
5670.69367676,0.00388130
5672.62248413,0.00396007
5674.55129150,0.00388450
5676.48009888,0.00389115
5678.40890625,0.00386250
5680.33771362,0.00386183
5682.26652100,0.00382305
5684.19532837,0.00374715
5686.12413574,0.00380221
5688.05294311,0.00393032
5689.98175049,0.00379571
5691.91055786,0.00370152
5693.83936523,0.00382560
5695.76817261,0.00376829
5697.69697998,0.00378458
5699.62578735,0.00373035
5701.55459473,0.00368026
5703.48340210,0.00368298
5705.41220947,0.00361526
5707.34101685,0.00369280
5709.26982422,0.00366833
5711.19863159,0.00372731
5713.12743896,0.00366702
5715.05624634,0.00361589
5716.98505371,0.00374031
5718.91386108,0.00366046
5720.84266846,0.00364770
5722.77147583,0.00360656
5724.70028320,0.00362200
5726.62909058,0.00358632
5728.55789795,0.00356938
5730.48670532,0.00361795
5732.41551270,0.00352080
5734.34432007,0.00356753
5736.27312744,0.00348573
5738.20193481,0.00354445
5740.13074219,0.00357851
5742.05954956,0.00346938
5743.98835693,0.00355921
5745.91716431,0.00351471
5747.84597168,0.00355641
5749.77477905,0.00351666
5751.70358643,0.00348848
5753.63239380,0.00349218
5755.56120117,0.00339941
5757.49000854,0.00343336
5759.41881592,0.00334500
5761.34762329,0.00339259
5763.27643066,0.00341615
5765.20523804,0.00339785
5767.13404541,0.00347190
5769.06285278,0.00336865
5770.99166016,0.00335710
5772.92046753,0.00338606
5774.84927490,0.00334068
5776.77808228,0.00334243
5778.70688965,0.00339450
5780.63569702,0.00333819
5782.56450439,0.00332113
5784.49331177,0.00337781
5786.42211914,0.00327079
5788.35092651,0.00326001
5790.27973389,0.00327567
5792.20854126,0.00324148
5794.13734863,0.00332847
5796.06615601,0.00336363
5797.99496338,0.00326732
5799.92377075,0.00327742
5801.85257812,0.00333021
5803.78138550,0.00325012
5805.71019287,0.00321795
5807.63900024,0.00320669
5809.56780762,0.00324718
5811.49661499,0.00327483
5813.42542236,0.00322243
5815.35422974,0.00322027
5817.28303711,0.00321723
5819.21184448,0.00319775
5821.14065186,0.00316412
5823.06945923,0.00320552
5824.99826660,0.00316304
5826.92707397,0.00310170
5828.85588135,0.00315089
5830.78468872,0.00311327
5832.71349609,0.00310410
5834.64230347,0.00312716
5836.57111084,0.00315262
5838.49991821,0.00313031
5840.42872559,0.00308627
5842.35753296,0.00309910
5844.28634033,0.00309584
5846.21514770,0.00306986
5848.14395508,0.00306168
5850.07276245,0.00308852
5852.00156982,0.00299771
5853.93037720,0.00301239
5855.85918457,0.00306651
5857.78799194,0.00296135
5859.71679932,0.00296835
5861.64560669,0.00299972
5863.57441406,0.00301097
5865.50322144,0.00299930
5867.43202881,0.00300893
5869.36083618,0.00300242
5871.28964355,0.00293054
5873.21845093,0.00296175
5875.14725830,0.00296793
5877.07606567,0.00294721
5879.00487305,0.00294584
5880.93368042,0.00288996
5882.86248779,0.00286440
5884.79129517,0.00296355
5886.72010254,0.00297170
5888.64890991,0.00285962
5890.57771728,0.00286222
5892.50652466,0.00289443
5894.43533203,0.00290782
5896.36413940,0.00286821
5898.29294678,0.00285853
5900.22175415,0.00288126
5902.15056152,0.00287364
5904.07936890,0.00285988
5906.00817627,0.00283635
5907.93698364,0.00285591
5909.86579102,0.00275967
5911.79459839,0.00275389
5913.72340576,0.00276567
5915.65221313,0.00273253
5917.58102051,0.00287851
5919.50982788,0.00283497
5921.43863525,0.00276698
5923.36744263,0.00279014
5925.29625000,0.00277888
5927.22505737,0.00278646
5929.15386475,0.00275236
5931.08267212,0.00275927
5933.01147949,0.00271583
5934.94028686,0.00271042
5936.86909424,0.00276489
5938.79790161,0.00272045
5940.72670898,0.00266720
5942.65551636,0.00268888
5944.58432373,0.00268580
5946.51313110,0.00267217
5948.44193848,0.00268108
5950.37074585,0.00260282
5952.29955322,0.00266247
5954.22836060,0.00271100
5956.15716797,0.00261785
5958.08597534,0.00260376
5960.01478271,0.00259565
5961.94359009,0.00265447
5963.87239746,0.00265671
5965.80120483,0.00261628
5967.73001221,0.00261899
5969.65881958,0.00259236
5971.58762695,0.00261224
5973.51643433,0.00255787
5975.44524170,0.00255090
5977.37404907,0.00260644
5979.30285645,0.00257371
5981.23166382,0.00258731
5983.16047119,0.00254555
5985.08927856,0.00250120
5987.01808594,0.00256635
5988.94689331,0.00254593
5990.87570068,0.00255840
5992.80450806,0.00258249
5994.73331543,0.00250215
5996.66212280,0.00249914
5998.59093018,0.00248607
6000.51973755,0.00246425
