399.26312622,0.00071518
401.19193359,0.00133846
403.12074097,0.00101653
405.04954834,0.00037683
406.97835571,0.00088600
408.90716309,0.00053677
410.83597046,0.00088651
412.76477783,0.00141633
414.69358521,0.00095741
416.62239258,0.00091841
418.55119995,0.00095005
420.48000732,0.00119184
422.40881470,0.00067962
424.33762207,0.00100961
426.26642944,0.00131783
428.19523682,0.00088365
430.12404419,0.00165346
432.05285156,0.00143325
433.98165894,0.00099347
435.91046631,0.00109729
437.83927368,0.00103827
439.76808105,0.00098167
441.69688843,0.00096152
443.62569580,0.00113206
445.55450317,0.00087699
447.48331055,0.00103170
449.41211792,0.00121949
451.34092529,0.00070239
453.26973267,0.00032742
455.19854004,0.00081535
457.12734741,0.00105923
459.05615479,0.00101188
460.98496216,0.00120520
462.91376953,0.00042742
464.84257690,0.00040966
466.77138428,0.00062795
468.70019165,0.00068034
470.62899902,0.00128071
472.55780640,0.00058367
474.48661377,0.00003558
476.41542114,0.00029700
478.34422852,0.00052692
480.27303589,0.00039419
482.20184326,0.00036030
484.13065063,0.00021747
486.05945801,-0.00010103
487.98826538,0.00043086
489.91707275,0.00023690
491.84588013,0.00023648
493.77468750,0.00020148
495.70349487,0.00003978
497.63230225,0.00052819
499.56110962,0.00015183
501.48991699,0.00032627
503.41872437,0.00003324
505.34753174,-0.00005703
507.27633911,0.00043616
509.20514648,-0.00000369
511.13395386,0.00018685
513.06276123,0.00020569
514.99156860,0.00034337
516.92037598,0.00011281
518.84918335,0.00001016
520.77799072,0.00042000
522.70679810,-0.00018999
524.63560547,0.00008193
526.56441284,-0.00002984
528.49322021,0.00002806
530.42202759,0.00063104
532.35083496,-0.00004940
534.27964233,0.00017294
536.20844971,0.00025547
538.13725708,-0.00035290
540.06606445,-0.00015204
541.99487183,0.00039626
543.92367920,0.00027290
545.85248657,-0.00003401
547.78129395,0.00028409
549.71010132,0.00003238
551.63890869,0.00024307
553.56771606,0.00035115
555.49652344,-0.00006703
557.42533081,0.00004336
559.35413818,0.00002461
561.28294556,0.00052763
563.21175293,0.00022815
565.14056030,-0.00032313
567.06936768,0.00026249
568.99817505,0.00028912
570.92698242,-0.00013968
572.85578979,-0.00021099
574.78459717,0.00022502
576.71340454,0.00027145
578.64221191,-0.00009044
580.57101929,-0.00009460
582.49982666,-0.00011015
584.42863403,0.00029500
586.35744141,0.00048037
588.28624878,0.00014060
590.21505615,0.00025856
592.14386353,-0.00024374
594.07267090,0.00002098
596.00147827,0.00015234
597.93028564,-0.00013552
599.85909302,0.00039792
601.78790039,0.00038947
603.71670776,0.00012134
605.64551514,-0.00001442
607.57432251,-0.00004895
609.50312988,-0.00000785
611.43193726,0.00036582
613.36074463,0.00016467
615.28955200,0.00035307
617.21835938,0.00029355
619.14716675,-0.00012698
621.07597412,0.00016348
623.00478149,-0.00015692
624.93358887,0.00022091
626.86239624,0.00035469
628.79120361,0.00016832
630.72001099,0.00036472
632.64881836,0.00035612
634.57762573,0.00082513
636.50643311,0.00098213
638.43524048,0.00105446
640.36404785,0.00083524
642.29285522,0.00086397
644.22166260,0.00140610
646.15046997,0.00099455
648.07927734,0.00106531
650.00808472,0.00165244
651.93689209,0.00150034
653.86569946,0.00147457
655.79450684,0.00141422
657.72331421,0.00126526
659.65212158,0.00168627
661.58092896,0.00172727
663.50973633,0.00169739
665.43854370,0.00193331
667.36735107,0.00173767
669.29615845,0.00178858
671.22496582,0.00207408
673.15377319,0.00234378
675.08258057,0.00227922
677.01138794,0.00219077
678.94019531,0.00220415
680.86900269,0.00204996
682.79781006,0.00208680
684.72661743,0.00190158
686.65542480,0.00218060
688.58423218,0.00240137
690.51303955,0.00239013
692.44184692,0.00252645
694.37065430,0.00232334
696.29946167,0.00276939
698.22826904,0.00328661
700.15707642,0.00353300
702.08588379,0.00326750
704.01469116,0.00302880
705.94349854,0.00306403
707.87230591,0.00234926
709.80111328,0.00205646
711.72992065,0.00153497
713.65872803,0.00082965
715.58753540,0.00064408
717.51634277,0.00054210
719.44515015,0.00044323
721.37395752,0.00019599
723.30276489,0.00016482
725.23157227,0.00003421
727.16037964,0.00029472
729.08918701,0.00013483
731.01799438,-0.00002728
732.94680176,0.00035721
734.87560913,0.00010053
736.80441650,0.00032018
738.73322388,0.00011226
740.66203125,0.00001892
742.59083862,0.00029163
744.51964600,-0.00007909
746.44845337,0.00011186
748.37726074,0.00017518
750.30606812,0.00032850
752.23487549,0.00034850
754.16368286,0.00017729
756.09249023,0.00066058
758.02129761,0.00045584
759.95010498,0.00031096
761.87891235,0.00049216
763.80771973,0.00020094
765.73652710,0.00019612
767.66533447,0.00019941
769.59414185,0.00019580
771.52294922,0.00022174
773.45175659,-0.00002827
775.38056396,0.00015463
777.30937134,0.00029935
779.23817871,0.00009602
781.16698608,0.00005997
783.09579346,0.00004701
785.02460083,0.00047919
786.95340820,0.00035295
788.88221558,-0.00002319
790.81102295,0.00034073
792.73983032,0.00009771
794.66863770,0.00017347
796.59744507,0.00061758
798.52625244,0.00054671
800.45505981,0.00049923
802.38386719,0.00034696
804.31267456,0.00021105
806.24148193,0.00027380
808.17028931,0.00033127
810.09909668,0.00039332
812.02790405,0.00041057
813.95671143,0.00008767
815.88551880,0.00028107
817.81432617,0.00048294
819.74313354,0.00015295
821.67194092,0.00027871
823.60074829,0.00030939
825.52955566,0.00034008
827.45836304,0.00039179
829.38717041,0.00051971
831.31597778,0.00066426
833.24478516,0.00065053
835.17359253,0.00078232
837.10239990,0.00066338
839.03120728,0.00079535
840.96001465,0.00077742
842.88882202,0.00084443
844.81762939,0.00071717
846.74643677,0.00042505
848.67524414,0.00077195
850.60405151,0.00040476
852.53285889,0.00042579
854.46166626,0.00033524
856.39047363,0.00022406
858.31928101,0.00068380
860.24808838,0.00001556
862.17689575,0.00014283
864.10570313,0.00043636
866.03451050,0.00009250
867.96331787,0.00015863
869.89212524,0.00022297
871.82093262,0.00042130
873.74973999,0.00046640
875.67854736,0.00064897
877.60735474,0.00047350
879.53616211,0.00030853
881.46496948,0.00049496
883.39377686,0.00024607
885.32258423,0.00027847
887.25139160,0.00035633
889.18019897,0.00035685
891.10900635,0.00042778
893.03781372,0.00039682
894.96662109,0.00041645
896.89542847,0.00043043
898.82423584,0.00043183
900.75304321,0.00024971
902.68185059,0.00025929
904.61065796,0.00024477
906.53946533,0.00022883
908.46827271,0.00057252
910.39708008,0.00058205
912.32588745,0.00036008
914.25469482,0.00025155
916.18350220,0.00037358
918.11230957,0.00062891
920.04111694,0.00058922
921.96992432,0.00067570
923.89873169,0.00094890
925.82753906,0.00106109
927.75634644,0.00102728
929.68515381,0.00080936
931.61396118,0.00108774
933.54276855,0.00133724
935.47157593,0.00094261
937.40038330,0.00112375
939.32919067,0.00138033
941.25799805,0.00133336
943.18680542,0.00135484
945.11561279,0.00122326
947.04442017,0.00130534
948.97322754,0.00129987
950.90203491,0.00115443
952.83084229,0.00103125
954.75964966,0.00120122
956.68845703,0.00147425
958.61726440,0.00115398
960.54607178,0.00101745
962.47487915,0.00112956
964.40368652,0.00119923
966.33249390,0.00122753
968.26130127,0.00116411
970.19010864,0.00144238
972.11891602,0.00155549
974.04772339,0.00155367
975.97653076,0.00180645
977.90533813,0.00176486
979.83414551,0.00173763
981.76295288,0.00207437
983.69176025,0.00224213
985.62056763,0.00230819
987.54937500,0.00274088
989.47818237,0.00314742
991.40698975,0.00322899
993.33579712,0.00350313
995.26460449,0.00388581
997.19341187,0.00421739
999.12221924,0.00465691
1001.05102661,0.00480209
1002.97983398,0.00511440
1004.90864136,0.00564405
1006.83744873,0.00581018
1008.76625610,0.00614343
1010.69506348,0.00663373
1012.62387085,0.00701076
1014.55267822,0.00717548
1016.48148560,0.00753434
1018.41029297,0.00814141
1020.33910034,0.00830953
1022.26790771,0.00871603
1024.19671509,0.00924883
1026.12552246,0.00948147
1028.05432983,0.00979927
1029.98313721,0.00997429
1031.91194458,0.01012118
1033.84075195,0.01023529
1035.76955933,0.01046091
1037.69836670,0.01078669
1039.62717407,0.01074257
1041.55598145,0.01064676
1043.48478882,0.01047165
1045.41359619,0.01029021
1047.34240356,0.01035936
1049.27121094,0.01023751
1051.20001831,0.00997738
1053.12882568,0.00971810
1055.05763306,0.00955278
1056.98644043,0.00927837
1058.91524780,0.00895548
1060.84405518,0.00902610
1062.77286255,0.00864367
1064.70166992,0.00822994
1066.63047729,0.00803442
1068.55928467,0.00762448
1070.48809204,0.00750021
1072.41689941,0.00700083
1074.34570679,0.00685374
1076.27451416,0.00676236
1078.20332153,0.00612229
1080.13212891,0.00591633
1082.06093628,0.00552165
1083.98974365,0.00555172
1085.91855103,0.00530877
1087.84735840,0.00467363
1089.77616577,0.00466997
1091.70497314,0.00421369
1093.63378052,0.00417434
1095.56258789,0.00415948
1097.49139526,0.00390138
1099.42020264,0.00402904
1101.34901001,0.00373203
1103.27781738,0.00371247
1105.20662476,0.00375613
1107.13543213,0.00365487
1109.06423950,0.00360634
1110.99304687,0.00331670
1112.92185425,0.00337208
1114.85066162,0.00361114
1116.77946899,0.00368421
1118.70827637,0.00358744
1120.63708374,0.00343097
1122.56589111,0.00334319
1124.49469849,0.00344447
1126.42350586,0.00359202
1128.35231323,0.00348093
1130.28112061,0.00367063
1132.20992798,0.00388266
1134.13873535,0.00388781
1136.06754272,0.00429579
1137.99635010,0.00452404
1139.92515747,0.00458598
1141.85396484,0.00488941
1143.78277222,0.00502212
1145.71157959,0.00540892
1147.64038696,0.00599791
1149.56919434,0.00619730
1151.49800171,0.00649659
1153.42680908,0.00673086
1155.35561646,0.00677426
1157.28442383,0.00714616
1159.21323120,0.00742588
1161.14203857,0.00764842
1163.07084595,0.00802994
1164.99965332,0.00832600
1166.92846069,0.00859975
1168.85726807,0.00884290
1170.78607544,0.00913601
1172.71488281,0.00952551
1174.64369019,0.01008192
1176.57249756,0.01043174
1178.50130493,0.01056110
1180.43011230,0.01115147
1182.35891968,0.01164466
1184.28772705,0.01189904
1186.21653442,0.01256844
1188.14534180,0.01324938
1190.07414917,0.01372513
1192.00295654,0.01445178
1193.93176392,0.01507690
1195.86057129,0.01559697
1197.78937866,0.01650393
1199.71818604,0.01711299
1201.64699341,0.01770898
1203.57580078,0.01856529
1205.50460815,0.01924050
1207.43341553,0.02004969
1209.36222290,0.02063648
1211.29103027,0.02115344
1213.21983765,0.02179099
1215.14864502,0.02234447
1217.07745239,0.02283322
1219.00625977,0.02314801
1220.93506714,0.02351019
1222.86387451,0.02377570
1224.79268188,0.02406657
1226.72148926,0.02415047
1228.65029663,0.02407367
1230.57910400,0.02429274
1232.50791138,0.02435131
1234.43671875,0.02442300
1236.36552612,0.02438789
1238.29433350,0.02415628
1240.22314087,0.02420243
1242.15194824,0.02430106
1244.08075562,0.02400928
1246.00956299,0.02362351
1247.93837036,0.02360417
1249.86717773,0.02349454
1251.79598511,0.02328045
1253.72479248,0.02297818
1255.65359985,0.02266170
1257.58240723,0.02238820
1259.51121460,0.02185114
1261.44002197,0.02175514
1263.36882935,0.02171594
1265.29763672,0.02124865
1267.22644409,0.02096147
1269.15525146,0.02069338
1271.08405884,0.02037742
1273.01286621,0.01996391
1274.94167358,0.01951013
1276.87048096,0.01930293
1278.79928833,0.01901341
1280.72809570,0.01851940
1282.65690308,0.01823444
1284.58571045,0.01799309
1286.51451782,0.01740165
1288.44332520,0.01697560
1290.37213257,0.01694669
1292.30093994,0.01686196
1294.22974731,0.01671015
1296.15855469,0.01658556
1298.08736206,0.01657042
1300.01616943,0.01648319
1301.94497681,0.01642716
1303.87378418,0.01681220
1305.80259155,0.01701978
1307.73139893,0.01715431
1309.66020630,0.01743677
1311.58901367,0.01761590
1313.51782104,0.01797935
1315.44662842,0.01831004
1317.37543579,0.01878103
1319.30424316,0.01924132
1321.23305054,0.01994230
1323.16185791,0.02080186
1325.09066528,0.02112257
1327.01947266,0.02174206
1328.94828003,0.02212299
1330.87708740,0.02256949
1332.80589478,0.02330554
1334.73470215,0.02349002
1336.66350952,0.02382666
1338.59231689,0.02346545
1340.52112427,0.02355577
1342.44993164,0.02479795
1344.37873901,0.02501305
1346.30754639,0.02493090
1348.23635376,0.02489446
1350.16516113,0.02475879
1352.09396851,0.02476883
1354.02277588,0.02439557
1355.95158325,0.02411663
1357.88039062,0.02393209
1359.80919800,0.02356920
1361.73800537,0.02233192
1363.66681274,0.02197680
1365.59562012,0.02340012
1367.52442749,0.02276832
1369.45323486,0.02241555
1371.38204224,0.02298644
1373.31084961,0.02160365
1375.23965698,0.02163199
1377.16846436,0.02232963
1379.09727173,0.02242833
1381.02607910,0.02249074
1382.95488647,0.02229145
1384.88369385,0.02229327
1386.81250122,0.02113372
1388.74130859,0.02147434
1390.67011597,0.02359731
1392.59892334,0.02271265
1394.52773071,0.02090008
1396.45653809,0.02219137
1398.38534546,0.02202186
1400.31415283,0.02179966
1402.24296021,0.02404509
1404.17176758,0.02248538
1406.10057495,0.02261766
1408.02938232,0.02383329
1409.95818970,0.02273227
1411.88699707,0.02335218
1413.81580444,0.02253084
1415.74461182,0.02279395
1417.67341919,0.02023468
1419.60222656,0.01791023
1421.53103394,0.02120584
1423.45984131,0.02045880
1425.38864868,0.01988398
1427.31745605,0.02022224
1429.24626343,0.01846246
1431.17507080,0.01811156
1433.10387817,0.01853246
1435.03268555,0.01676273
1436.96149292,0.01389245
1438.89030029,0.01619281
1440.81910767,0.01679004
1442.74791504,0.01523052
1444.67672241,0.01623432
1446.60552979,0.01492357
1448.53433716,0.01501911
1450.46314453,0.01567599
1452.39195190,0.01587629
1454.32075928,0.01630858
1456.24956665,0.01305160
1458.17837402,0.01368673
1460.10718140,0.01890613
1462.03598877,0.01998530
1463.96479614,0.01958501
1465.89360352,0.02031310
1467.82241089,0.02347650
1469.75121826,0.02526523
1471.68002563,0.02172641
1473.60883301,0.02303605
1475.53764038,0.02656101
1477.46644775,0.02867507
1479.39525513,0.03173845
1481.32406250,0.03197740
1483.25286987,0.03414876
1485.18167725,0.03488929
1487.11048462,0.03391777
1489.03929199,0.03347672
1490.96809937,0.03370626
1492.89690674,0.04013881
1494.82571411,0.03857943
1496.75452148,0.03414944
1498.68332886,0.03929631
1500.61213623,0.04046135
1502.54094360,0.04385044
1504.46975098,0.04051214
1506.39855835,0.02761148
1508.32736572,0.03539214
1510.25617310,0.04223813
1512.18498047,0.04092289
1514.11378784,0.04488830
1516.04259521,0.03940076
1517.97140259,0.04163403
1519.90020996,0.03958232
1521.82901733,0.03344446
1523.75782471,0.04270628
1525.68663208,0.04133574
1527.61543945,0.04146449
1529.54424683,0.04665696
1531.47305420,0.04437196
1533.40186157,0.03995004
1535.33066895,0.04313704
1537.25947632,0.04657739
1539.18828369,0.03103263
1541.11709106,0.03329428
1543.04589844,0.04079464
1544.97470581,0.03908881
1546.90351318,0.04783216
1548.83232056,0.04360471
1550.76112793,0.04553086
1552.68993530,0.04493303
1554.61874268,0.04019812
1556.54755005,0.04337890
1558.47635742,0.02821331
1560.40516479,0.03197857
1562.33397217,0.04788628
1564.26277954,0.04444158
1566.19158691,0.04631982
1568.12039429,0.04534421
1570.04920166,0.03954454
1571.97800903,0.04728121
1573.90681641,0.04715788
1575.83562378,0.03606670
1577.76443115,0.04215325
1579.69323853,0.04786538
1581.62204590,0.04580811
1583.55085327,0.04728559
1585.47966064,0.04631763
1587.40846802,0.04693370
1589.33727539,0.04628371
1591.26608276,0.04625414
1593.19489014,0.04631271
1595.12369751,0.04554164
1597.05250488,0.04640866
1598.98131226,0.04609635
1600.91011963,0.04631346
1602.83892700,0.04533018
1604.76773437,0.04610178
1606.69654175,0.04536632
1608.62534912,0.04520468
1610.55415649,0.04520818
1612.48296387,0.04571323
1614.41177124,0.04603601
1616.34057861,0.03649089
1618.26938599,0.04060758
1620.19819336,0.04814998
1622.12700073,0.04154023
1624.05580811,0.04189409
1625.98461548,0.04463857
1627.91342285,0.04390268
1629.84223022,0.04374993
1631.77103760,0.04735217
1633.69984497,0.04256474
1635.62865234,0.03399079
1637.55745972,0.04105578
1639.48626709,0.04582340
1641.41507446,0.04454272
1643.34388184,0.04602227
1645.27268921,0.04038976
1647.20149658,0.03473109
1649.13030396,0.04513747
1651.05911133,0.04173157
1652.98791870,0.02468102
1654.91672607,0.03649674
1656.84553345,0.04695702
1658.77434082,0.04466058
1660.70314819,0.04598768
1662.63195557,0.04094881
1664.56076294,0.04392977
1666.48957031,0.04758587
1668.41837769,0.04027150
1670.34718506,0.03924412
1672.27599243,0.04544091
1674.20479980,0.04108363
1676.13360718,0.03930213
1678.06241455,0.04649425
1679.99122192,0.04432426
1681.92002930,0.04343320
1683.84883667,0.03407683
1685.77764404,0.03417320
1687.70645142,0.04885538
1689.63525879,0.04119686
1691.56406616,0.04672809
1693.49287354,0.04707451
1695.42168091,0.03250176
1697.35048828,0.04221803
1699.27929565,0.03540923
1701.20810303,0.03185698
1703.13691040,0.04591773
1705.06571777,0.04097501
1706.99452515,0.04188943
1708.92333252,0.04587570
1710.85213989,0.04391672
1712.78094727,0.04469523
1714.70975464,0.04066855
1716.63856201,0.03612559
1718.56736938,0.03538760
1720.49617676,0.04328858
1722.42498413,0.04527855
1724.35379150,0.04158042
1726.28259888,0.04592688
1728.21140625,0.04172903
1730.14021362,0.04215811
1732.06902100,0.04075793
1733.99782837,0.02935732
1735.92663574,0.03868283
1737.85544312,0.04322591
1739.78425049,0.03755388
1741.71305786,0.04156179
1743.64186523,0.04199992
1745.57067261,0.04206029
1747.49947998,0.04212604
1749.42828735,0.03999908
1751.35709473,0.03811871
1753.28590210,0.04317954
1755.21470947,0.04543960
1757.14351685,0.04059405
1759.07232422,0.04562225
1761.00113159,0.04198039
1762.92993896,0.04040395
1764.85874634,0.04740448
1766.78755371,0.04173368
1768.71636108,0.04246299
1770.64516846,0.04167897
1772.57397583,0.03693510
1774.50278320,0.04207633
1776.43159058,0.04474290
1778.36039795,0.04422617
1780.28920532,0.04331549
1782.21801270,0.04390883
1784.14682007,0.04368262
1786.07562744,0.04277132
1788.00443481,0.04542268
1789.93324219,0.04373643
1791.86204956,0.03893502
1793.79085693,0.04103392
1795.71966431,0.04451557
1797.64847168,0.04376886
1799.57727905,0.04300779
1801.50608643,0.04184964
1803.43489380,0.04369263
1805.36370117,0.04484585
1807.29250854,0.04381733
1809.22131592,0.04412820
1811.15012329,0.04272512
1813.07893066,0.04462897
1815.00773804,0.04466155
1816.93654541,0.04390880
1818.86535278,0.04457250
1820.79416016,0.04423529
1822.72296753,0.04496911
1824.65177490,0.04135738
1826.58058228,0.04321271
1828.50938965,0.04306336
1830.43819702,0.03992796
1832.36700439,0.04444133
1834.29581177,0.04396243
1836.22461914,0.04393400
1838.15342651,0.04369961
1840.08223389,0.04409650
1842.01104126,0.04388656
1843.93984863,0.03825323
1845.86865601,0.04158094
1847.79746338,0.04377847
1849.72627075,0.04288686
1851.65507812,0.04442161
1853.58388550,0.04320836
1855.51269287,0.04384089
1857.44150024,0.04334849
1859.37030762,0.04299513
1861.29911499,0.04349048
1863.22792236,0.04303171
1865.15672974,0.04337949
1867.08553711,0.04142972
1869.01434448,0.03949363
1870.94315186,0.04148608
1872.87195923,0.04338112
1874.80076660,0.04259147
1876.72957397,0.04276682
1878.65838135,0.04257608
1880.58718872,0.04242389
1882.51599609,0.04281841
1884.44480347,0.04201064
1886.37361084,0.04274510
1888.30241821,0.04145206
1890.23122559,0.04054854
1892.16003296,0.04237986
1894.08884033,0.04148406
1896.01764771,0.04147760
1897.94645508,0.04209495
1899.87526245,0.04167849
1901.80406982,0.04196237
1903.73287720,0.04159487
1905.66168457,0.04180074
1907.59049194,0.04129843
1909.51929932,0.04095102
1911.44810669,0.04132163
1913.37691406,0.04117045
1915.30572144,0.04172669
1917.23452881,0.03958406
1919.16333618,0.03949037
1921.09214355,0.04126643
1923.02095093,0.03957390
1924.94975830,0.04078490
1926.87856567,0.04137127
1928.80737305,0.04062215
1930.73618042,0.04119173
1932.66498779,0.04045589
1934.59379517,0.04093374
1936.52260254,0.04064198
1938.45140991,0.04078693
1940.38021729,0.04068625
1942.30902466,0.03913986
1944.23783203,0.03998178
1946.16663940,0.04041374
1948.09544678,0.04033513
1950.02425415,0.04053554
1951.95306152,0.04045225
1953.88186890,0.04041768
1955.81067627,0.04018096
1957.73948364,0.04039501
1959.66829102,0.04026841
1961.59709839,0.04015420
1963.52590576,0.04025987
1965.45471313,0.03993632
1967.38352051,0.03944138
1969.31232788,0.03977002
1971.24113525,0.04015296
1973.16994263,0.03986629
1975.09875000,0.03991110
1977.02755737,0.03974444
1978.95636475,0.03974885
1980.88517212,0.03959218
1982.81397949,0.03947803
1984.74278687,0.03960101
1986.67159424,0.03921865
1988.60040161,0.03941061
1990.52920898,0.03895725
1992.45801636,0.03844455
1994.38682373,0.03913795
1996.31563110,0.03919465
1998.24443848,0.03893048
2000.17324585,0.03895476
2002.10205322,0.03878518
2004.03086060,0.03875004
2005.95966797,0.03860524
2007.88847534,0.03845348
2009.81728271,0.03856779
2011.74609009,0.03830197
2013.67489746,0.03830564
2015.60370483,0.03814565
2017.53251221,0.03774071
2019.46131958,0.03792686
2021.39012695,0.03777111
2023.31893433,0.03777841
2025.24774170,0.03779840
2027.17654907,0.03764682
2029.10535645,0.03760594
2031.03416382,0.03732572
2032.96297119,0.03736767
2034.89177856,0.03729939
2036.82058594,0.03717546
2038.74939331,0.03711553
2040.67820068,0.03685364
2042.60700806,0.03676292
2044.53581543,0.03687589
2046.46462280,0.03669201
2048.39343018,0.03636403
2050.32223755,0.03652480
2052.25104492,0.03641778
2054.17985229,0.03631175
2056.10865967,0.03647570
2058.03746704,0.03629891
2059.96627441,0.03612904
2061.89508179,0.03607234
2063.82388916,0.03579708
2065.75269653,0.03552557
2067.68150391,0.03585647
2069.61031128,0.03578888
2071.53911865,0.03554817
2073.46792603,0.03570847
2075.39673340,0.03535007
2077.32554077,0.03521703
2079.25434814,0.03534115
2081.18315552,0.03525007
2083.11196289,0.03519886
2085.04077026,0.03521768
2086.96957764,0.03509481
2088.89838501,0.03489788
2090.82719238,0.03488831
2092.75599976,0.03464765
2094.68480713,0.03467567
2096.61361450,0.03479961
2098.54242187,0.03443781
2100.47122925,0.03437769
2102.40003662,0.03453986
2104.32884399,0.03445993
2106.25765137,0.03436744
2108.18645874,0.03433026
2110.11526611,0.03423259
2112.04407349,0.03414894
2113.97288086,0.03400404
2115.90168823,0.03391665
2117.83049561,0.03388240
2119.75930298,0.03378190
2121.68811035,0.03378744
2123.61691772,0.03377730
2125.54572510,0.03368901
2127.47453247,0.03362797
2129.40333984,0.03363919
2131.33214722,0.03348213
2133.26095459,0.03344779
2135.18976196,0.03351913
2137.11856934,0.03325908
2139.04737671,0.03319993
2140.97618408,0.03320054
2142.90499146,0.03310091
2144.83379883,0.03310931
2146.76260620,0.03312460
2148.69141357,0.03309966
2150.62022095,0.03294915
2152.54902832,0.03288240
2154.47783569,0.03290575
2156.40664307,0.03287985
2158.33545044,0.03281422
2160.26425781,0.03275564
2162.19306519,0.03266142
2164.12187256,0.03267656
2166.05067993,0.03262012
2167.97948730,0.03245866
2169.90829468,0.03246000
2171.83710205,0.03226032
2173.76590942,0.03224053
2175.69471680,0.03228477
2177.62352417,0.03222730
2179.55233154,0.03227504
2181.48113892,0.03207526
2183.40994629,0.03204749
2185.33875366,0.03212044
2187.26756104,0.03210015
2189.19636841,0.03197629
2191.12517578,0.03192933
2193.05398315,0.03193576
2194.98279053,0.03179529
2196.91159790,0.03187907
2198.84040527,0.03171017
2200.76921265,0.03162802
2202.69802002,0.03173632
2204.62682739,0.03160398
2206.55563477,0.03151121
2208.48444214,0.03133007
2210.41324951,0.03138990
2212.34205688,0.03147924
2214.27086426,0.03141075
2216.19967163,0.03134003
2218.12847900,0.03121323
2220.05728638,0.03125179
2221.98609375,0.03121396
2223.91490112,0.03113028
2225.84370850,0.03112694
2227.77251587,0.03098637
2229.70132324,0.03085404
2231.63013062,0.03089863
2233.55893799,0.03085031
2235.48774536,0.03078528
2237.41655273,0.03073650
2239.34536011,0.03056083
2241.27416748,0.03051493
2243.20297485,0.03052513
2245.13178223,0.03044840
2247.06058960,0.03036589
2248.98939697,0.03042228
2250.91820435,0.03027944
2252.84701172,0.03022107
2254.77581909,0.03038068
2256.70462646,0.03015972
2258.63343384,0.03016076
2260.56224121,0.03012660
2262.49104858,0.02999148
2264.41985596,0.02998016
2266.34866333,0.02979170
2268.27747070,0.02990167
2270.20627808,0.02993183
2272.13508545,0.02979999
2274.06389282,0.02974755
2275.99270020,0.02976592
2277.92150757,0.02967680
2279.85031494,0.02955706
2281.77912231,0.02972518
2283.70792969,0.02958932
2285.63673706,0.02943104
2287.56554443,0.02942589
2289.49435181,0.02935390
2291.42315918,0.02927794
2293.35196655,0.02920766
2295.28077393,0.02913107
2297.20958130,0.02884632
2299.13838867,0.02881766
2301.06719604,0.02878052
2302.99600342,0.02862734
2304.92481079,0.02849046
2306.85361816,0.02820686
2308.78242554,0.02814012
2310.71123291,0.02795982
2312.64004028,0.02770926
2314.56884766,0.02740154
2316.49765503,0.02705637
2318.42646240,0.02681772
2320.35526978,0.02640957
2322.28407715,0.02609084
2324.21288452,0.02570881
2326.14169189,0.02540324
2328.07049927,0.02519395
2329.99930664,0.02478205
2331.92811401,0.02467822
2333.85692139,0.02461492
2335.78572876,0.02440714
2337.71453613,0.02444471
2339.64334351,0.02439079
2341.57215088,0.02443291
2343.50095825,0.02482906
2345.42976562,0.02533822
2347.35857300,0.02622623
2349.28738037,0.02683533
2351.21618774,0.02614972
2353.14499512,0.02483841
2355.07380249,0.02393592
2357.00260986,0.02330606
2358.93141724,0.02286651
2360.86022461,0.02266869
2362.78903198,0.02241933
2364.71783936,0.02267031
2366.64664673,0.02303546
2368.57545410,0.02322587
2370.50426147,0.02390362
2372.43306885,0.02454135
2374.36187622,0.02518125
2376.29068359,0.02576600
2378.21949097,0.02615876
2380.14829834,0.02661343
2382.07710571,0.02686367
2384.00591309,0.02708696
2385.93472046,0.02713235
2387.86352783,0.02706560
2389.79233521,0.02704362
2391.72114258,0.02695748
2393.64994995,0.02699020
2395.57875732,0.02694637
2397.50756470,0.02688272
2399.43637207,0.02682682
2401.36517944,0.02672722
2403.29398682,0.02678994
2405.22279419,0.02670420
2407.15160156,0.02652052
2409.08040894,0.02664858
2411.00921631,0.02662911
2412.93802368,0.02642767
2414.86683105,0.02642278
2416.79563843,0.02646231
2418.72444580,0.02642447
2420.65325317,0.02624918
2422.58206055,0.02625654
2424.51086792,0.02627136
2426.43967529,0.02618137
2428.36848267,0.02622847
2430.29729004,0.02606118
2432.22609741,0.02594141
2434.15490479,0.02595666
2436.08371216,0.02601141
2438.01251953,0.02603138
2439.94132690,0.02580798
2441.87013428,0.02577286
2443.79894165,0.02583448
2445.72774902,0.02572070
2447.65655640,0.02563421
2449.58536377,0.02566126
2451.51417114,0.02567506
2453.44297852,0.02561951
2455.37178589,0.02551479
2457.30059326,0.02549538
2459.22940063,0.02550038
2461.15820801,0.02531774
2463.08701538,0.02532375
2465.01582275,0.02533538
2466.94463013,0.02525499
2468.87343750,0.02530335
2470.80224487,0.02524204
2472.73105225,0.02530110
2474.65985962,0.02526499
2476.58866699,0.02511832
2478.51747437,0.02512279
2480.44628174,0.02494518
2482.37508911,0.02483596
2484.30389648,0.02494291
2486.23270386,0.02495654
2488.16151123,0.02486015
2490.09031860,0.02482216
2492.01912598,0.02488097
2493.94793335,0.02477370
2495.87674072,0.02460846
2497.80554810,0.02461005
2499.73435547,0.02459888
2501.66316284,0.02466989
2503.59197021,0.02464368
2505.52077759,0.02448724
2507.44958496,0.02438331
2509.37839233,0.02427340
2511.30719971,0.02444751
2513.23600708,0.02438970
2515.16481445,0.02426155
2517.09362183,0.02437791
2519.02242920,0.02419659
2520.95123657,0.02420430
2522.88004395,0.02420434
2524.80885132,0.02410992
2526.73765869,0.02407488
2528.66646606,0.02397315
2530.59527344,0.02401579
2532.52408081,0.02390938
2534.45288818,0.02390780
2536.38169556,0.02385981
2538.31050293,0.02374062
2540.23931030,0.02382325
2542.16811768,0.02379107
2544.09692505,0.02375432
2546.02573242,0.02361957
2547.95453979,0.02352438
2549.88334717,0.02351966
2551.81215454,0.02355120
2553.74096191,0.02361054
2555.66976929,0.02354559
2557.59857666,0.02344652
2559.52738403,0.02326289
2561.45619141,0.02331615
2563.38499878,0.02333356
2565.31380615,0.02318484
2567.24261353,0.02329778
2569.17142090,0.02327735
2571.10022827,0.02317218
2573.02903564,0.02315230
2574.95784302,0.02310612
2576.88665039,0.02304984
2578.81545776,0.02295528
2580.74426514,0.02298801
2582.67307251,0.02300644
2584.60187988,0.02285488
2586.53068726,0.02281451
2588.45949463,0.02288406
2590.38830200,0.02281447
2592.31710937,0.02264117
2594.24591675,0.02259954
2596.17472412,0.02270534
2598.10353149,0.02269628
2600.03233887,0.02256512
2601.96114624,0.02250359
2603.88995361,0.02253624
2605.81876099,0.02247464
2607.74756836,0.02242259
2609.67637573,0.02245507
2611.60518311,0.02237863
2613.53399048,0.02240810
2615.46279785,0.02232503
2617.39160522,0.02222147
2619.32041260,0.02227426
2621.24921997,0.02220136
2623.17802734,0.02227155
2625.10683472,0.02214225
2627.03564209,0.02201886
2628.96444946,0.02211686
2630.89325684,0.02197954
2632.82206421,0.02195866
2634.75087158,0.02191229
2636.67967895,0.02186199
2638.60848633,0.02189403
2640.53729370,0.02177728
2642.46610107,0.02177399
2644.39490845,0.02177120
2646.32371582,0.02161177
2648.25252319,0.02156176
2650.18133057,0.02168170
2652.11013794,0.02162731
2654.03894531,0.02146514
2655.96775269,0.02146661
2657.89656006,0.02149023
2659.82536743,0.02142418
2661.75417480,0.02135927
2663.68298218,0.02136137
2665.61178955,0.02136985
2667.54059692,0.02134077
2669.46940430,0.02130192
2671.39821167,0.02125972
2673.32701904,0.02107033
2675.25582642,0.02107862
2677.18463379,0.02119681
2679.11344116,0.02102370
2681.04224854,0.02101672
2682.97105591,0.02092751
2684.89986328,0.02081954
2686.82867065,0.02096942
2688.75747803,0.02089418
2690.68628540,0.02076030
2692.61509277,0.02075548
2694.54390015,0.02079801
2696.47270752,0.02078101
2698.40151489,0.02071978
2700.33032227,0.02067259
2702.25912964,0.02061239
2704.18793701,0.02054588
2706.11674438,0.02055872
2708.04555176,0.02056085
2709.97435913,0.02043204
2711.90316650,0.02052121
2713.83197388,0.02037687
2715.76078125,0.02020233
2717.68958862,0.02043007
2719.61839600,0.02034321
2721.54720337,0.02025317
2723.47601074,0.02020421
2725.40481812,0.02017484
2727.33362549,0.02023249
2729.26243286,0.02007285
2731.19124023,0.02009883
2733.12004761,0.02008348
2735.04885498,0.01993476
2736.97766235,0.01991525
2738.90646973,0.01992455
2740.83527710,0.01994335
2742.76408447,0.01986013
2744.69289185,0.01978925
2746.62169922,0.01984035
2748.55050659,0.01979812
2750.47931396,0.01965816
2752.40812134,0.01967339
2754.33692871,0.01963834
2756.26573608,0.01957374
2758.19454346,0.01960699
2760.12335083,0.01944963
2762.05215820,0.01938323
2763.98096558,0.01946143
2765.90977295,0.01933028
2767.83858032,0.01923491
2769.76738770,0.01933860
2771.69619507,0.01923603
2773.62500244,0.01913293
2775.55380981,0.01927483
2777.48261719,0.01918108
2779.41142456,0.01906882
2781.34023193,0.01911127
2783.26903931,0.01912021
2785.19784668,0.01908034
2787.12665405,0.01896504
2789.05546143,0.01893086
2790.98426880,0.01887704
2792.91307617,0.01884861
2794.84188354,0.01876988
2796.77069092,0.01871140
2798.69949829,0.01878935
2800.62830566,0.01858208
2802.55711304,0.01857420
2804.48592041,0.01868092
2806.41472778,0.01853476
2808.34353516,0.01857564
2810.27234253,0.01843634
2812.20114990,0.01836671
2814.12995728,0.01841380
2816.05876465,0.01830178
2817.98757202,0.01842722
2819.91637939,0.01828801
2821.84518677,0.01819737
2823.77399414,0.01833994
2825.70280151,0.01813951
2827.63160889,0.01799143
2829.56041626,0.01793453
2831.48922363,0.01800140
2833.41803101,0.01798207
2835.34683838,0.01782156
2837.27564575,0.01794082
2839.20445312,0.01791791
2841.13326050,0.01773711
2843.06206787,0.01763144
2844.99087524,0.01756195
2846.91968262,0.01754024
2848.84848999,0.01746751
2850.77729736,0.01740177
2852.70610474,0.01738726
2854.63491211,0.01737951
2856.56371948,0.01737488
2858.49252686,0.01736348
2860.42133423,0.01730412
2862.35014160,0.01734382
2864.27894897,0.01727884
2866.20775635,0.01712453
2868.13656372,0.01720979
2870.06537109,0.01710572
2871.99417847,0.01700201
2873.92298584,0.01710924
2875.85179321,0.01703712
2877.78060059,0.01695681
2879.70940796,0.01691576
2881.63821533,0.01690575
2883.56702270,0.01694804
2885.49583008,0.01689792
2887.42463745,0.01683063
2889.35344482,0.01679599
2891.28225220,0.01676066
2893.21105957,0.01667576
2895.13986694,0.01657178
2897.06867432,0.01665522
2898.99748169,0.01662089
2900.92628906,0.01643239
2902.85509644,0.01658279
2904.78390381,0.01657629
2906.71271118,0.01644081
2908.64151855,0.01649076
2910.57032593,0.01629398
2912.49913330,0.01620431
2914.42794067,0.01624022
2916.35674805,0.01623187
2918.28555542,0.01627468
2920.21436279,0.01615078
2922.14317017,0.01613384
2924.07197754,0.01609973
2926.00078491,0.01597799
2927.92959229,0.01603306
2929.85839966,0.01601390
2931.78720703,0.01607742
2933.71601440,0.01604313
2935.64482178,0.01584845
2937.57362915,0.01596284
2939.50243652,0.01600355
2941.43124390,0.01600190
2943.36005127,0.01604759
2945.28885864,0.01595502
2947.21766602,0.01587750
2949.14647339,0.01575592
2951.07528076,0.01580552
2953.00408813,0.01582013
2954.93289551,0.01569368
2956.86170288,0.01562125
2958.79051025,0.01555839
2960.71931763,0.01557703
2962.64812500,0.01548372
2964.57693237,0.01543284
2966.50573975,0.01537804
2968.43454712,0.01539794
2970.36335449,0.01553204
2972.29216187,0.01546151
2974.22096924,0.01547623
2976.14977661,0.01546083
2978.07858398,0.01547174
2980.00739136,0.01551440
2981.93619873,0.01543637
2983.86500610,0.01543920
2985.79381348,0.01544352
2987.72262085,0.01532072
2989.65142822,0.01519789
2991.58023560,0.01534147
2993.50904297,0.01523004
2995.43785034,0.01513477
2997.36665771,0.01533078
2999.29546509,0.01527432
3001.22427246,0.01520411
3003.15307983,0.01504693
3005.08188721,0.01504914
3007.01069458,0.01509202
3008.93950195,0.01498060
3010.86830933,0.01487826
3012.79711670,0.01476923
3014.72592407,0.01491829
3016.65473145,0.01484951
3018.58353882,0.01482955
3020.51234619,0.01484192
3022.44115356,0.01469360
3024.36996094,0.01471502
3026.29876831,0.01458718
3028.22757568,0.01458575
3030.15638306,0.01459260
3032.08519043,0.01463588
3034.01399780,0.01459377
3035.94280518,0.01441946
3037.87161255,0.01449266
3039.80041992,0.01440211
3041.72922729,0.01440190
3043.65803467,0.01435403
3045.58684204,0.01423755
3047.51564941,0.01423871
3049.44445679,0.01422897
3051.37326416,0.01439770
3053.30207153,0.01426621
3055.23087891,0.01404932
3057.15968628,0.01401728
3059.08849365,0.01400997
3061.01730103,0.01412687
3062.94610840,0.01409730
3064.87491577,0.01397711
3066.80372314,0.01403328
3068.73253052,0.01401621
3070.66133789,0.01389640
3072.59014526,0.01393667
3074.51895264,0.01385340
3076.44776001,0.01381654
3078.37656738,0.01379834
3080.30537476,0.01365503
3082.23418213,0.01370605
3084.16298950,0.01364797
3086.09179687,0.01363128
3088.02060425,0.01362886
3089.94941162,0.01359653
3091.87821899,0.01360633
3093.80702637,0.01343024
3095.73583374,0.01340564
3097.66464111,0.01345261
3099.59344849,0.01339551
3101.52225586,0.01323675
3103.45106323,0.01331682
3105.37987061,0.01343727
3107.30867798,0.01322077
3109.23748535,0.01331532
3111.16629272,0.01330382
3113.09510010,0.01309256
3115.02390747,0.01313134
3116.95271484,0.01303601
3118.88152222,0.01294296
3120.81032959,0.01297430
3122.73913696,0.01297688
3124.66794434,0.01296042
3126.59675171,0.01291076
3128.52555908,0.01291663
3130.45436645,0.01292164
3132.38317383,0.01274628
3134.31198120,0.01275354
3136.24078857,0.01281380
3138.16959595,0.01267243
3140.09840332,0.01270984
3142.02721069,0.01263500
3143.95601807,0.01254245
3145.88482544,0.01251974
3147.81363281,0.01243518
3149.74244019,0.01252232
3151.67124756,0.01249400
3153.60005493,0.01241693
3155.52886230,0.01235046
3157.45766968,0.01233474
3159.38647705,0.01233965
3161.31528442,0.01218561
3163.24409180,0.01216109
3165.17289917,0.01214158
3167.10170654,0.01213196
3169.03051392,0.01217290
3170.95932129,0.01211407
3172.88812866,0.01204166
3174.81693604,0.01194867
3176.74574341,0.01193506
3178.67455078,0.01196170
3180.60335815,0.01192014
3182.53216553,0.01186056
3184.46097290,0.01182235
3186.38978027,0.01180516
3188.31858765,0.01180439
3190.24739502,0.01173394
3192.17620239,0.01163347
3194.10500977,0.01164434
3196.03381714,0.01158305
3197.96262451,0.01154032
3199.89143188,0.01162543
3201.82023926,0.01159662
3203.74904663,0.01155903
3205.67785400,0.01156550
3207.60666138,0.01148776
3209.53546875,0.01143979
3211.46427612,0.01134487
3213.39308350,0.01127077
3215.32189087,0.01140945
3217.25069824,0.01134753
3219.17950562,0.01122027
3221.10831299,0.01127842
3223.03712036,0.01120170
3224.96592773,0.01119685
3226.89473511,0.01124669
3228.82354248,0.01114460
3230.75234985,0.01105673
3232.68115723,0.01108759
3234.60996460,0.01113158
3236.53877197,0.01107217
3238.46757935,0.01105915
3240.39638672,0.01108048
3242.32519409,0.01105876
3244.25400146,0.01102331
3246.18280884,0.01100085
3248.11161621,0.01097867
3250.04042358,0.01095987
3251.96923096,0.01095731
3253.89803833,0.01092720
3255.82684570,0.01093036
3257.75565308,0.01086488
3259.68446045,0.01090588
3261.61326782,0.01097007
3263.54207520,0.01080375
3265.47088257,0.01078951
3267.39968994,0.01078778
3269.32849731,0.01082532
3271.25730469,0.01084764
3273.18611206,0.01066716
3275.11491943,0.01075529
3277.04372681,0.01074612
3278.97253418,0.01067484
3280.90134155,0.01075425
3282.83014893,0.01060998
3284.75895630,0.01064521
3286.68776367,0.01066010
3288.61657104,0.01060323
3290.54537842,0.01067150
3292.47418579,0.01052928
3294.40299316,0.01062056
3296.33180054,0.01056524
3298.26060791,0.01032216
3300.18941528,0.01052984
3302.11822266,0.01054000
3304.04703003,0.01047495
3305.97583740,0.01042303
3307.90464478,0.01033112
3309.83345215,0.01047266
3311.76225952,0.01039109
3313.69106689,0.01037617
3315.61987427,0.01043039
3317.54868164,0.01031484
3319.47748901,0.01031590
3321.40629639,0.01035605
3323.33510376,0.01037310
3325.26391113,0.01023676
3327.19271851,0.01017840
3329.12152588,0.01026844
3331.05033325,0.01021738
3332.97914062,0.01016878
3334.90794800,0.01021376
3336.83675537,0.01021087
3338.76556274,0.01016524
3340.69437012,0.01022978
3342.62317749,0.01020285
3344.55198486,0.01007135
3346.48079224,0.01004884
3348.40959961,0.01004708
3350.33840698,0.01006783
3352.26721436,0.01008593
3354.19602173,0.00998957
3356.12482910,0.00997853
3358.05363647,0.01001972
3359.98244385,0.00984274
3361.91125122,0.00988174
3363.84005859,0.00995919
3365.76886597,0.00977587
3367.69767334,0.00976848
3369.62648071,0.00979794
3371.55528809,0.00975869
3373.48409546,0.00970740
3375.41290283,0.00984494
3377.34171020,0.00982971
3379.27051758,0.00966955
3381.19932495,0.00985302
3383.12813232,0.00975492
3385.05693970,0.00964474
3386.98574707,0.00968780
3388.91455444,0.00966529
3390.84336182,0.00962406
3392.77216919,0.00947136
3394.70097656,0.00957327
3396.62978394,0.00953993
3398.55859131,0.00950770
3400.48739868,0.00957973
3402.41620605,0.00947956
3404.34501343,0.00947197
3406.27382080,0.00941936
3408.20262817,0.00938200
3410.13143555,0.00934307
3412.06024292,0.00940683
3413.98905029,0.00938437
3415.91785767,0.00925829
3417.84666504,0.00927486
3419.77547241,0.00923507
3421.70427979,0.00927076
3423.63308716,0.00925017
3425.56189453,0.00932718
3427.49070190,0.00930467
3429.41950928,0.00911484
3431.34831665,0.00912488
3433.27712402,0.00914783
3435.20593140,0.00924350
3437.13473877,0.00914977
3439.06354614,0.00910507
3440.99235352,0.00911452
3442.92116089,0.00901366
3444.84996826,0.00905836
3446.77877563,0.00891452
3448.70758301,0.00889681
3450.63639038,0.00900886
3452.56519775,0.00899449
3454.49400513,0.00896132
3456.42281250,0.00896448
3458.35161987,0.00897623
3460.28042725,0.00882068
3462.20923462,0.00879568
3464.13804199,0.00883691
3466.06684937,0.00888174
3467.99565674,0.00892666
3469.92446411,0.00884544
3471.85327148,0.00886093
3473.78207886,0.00880886
3475.71088623,0.00872182
3477.63969360,0.00879991
3479.56850098,0.00881209
3481.49730835,0.00871260
3483.42611572,0.00873027
3485.35492310,0.00877268
3487.28373047,0.00871401
3489.21253784,0.00870097
3491.14134521,0.00870575
3493.07015259,0.00866545
3494.99895996,0.00866952
3496.92776733,0.00856262
3498.85657471,0.00849011
3500.78538208,0.00864965
3502.71418945,0.00844316
3504.64299683,0.00845615
3506.57180420,0.00875749
3508.50061157,0.00847425
3510.42941895,0.00851475
3512.35822632,0.00864803
3514.28703369,0.00852916
3516.21584106,0.00862226
3518.14464844,0.00851082
3520.07345581,0.00849081
3522.00226318,0.00852354
3523.93107056,0.00836266
3525.85987793,0.00832703
3527.78868530,0.00839943
3529.71749268,0.00843466
3531.64630005,0.00852195
3533.57510742,0.00860564
3535.50391479,0.00841640
3537.43272217,0.00836159
3539.36152954,0.00855354
3541.29033691,0.00846108
3543.21914429,0.00827770
3545.14795166,0.00813169
3547.07675903,0.00803415
3549.00556641,0.00839260
3550.93437378,0.00843705
3552.86318115,0.00815915
3554.79198853,0.00833089
3556.72079590,0.00837819
3558.64960327,0.00843549
3560.57841064,0.00831016
3562.50721802,0.00820583
3564.43602539,0.00830730
3566.36483276,0.00760437
3568.29364014,0.00739370
3570.22244751,0.00807177
3572.15125488,0.00831224
3574.08006226,0.00832349
3576.00886963,0.00834864
3577.93767700,0.00835257
3579.86648437,0.00834991
3581.79529175,0.00820462
3583.72409912,0.00832733
3585.65290649,0.00809405
3587.58171387,0.00718287
3589.51052124,0.00756829
3591.43932861,0.00835150
3593.36813599,0.00810135
3595.29694336,0.00788050
3597.22575073,0.00796409
3599.15455811,0.00816863
3601.08336548,0.00798550
3603.01217285,0.00802519
3604.94098022,0.00830427
3606.86978760,0.00791523
3608.79859497,0.00735068
3610.72740234,0.00761214
3612.65620972,0.00775519
3614.58501709,0.00747509
3616.51382446,0.00817271
3618.44263184,0.00738534
3620.37143921,0.00713878
3622.30024658,0.00829216
3624.22905395,0.00799567
3626.15786133,0.00840065
3628.08666870,0.00687864
3630.01547607,0.00617137
3631.94428345,0.00802740
3633.87309082,0.00777280
3635.80189819,0.00799777
3637.73070557,0.00814676
3639.65951294,0.00808449
3641.58832031,0.00817622
3643.51712769,0.00797123
3645.44593506,0.00805946
3647.37474243,0.00709971
3649.30354980,0.00646445
3651.23235718,0.00650734
3653.16116455,0.00784486
3655.08997192,0.00773140
3657.01877930,0.00684418
3658.94758667,0.00817415
3660.87639404,0.00796361
3662.80520142,0.00797207
3664.73400879,0.00800840
3666.66281616,0.00793495
3668.59162354,0.00753728
3670.52043091,0.00602948
3672.44923828,0.00757058
3674.37804565,0.00706036
3676.30685303,0.00569631
3678.23566040,0.00736917
3680.16446777,0.00756492
3682.09327515,0.00767430
3684.02208252,0.00790769
3685.95088989,0.00771926
3687.87969727,0.00684346
3689.80850464,0.00620457
3691.73731201,0.00717024
3693.66611938,0.00753666
3695.59492676,0.00777948
3697.52373413,0.00767235
3699.45254150,0.00769359
3701.38134888,0.00743983
3703.31015625,0.00707317
3705.23896362,0.00791618
3707.16777100,0.00748130
3709.09657837,0.00725988
3711.02538574,0.00671721
3712.95419312,0.00632418
3714.88300049,0.00757472
3716.81180786,0.00740106
3718.74061523,0.00752257
3720.66942261,0.00729678
3722.59822998,0.00698507
3724.52703735,0.00722101
3726.45584473,0.00664905
3728.38465210,0.00736916
3730.31345947,0.00720206
3732.24226685,0.00652322
3734.17107422,0.00628946
3736.09988159,0.00592845
3738.02868896,0.00639297
3739.95749634,0.00692820
3741.88630371,0.00732476
3743.81511108,0.00549726
3745.74391846,0.00520077
3747.67272583,0.00701610
3749.60153320,0.00581207
3751.53034058,0.00532749
3753.45914795,0.00623275
3755.38795532,0.00683583
3757.31676270,0.00718482
3759.24557007,0.00649177
3761.17437744,0.00682904
3763.10318481,0.00733161
3765.03199219,0.00680704
3766.96079956,0.00695088
3768.88960693,0.00680784
3770.81841431,0.00647903
3772.74722168,0.00702635
3774.67602905,0.00708714
3776.60483643,0.00707794
3778.53364380,0.00673430
3780.46245117,0.00650578
3782.39125854,0.00704782
3784.32006592,0.00682990
3786.24887329,0.00686599
3788.17768066,0.00704856
3790.10648804,0.00694325
3792.03529541,0.00690070
3793.96410278,0.00695756
3795.89291016,0.00643495
3797.82171753,0.00644619
3799.75052490,0.00687865
3801.67933228,0.00525330
3803.60813965,0.00631656
3805.53694702,0.00683626
3807.46575439,0.00537125
3809.39456177,0.00682212
3811.32336914,0.00664757
3813.25217651,0.00684554
3815.18098389,0.00610828
3817.10979126,0.00537074
3819.03859863,0.00695547
3820.96740601,0.00530521
3822.89621338,0.00569664
3824.82502075,0.00679890
3826.75382812,0.00606149
3828.68263550,0.00666397
3830.61144287,0.00639651
3832.54025024,0.00614494
3834.46905762,0.00621721
3836.39786499,0.00592328
3838.32667236,0.00522850
3840.25547974,0.00568924
3842.18428711,0.00624664
3844.11309448,0.00585450
3846.04190186,0.00644108
3847.97070923,0.00636856
3849.89951660,0.00636319
3851.82832397,0.00565351
3853.75713135,0.00406219
3855.68593872,0.00491658
3857.61474609,0.00636152
3859.54355347,0.00620325
3861.47236084,0.00608101
3863.40116821,0.00593275
3865.32997559,0.00548828
3867.25878296,0.00620383
3869.18759033,0.00546053
3871.11639770,0.00508639
3873.04520508,0.00624533
3874.97401245,0.00558689
3876.90281982,0.00629959
3878.83162720,0.00633153
3880.76043457,0.00523356
3882.68924194,0.00622875
3884.61804932,0.00573453
3886.54685669,0.00523620
3888.47566406,0.00619054
3890.40447144,0.00585583
3892.33327881,0.00543160
3894.26208618,0.00596511
3896.19089355,0.00616746
3898.11970093,0.00578966
3900.04850830,0.00539371
3901.97731567,0.00536519
3903.90612305,0.00529472
3905.83493042,0.00532387
3907.76373779,0.00596847
3909.69254517,0.00604574
3911.62135254,0.00592384
3913.55015991,0.00603788
3915.47896728,0.00582940
3917.40777466,0.00561369
3919.33658203,0.00561805
3921.26538940,0.00588999
3923.19419678,0.00573254
3925.12300415,0.00559286
3927.05181152,0.00570885
3928.98061890,0.00580339
3930.90942627,0.00572674
3932.83823364,0.00539834
3934.76704102,0.00567534
3936.69584839,0.00575526
3938.62465576,0.00573427
3940.55346313,0.00581464
3942.48227051,0.00550223
3944.41107788,0.00560208
3946.33988525,0.00565311
3948.26869263,0.00551620
3950.19750000,0.00562218
3952.12630737,0.00573156
3954.05511475,0.00566710
3955.98392212,0.00563692
3957.91272949,0.00565619
3959.84153687,0.00556928
3961.77034424,0.00556128
3963.69915161,0.00550739
3965.62795898,0.00553691
3967.55676636,0.00560109
3969.48557373,0.00559304
3971.41438110,0.00554789
3973.34318848,0.00545172
3975.27199585,0.00549004
3977.20080322,0.00555322
3979.12961060,0.00548056
3981.05841797,0.00540471
3982.98722534,0.00552136
3984.91603271,0.00546879
3986.84484009,0.00542427
3988.77364746,0.00549755
3990.70245483,0.00541693
3992.63126221,0.00542775
3994.56006958,0.00536486
3996.48887695,0.00532537
3998.41768433,0.00537068
4000.34649170,0.00540819
4002.27529907,0.00532686
4004.20410645,0.00523019
4006.13291382,0.00530896
4008.06172119,0.00528710
4009.99052856,0.00526564
4011.91933594,0.00520828
4013.84814331,0.00524694
4015.77695068,0.00525579
4017.70575806,0.00517356
4019.63456543,0.00520531
4021.56337280,0.00518935
4023.49218018,0.00526493
4025.42098755,0.00522700
4027.34979492,0.00523269
4029.27860229,0.00521808
4031.20740967,0.00512064
4033.13621704,0.00515043
4035.06502441,0.00503709
4036.99383179,0.00502899
4038.92263916,0.00505698
4040.85144653,0.00505289
4042.78025391,0.00501700
4044.70906128,0.00500442
4046.63786865,0.00506566
4048.56667603,0.00499780
4050.49548340,0.00502875
4052.42429077,0.00503748
4054.35309814,0.00499991
4056.28190552,0.00503197
4058.21071289,0.00501698
4060.13952026,0.00493168
4062.06832764,0.00497450
4063.99713501,0.00499350
4065.92594238,0.00486022
4067.85474976,0.00493504
4069.78355713,0.00493592
4071.71236450,0.00484485
4073.64117187,0.00481845
4075.56997925,0.00488465
4077.49878662,0.00488380
4079.42759399,0.00475103
4081.35640137,0.00482282
4083.28520874,0.00479579
4085.21401611,0.00479805
4087.14282349,0.00481634
4089.07163086,0.00480803
4091.00043823,0.00482748
4092.92924561,0.00471925
4094.85805298,0.00480004
4096.78686035,0.00478100
4098.71566772,0.00474688
4100.64447510,0.00475881
4102.57328247,0.00468487
4104.50208984,0.00470418
4106.43089722,0.00460089
4108.35970459,0.00455753
4110.28851196,0.00462460
4112.21731934,0.00456830
4114.14612671,0.00456211
4116.07493408,0.00466504
4118.00374145,0.00457487
4119.93254883,0.00460849
4121.86135620,0.00469245
4123.79016357,0.00455766
4125.71897095,0.00457162
4127.64777832,0.00441812
4129.57658569,0.00438519
4131.50539307,0.00454556
4133.43420044,0.00451778
4135.36300781,0.00448543
4137.29181519,0.00442134
4139.22062256,0.00448724
4141.14942993,0.00453075
4143.07823730,0.00451794
4145.00704468,0.00450721
4146.93585205,0.00444263
4148.86465942,0.00440946
4150.79346680,0.00442957
4152.72227417,0.00447185
4154.65108154,0.00437042
4156.57988892,0.00434732
4158.50869629,0.00436207
4160.43750366,0.00434156
4162.36631103,0.00431236
4164.29511841,0.00426089
4166.22392578,0.00429823
4168.15273315,0.00430099
4170.08154053,0.00429260
4172.01034790,0.00423141
4173.93915527,0.00427513
4175.86796265,0.00433392
4177.79677002,0.00425490
4179.72557739,0.00424460
4181.65438477,0.00426481
4183.58319214,0.00425780
4185.51199951,0.00420467
4187.44080688,0.00426124
4189.36961426,0.00428445
4191.29842163,0.00422718
4193.22722900,0.00414849
4195.15603638,0.00407231
4197.08484375,0.00412741
4199.01365112,0.00413175
4200.94245850,0.00413801
4202.87126587,0.00406627
4204.80007324,0.00400393
4206.72888062,0.00406067
4208.65768799,0.00405807
4210.58649536,0.00405581
4212.51530273,0.00408675
4214.44411011,0.00402477
4216.37291748,0.00397277
4218.30172485,0.00407873
4220.23053223,0.00398854
4222.15933960,0.00401105
4224.08814697,0.00404321
4226.01695435,0.00395211
4227.94576172,0.00405390
4229.87456909,0.00391927
4231.80337646,0.00391448
4233.73218384,0.00389172
4235.66099121,0.00384617
4237.58979858,0.00394360
4239.51860596,0.00386006
4241.44741333,0.00389082
4243.37622070,0.00383755
4245.30502808,0.00389099
4247.23383545,0.00386121
4249.16264282,0.00372412
4251.09145020,0.00375456
4253.02025757,0.00381643
4254.94906494,0.00393902
4256.87787231,0.00379250
4258.80667969,0.00381594
4260.73548706,0.00380889
4262.66429443,0.00373080
4264.59310181,0.00379276
4266.52190918,0.00370963
4268.45071655,0.00383536
4270.37952393,0.00378349
4272.30833130,0.00373300
4274.23713867,0.00374740
4276.16594604,0.00368262
4278.09475342,0.00374405
4280.02356079,0.00368219
4281.95236816,0.00374874
4283.88117554,0.00368699
4285.80998291,0.00358032
4287.73879028,0.00369673
4289.66759766,0.00363690
4291.59640503,0.00359511
4293.52521240,0.00370640
4295.45401978,0.00368738
4297.38282715,0.00365193
4299.31163452,0.00360944
4301.24044189,0.00355575
4303.16924927,0.00369089
4305.09805664,0.00357971
4307.02686401,0.00354383
4308.95567139,0.00365594
4310.88447876,0.00354409
4312.81328613,0.00357731
4314.74209351,0.00350509
4316.67090088,0.00346795
4318.59970825,0.00348776
4320.52851562,0.00345659
4322.45732300,0.00348417
4324.38613037,0.00343787
4326.31493774,0.00344344
4328.24374512,0.00340928
4330.17255249,0.00344953
4332.10135986,0.00347085
4334.03016724,0.00349411
4335.95897461,0.00345479
4337.88778198,0.00334532
4339.81658936,0.00344645
4341.74539673,0.00342718
4343.67420410,0.00344476
4345.60301147,0.00341816
4347.53181885,0.00332033
4349.46062622,0.00333790
4351.38943359,0.00329713
4353.31824097,0.00332309
4355.24704834,0.00333006
4357.17585571,0.00336613
4359.10466309,0.00336666
4361.03347046,0.00330650
4362.96227783,0.00334133
4364.89108520,0.00335669
4366.81989258,0.00331381
4368.74869995,0.00331570
4370.67750732,0.00330194
4372.60631470,0.00322499
4374.53512207,0.00326293
4376.46392944,0.00322705
4378.39273682,0.00319931
4380.32154419,0.00321443
4382.25035156,0.00322324
4384.17915894,0.00325725
4386.10796631,0.00312884
4388.03677368,0.00319095
4389.96558105,0.00327331
4391.89438843,0.00322434
4393.82319580,0.00319159
4395.75200317,0.00310238
4397.68081055,0.00312126
4399.60961792,0.00316008
4401.53842529,0.00311536
4403.46723267,0.00303215
4405.39604004,0.00312338
4407.32484741,0.00321079
4409.25365478,0.00314292
4411.18246216,0.00307428
4413.11126953,0.00307133
4415.04007690,0.00314203
4416.96888428,0.00307316
4418.89769165,0.00308349
4420.82649902,0.00311150
4422.75530640,0.00307486
4424.68411377,0.00304607
4426.61292114,0.00301691
4428.54172852,0.00309103
4430.47053589,0.00303328
4432.39934326,0.00297876
4434.32815063,0.00294807
4436.25695801,0.00300349
4438.18576538,0.00301428
4440.11457275,0.00290997
4442.04338013,0.00300402
4443.97218750,0.00297363
4445.90099487,0.00295226
4447.82980225,0.00293957
4449.75860962,0.00291716
4451.68741699,0.00296038
4453.61622437,0.00283153
4455.54503174,0.00283867
4457.47383911,0.00296192
4459.40264648,0.00298994
4461.33145386,0.00291717
4463.26026123,0.00290730
4465.18906860,0.00292491
4467.11787598,0.00282919
4469.04668335,0.00281969
4470.97549072,0.00287017
4472.90429810,0.00283424
4474.83310547,0.00280667
4476.76191284,0.00286024
4478.69072021,0.00279644
4480.61952759,0.00281665
4482.54833496,0.00282051
4484.47714233,0.00273648
4486.40594971,0.00283518
4488.33475708,0.00275759
4490.26356445,0.00270553
4492.19237183,0.00273530
4494.12117920,0.00268398
4496.04998657,0.00273037
4497.97879395,0.00278252
4499.90760132,0.00280237
4501.83640869,0.00272815
4503.76521606,0.00269131
4505.69402344,0.00271551
4507.62283081,0.00269846
4509.55163818,0.00265430
4511.48044556,0.00265947
4513.40925293,0.00269773
4515.33806030,0.00271829
4517.26686768,0.00268020
4519.19567505,0.00261604
4521.12448242,0.00268156
4523.05328979,0.00257674
4524.98209717,0.00256800
4526.91090454,0.00266132
4528.83971191,0.00256999
4530.76851929,0.00256888
4532.69732666,0.00254692
4534.62613403,0.00262923
4536.55494141,0.00260859
4538.48374878,0.00260405
4540.41255615,0.00261466
4542.34136353,0.00250177
4544.27017090,0.00265487
4546.19897827,0.00257510
4548.12778564,0.00254044
4550.05659302,0.00261391
4551.98540039,0.00249330
4553.91420776,0.00247640
4555.84301514,0.00248685
4557.77182251,0.00257106
4559.70062988,0.00251092
4561.62943726,0.00243439
4563.55824463,0.00243232
4565.48705200,0.00249280
4567.41585937,0.00255175
4569.34466675,0.00244423
4571.27347412,0.00245667
4573.20228149,0.00243285
4575.13108887,0.00247318
4577.05989624,0.00247555
4578.98870361,0.00239136
4580.91751099,0.00246751
4582.84631836,0.00248014
4584.77512573,0.00248644
4586.70393311,0.00242804
4588.63274048,0.00238191
4590.56154785,0.00235179
4592.49035522,0.00231383
4594.41916260,0.00238810
4596.34796997,0.00238385
4598.27677734,0.00237232
4600.20558472,0.00239648
4602.13439209,0.00234461
4604.06319946,0.00229676
4605.99200684,0.00231991
4607.92081421,0.00226780
4609.84962158,0.00228364
4611.77842895,0.00232523
4613.70723633,0.00227947
4615.63604370,0.00230946
4617.56485107,0.00223189
4619.49365845,0.00224646
4621.42246582,0.00222271
4623.35127319,0.00219467
4625.28008057,0.00237094
4627.20888794,0.00225222
4629.13769531,0.00219924
4631.06650269,0.00225562
4632.99531006,0.00222587
4634.92411743,0.00228231
4636.85292480,0.00218861
4638.78173218,0.00223280
4640.71053955,0.00234195
4642.63934692,0.00224631
4644.56815430,0.00223183
4646.49696167,0.00220607
4648.42576904,0.00218678
4650.35457642,0.00220400
4652.28338379,0.00213832
4654.21219116,0.00220966
4656.14099853,0.00222294
4658.06980591,0.00212125
4659.99861328,0.00216662
4661.92742065,0.00216431
4663.85622803,0.00216564
4665.78503540,0.00216484
4667.71384277,0.00210381
4669.64265015,0.00217487
4671.57145752,0.00222505
4673.50026489,0.00216284
4675.42907227,0.00209002
4677.35787964,0.00206484
4679.28668701,0.00208571
4681.21549438,0.00209805
4683.14430176,0.00210242
4685.07310913,0.00207597
4687.00191650,0.00204492
4688.93072388,0.00202484
4690.85953125,0.00202388
4692.78833862,0.00207951
4694.71714600,0.00202211
4696.64595337,0.00203531
4698.57476074,0.00218344
4700.50356812,0.00209012
4702.43237549,0.00202630
4704.36118286,0.00198875
4706.28999023,0.00196515
4708.21879761,0.00202024
4710.14760498,0.00194559
4712.07641235,0.00207468
4714.00521973,0.00201959
4715.93402710,0.00190551
4717.86283447,0.00204244
4719.79164185,0.00192929
4721.72044922,0.00195277
4723.64925659,0.00201783
4725.57806396,0.00192984
4727.50687134,0.00193273
4729.43567871,0.00195932
4731.36448608,0.00195366
4733.29329346,0.00191539
4735.22210083,0.00191846
4737.15090820,0.00189540
4739.07971558,0.00197809
4741.00852295,0.00198974
4742.93733032,0.00192402
4744.86613770,0.00192598
4746.79494507,0.00189847
4748.72375244,0.00195604
4750.65255981,0.00188434
4752.58136719,0.00188281
4754.51017456,0.00188117
4756.43898193,0.00177585
4758.36778931,0.00186815
4760.29659668,0.00187307
4762.22540405,0.00179244
4764.15421143,0.00178857
4766.08301880,0.00191465
4768.01182617,0.00194853
4769.94063354,0.00186446
4771.86944092,0.00183042
4773.79824829,0.00183388
4775.72705566,0.00188579
4777.65586304,0.00180700
4779.58467041,0.00187508
4781.51347778,0.00186402
4783.44228516,0.00172933
4785.37109253,0.00179961
4787.29989990,0.00175312
4789.22870728,0.00179729
4791.15751465,0.00183392
4793.08632202,0.00176313
4795.01512939,0.00175724
4796.94393677,0.00178705
4798.87274414,0.00181924
4800.80155151,0.00171937
4802.73035889,0.00174796
4804.65916626,0.00176380
4806.58797363,0.00170128
4808.51678101,0.00177210
4810.44558838,0.00181260
4812.37439575,0.00176734
4814.30320312,0.00173417
4816.23201050,0.00180182
4818.16081787,0.00175587
4820.08962524,0.00168442
4822.01843262,0.00168183
4823.94723999,0.00165240
4825.87604736,0.00171739
4827.80485474,0.00174220
4829.73366211,0.00168391
4831.66246948,0.00166819
4833.59127686,0.00175381
4835.52008423,0.00173768
4837.44889160,0.00163953
4839.37769897,0.00164965
4841.30650635,0.00164981
4843.23531372,0.00165326
4845.16412109,0.00159071
4847.09292847,0.00162060
4849.02173584,0.00166976
4850.95054321,0.00156895
4852.87935059,0.00164119
4854.80815796,0.00166118
4856.73696533,0.00157846
4858.66577270,0.00159867
4860.59458008,0.00155754
4862.52338745,0.00149422
4864.45219482,0.00155381
4866.38100220,0.00163232
4868.30980957,0.00161464
4870.23861694,0.00164482
4872.16742432,0.00160730
4874.09623169,0.00155290
4876.02503906,0.00160131
4877.95384644,0.00158171
4879.88265381,0.00160813
4881.81146118,0.00156543
4883.74026855,0.00154574
4885.66907593,0.00159966
4887.59788330,0.00156342
4889.52669067,0.00160695
4891.45549805,0.00151329
4893.38430542,0.00148731
4895.31311279,0.00158812
4897.24192017,0.00150625
4899.17072754,0.00150693
4901.09953491,0.00148488
4903.02834228,0.00149624
4904.95714966,0.00150347
4906.88595703,0.00139091
4908.81476440,0.00150616
4910.74357178,0.00153703
4912.67237915,0.00144520
4914.60118652,0.00151577
4916.52999390,0.00149061
4918.45880127,0.00144243
4920.38760864,0.00150789
4922.31641602,0.00147049
4924.24522339,0.00140974
4926.17403076,0.00148233
4928.10283813,0.00151749
4930.03164551,0.00148689
4931.96045288,0.00144280
4933.88926025,0.00140303
4935.81806763,0.00145820
4937.74687500,0.00146112
4939.67568237,0.00136465
4941.60448975,0.00139287
4943.53329712,0.00142192
4945.46210449,0.00134651
4947.39091187,0.00141067
4949.31971924,0.00147803
4951.24852661,0.00143106
4953.17733398,0.00141057
4955.10614136,0.00136259
4957.03494873,0.00136892
4958.96375610,0.00140229
4960.89256348,0.00137379
4962.82137085,0.00139218
4964.75017822,0.00136915
4966.67898560,0.00127611
4968.60779297,0.00131038
4970.53660034,0.00136104
4972.46540771,0.00127637
4974.39421509,0.00133095
4976.32302246,0.00140613
4978.25182983,0.00132594
4980.18063721,0.00135142
4982.10944458,0.00136632
4984.03825195,0.00132652
4985.96705933,0.00130009
4987.89586670,0.00125779
4989.82467407,0.00132586
4991.75348145,0.00137328
4993.68228882,0.00132379
4995.61109619,0.00129688
4997.53990356,0.00129451
4999.46871094,0.00126404
5001.39751831,0.00128529
5003.32632568,0.00140953
5005.25513306,0.00141111
5007.18394043,0.00131704
5009.11274780,0.00128075
5011.04155518,0.00127786
5012.97036255,0.00132198
5014.89916992,0.00131172
5016.82797729,0.00125746
5018.75678467,0.00127599
5020.68559204,0.00128456
5022.61439941,0.00127259
5024.54320679,0.00127713
5026.47201416,0.00124125
5028.40082153,0.00128679
5030.32962891,0.00131482
5032.25843628,0.00120600
5034.18724365,0.00121541
5036.11605103,0.00120660
5038.04485840,0.00119701
5039.97366577,0.00126641
5041.90247314,0.00120044
5043.83128052,0.00117698
5045.76008789,0.00117657
5047.68889526,0.00115558
5049.61770264,0.00120009
5051.54651001,0.00122554
5053.47531738,0.00114429
5055.40412476,0.00111751
5057.33293213,0.00124444
5059.26173950,0.00115185
5061.19054687,0.00111746
5063.11935425,0.00121076
5065.04816162,0.00114176
5066.97696899,0.00116690
5068.90577637,0.00116573
5070.83458374,0.00113176
5072.76339111,0.00110451
5074.69219849,0.00108754
5076.62100586,0.00111853
5078.54981323,0.00112630
5080.47862061,0.00111883
5082.40742798,0.00109069
5084.33623535,0.00116077
5086.26504272,0.00114176
5088.19385010,0.00116666
5090.12265747,0.00119169
5092.05146484,0.00108894
5093.98027222,0.00110293
5095.90907959,0.00107903
5097.83788696,0.00115414
5099.76669434,0.00109112
5101.69550171,0.00102145
5103.62430908,0.00112617
5105.55311645,0.00105422
5107.48192383,0.00106632
5109.41073120,0.00104236
5111.33953857,0.00109042
5113.26834595,0.00114447
5115.19715332,0.00110105
5117.12596069,0.00109702
5119.05476807,0.00098797
5120.98357544,0.00106552
5122.91238281,0.00108853
5124.84119019,0.00108164
5126.76999756,0.00111933
5128.69880493,0.00103632
5130.62761230,0.00103424
5132.55641968,0.00101074
5134.48522705,0.00107990
5136.41403442,0.00110462
5138.34284180,0.00106298
5140.27164917,0.00106007
5142.20045654,0.00098472
5144.12926392,0.00098585
5146.05807129,0.00103660
5147.98687866,0.00101706
5149.91568603,0.00095952
5151.84449341,0.00103072
5153.77330078,0.00106592
5155.70210815,0.00104653
5157.63091553,0.00103234
5159.55972290,0.00097152
5161.48853027,0.00096778
5163.41733765,0.00098618
5165.34614502,0.00105512
5167.27495239,0.00093456
5169.20375977,0.00086459
5171.13256714,0.00099181
5173.06137451,0.00102871
5174.99018188,0.00100593
5176.91898926,0.00092732
5178.84779663,0.00103037
5180.77660400,0.00099667
5182.70541138,0.00092763
5184.63421875,0.00100829
5186.56302612,0.00091993
5188.49183350,0.00096230
5190.42064087,0.00099228
5192.34944824,0.00101425
5194.27825562,0.00097930
5196.20706299,0.00087347
5198.13587036,0.00097468
5200.06467773,0.00099923
5201.99348511,0.00094077
5203.92229248,0.00089687
5205.85109985,0.00091134
5207.77990723,0.00089779
5209.70871460,0.00094255
5211.63752197,0.00099756
5213.56632935,0.00082025
5215.49513672,0.00082851
5217.42394409,0.00096701
5219.35275146,0.00095479
5221.28155884,0.00088696
5223.21036621,0.00091955
5225.13917358,0.00095787
5227.06798096,0.00089667
5228.99678833,0.00096607
5230.92559570,0.00095642
5232.85440308,0.00089057
5234.78321045,0.00093370
5236.71201782,0.00090949
5238.64082520,0.00089844
5240.56963257,0.00092933
5242.49843994,0.00085340
5244.42724731,0.00077833
5246.35605469,0.00091333
5248.28486206,0.00092758
5250.21366943,0.00084458
5252.14247681,0.00091597
5254.07128418,0.00085955
5256.00009155,0.00086517
5257.92889893,0.00092297
5259.85770630,0.00081459
5261.78651367,0.00086690
5263.71532104,0.00093657
5265.64412842,0.00083224
5267.57293579,0.00075692
5269.50174316,0.00076336
5271.43055054,0.00086384
5273.35935791,0.00088048
5275.28816528,0.00083314
5277.21697266,0.00089790
5279.14578003,0.00086516
5281.07458740,0.00077828
5283.00339478,0.00078011
5284.93220215,0.00076558
5286.86100952,0.00082477
5288.78981689,0.00087165
5290.71862427,0.00074595
5292.64743164,0.00079885
5294.57623901,0.00091128
5296.50504639,0.00081326
5298.43385376,0.00083127
5300.36266113,0.00080348
5302.29146851,0.00074544
5304.22027588,0.00084326
5306.14908325,0.00085435
5308.07789062,0.00081359
5310.00669800,0.00080226
5311.93550537,0.00081665
5313.86431274,0.00076405
5315.79312012,0.00073869
5317.72192749,0.00076284
5319.65073486,0.00080332
5321.57954224,0.00087529
5323.50834961,0.00078985
5325.43715698,0.00080159
5327.36596436,0.00078850
5329.29477173,0.00066907
5331.22357910,0.00072504
5333.15238647,0.00075461
5335.08119385,0.00079834
5337.01000122,0.00079818
5338.93880859,0.00067837
5340.86761597,0.00066303
5342.79642334,0.00076623
5344.72523071,0.00079338
5346.65403809,0.00071626
5348.58284546,0.00070436
5350.51165283,0.00072888
5352.44046020,0.00069520
5354.36926758,0.00064308
5356.29807495,0.00072256
5358.22688232,0.00076317
5360.15568970,0.00072972
5362.08449707,0.00075778
5364.01330444,0.00072694
5365.94211182,0.00072814
5367.87091919,0.00071639
5369.79972656,0.00068328
5371.72853394,0.00066814
5373.65734131,0.00073762
5375.58614868,0.00079794
5377.51495605,0.00065523
5379.44376343,0.00064713
5381.37257080,0.00070454
5383.30137817,0.00069845
5385.23018555,0.00071110
5387.15899292,0.00071532
5389.08780029,0.00075561
5391.01660767,0.00077410
5392.94541504,0.00075647
5394.87422241,0.00066388
5396.80302978,0.00066734
5398.73183716,0.00066304
5400.66064453,0.00062359
5402.58945190,0.00070618
5404.51825928,0.00068682
5406.44706665,0.00067244
5408.37587402,0.00066455
5410.30468140,0.00066600
5412.23348877,0.00069487
5414.16229614,0.00065598
5416.09110352,0.00065399
5418.01991089,0.00065725
5419.94871826,0.00065086
5421.87752563,0.00058625
5423.80633301,0.00055869
5425.73514038,0.00063341
5427.66394775,0.00069902
5429.59275513,0.00064653
5431.52156250,0.00058638
5433.45036987,0.00062384
5435.37917725,0.00059272
5437.30798462,0.00064165
5439.23679199,0.00060646
5441.16559936,0.00055623
5443.09440674,0.00068010
5445.02321411,0.00060917
5446.95202148,0.00059026
5448.88082886,0.00064666
5450.80963623,0.00059296
5452.73844360,0.00062093
5454.66725098,0.00067117
5456.59605835,0.00062861
5458.52486572,0.00058381
5460.45367310,0.00062042
5462.38248047,0.00061224
5464.31128784,0.00057239
5466.24009521,0.00057035
5468.16890259,0.00061402
5470.09770996,0.00057481
5472.02651733,0.00052797
5473.95532471,0.00060202
5475.88413208,0.00060736
5477.81293945,0.00065917
5479.74174683,0.00064218
5481.67055420,0.00062521
5483.59936157,0.00071381
5485.52816895,0.00060026
5487.45697632,0.00054279
5489.38578369,0.00059581
5491.31459106,0.00060989
5493.24339844,0.00059581
5495.17220581,0.00058252
5497.10101318,0.00058007
5499.02982056,0.00053230
5500.95862793,0.00056871
5502.88743530,0.00056685
5504.81624268,0.00051928
5506.74505005,0.00051465
5508.67385742,0.00057991
5510.60266479,0.00064579
5512.53147217,0.00053049
5514.46027954,0.00053947
5516.38908691,0.00058661
5518.31789429,0.00057115
5520.24670166,0.00068043
5522.17550903,0.00059463
5524.10431641,0.00046736
5526.03312378,0.00053862
5527.96193115,0.00050229
5529.89073853,0.00046835
5531.81954590,0.00056892
5533.74835327,0.00057133
5535.67716064,0.00057789
5537.60596802,0.00056898
5539.53477539,0.00050340
5541.46358276,0.00056507
5543.39239014,0.00057403
5545.32119751,0.00056586
5547.25000488,0.00056867
5549.17881226,0.00051028
5551.10761963,0.00050684
5553.03642700,0.00051755
5554.96523437,0.00056844
5556.89404175,0.00054776
5558.82284912,0.00052463
5560.75165649,0.00056578
5562.68046387,0.00051397
5564.60927124,0.00050964
5566.53807861,0.00049334
5568.46688599,0.00046740
5570.39569336,0.00054062
5572.32450073,0.00054094
5574.25330811,0.00049239
5576.18211548,0.00055671
5578.11092285,0.00060076
5580.03973022,0.00052887
5581.96853760,0.00051290
5583.89734497,0.00053129
5585.82615234,0.00052442
5587.75495972,0.00047516
5589.68376709,0.00046668
5591.61257446,0.00052086
5593.54138184,0.00051568
5595.47018921,0.00057190
5597.39899658,0.00055597
5599.32780395,0.00049476
5601.25661133,0.00050107
5603.18541870,0.00045536
5605.11422607,0.00046042
5607.04303345,0.00048148
5608.97184082,0.00054426
5610.90064819,0.00051753
5612.82945557,0.00043398
5614.75826294,0.00046471
5616.68707031,0.00047816
5618.61587769,0.00054928
5620.54468506,0.00048693
5622.47349243,0.00044529
5624.40229980,0.00053698
5626.33110718,0.00048792
5628.25991455,0.00049246
5630.18872192,0.00046410
5632.11752930,0.00044832
5634.04633667,0.00048752
5635.97514404,0.00047811
5637.90395142,0.00053233
5639.83275879,0.00050028
5641.76156616,0.00044905
5643.69037353,0.00043508
5645.61918091,0.00044526
5647.54798828,0.00049097
5649.47679565,0.00044318
5651.40560303,0.00041456
5653.33441040,0.00042541
5655.26321777,0.00038474
5657.19202515,0.00039271
5659.12083252,0.00050827
5661.04963989,0.00051908
5662.97844727,0.00044756
5664.90725464,0.00048627
5666.83606201,0.00045731
5668.76486938,0.00041344
5670.69367676,0.00043436
5672.62248413,0.00041221
5674.55129150,0.00040287
5676.48009888,0.00042853
5678.40890625,0.00050075
5680.33771362,0.00047040
5682.26652100,0.00039370
5684.19532837,0.00043276
5686.12413574,0.00045596
5688.05294311,0.00043381
5689.98175049,0.00038159
5691.91055786,0.00042289
5693.83936523,0.00043772
5695.76817261,0.00040293
5697.69697998,0.00046987
5699.62578735,0.00038011
5701.55459473,0.00039086
5703.48340210,0.00048128
5705.41220947,0.00036973
5707.34101685,0.00037692
5709.26982422,0.00040443
5711.19863159,0.00040959
5713.12743896,0.00044379
5715.05624634,0.00039716
5716.98505371,0.00039374
5718.91386108,0.00042099
5720.84266846,0.00039612
5722.77147583,0.00039572
5724.70028320,0.00041747
5726.62909058,0.00036461
5728.55789795,0.00036014
5730.48670532,0.00040667
5732.41551270,0.00047197
5734.34432007,0.00047119
5736.27312744,0.00038127
5738.20193481,0.00042184
5740.13074219,0.00039957
5742.05954956,0.00039629
5743.98835693,0.00040789
5745.91716431,0.00038353
5747.84597168,0.00048676
5749.77477905,0.00037970
5751.70358643,0.00033066
5753.63239380,0.00039354
5755.56120117,0.00039260
5757.49000854,0.00043810
5759.41881592,0.00035226
5761.34762329,0.00038086
5763.27643066,0.00038733
5765.20523804,0.00041363
5767.13404541,0.00050829
5769.06285278,0.00037654
5770.99166016,0.00046963
5772.92046753,0.00043107
5774.84927490,0.00020827
5776.77808228,0.00036238
5778.70688965,0.00040997
5780.63569702,0.00038205
5782.56450439,0.00039923
5784.49331177,0.00034785
5786.42211914,0.00041172
5788.35092651,0.00035152
5790.27973389,0.00031480
5792.20854126,0.00038084
5794.13734863,0.00035161
5796.06615601,0.00040014
5797.99496338,0.00036773
5799.92377075,0.00032428
5801.85257812,0.00036982
5803.78138550,0.00035199
5805.71019287,0.00040446
5807.63900024,0.00041000
5809.56780762,0.00034342
5811.49661499,0.00035474
5813.42542236,0.00035608
5815.35422974,0.00034442
5817.28303711,0.00038821
5819.21184448,0.00033157
5821.14065186,0.00025407
5823.06945923,0.00034277
5824.99826660,0.00029612
5826.92707397,0.00029840
5828.85588135,0.00043775
5830.78468872,0.00035384
5832.71349609,0.00032926
5834.64230347,0.00034208
5836.57111084,0.00031003
5838.49991821,0.00039101
5840.42872559,0.00035866
5842.35753296,0.00032124
5844.28634033,0.00033889
5846.21514770,0.00030734
5848.14395508,0.00036083
5850.07276245,0.00034202
5852.00156982,0.00028647
5853.93037720,0.00034220
5855.85918457,0.00030778
5857.78799194,0.00026887
5859.71679932,0.00033432
5861.64560669,0.00035778
5863.57441406,0.00032760
5865.50322144,0.00032996
5867.43202881,0.00029790
5869.36083618,0.00028719
5871.28964355,0.00035047
5873.21845093,0.00027233
5875.14725830,0.00027732
5877.07606567,0.00036833
5879.00487305,0.00032799
5880.93368042,0.00029513
5882.86248779,0.00024671
5884.79129517,0.00024593
5886.72010254,0.00025143
5888.64890991,0.00029971
5890.57771728,0.00031868
5892.50652466,0.00031135
5894.43533203,0.00036230
5896.36413940,0.00020544
5898.29294678,0.00025608
5900.22175415,0.00037141
5902.15056152,0.00026037
5904.07936890,0.00030235
5906.00817627,0.00030818
5907.93698364,0.00026593
5909.86579102,0.00023384
5911.79459839,0.00025714
5913.72340576,0.00031246
5915.65221313,0.00030688
5917.58102051,0.00029116
5919.50982788,0.00026945
5921.43863525,0.00033624
5923.36744263,0.00027484
5925.29625000,0.00025802
5927.22505737,0.00032587
5929.15386475,0.00025703
5931.08267212,0.00029418
5933.01147949,0.00030420
5934.94028686,0.00031482
5936.86909424,0.00033967
5938.79790161,0.00030266
5940.72670898,0.00029463
5942.65551636,0.00023725
5944.58432373,0.00026072
5946.51313110,0.00024580
5948.44193848,0.00022868
5950.37074585,0.00031144
5952.29955322,0.00026694
5954.22836060,0.00029298
5956.15716797,0.00031231
5958.08597534,0.00024540
5960.01478271,0.00029111
5961.94359009,0.00027306
5963.87239746,0.00026963
5965.80120483,0.00029546
5967.73001221,0.00028072
5969.65881958,0.00027159
5971.58762695,0.00025211
5973.51643433,0.00029259
5975.44524170,0.00019757
5977.37404907,0.00020344
5979.30285645,0.00028419
5981.23166382,0.00021579
5983.16047119,0.00031200
5985.08927856,0.00028061
5987.01808594,0.00020893
5988.94689331,0.00022518
5990.87570068,0.00022757
5992.80450806,0.00030677
5994.73331543,0.00027185
5996.66212280,0.00028992
5998.59093018,0.00027326
6000.51973755,0.00025648
