399.26312622,0.00057310
401.19193359,0.00098099
403.12074097,0.00052988
405.04954834,0.00082037
406.97835571,0.00060116
408.90716309,0.00082349
410.83597046,0.00067586
412.76477783,0.00052442
414.69358521,0.00067286
416.62239258,0.00061112
418.55119995,0.00118377
420.48000732,0.00114175
422.40881470,0.00095954
424.33762207,0.00083609
426.26642944,0.00117455
428.19523682,0.00117294
430.12404419,0.00088394
432.05285156,0.00147581
433.98165894,0.00084450
435.91046631,0.00044129
437.83927368,0.00095543
439.76808105,0.00102661
441.69688843,0.00067364
443.62569580,0.00024776
445.55450317,0.00044263
447.48331055,0.00077994
449.41211792,0.00071779
451.34092529,0.00028897
453.26973267,0.00068639
455.19854004,0.00088260
457.12734741,0.00076524
459.05615479,0.00090667
460.98496216,0.00045634
462.91376953,0.00051054
464.84257690,0.00016423
466.77138428,0.00011253
468.70019165,0.00060400
470.62899902,0.00054349
472.55780640,0.00053158
474.48661377,0.00034718
476.41542114,0.00046174
478.34422852,0.00020277
480.27303589,0.00022973
482.20184326,0.00034888
484.13065063,-0.00004999
486.05945801,0.00009909
487.98826538,0.00016760
489.91707275,0.00015010
491.84588013,0.00011190
493.77468750,0.00048313
495.70349487,0.00047795
497.63230225,0.00015727
499.56110962,0.00025484
501.48991699,-0.00009529
503.41872437,0.00037433
505.34753174,0.00060428
507.27633911,0.00008306
509.20514648,0.00038869
511.13395386,0.00043002
513.06276123,0.00047487
514.99156860,0.00031456
516.92037598,0.00008103
518.84918335,0.00026443
520.77799072,-0.00022441
522.70679810,-0.00008707
524.63560547,0.00052924
526.56441284,0.00031250
528.49322021,0.00017442
530.42202759,0.00010782
532.35083496,0.00009629
534.27964233,0.00019456
536.20844971,0.00003584
538.13725708,0.00014420
540.06606445,0.00039301
541.99487183,0.00028416
543.92367920,0.00028622
545.85248657,0.00019802
547.78129395,-0.00004056
549.71010132,0.00038635
551.63890869,0.00038867
553.56771606,-0.00012050
555.49652344,0.00015375
557.42533081,0.00012826
559.35413818,0.00009027
561.28294556,0.00023849
563.21175293,-0.00010603
565.14056030,0.00013134
567.06936768,0.00030307
568.99817505,-0.00000713
570.92698242,0.00015976
572.85578979,0.00026058
574.78459717,0.00016158
576.71340454,0.00013496
578.64221191,0.00007575
580.57101929,0.00009676
582.49982666,-0.00007078
584.42863403,0.00003131
586.35744141,0.00022391
588.28624878,-0.00005238
590.21505615,-0.00004864
592.14386353,-0.00013629
594.07267090,0.00018757
596.00147827,-0.00004974
597.93028564,-0.00002609
599.85909302,0.00054750
601.78790039,0.00029297
603.71670776,-0.00008687
605.64551514,-0.00013565
607.57432251,-0.00013922
609.50312988,0.00028185
611.43193726,0.00047318
613.36074463,0.00009429
615.28955200,0.00012096
617.21835938,-0.00010498
619.14716675,-0.00004031
621.07597412,0.00019471
623.00478149,0.00010460
624.93358887,0.00058930
626.86239624,0.00046659
628.79120361,-0.00007877
630.72001099,0.00011576
632.64881836,0.00040881
634.57762573,0.00038420
636.50643311,0.00083630
638.43524048,0.00111292
640.36404785,0.00078745
642.29285522,0.00117100
644.22166260,0.00112232
646.15046997,0.00081173
648.07927734,0.00137742
650.00808472,0.00132702
651.93689209,0.00097468
653.86569946,0.00127524
655.79450684,0.00131555
657.72331421,0.00120673
659.65212158,0.00149368
661.58092896,0.00144010
663.50973633,0.00162061
665.43854370,0.00197369
667.36735107,0.00160935
669.29615845,0.00185689
671.22496582,0.00211775
673.15377319,0.00189172
675.08258057,0.00212426
677.01138794,0.00190221
678.94019531,0.00188164
680.86900269,0.00209417
682.79781006,0.00189936
684.72661743,0.00221912
686.65542480,0.00228029
688.58423218,0.00207444
690.51303955,0.00214320
692.44184692,0.00247115
694.37065430,0.00263010
696.29946167,0.00244644
698.22826904,0.00326639
700.15707642,0.00350567
702.08588379,0.00302384
704.01469116,0.00321774
705.94349854,0.00284854
707.87230591,0.00248186
709.80111328,0.00190982
711.72992065,0.00115087
713.65872803,0.00084189
715.58753540,0.00040403
717.51634277,0.00031251
719.44515015,0.00022242
721.37395752,0.00026821
723.30276489,0.00034618
725.23157227,0.00000680
727.16037964,0.00014559
729.08918701,0.00023762
731.01799438,0.00007366
732.94680176,0.00038114
734.87560913,0.00030704
736.80441650,0.00001915
738.73322388,0.00034591
740.66203125,0.00037491
742.59083862,0.00027743
744.51964600,0.00038218
746.44845337,0.00007645
748.37726074,0.00004404
750.30606812,0.00009509
752.23487549,-0.00014846
754.16368286,0.00011339
756.09249023,0.00027383
758.02129761,0.00025439
759.95010498,0.00035746
761.87891235,0.00028719
763.80771973,0.00032013
765.73652710,0.00005191
767.66533447,-0.00004756
769.59414185,0.00018417
771.52294922,-0.00005605
773.45175659,-0.00001469
775.38056396,0.00041019
777.30937134,0.00031136
779.23817871,0.00015093
781.16698608,0.00026546
783.09579346,0.00047568
785.02460083,0.00032486
786.95340820,0.00011140
788.88221558,0.00008885
790.81102295,0.00003576
792.73983032,0.00050645
794.66863770,0.00038780
796.59744507,0.00003022
798.52625244,0.00032680
800.45505981,0.00043330
802.38386719,0.00061341
804.31267456,0.00032539
806.24148193,0.00028598
808.17028931,0.00049214
810.09909668,0.00013662
812.02790405,0.00007251
813.95671143,0.00010274
815.88551880,0.00030555
817.81432617,0.00009667
819.74313354,0.00005834
821.67194092,0.00040858
823.60074829,0.00021128
825.52955566,0.00036156
827.45836304,0.00046896
829.38717041,0.00057990
831.31597778,0.00058475
833.24478516,0.00056176
835.17359253,0.00094360
837.10239990,0.00081425
839.03120728,0.00068163
840.96001465,0.00063987
842.88882202,0.00054922
844.81762939,0.00056443
846.74643677,0.00057307
848.67524414,0.00057150
850.60405151,0.00038823
852.53285889,0.00035660
854.46166626,0.00043047
856.39047363,0.00059589
858.31928101,0.00060460
860.24808838,0.00041363
862.17689575,0.00046259
864.10570313,0.00041962
866.03451050,0.00033397
867.96331787,0.00038398
869.89212524,0.00029364
871.82093262,0.00040109
873.74973999,0.00062979
875.67854736,0.00036384
877.60735474,0.00043829
879.53616211,0.00063840
881.46496948,0.00024609
883.39377686,0.00012635
885.32258423,0.00028164
887.25139160,0.00058082
889.18019897,0.00051969
891.10900635,0.00016729
893.03781372,0.00028540
894.96662109,0.00034535
896.89542847,0.00033540
898.82423584,0.00013705
900.75304321,0.00019044
902.68185059,0.00049993
904.61065796,0.00023914
906.53946533,0.00031678
908.46827271,0.00061109
910.39708008,0.00059872
912.32588745,0.00056478
914.25469482,0.00060403
916.18350220,0.00056707
918.11230957,0.00049876
920.04111694,0.00071744
921.96992432,0.00071784
923.89873169,0.00073214
925.82753906,0.00087174
927.75634644,0.00076726
929.68515381,0.00059717
931.61396118,0.00089039
933.54276855,0.00136354
935.47157593,0.00109899
937.40038330,0.00118530
939.32919067,0.00133608
941.25799805,0.00114362
943.18680542,0.00132878
945.11561279,0.00122036
947.04442017,0.00128070
948.97322754,0.00130647
950.90203491,0.00118232
952.83084229,0.00127469
954.75964966,0.00114694
956.68845703,0.00118512
958.61726440,0.00126017
960.54607178,0.00125116
962.47487915,0.00105219
964.40368652,0.00119079
966.33249390,0.00158987
968.26130127,0.00136094
970.19010864,0.00139431
972.11891602,0.00141899
974.04772339,0.00144557
975.97653076,0.00159486
977.90533813,0.00152014
979.83414551,0.00229393
981.76295288,0.00250141
983.69176025,0.00216486
985.62056763,0.00265486
987.54937500,0.00285378
989.47818237,0.00323045
991.40698975,0.00350931
993.33579712,0.00346347
995.26460449,0.00402276
997.19341187,0.00445093
999.12221924,0.00473737
1001.05102661,0.00515306
1002.97983398,0.00551688
1004.90864136,0.00575858
1006.83744873,0.00601007
1008.76625610,0.00633424
1010.69506348,0.00677087
1012.62387085,0.00743123
1014.55267822,0.00777905
1016.48148560,0.00805123
1018.41029297,0.00832337
1020.33910034,0.00871031
1022.26790771,0.00923332
1024.19671509,0.00949390
1026.12552246,0.00984275
1028.05432983,0.01005389
1029.98313721,0.01053495
1031.91194458,0.01095704
1033.84075195,0.01104210
1035.76955933,0.01119664
1037.69836670,0.01119609
1039.62717407,0.01150897
1041.55598145,0.01130601
1043.48478882,0.01115204
1045.41359619,0.01121720
1047.34240356,0.01077080
1049.27121094,0.01073498
1051.20001831,0.01042057
1053.12882568,0.01046135
1055.05763306,0.01053399
1056.98644043,0.00994559
1058.91524780,0.00979894
1060.84405518,0.00963602
1062.77286255,0.00937066
1064.70166992,0.00872778
1066.63047729,0.00851183
1068.55928467,0.00849299
1070.48809204,0.00784965
1072.41689941,0.00769220
1074.34570679,0.00709311
1076.27451416,0.00660151
1078.20332153,0.00668749
1080.13212891,0.00640453
1082.06093628,0.00628425
1083.98974365,0.00602177
1085.91855103,0.00564942
1087.84735840,0.00524021
1089.77616577,0.00498780
1091.70497314,0.00490456
1093.63378052,0.00458423
1095.56258789,0.00448424
1097.49139526,0.00429128
1099.42020264,0.00411963
1101.34901001,0.00395883
1103.27781738,0.00384293
1105.20662476,0.00407288
1107.13543213,0.00386754
1109.06423950,0.00390505
1110.99304687,0.00403856
1112.92185425,0.00366024
1114.85066162,0.00378393
1116.77946899,0.00402296
1118.70827637,0.00394760
1120.63708374,0.00388094
1122.56589111,0.00410126
1124.49469849,0.00417446
1126.42350586,0.00384071
1128.35231323,0.00394766
1130.28112061,0.00402975
1132.20992798,0.00401154
1134.13873535,0.00437178
1136.06754272,0.00467568
1137.99635010,0.00476163
1139.92515747,0.00481523
1141.85396484,0.00526322
1143.78277222,0.00572342
1145.71157959,0.00602653
1147.64038696,0.00644749
1149.56919434,0.00672029
1151.49800171,0.00706200
1153.42680908,0.00752066
1155.35561646,0.00775188
1157.28442383,0.00798091
1159.21323120,0.00835758
1161.14203857,0.00861234
1163.07084595,0.00884710
1164.99965332,0.00918169
1166.92846069,0.00966894
1168.85726807,0.00998491
1170.78607544,0.01026639
1172.71488281,0.01086498
1174.64369019,0.01120079
1176.57249756,0.01160777
1178.50130493,0.01185874
1180.43011230,0.01215260
1182.35891968,0.01288838
1184.28772705,0.01329761
1186.21653442,0.01411010
1188.14534180,0.01484077
1190.07414917,0.01525293
1192.00295654,0.01604099
1193.93176392,0.01687695
1195.86057129,0.01785979
1197.78937866,0.01858588
1199.71818604,0.01937869
1201.64699341,0.02022935
1203.57580078,0.02085248
1205.50460815,0.02179658
1207.43341553,0.02255643
1209.36222290,0.02304189
1211.29103027,0.02378667
1213.21983765,0.02447969
1215.14864502,0.02500538
1217.07745239,0.02575747
1219.00625977,0.02628040
1220.93506714,0.02664357
1222.86387451,0.02695455
1224.79268188,0.02697542
1226.72148926,0.02724393
1228.65029663,0.02745875
1230.57910400,0.02764385
1232.50791138,0.02772254
1234.43671875,0.02765310
1236.36552612,0.02776396
1238.29433350,0.02766701
1240.22314087,0.02773434
1242.15194824,0.02761617
1244.08075562,0.02732195
1246.00956299,0.02748578
1247.93837036,0.02731098
1249.86717773,0.02703204
1251.79598511,0.02709914
1253.72479248,0.02671767
1255.65359985,0.02634017
1257.58240723,0.02621544
1259.51121460,0.02551913
1261.44002197,0.02505657
1263.36882935,0.02495753
1265.29763672,0.02463602
1267.22644409,0.02434595
1269.15525146,0.02398222
1271.08405884,0.02367306
1273.01286621,0.02326605
1274.94167358,0.02286180
1276.87048096,0.02248982
1278.79928833,0.02208742
1280.72809570,0.02171628
1282.65690308,0.02114891
1284.58571045,0.02085538
1286.51451782,0.02039789
1288.44332520,0.01994503
1290.37213257,0.02006273
1292.30093994,0.01978637
1294.22974731,0.01942500
1296.15855469,0.01951848
1298.08736206,0.01954636
1300.01616943,0.01954347
1301.94497681,0.01964196
1303.87378418,0.01984556
1305.80259155,0.02009310
1307.73139893,0.02006214
1309.66020630,0.02043318
1311.58901367,0.02094373
1313.51782104,0.02100840
1315.44662842,0.02167042
1317.37543579,0.02232598
1319.30424316,0.02280932
1321.23305054,0.02363779
1323.16185791,0.02439921
1325.09066528,0.02515982
1327.01947266,0.02569423
1328.94828003,0.02626412
1330.87708740,0.02697470
1332.80589478,0.02767353
1334.73470215,0.02822373
1336.66350952,0.02832969
1338.59231689,0.02787682
1340.52112427,0.02815914
1342.44993164,0.02966974
1344.37873901,0.02997250
1346.30754639,0.02983925
1348.23635376,0.02982270
1350.16516113,0.02960505
1352.09396851,0.02972735
1354.02277588,0.02917280
1355.95158325,0.02929420
1357.88039062,0.02907983
1359.80919800,0.02827955
1361.73800537,0.02710516
1363.66681274,0.02637203
1365.59562012,0.02833111
1367.52442749,0.02767147
1369.45323486,0.02694489
1371.38204224,0.02782847
1373.31084961,0.02596541
1375.23965698,0.02619890
1377.16846436,0.02710170
1379.09727173,0.02686092
1381.02607910,0.02705718
1382.95488647,0.02706439
1384.88369385,0.02709539
1386.81250122,0.02550246
1388.74130859,0.02588154
1390.67011597,0.02862740
1392.59892334,0.02755115
1394.52773071,0.02553422
1396.45653809,0.02720857
1398.38534546,0.02672891
1400.31415283,0.02661288
1402.24296021,0.02925912
1404.17176758,0.02731621
1406.10057495,0.02761284
1408.02938232,0.02882981
1409.95818970,0.02770737
1411.88699707,0.02836100
1413.81580444,0.02726959
1415.74461182,0.02788178
1417.67341919,0.02465437
1419.60222656,0.02182403
1421.53103394,0.02591539
1423.45984131,0.02497303
1425.38864868,0.02422575
1427.31745605,0.02487619
1429.24626343,0.02265794
1431.17507080,0.02200683
1433.10387817,0.02264875
1435.03268555,0.02034235
1436.96149292,0.01684257
1438.89030029,0.01984516
1440.81910767,0.02079237
1442.74791504,0.01896688
1444.67672241,0.02004660
1446.60552979,0.01822954
1448.53433716,0.01831154
1450.46314453,0.01929396
1452.39195190,0.01956501
1454.32075928,0.02033262
1456.24956665,0.01608539
1458.17837402,0.01654980
1460.10718140,0.02319197
1462.03598877,0.02454792
1463.96479614,0.02433839
1465.89360352,0.02520542
1467.82241089,0.02897878
1469.75121826,0.03141434
1471.68002563,0.02689230
1473.60883301,0.02847344
1475.53764038,0.03287968
1477.46644775,0.03555565
1479.39525513,0.03964983
1481.32406250,0.03983535
1483.25286987,0.04251946
1485.18167725,0.04381235
1487.11048462,0.04261544
1489.03929199,0.04195828
1490.96809937,0.04192859
1492.89690674,0.05021400
1494.82571411,0.04886832
1496.75452148,0.04284471
1498.68332886,0.04921477
1500.61213623,0.05083762
1502.54094360,0.05516851
1504.46975098,0.05160818
1506.39855835,0.03483058
1508.32736572,0.04431149
1510.25617310,0.05362510
1512.18498047,0.05158426
1514.11378784,0.05674646
1516.04259521,0.04991397
1517.97140259,0.05233102
1519.90020996,0.05046528
1521.82901733,0.04220230
1523.75782471,0.05378426
1525.68663208,0.05268510
1527.61543945,0.05242836
1529.54424683,0.05932288
1531.47305420,0.05653502
1533.40186157,0.05077475
1535.33066895,0.05448304
1537.25947632,0.05928560
1539.18828369,0.03975408
1541.11709106,0.04172724
1543.04589844,0.05201738
1544.97470581,0.04933517
1546.90351318,0.06054903
1548.83232056,0.05594395
1550.76112793,0.05770861
1552.68993530,0.05778259
1554.61874268,0.05127746
1556.54755005,0.05556001
1558.47635742,0.03661248
1560.40516479,0.04007323
1562.33397217,0.06139383
1564.26277954,0.05722869
1566.19158691,0.05930727
1568.12039429,0.05877789
1570.04920166,0.05050540
1571.97800903,0.06021363
1573.90681641,0.06127165
1575.83562378,0.04647914
1577.76443115,0.05369797
1579.69323853,0.06203886
1581.62204590,0.05917981
1583.55085327,0.06097115
1585.47966064,0.06006372
1587.40846802,0.06047665
1589.33727539,0.05990762
1591.26608276,0.06011018
1593.19489014,0.06019904
1595.12369751,0.05929610
1597.05250488,0.06022289
1598.98131226,0.05980096
1600.91011963,0.06027040
1602.83892700,0.05912460
1604.76773437,0.06039266
1606.69654175,0.05934253
1608.62534912,0.05903909
1610.55415649,0.05914282
1612.48296387,0.05973599
1614.41177124,0.06065717
1616.34057861,0.04771303
1618.26938599,0.05242242
1620.19819336,0.06294332
1622.12700073,0.05448294
1624.05580811,0.05472171
1625.98461548,0.05815843
1627.91342285,0.05751266
1629.84223022,0.05739880
1631.77103760,0.06205275
1633.69984497,0.05635317
1635.62865234,0.04475160
1637.55745972,0.05345707
1639.48626709,0.06015798
1641.41507446,0.05875090
1643.34388184,0.06045162
1645.27268921,0.05318110
1647.20149658,0.04525428
1649.13030396,0.05893888
1651.05911133,0.05596160
1652.98791870,0.03266295
1654.91672607,0.04711764
1656.84553345,0.06202203
1658.77434082,0.05920487
1660.70314819,0.06089403
1662.63195557,0.05429988
1664.56076294,0.05790497
1666.48957031,0.06325354
1668.41837769,0.05360792
1670.34718506,0.05157048
1672.27599243,0.06017715
1674.20479980,0.05473570
1676.13360718,0.05203903
1678.06241455,0.06168103
1679.99122192,0.05906105
1681.92002930,0.05816634
1683.84883667,0.04556616
1685.77764404,0.04502406
1687.70645142,0.06527619
1689.63525879,0.05538940
1691.56406616,0.06216438
1693.49287354,0.06363179
1695.42168091,0.04359146
1697.35048828,0.05621796
1699.27929565,0.04818103
1701.20810303,0.04219117
1703.13691040,0.06147676
1705.06571777,0.05531839
1706.99452515,0.05579203
1708.92333252,0.06190601
1710.85213989,0.05915397
1712.78094727,0.06047045
1714.70975464,0.05511935
1716.63856201,0.04869554
1718.56736938,0.04783478
1720.49617676,0.05832103
1722.42498413,0.06152488
1724.35379150,0.05623544
1726.28259888,0.06221021
1728.21140625,0.05690316
1730.14021362,0.05714242
1732.06902100,0.05584481
1733.99782837,0.03996747
1735.92663574,0.05213180
1737.85544312,0.05888981
1739.78425049,0.05111127
1741.71305786,0.05659641
1743.64186523,0.05727766
1745.57067261,0.05752946
1747.49947998,0.05784069
1749.42828735,0.05465929
1751.35709473,0.05201899
1753.28590210,0.05880684
1755.21470947,0.06210985
1757.14351685,0.05546948
1759.07232422,0.06230757
1761.00113159,0.05780321
1762.92993896,0.05523216
1764.85874634,0.06514902
1766.78755371,0.05735414
1768.71636108,0.05800741
1770.64516846,0.05760892
1772.57397583,0.05072153
1774.50278320,0.05788890
1776.43159058,0.06168061
1778.36039795,0.06085850
1780.28920532,0.05972779
1782.21801270,0.06038006
1784.14682007,0.06039517
1786.07562744,0.05877023
1788.00443481,0.06272399
1789.93324219,0.06076331
1791.86204956,0.05359719
1793.79085693,0.05659513
1795.71966431,0.06149768
1797.64847168,0.06052329
1799.57727905,0.05948982
1801.50608643,0.05800367
1803.43489380,0.06057263
1805.36370117,0.06231983
1807.29250854,0.06118143
1809.22131592,0.06161376
1811.15012329,0.05937100
1813.07893066,0.06169634
1815.00773804,0.06220444
1816.93654541,0.06111138
1818.86535278,0.06190570
1820.79416016,0.06161448
1822.72296753,0.06270403
1824.65177490,0.05765546
1826.58058228,0.06017834
1828.50938965,0.06048632
1830.43819702,0.05574567
1832.36700439,0.06197353
1834.29581177,0.06140058
1836.22461914,0.06117866
1838.15342651,0.06120674
1840.08223389,0.06169868
1842.01104126,0.06192631
1843.93984863,0.05337545
1845.86865601,0.05762355
1847.79746338,0.06169723
1849.72627075,0.06008940
1851.65507812,0.06219321
1853.58388550,0.06071893
1855.51269287,0.06160857
1857.44150024,0.06114282
1859.37030762,0.06072813
1861.29911499,0.06120115
1863.22792236,0.06031475
1865.15672974,0.06108357
1867.08553711,0.05859078
1869.01434448,0.05583756
1870.94315186,0.05841773
1872.87195923,0.06121618
1874.80076660,0.06016742
1876.72957397,0.06057305
1878.65838135,0.06046725
1880.58718872,0.05996498
1882.51599609,0.06068508
1884.44480347,0.05940106
1886.37361084,0.06051382
1888.30241821,0.05892949
1890.23122559,0.05741461
1892.16003296,0.06019065
1894.08884033,0.05905348
1896.01764771,0.05878292
1897.94645508,0.05967545
1899.87526245,0.05937153
1901.80406982,0.05952000
1903.73287720,0.05909257
1905.66168457,0.05950293
1907.59049194,0.05857853
1909.51929932,0.05827940
1911.44810669,0.05874871
1913.37691406,0.05876774
1915.30572144,0.05961988
1917.23452881,0.05645300
1919.16333618,0.05635133
1921.09214355,0.05896857
1923.02095093,0.05685242
1924.94975830,0.05831629
1926.87856567,0.05912215
1928.80737305,0.05811434
1930.73618042,0.05896911
1932.66498779,0.05807923
1934.59379517,0.05871834
1936.52260254,0.05838557
1938.45140991,0.05858904
1940.38021729,0.05850171
1942.30902466,0.05614750
1944.23783203,0.05738633
1946.16663940,0.05821207
1948.09544678,0.05822072
1950.02425415,0.05839474
1951.95306152,0.05804541
1953.88186890,0.05836184
1955.81067627,0.05782786
1957.73948364,0.05807922
1959.66829102,0.05819507
1961.59709839,0.05783030
1963.52590576,0.05817309
1965.45471313,0.05781393
1967.38352051,0.05708147
1969.31232788,0.05762032
1971.24113525,0.05807353
1973.16994263,0.05763971
1975.09875000,0.05784206
1977.02755737,0.05763415
1978.95636475,0.05780614
1980.88517212,0.05767298
1982.81397949,0.05727727
1984.74278687,0.05775604
1986.67159424,0.05706841
1988.60040161,0.05708353
1990.52920898,0.05675256
1992.45801636,0.05579104
1994.38682373,0.05685199
1996.31563110,0.05724108
1998.24443848,0.05668330
2000.17324585,0.05674507
2002.10205322,0.05666793
2004.03086060,0.05663278
2005.95966797,0.05663018
2007.88847534,0.05632347
2009.81728271,0.05630427
2011.74609009,0.05617846
2013.67489746,0.05609345
2015.60370483,0.05574189
2017.53251221,0.05517086
2019.46131958,0.05570830
2021.39012695,0.05579030
2023.31893433,0.05543713
2025.24774170,0.05540331
2027.17654907,0.05526576
2029.10535645,0.05517288
2031.03416382,0.05503730
2032.96297119,0.05507997
2034.89177856,0.05478193
2036.82058594,0.05478907
2038.74939331,0.05480611
2040.67820068,0.05442957
2042.60700806,0.05442542
2044.53581543,0.05426528
2046.46462280,0.05419384
2048.39343018,0.05417904
2050.32223755,0.05418694
2052.25104492,0.05408741
2054.17985229,0.05383842
2056.10865967,0.05380398
2058.03746704,0.05369498
2059.96627441,0.05363527
2061.89508179,0.05357209
2063.82388916,0.05327023
2065.75269653,0.05303577
2067.68150391,0.05320893
2069.61031128,0.05312452
2071.53911865,0.05300637
2073.46792603,0.05301381
2075.39673340,0.05282164
2077.32554077,0.05286735
2079.25434814,0.05263756
2081.18315552,0.05248622
2083.11196289,0.05252648
2085.04077026,0.05244999
2086.96957764,0.05224886
2088.89838501,0.05202961
2090.82719238,0.05207323
2092.75599976,0.05194050
2094.68480713,0.05204524
2096.61361450,0.05198651
2098.54242187,0.05174465
2100.47122925,0.05171360
2102.40003662,0.05156179
2104.32884399,0.05155168
2106.25765137,0.05159486
2108.18645874,0.05162835
2110.11526611,0.05142010
2112.04407349,0.05129763
2113.97288086,0.05111054
2115.90168823,0.05096269
2117.83049561,0.05098139
2119.75930298,0.05081175
2121.68811035,0.05089693
2123.61691772,0.05069304
2125.54572510,0.05074327
2127.47453247,0.05081768
2129.40333984,0.05061021
2131.33214722,0.05063376
2133.26095459,0.05045613
2135.18976196,0.05047932
2137.11856934,0.05022795
2139.04737671,0.05020942
2140.97618408,0.05035132
2142.90499146,0.05017775
2144.83379883,0.05026203
2146.76260620,0.05010251
2148.69141357,0.05001108
2150.62022095,0.04993688
2152.54902832,0.04992625
2154.47783569,0.04987048
2156.40664307,0.04975033
2158.33545044,0.04978505
2160.26425781,0.04962435
2162.19306519,0.04963182
2164.12187256,0.04956954
2166.05067993,0.04955836
2167.97948730,0.04956637
2169.90829468,0.04947302
2171.83710205,0.04939868
2173.76590942,0.04929630
2175.69471680,0.04934194
2177.62352417,0.04922885
2179.55233154,0.04917201
2181.48113892,0.04912762
2183.40994629,0.04916395
2185.33875366,0.04911428
2187.26756104,0.04891315
2189.19636841,0.04887524
2191.12517578,0.04884250
2193.05398315,0.04894781
2194.98279053,0.04866697
2196.91159790,0.04857951
2198.84040527,0.04877417
2200.76921265,0.04860108
2202.69802002,0.04854961
2204.62682739,0.04854242
2206.55563477,0.04852489
2208.48444214,0.04838100
2210.41324951,0.04838016
2212.34205688,0.04832730
2214.27086426,0.04816235
2216.19967163,0.04815670
2218.12847900,0.04801806
2220.05728638,0.04808397
2221.98609375,0.04808228
2223.91490112,0.04801470
2225.84370850,0.04787516
2227.77251587,0.04773686
2229.70132324,0.04779665
2231.63013062,0.04759753
2233.55893799,0.04763323
2235.48774536,0.04773169
2237.41655273,0.04747965
2239.34536011,0.04729789
2241.27416748,0.04726787
2243.20297485,0.04721112
2245.13178223,0.04719895
2247.06058960,0.04714993
2248.98939697,0.04693440
2250.91820435,0.04693388
2252.84701172,0.04688735
2254.77581909,0.04678202
2256.70462646,0.04680815
2258.63343384,0.04670525
2260.56224121,0.04660913
2262.49104858,0.04655956
2264.41985596,0.04655505
2266.34866333,0.04655680
2268.27747070,0.04651741
2270.20627808,0.04640979
2272.13508545,0.04631862
2274.06389282,0.04628671
2275.99270020,0.04625022
2277.92150757,0.04627885
2279.85031494,0.04619977
2281.77912231,0.04612513
2283.70792969,0.04619737
2285.63673706,0.04608116
2287.56554443,0.04590891
2289.49435181,0.04584453
2291.42315918,0.04563433
2293.35196655,0.04557582
2295.28077393,0.04552982
2297.20958130,0.04533195
2299.13838867,0.04523467
2301.06719604,0.04504271
2302.99600342,0.04486524
2304.92481079,0.04454385
2306.85361816,0.04440973
2308.78242554,0.04421512
2310.71123291,0.04361311
2312.64004028,0.04342866
2314.56884766,0.04310707
2316.49765503,0.04261862
2318.42646240,0.04214131
2320.35526978,0.04147822
2322.28407715,0.04084491
2324.21288452,0.04035875
2326.14169189,0.04013699
2328.07049927,0.03954378
2329.99930664,0.03907154
2331.92811401,0.03894726
2333.85692139,0.03869105
2335.78572876,0.03854027
2337.71453613,0.03851050
2339.64334351,0.03845362
2341.57215088,0.03856843
2343.50095825,0.03919477
2345.42976562,0.03969978
2347.35857300,0.04116629
2349.28738037,0.04259092
2351.21618774,0.04118789
2353.14499512,0.03923779
2355.07380249,0.03797822
2357.00260986,0.03686885
2358.93141724,0.03626748
2360.86022461,0.03582798
2362.78903198,0.03563011
2364.71783936,0.03581332
2366.64664673,0.03634306
2368.57545410,0.03705752
2370.50426147,0.03792950
2372.43306885,0.03881697
2374.36187622,0.03984530
2376.29068359,0.04089251
2378.21949097,0.04159151
2380.14829834,0.04224401
2382.07710571,0.04274416
2384.00591309,0.04304034
2385.93472046,0.04308140
2387.86352783,0.04309013
2389.79233521,0.04315778
2391.72114258,0.04307948
2393.64994995,0.04308210
2395.57875732,0.04304944
2397.50756470,0.04299887
2399.43637207,0.04290214
2401.36517944,0.04288379
2403.29398682,0.04286868
2405.22279419,0.04265289
2407.15160156,0.04266832
2409.08040894,0.04263775
2411.00921631,0.04249094
2412.93802368,0.04266009
2414.86683105,0.04258959
2416.79563843,0.04237415
2418.72444580,0.04250561
2420.65325317,0.04233859
2422.58206055,0.04220945
2424.51086792,0.04218767
2426.43967529,0.04202569
2428.36848267,0.04213889
2430.29729004,0.04200993
2432.22609741,0.04201443
2434.15490479,0.04194469
2436.08371216,0.04170560
2438.01251953,0.04188449
2439.94132690,0.04174922
2441.87013428,0.04170150
2443.79894165,0.04173797
2445.72774902,0.04165024
2447.65655640,0.04166838
2449.58536377,0.04152299
2451.51417114,0.04153429
2453.44297852,0.04145254
2455.37178589,0.04127769
2457.30059326,0.04123734
2459.22940063,0.04119438
2461.15820801,0.04124248
2463.08701538,0.04116300
2465.01582275,0.04107776
2466.94463013,0.04113334
2468.87343750,0.04097567
2470.80224487,0.04090020
2472.73105225,0.04098222
2474.65985962,0.04089277
2476.58866699,0.04089900
2478.51747437,0.04076221
2480.44628174,0.04060894
2482.37508911,0.04061364
2484.30389648,0.04056661
2486.23270386,0.04055694
2488.16151123,0.04039644
2490.09031860,0.04040674
2492.01912598,0.04039625
2493.94793335,0.04028678
2495.87674072,0.04027854
2497.80554810,0.04022531
2499.73435547,0.04023004
2501.66316284,0.04011441
2503.59197021,0.04020847
2505.52077759,0.04015868
2507.44958496,0.03995819
2509.37839233,0.03994303
2511.30719971,0.03983949
2513.23600708,0.03995020
2515.16481445,0.03978268
2517.09362183,0.03954771
2519.02242920,0.03970064
2520.95123657,0.03981151
2522.88004395,0.03978228
2524.80885132,0.03967796
2526.73765869,0.03953946
2528.66646606,0.03949276
2530.59527344,0.03956623
2532.52408081,0.03927642
2534.45288818,0.03928147
2536.38169556,0.03943396
2538.31050293,0.03915922
2540.23931030,0.03914697
2542.16811768,0.03909592
2544.09692505,0.03912894
2546.02573242,0.03911952
2547.95453979,0.03901161
2549.88334717,0.03900098
2551.81215454,0.03886409
2553.74096191,0.03893568
2555.66976929,0.03888777
2557.59857666,0.03880602
2559.52738403,0.03873879
2561.45619141,0.03868479
2563.38499878,0.03868914
2565.31380615,0.03856631
2567.24261353,0.03856891
2569.17142090,0.03842391
2571.10022827,0.03837458
2573.02903564,0.03829828
2574.95784302,0.03816397
2576.88665039,0.03826946
2578.81545776,0.03820161
2580.74426514,0.03815989
2582.67307251,0.03815183
2584.60187988,0.03817886
2586.53068726,0.03803084
2588.45949463,0.03785511
2590.38830200,0.03796553
2592.31710937,0.03776464
2594.24591675,0.03764559
2596.17472412,0.03775939
2598.10353149,0.03768450
2600.03233887,0.03761638
2601.96114624,0.03760913
2603.88995361,0.03755826
2605.81876099,0.03752927
2607.74756836,0.03752740
2609.67637573,0.03743711
2611.60518311,0.03739007
2613.53399048,0.03725768
2615.46279785,0.03724461
2617.39160522,0.03730737
2619.32041260,0.03706245
2621.24921997,0.03704541
2623.17802734,0.03705273
2625.10683472,0.03700086
2627.03564209,0.03704974
2628.96444946,0.03691129
2630.89325684,0.03692621
2632.82206421,0.03688411
2634.75087158,0.03675186
2636.67967895,0.03666683
2638.60848633,0.03659260
2640.53729370,0.03667309
2642.46610107,0.03657702
2644.39490845,0.03646561
2646.32371582,0.03641144
2648.25252319,0.03642939
2650.18133057,0.03636276
2652.11013794,0.03617949
2654.03894531,0.03634492
2655.96775269,0.03624683
2657.89656006,0.03609256
2659.82536743,0.03613761
2661.75417480,0.03597797
2663.68298218,0.03594106
2665.61178955,0.03591999
2667.54059692,0.03589384
2669.46940430,0.03581882
2671.39821167,0.03574036
2673.32701904,0.03572430
2675.25582642,0.03570284
2677.18463379,0.03566466
2679.11344116,0.03555737
2681.04224854,0.03561600
2682.97105591,0.03552214
2684.89986328,0.03545072
2686.82867065,0.03544742
2688.75747803,0.03533884
2690.68628540,0.03539459
2692.61509277,0.03532624
2694.54390015,0.03527992
2696.47270752,0.03519837
2698.40151489,0.03510389
2700.33032227,0.03508661
2702.25912964,0.03507204
2704.18793701,0.03501599
2706.11674438,0.03480727
2708.04555176,0.03487193
2709.97435913,0.03481093
2711.90316650,0.03473484
2713.83197388,0.03477210
2715.76078125,0.03464969
2717.68958862,0.03472603
2719.61839600,0.03462975
2721.54720337,0.03450181
2723.47601074,0.03446379
2725.40481812,0.03444999
2727.33362549,0.03444814
2729.26243286,0.03434815
2731.19124023,0.03431026
2733.12004761,0.03417591
2735.04885498,0.03418856
2736.97766235,0.03418263
2738.90646973,0.03407011
2740.83527710,0.03399326
2742.76408447,0.03390225
2744.69289185,0.03389580
2746.62169922,0.03379688
2748.55050659,0.03379665
2750.47931396,0.03377040
2752.40812134,0.03364273
2754.33692871,0.03354114
2756.26573608,0.03350385
2758.19454346,0.03352840
2760.12335083,0.03346080
2762.05215820,0.03341990
2763.98096558,0.03330047
2765.90977295,0.03336218
2767.83858032,0.03337539
2769.76738770,0.03318161
2771.69619507,0.03319490
2773.62500244,0.03309032
2775.55380981,0.03297903
2777.48261719,0.03290702
2779.41142456,0.03286283
2781.34023193,0.03289905
2783.26903931,0.03281452
2785.19784668,0.03278141
2787.12665405,0.03273823
2789.05546143,0.03261275
2790.98426880,0.03258421
2792.91307617,0.03253428
2794.84188354,0.03237538
2796.77069092,0.03239239
2798.69949829,0.03233301
2800.62830566,0.03219715
2802.55711304,0.03226959
2804.48592041,0.03226972
2806.41472778,0.03221031
2808.34353516,0.03197914
2810.27234253,0.03186394
2812.20114990,0.03198411
2814.12995728,0.03186306
2816.05876465,0.03174946
2817.98757202,0.03172866
2819.91637939,0.03161528
2821.84518677,0.03156810
2823.77399414,0.03161687
2825.70280151,0.03152127
2827.63160889,0.03137062
2829.56041626,0.03127539
2831.48922363,0.03123951
2833.41803101,0.03123117
2835.34683838,0.03114963
2837.27564575,0.03108283
2839.20445312,0.03091254
2841.13326050,0.03079460
2843.06206787,0.03063923
2844.99087524,0.03045151
2846.91968262,0.03034608
2848.84848999,0.03007669
2850.77729736,0.03002739
2852.70610474,0.03005746
2854.63491211,0.03008756
2856.56371948,0.03016590
2858.49252686,0.03015924
2860.42133423,0.03017664
2862.35014160,0.03000294
2864.27894897,0.02997312
2866.20775635,0.02999622
2868.13656372,0.02987489
2870.06537109,0.02987312
2871.99417847,0.02986072
2873.92298584,0.02976196
2875.85179321,0.02965846
2877.78060059,0.02967954
2879.70940796,0.02964517
2881.63821533,0.02952980
2883.56702270,0.02949572
2885.49583008,0.02954564
2887.42463745,0.02940756
2889.35344482,0.02924130
2891.28225220,0.02925615
2893.21105957,0.02914312
2895.13986694,0.02914811
2897.06867432,0.02900739
2898.99748169,0.02891096
2900.92628906,0.02894085
2902.85509644,0.02876984
2904.78390381,0.02886614
2906.71271118,0.02870722
2908.64151855,0.02852891
2910.57032593,0.02844642
2912.49913330,0.02822511
2914.42794067,0.02827708
2916.35674805,0.02813223
2918.28555542,0.02810405
2920.21436279,0.02815675
2922.14317017,0.02801614
2924.07197754,0.02802206
2926.00078491,0.02799850
2927.92959229,0.02803926
2929.85839966,0.02811092
2931.78720703,0.02805798
2933.71601440,0.02810409
2935.64482178,0.02823189
2937.57362915,0.02805813
2939.50243652,0.02805333
2941.43124390,0.02825425
2943.36005127,0.02810996
2945.28885864,0.02812978
2947.21766602,0.02812944
2949.14647339,0.02802175
2951.07528076,0.02803867
2953.00408813,0.02784922
2954.93289551,0.02771173
2956.86170288,0.02770538
2958.79051025,0.02763120
2960.71931763,0.02755618
2962.64812500,0.02754433
2964.57693237,0.02756342
2966.50573975,0.02751572
2968.43454712,0.02739176
2970.36335449,0.02746444
2972.29216187,0.02755248
2974.22096924,0.02747571
2976.14977661,0.02758140
2978.07858398,0.02748792
2980.00739136,0.02735382
2981.93619873,0.02753890
2983.86500610,0.02763454
2985.79381348,0.02755506
2987.72262085,0.02739530
2989.65142822,0.02741912
2991.58023560,0.02738627
2993.50904297,0.02726023
2995.43785034,0.02724620
2997.36665771,0.02718341
2999.29546509,0.02716574
3001.22427246,0.02708625
3003.15307983,0.02714206
3005.08188721,0.02708323
3007.01069458,0.02682928
3008.93950195,0.02685503
3010.86830933,0.02678367
3012.79711670,0.02671587
3014.72592407,0.02667832
3016.65473145,0.02665527
3018.58353882,0.02669105
3020.51234619,0.02657771
3022.44115356,0.02664613
3024.36996094,0.02646833
3026.29876831,0.02628439
3028.22757568,0.02640386
3030.15638306,0.02623039
3032.08519043,0.02618677
3034.01399780,0.02615578
3035.94280518,0.02613219
3037.87161255,0.02612759
3039.80041992,0.02587262
3041.72922729,0.02598950
3043.65803467,0.02601276
3045.58684204,0.02587153
3047.51564941,0.02586106
3049.44445679,0.02566216
3051.37326416,0.02574002
3053.30207153,0.02579901
3055.23087891,0.02559595
3057.15968628,0.02548850
3059.08849365,0.02540869
3061.01730103,0.02544498
3062.94610840,0.02548139
3064.87491577,0.02531182
3066.80372314,0.02518043
3068.73253052,0.02528405
3070.66133789,0.02526066
3072.59014526,0.02513484
3074.51895264,0.02510255
3076.44776001,0.02505732
3078.37656738,0.02504198
3080.30537476,0.02482378
3082.23418213,0.02479918
3084.16298950,0.02499053
3086.09179687,0.02485002
3088.02060425,0.02480884
3089.94941162,0.02469740
3091.87821899,0.02454116
3093.80702637,0.02461976
3095.73583374,0.02453099
3097.66464111,0.02454525
3099.59344849,0.02449131
3101.52225586,0.02433004
3103.45106323,0.02442312
3105.37987061,0.02435108
3107.30867798,0.02428138
3109.23748535,0.02426417
3111.16629272,0.02411108
3113.09510010,0.02400729
3115.02390747,0.02391693
3116.95271484,0.02391568
3118.88152222,0.02389028
3120.81032959,0.02383189
3122.73913696,0.02379320
3124.66794434,0.02375876
3126.59675171,0.02368877
3128.52555908,0.02352374
3130.45436645,0.02349064
3132.38317383,0.02340269
3134.31198120,0.02333593
3136.24078857,0.02335946
3138.16959595,0.02328676
3140.09840332,0.02325972
3142.02721069,0.02326151
3143.95601807,0.02325810
3145.88482544,0.02304916
3147.81363281,0.02292539
3149.74244019,0.02294620
3151.67124756,0.02283369
3153.60005493,0.02272631
3155.52886230,0.02267083
3157.45766968,0.02280974
3159.38647705,0.02269666
3161.31528442,0.02257263
3163.24409180,0.02264037
3165.17289917,0.02243031
3167.10170654,0.02231859
3169.03051392,0.02229647
3170.95932129,0.02231287
3172.88812866,0.02221286
3174.81693604,0.02212991
3176.74574341,0.02214205
3178.67455078,0.02194349
3180.60335815,0.02195614
3182.53216553,0.02194351
3184.46097290,0.02180598
3186.38978027,0.02172483
3188.31858765,0.02170180
3190.24739502,0.02170720
3192.17620239,0.02155766
3194.10500977,0.02157439
3196.03381714,0.02162917
3197.96262451,0.02150999
3199.89143188,0.02143862
3201.82023926,0.02143642
3203.74904663,0.02127466
3205.67785400,0.02124846
3207.60666138,0.02128360
3209.53546875,0.02113041
3211.46427612,0.02125871
3213.39308350,0.02109317
3215.32189087,0.02095260
3217.25069824,0.02111480
3219.17950562,0.02093392
3221.10831299,0.02090328
3223.03712036,0.02091239
3224.96592773,0.02091878
3226.89473511,0.02086799
3228.82354248,0.02074042
3230.75234985,0.02077615
3232.68115723,0.02071846
3234.60996460,0.02077928
3236.53877197,0.02076254
3238.46757935,0.02059272
3240.39638672,0.02059540
3242.32519409,0.02056419
3244.25400146,0.02049055
3246.18280884,0.02055568
3248.11161621,0.02048752
3250.04042358,0.02041559
3251.96923096,0.02044304
3253.89803833,0.02028989
3255.82684570,0.02033896
3257.75565308,0.02034408
3259.68446045,0.02024877
3261.61326782,0.02025397
3263.54207520,0.02026005
3265.47088257,0.02030671
3267.39968994,0.02016918
3269.32849731,0.02017134
3271.25730469,0.02007317
3273.18611206,0.02003061
3275.11491943,0.02009758
3277.04372681,0.02002078
3278.97253418,0.02019079
3280.90134155,0.02009454
3282.83014893,0.02004302
3284.75895630,0.01998837
3286.68776367,0.01991509
3288.61657104,0.02002272
3290.54537842,0.01980329
3292.47418579,0.01981549
3294.40299316,0.01985553
3296.33180054,0.01981017
3298.26060791,0.01976092
3300.18941528,0.01967853
3302.11822266,0.01971802
3304.04703003,0.01970696
3305.97583740,0.01974435
3307.90464478,0.01956647
3309.83345215,0.01957233
3311.76225952,0.01960183
3313.69106689,0.01952971
3315.61987427,0.01965122
3317.54868164,0.01947394
3319.47748901,0.01943673
3321.40629639,0.01950404
3323.33510376,0.01949019
3325.26391113,0.01947630
3327.19271851,0.01936173
3329.12152588,0.01937393
3331.05033325,0.01932087
3332.97914062,0.01930669
3334.90794800,0.01933388
3336.83675537,0.01916668
3338.76556274,0.01910919
3340.69437012,0.01916808
3342.62317749,0.01918594
3344.55198486,0.01923863
3346.48079224,0.01905340
3348.40959961,0.01897156
3350.33840698,0.01909467
3352.26721436,0.01897722
3354.19602173,0.01900493
3356.12482910,0.01894579
3358.05363647,0.01878909
3359.98244385,0.01887517
3361.91125122,0.01893402
3363.84005859,0.01877914
3365.76886597,0.01863442
3367.69767334,0.01867304
3369.62648071,0.01866925
3371.55528809,0.01877810
3373.48409546,0.01870023
3375.41290283,0.01863872
3377.34171020,0.01861810
3379.27051758,0.01846298
3381.19932495,0.01850190
3383.12813232,0.01834682
3385.05693970,0.01847490
3386.98574707,0.01847060
3388.91455444,0.01834353
3390.84336182,0.01832743
3392.77216919,0.01807495
3394.70097656,0.01826422
3396.62978394,0.01819231
3398.55859131,0.01814334
3400.48739868,0.01816959
3402.41620605,0.01806129
3404.34501343,0.01816726
3406.27382080,0.01805875
3408.20262817,0.01812971
3410.13143555,0.01802271
3412.06024292,0.01801447
3413.98905029,0.01801601
3415.91785767,0.01789977
3417.84666504,0.01794025
3419.77547241,0.01766104
3421.70427979,0.01767678
3423.63308716,0.01769136
3425.56189453,0.01769061
3427.49070190,0.01772359
3429.41950928,0.01760454
3431.34831665,0.01760715
3433.27712402,0.01759958
3435.20593140,0.01753270
3437.13473877,0.01732583
3439.06354614,0.01752125
3440.99235352,0.01749591
3442.92116089,0.01735366
3444.84996826,0.01742766
3446.77877563,0.01710688
3448.70758301,0.01713908
3450.63639038,0.01735884
3452.56519775,0.01743753
3454.49400513,0.01735092
3456.42281250,0.01724134
3458.35161987,0.01727270
3460.28042725,0.01727030
3462.20923462,0.01717175
3464.13804199,0.01703501
3466.06684937,0.01718377
3467.99565674,0.01714310
3469.92446411,0.01709524
3471.85327148,0.01710897
3473.78207886,0.01706403
3475.71088623,0.01704213
3477.63969360,0.01696591
3479.56850098,0.01700221
3481.49730835,0.01677752
3483.42611572,0.01681466
3485.35492310,0.01689376
3487.28373047,0.01680930
3489.21253784,0.01687094
3491.14134521,0.01688082
3493.07015259,0.01692597
3494.99895996,0.01680639
3496.92776733,0.01684048
3498.85657471,0.01684998
3500.78538208,0.01678430
3502.71418945,0.01636250
3504.64299683,0.01639329
3506.57180420,0.01696750
3508.50061157,0.01653564
3510.42941895,0.01659231
3512.35822632,0.01676100
3514.28703369,0.01666446
3516.21584106,0.01683179
3518.14464844,0.01660899
3520.07345581,0.01673866
3522.00226318,0.01654541
3523.93107056,0.01622987
3525.85987793,0.01637143
3527.78868530,0.01642317
3529.71749268,0.01642681
3531.64630005,0.01654208
3533.57510742,0.01662050
3535.50391479,0.01641805
3537.43272217,0.01645120
3539.36152954,0.01657824
3541.29033691,0.01664891
3543.21914429,0.01651433
3545.14795166,0.01596898
3547.07675903,0.01577810
3549.00556641,0.01642532
3550.93437378,0.01648985
3552.86318115,0.01595748
3554.79198853,0.01644345
3556.72079590,0.01659806
3558.64960327,0.01647004
3560.57841064,0.01631945
3562.50721802,0.01617140
3564.43602539,0.01638137
3566.36483276,0.01502864
3568.29364014,0.01448983
3570.22244751,0.01601108
3572.15125488,0.01646369
3574.08006226,0.01623859
3576.00886963,0.01642159
3577.93767700,0.01619754
3579.86648437,0.01618510
3581.79529175,0.01638357
3583.72409912,0.01633928
3585.65290649,0.01588586
3587.58171387,0.01435370
3589.51052124,0.01491347
3591.43932861,0.01643087
3593.36813599,0.01579928
3595.29694336,0.01552462
3597.22575073,0.01591675
3599.15455811,0.01611654
3601.08336548,0.01578445
3603.01217285,0.01600036
3604.94098022,0.01642187
3606.86978760,0.01562941
3608.79859497,0.01458607
3610.72740234,0.01496104
3612.65620972,0.01541375
3614.58501709,0.01487562
3616.51382446,0.01608123
3618.44263184,0.01465291
3620.37143921,0.01401570
3622.30024658,0.01628666
3624.22905395,0.01574711
3626.15786133,0.01652724
3628.08666870,0.01363359
3630.01547607,0.01223016
3631.94428345,0.01605013
3633.87309082,0.01552135
3635.80189819,0.01583957
3637.73070557,0.01622251
3639.65951294,0.01598528
3641.58832031,0.01603404
3643.51712769,0.01582289
3645.44593506,0.01607150
3647.37474243,0.01401661
3649.30354980,0.01277280
3651.23235718,0.01292727
3653.16116455,0.01575902
3655.08997192,0.01565654
3657.01877930,0.01374942
3658.94758667,0.01623401
3660.87639404,0.01583886
3662.80520142,0.01601936
3664.73400879,0.01597329
3666.66281616,0.01583373
3668.59162354,0.01522373
3670.52043091,0.01201517
3672.44923828,0.01511573
3674.37804565,0.01416250
3676.30685303,0.01133910
3678.23566040,0.01496235
3680.16446777,0.01530637
3682.09327515,0.01530268
3684.02208252,0.01591265
3685.95088989,0.01557811
3687.87969727,0.01382692
3689.80850464,0.01247911
3691.73731201,0.01441401
3693.66611938,0.01505621
3695.59492676,0.01542463
3697.52373413,0.01545889
3699.45254150,0.01543568
3701.38134888,0.01487534
3703.31015625,0.01419568
3705.23896362,0.01575174
3707.16777100,0.01486923
3709.09657837,0.01443705
3711.02538574,0.01344869
3712.95419312,0.01251452
3714.88300049,0.01503812
3716.81180786,0.01485043
3718.74061523,0.01496155
3720.66942261,0.01463517
3722.59822998,0.01409991
3724.52703735,0.01462624
3726.45584473,0.01337606
3728.38465210,0.01468076
3730.31345947,0.01448875
3732.24226685,0.01316781
3734.17107422,0.01284490
3736.09988159,0.01206759
3738.02868896,0.01302225
3739.95749634,0.01426538
3741.88630371,0.01492556
3743.81511108,0.01122956
3745.74391846,0.01047350
3747.67272583,0.01413685
3749.60153320,0.01185350
3751.53034058,0.01083561
3753.45914795,0.01274521
3755.38795532,0.01371927
3757.31676270,0.01437342
3759.24557007,0.01316220
3761.17437744,0.01374177
3763.10318481,0.01471721
3765.03199219,0.01348261
3766.96079956,0.01388673
3768.88960693,0.01386452
3770.81841431,0.01308224
3772.74722168,0.01427852
3774.67602905,0.01440161
3776.60483643,0.01438394
3778.53364380,0.01386847
3780.46245117,0.01324248
3782.39125854,0.01434227
3784.32006592,0.01394254
3786.24887329,0.01386818
3788.17768066,0.01426793
3790.10648804,0.01405451
3792.03529541,0.01405613
3793.96410278,0.01428819
3795.89291016,0.01318302
3797.82171753,0.01316219
3799.75052490,0.01400901
3801.67933228,0.01062222
3803.60813965,0.01274932
3805.53694702,0.01394837
3807.46575439,0.01098184
3809.39456177,0.01391786
3811.32336914,0.01364245
3813.25217651,0.01410654
3815.18098389,0.01252335
3817.10979126,0.01072877
3819.03859863,0.01412641
3820.96740601,0.01092497
3822.89621338,0.01165255
3824.82502075,0.01402866
3826.75382812,0.01236214
3828.68263550,0.01351368
3830.61144287,0.01292279
3832.54025024,0.01244256
3834.46905762,0.01277719
3836.39786499,0.01209399
3838.32667236,0.01076912
3840.25547974,0.01164787
3842.18428711,0.01270911
3844.11309448,0.01208013
3846.04190186,0.01328467
3847.97070923,0.01313246
3849.89951660,0.01309198
3851.82832397,0.01159006
3853.75713135,0.00828654
3855.68593872,0.01008905
3857.61474609,0.01311798
3859.54355347,0.01281068
3861.47236084,0.01251944
3863.40116821,0.01214258
3865.32997559,0.01119762
3867.25878296,0.01270435
3869.18759033,0.01145360
3871.11639770,0.01052095
3873.04520508,0.01281774
3874.97401245,0.01157352
3876.90281982,0.01271810
3878.83162720,0.01294077
3880.76043457,0.01073540
3882.68924194,0.01275883
3884.61804932,0.01180861
3886.54685669,0.01065351
3888.47566406,0.01285752
3890.40447144,0.01202169
3892.33327881,0.01112411
3894.26208618,0.01249042
3896.19089355,0.01270337
3898.11970093,0.01192824
3900.04850830,0.01119034
3901.97731567,0.01099753
3903.90612305,0.01090659
3905.83493042,0.01114455
3907.76373779,0.01237094
3909.69254517,0.01240640
3911.62135254,0.01227388
3913.55015991,0.01251351
3915.47896728,0.01203708
3917.40777466,0.01166107
3919.33658203,0.01156741
3921.26538940,0.01208291
3923.19419678,0.01198662
3925.12300415,0.01174192
3927.05181152,0.01204319
3928.98061890,0.01215529
3930.90942627,0.01183475
3932.83823364,0.01136253
3934.76704102,0.01194631
3936.69584839,0.01203872
3938.62465576,0.01190404
3940.55346313,0.01203054
3942.48227051,0.01140684
3944.41107788,0.01161724
3946.33988525,0.01196997
3948.26869263,0.01156681
3950.19750000,0.01150780
3952.12630737,0.01176107
3954.05511475,0.01185678
3955.98392212,0.01183738
3957.91272949,0.01176348
3959.84153687,0.01178944
3961.77034424,0.01164959
3963.69915161,0.01151045
3965.62795898,0.01170451
3967.55676636,0.01161705
3969.48557373,0.01161731
3971.41438110,0.01158267
3973.34318848,0.01155103
3975.27199585,0.01152522
3977.20080322,0.01140099
3979.12961060,0.01158439
3981.05841797,0.01134526
3982.98722534,0.01135929
3984.91603271,0.01144668
3986.84484009,0.01132244
3988.77364746,0.01138589
3990.70245483,0.01121099
3992.63126221,0.01129836
3994.56006958,0.01127047
3996.48887695,0.01119859
3998.41768433,0.01123450
4000.34649170,0.01130763
4002.27529907,0.01135386
4004.20410645,0.01115812
4006.13291382,0.01118532
4008.06172119,0.01109022
4009.99052856,0.01103820
4011.91933594,0.01105400
4013.84814331,0.01100097
4015.77695068,0.01099164
4017.70575806,0.01095479
4019.63456543,0.01097744
4021.56337280,0.01094845
4023.49218018,0.01097176
4025.42098755,0.01085872
4027.34979492,0.01085225
4029.27860229,0.01086502
4031.20740967,0.01081500
4033.13621704,0.01087492
4035.06502441,0.01085676
4036.99383179,0.01085161
4038.92263916,0.01067602
4040.85144653,0.01066460
4042.78025391,0.01071624
4044.70906128,0.01069120
4046.63786865,0.01067261
4048.56667603,0.01063977
4050.49548340,0.01065158
4052.42429077,0.01050456
4054.35309814,0.01056998
4056.28190552,0.01052109
4058.21071289,0.01043977
4060.13952026,0.01051203
4062.06832764,0.01044869
4063.99713501,0.01046124
4065.92594238,0.01049875
4067.85474976,0.01050705
4069.78355713,0.01040424
4071.71236450,0.01042376
4073.64117187,0.01030683
4075.56997925,0.01025657
4077.49878662,0.01033726
4079.42759399,0.01024784
4081.35640137,0.01029677
4083.28520874,0.01015935
4085.21401611,0.01023988
4087.14282349,0.01023652
4089.07163086,0.01012458
4091.00043823,0.01024011
4092.92924561,0.01008571
4094.85805298,0.01009892
4096.78686035,0.01012341
4098.71566772,0.01008489
4100.64447510,0.01003698
4102.57328247,0.00998047
4104.50208984,0.00987584
4106.43089722,0.00979746
4108.35970459,0.00991088
4110.28851196,0.00983833
4112.21731934,0.00989058
4114.14612671,0.00988364
4116.07493408,0.00987205
4118.00374145,0.00990290
4119.93254883,0.00982599
4121.86135620,0.00983389
4123.79016357,0.00979236
4125.71897095,0.00985788
4127.64777832,0.00972614
4129.57658569,0.00971086
4131.50539307,0.00968335
4133.43420044,0.00952762
4135.36300781,0.00967259
4137.29181519,0.00963968
4139.22062256,0.00961587
4141.14942993,0.00960707
4143.07823730,0.00957616
4145.00704468,0.00953152
4146.93585205,0.00951437
4148.86465942,0.00951950
4150.79346680,0.00943834
4152.72227417,0.00950323
4154.65108154,0.00943006
4156.57988892,0.00943179
4158.50869629,0.00941837
4160.43750366,0.00936032
4162.36631103,0.00939684
4164.29511841,0.00926530
4166.22392578,0.00927142
4168.15273315,0.00930854
4170.08154053,0.00925187
4172.01034790,0.00921519
4173.93915527,0.00919118
4175.86796265,0.00915037
4177.79677002,0.00916037
4179.72557739,0.00910057
4181.65438477,0.00909586
4183.58319214,0.00912028
4185.51199951,0.00898764
4187.44080688,0.00908138
4189.36961426,0.00902807
4191.29842163,0.00899619
4193.22722900,0.00892672
4195.15603638,0.00888419
4197.08484375,0.00904500
4199.01365112,0.00882308
4200.94245850,0.00890485
4202.87126587,0.00884520
4204.80007324,0.00876493
4206.72888062,0.00886971
4208.65768799,0.00869896
4210.58649536,0.00886079
4212.51530273,0.00877068
4214.44411011,0.00870536
4216.37291748,0.00874692
4218.30172485,0.00871015
4220.23053223,0.00877782
4222.15933960,0.00865751
4224.08814697,0.00871130
4226.01695435,0.00869982
4227.94576172,0.00865070
4229.87456909,0.00856335
4231.80337646,0.00850612
4233.73218384,0.00856470
4235.66099121,0.00853694
4237.58979858,0.00860385
4239.51860596,0.00847844
4241.44741333,0.00838838
4243.37622070,0.00848673
4245.30502808,0.00845140
4247.23383545,0.00834886
4249.16264282,0.00838839
4251.09145020,0.00830257
4253.02025757,0.00828543
4254.94906494,0.00845924
4256.87787231,0.00826807
4258.80667969,0.00827459
4260.73548706,0.00832500
4262.66429443,0.00824746
4264.59310181,0.00825505
4266.52190918,0.00815940
4268.45071655,0.00818864
4270.37952393,0.00814165
4272.30833130,0.00817516
4274.23713867,0.00816320
4276.16594604,0.00814150
4278.09475342,0.00819376
4280.02356079,0.00812734
4281.95236816,0.00809595
4283.88117554,0.00798660
4285.80998291,0.00805252
4287.73879028,0.00807805
4289.66759766,0.00806778
4291.59640503,0.00809256
4293.52521240,0.00804042
4295.45401978,0.00798272
4297.38282715,0.00786325
4299.31163452,0.00794031
4301.24044189,0.00786866
4303.16924927,0.00780041
4305.09805664,0.00778111
4307.02686401,0.00780451
4308.95567139,0.00791373
4310.88447876,0.00775046
4312.81328613,0.00779311
4314.74209351,0.00780098
4316.67090088,0.00774235
4318.59970825,0.00774623
4320.52851562,0.00771309
4322.45732300,0.00769554
4324.38613037,0.00763812
4326.31493774,0.00776043
4328.24374512,0.00760547
4330.17255249,0.00755320
4332.10135986,0.00768370
4334.03016724,0.00758775
4335.95897461,0.00761135
4337.88778198,0.00754478
4339.81658936,0.00754278
4341.74539673,0.00757870
4343.67420410,0.00750053
4345.60301147,0.00748239
4347.53181885,0.00751520
4349.46062622,0.00751564
4351.38943359,0.00744047
4353.31824097,0.00740469
4355.24704834,0.00732309
4357.17585571,0.00732876
4359.10466309,0.00738523
4361.03347046,0.00734749
4362.96227783,0.00736451
4364.89108520,0.00735857
4366.81989258,0.00729616
4368.74869995,0.00730909
4370.67750732,0.00726426
4372.60631470,0.00720416
4374.53512207,0.00726935
4376.46392944,0.00718526
4378.39273682,0.00716673
4380.32154419,0.00717321
4382.25035156,0.00712765
4384.17915894,0.00723222
4386.10796631,0.00714321
4388.03677368,0.00704398
4389.96558105,0.00705892
4391.89438843,0.00707071
4393.82319580,0.00708953
4395.75200317,0.00710960
4397.68081055,0.00706311
4399.60961792,0.00700669
4401.53842529,0.00703172
4403.46723267,0.00688890
4405.39604004,0.00692331
4407.32484741,0.00696265
4409.25365478,0.00690356
4411.18246216,0.00698168
4413.11126953,0.00691577
4415.04007690,0.00694280
4416.96888428,0.00689504
4418.89769165,0.00686120
4420.82649902,0.00685877
4422.75530640,0.00676025
4424.68411377,0.00684348
4426.61292114,0.00682434
4428.54172852,0.00677740
4430.47053589,0.00672528
4432.39934326,0.00670984
4434.32815063,0.00672544
4436.25695801,0.00671285
4438.18576538,0.00675694
4440.11457275,0.00663527
4442.04338013,0.00661891
4443.97218750,0.00664172
4445.90099487,0.00662472
4447.82980225,0.00662644
4449.75860962,0.00650906
4451.68741699,0.00652730
4453.61622437,0.00655362
4455.54503174,0.00653498
4457.47383911,0.00650111
4459.40264648,0.00644938
4461.33145386,0.00650176
4463.26026123,0.00647142
4465.18906860,0.00647344
4467.11787598,0.00653626
4469.04668335,0.00646435
4470.97549072,0.00641032
4472.90429810,0.00636737
4474.83310547,0.00635753
4476.76191284,0.00642152
4478.69072021,0.00635783
4480.61952759,0.00629423
4482.54833496,0.00632875
4484.47714233,0.00631086
4486.40594971,0.00623094
4488.33475708,0.00623186
4490.26356445,0.00628038
4492.19237183,0.00624904
4494.12117920,0.00626725
4496.04998657,0.00631090
4497.97879395,0.00628383
4499.90760132,0.00616289
4501.83640869,0.00614764
4503.76521606,0.00621728
4505.69402344,0.00611819
4507.62283081,0.00609936
4509.55163818,0.00608877
4511.48044556,0.00606070
4513.40925293,0.00607111
4515.33806030,0.00605002
4517.26686768,0.00610178
4519.19567505,0.00606213
4521.12448242,0.00598803
4523.05328979,0.00592624
4524.98209717,0.00601414
4526.91090454,0.00605342
4528.83971191,0.00585856
4530.76851929,0.00590394
4532.69732666,0.00591306
4534.62613403,0.00584690
4536.55494141,0.00588173
4538.48374878,0.00584711
4540.41255615,0.00588316
4542.34136353,0.00588606
4544.27017090,0.00584027
4546.19897827,0.00580941
4548.12778564,0.00581336
4550.05659302,0.00579646
4551.98540039,0.00572931
4553.91420776,0.00576134
4555.84301514,0.00574310
4557.77182251,0.00576031
4559.70062988,0.00576418
4561.62943726,0.00564721
4563.55824463,0.00575370
4565.48705200,0.00574280
4567.41585937,0.00560864
4569.34466675,0.00567958
4571.27347412,0.00561126
4573.20228149,0.00562136
4575.13108887,0.00563519
4577.05989624,0.00551979
4578.98870361,0.00558560
4580.91751099,0.00551393
4582.84631836,0.00548580
4584.77512573,0.00560916
4586.70393311,0.00553905
4588.63274048,0.00549008
4590.56154785,0.00553930
4592.49035522,0.00548945
4594.41916260,0.00541410
4596.34796997,0.00545844
4598.27677734,0.00540517
4600.20558472,0.00532964
4602.13439209,0.00540738
4604.06319946,0.00540315
4605.99200684,0.00536996
4607.92081421,0.00537173
4609.84962158,0.00531394
4611.77842895,0.00530322
4613.70723633,0.00531740
4615.63604370,0.00522661
4617.56485107,0.00520708
4619.49365845,0.00529005
4621.42246582,0.00528628
4623.35127319,0.00523574
4625.28008057,0.00525480
4627.20888794,0.00528612
4629.13769531,0.00522477
4631.06650269,0.00516936
4632.99531006,0.00513628
4634.92411743,0.00519422
4636.85292480,0.00519284
4638.78173218,0.00508329
4640.71053955,0.00513901
4642.63934692,0.00512159
4644.56815430,0.00512812
4646.49696167,0.00511194
4648.42576904,0.00503007
4650.35457642,0.00515067
4652.28338379,0.00512140
4654.21219116,0.00504760
4656.14099853,0.00502681
4658.06980591,0.00500826
4659.99861328,0.00503569
4661.92742065,0.00499020
4663.85622803,0.00499437
4665.78503540,0.00492375
4667.71384277,0.00489008
4669.64265015,0.00496526
4671.57145752,0.00494847
4673.50026489,0.00490460
4675.42907227,0.00486686
4677.35787964,0.00490599
4679.28668701,0.00491331
4681.21549438,0.00486201
4683.14430176,0.00491100
4685.07310913,0.00487518
4687.00191650,0.00476273
4688.93072388,0.00480433
4690.85953125,0.00480175
4692.78833862,0.00474877
4694.71714600,0.00484075
4696.64595337,0.00486330
4698.57476074,0.00476896
4700.50356812,0.00469037
4702.43237549,0.00465622
4704.36118286,0.00470511
4706.28999023,0.00473665
4708.21879761,0.00470707
4710.14760498,0.00473232
4712.07641235,0.00472611
4714.00521973,0.00471449
4715.93402710,0.00470583
4717.86283447,0.00459156
4719.79164185,0.00462981
4721.72044922,0.00464417
4723.64925659,0.00456278
4725.57806396,0.00460098
4727.50687134,0.00456011
4729.43567871,0.00456277
4731.36448608,0.00457970
4733.29329346,0.00450911
4735.22210083,0.00450478
4737.15090820,0.00453889
4739.07971558,0.00451053
4741.00852295,0.00444868
4742.93733032,0.00446843
4744.86613770,0.00450576
4746.79494507,0.00452956
4748.72375244,0.00450616
4750.65255981,0.00449378
4752.58136719,0.00441685
4754.51017456,0.00430070
4756.43898193,0.00440594
4758.36778931,0.00446285
4760.29659668,0.00441112
4762.22540405,0.00439077
4764.15421143,0.00434131
4766.08301880,0.00434121
4768.01182617,0.00442854
4769.94063354,0.00437960
4771.86944092,0.00431102
4773.79824829,0.00442578
4775.72705566,0.00433792
4777.65586304,0.00428033
4779.58467041,0.00433115
4781.51347778,0.00426817
4783.44228516,0.00426668
4785.37109253,0.00423394
4787.29989990,0.00427276
4789.22870728,0.00426329
4791.15751465,0.00424432
4793.08632202,0.00426687
4795.01512939,0.00418112
4796.94393677,0.00418372
4798.87274414,0.00420562
4800.80155151,0.00423336
4802.73035889,0.00417773
4804.65916626,0.00414407
4806.58797363,0.00418603
4808.51678101,0.00413620
4810.44558838,0.00416581
4812.37439575,0.00416490
4814.30320312,0.00413648
4816.23201050,0.00410269
4818.16081787,0.00406027
4820.08962524,0.00412384
4822.01843262,0.00411236
4823.94723999,0.00402612
4825.87604736,0.00400065
4827.80485474,0.00400477
4829.73366211,0.00400785
4831.66246948,0.00400653
4833.59127686,0.00399014
4835.52008423,0.00397330
4837.44889160,0.00395228
4839.37769897,0.00401463
4841.30650635,0.00403867
4843.23531372,0.00393642
4845.16412109,0.00390645
4847.09292847,0.00390296
4849.02173584,0.00393629
4850.95054321,0.00391162
4852.87935059,0.00381559
4854.80815796,0.00386417
4856.73696533,0.00393767
4858.66577270,0.00388495
4860.59458008,0.00383875
4862.52338745,0.00387962
4864.45219482,0.00386829
4866.38100220,0.00386088
4868.30980957,0.00378144
4870.23861694,0.00371249
4872.16742432,0.00375966
4874.09623169,0.00377557
4876.02503906,0.00380687
4877.95384644,0.00372879
4879.88265381,0.00376732
4881.81146118,0.00379124
4883.74026855,0.00363549
4885.66907593,0.00371040
4887.59788330,0.00381344
4889.52669067,0.00376549
4891.45549805,0.00366094
4893.38430542,0.00364313
4895.31311279,0.00366015
4897.24192017,0.00366908
4899.17072754,0.00367108
4901.09953491,0.00360503
4903.02834228,0.00358939
4904.95714966,0.00359544
4906.88595703,0.00365143
4908.81476440,0.00358617
4910.74357178,0.00357352
4912.67237915,0.00363347
4914.60118652,0.00356773
4916.52999390,0.00358063
4918.45880127,0.00350963
4920.38760864,0.00352775
4922.31641602,0.00356176
4924.24522339,0.00354400
4926.17403076,0.00356454
4928.10283813,0.00350171
4930.03164551,0.00354960
4931.96045288,0.00351726
4933.88926025,0.00342667
4935.81806763,0.00339668
4937.74687500,0.00341806
4939.67568237,0.00338349
4941.60448975,0.00336445
4943.53329712,0.00346432
4945.46210449,0.00345277
4947.39091187,0.00349079
4949.31971924,0.00342271
4951.24852661,0.00340777
4953.17733398,0.00340054
4955.10614136,0.00331047
4957.03494873,0.00348787
4958.96375610,0.00341009
4960.89256348,0.00328068
4962.82137085,0.00338383
4964.75017822,0.00337020
4966.67898560,0.00329948
4968.60779297,0.00332843
4970.53660034,0.00333953
4972.46540771,0.00331509
4974.39421509,0.00337635
4976.32302246,0.00327670
4978.25182983,0.00324017
4980.18063721,0.00325968
4982.10944458,0.00325667
4984.03825195,0.00327671
4985.96705933,0.00319569
4987.89586670,0.00325696
4989.82467407,0.00325715
4991.75348145,0.00322094
4993.68228882,0.00319034
4995.61109619,0.00321574
4997.53990356,0.00319070
4999.46871094,0.00304696
5001.39751831,0.00315253
5003.32632568,0.00312524
5005.25513306,0.00315371
5007.18394043,0.00319532
5009.11274780,0.00306245
5011.04155518,0.00310064
5012.97036255,0.00312694
5014.89916992,0.00310605
5016.82797729,0.00300435
5018.75678467,0.00305658
5020.68559204,0.00309863
5022.61439941,0.00306763
5024.54320679,0.00313968
5026.47201416,0.00304788
5028.40082153,0.00301524
5030.32962891,0.00303278
5032.25843628,0.00302360
5034.18724365,0.00296087
5036.11605103,0.00300071
5038.04485840,0.00308353
5039.97366577,0.00299235
5041.90247314,0.00299818
5043.83128052,0.00294597
5045.76008789,0.00292903
5047.68889526,0.00292147
5049.61770264,0.00290739
5051.54651001,0.00300716
5053.47531738,0.00295793
5055.40412476,0.00290078
5057.33293213,0.00289588
5059.26173950,0.00293210
5061.19054687,0.00291986
5063.11935425,0.00288921
5065.04816162,0.00291568
5066.97696899,0.00289132
5068.90577637,0.00286474
5070.83458374,0.00282136
5072.76339111,0.00284936
5074.69219849,0.00283492
5076.62100586,0.00280067
5078.54981323,0.00284001
5080.47862061,0.00283100
5082.40742798,0.00282328
5084.33623535,0.00282386
5086.26504272,0.00283721
5088.19385010,0.00280945
5090.12265747,0.00283127
5092.05146484,0.00285317
5093.98027222,0.00278923
5095.90907959,0.00280121
5097.83788696,0.00277031
5099.76669434,0.00275707
5101.69550171,0.00283452
5103.62430908,0.00279072
5105.55311645,0.00278235
5107.48192383,0.00281353
5109.41073120,0.00269658
5111.33953857,0.00268381
5113.26834595,0.00268353
5115.19715332,0.00265985
5117.12596069,0.00272631
5119.05476807,0.00270083
5120.98357544,0.00269253
5122.91238281,0.00266207
5124.84119019,0.00266061
5126.76999756,0.00264930
5128.69880493,0.00264722
5130.62761230,0.00270904
5132.55641968,0.00258419
5134.48522705,0.00261326
5136.41403442,0.00266939
5138.34284180,0.00259274
5140.27164917,0.00260240
5142.20045654,0.00261129
5144.12926392,0.00261875
5146.05807129,0.00259878
5147.98687866,0.00261448
5149.91568603,0.00250796
5151.84449341,0.00251664
5153.77330078,0.00259941
5155.70210815,0.00249542
5157.63091553,0.00252551
5159.55972290,0.00248470
5161.48853027,0.00251203
5163.41733765,0.00255587
5165.34614502,0.00251534
5167.27495239,0.00260529
5169.20375977,0.00250663
5171.13256714,0.00241173
5173.06137451,0.00244387
5174.99018188,0.00250623
5176.91898926,0.00253326
5178.84779663,0.00249770
5180.77660400,0.00249357
5182.70541138,0.00240824
5184.63421875,0.00241910
5186.56302612,0.00247155
5188.49183350,0.00244425
5190.42064087,0.00242973
5192.34944824,0.00240104
5194.27825562,0.00240800
5196.20706299,0.00237700
5198.13587036,0.00234997
5200.06467773,0.00241097
5201.99348511,0.00243135
5203.92229248,0.00237924
5205.85109985,0.00233236
5207.77990723,0.00228802
5209.70871460,0.00231842
5211.63752197,0.00243023
5213.56632935,0.00240257
5215.49513672,0.00233944
5217.42394409,0.00234767
5219.35275146,0.00227023
5221.28155884,0.00228506
5223.21036621,0.00235277
5225.13917358,0.00223111
5227.06798096,0.00226486
5228.99678833,0.00237405
5230.92559570,0.00225987
5232.85440308,0.00225171
5234.78321045,0.00228428
5236.71201782,0.00226158
5238.64082520,0.00226500
5240.56963257,0.00222529
5242.49843994,0.00223872
5244.42724731,0.00223161
5246.35605469,0.00225394
5248.28486206,0.00224275
5250.21366943,0.00216766
5252.14247681,0.00222579
5254.07128418,0.00220193
5256.00009155,0.00222376
5257.92889893,0.00225802
5259.85770630,0.00215622
5261.78651367,0.00219089
5263.71532104,0.00214680
5265.64412842,0.00210989
5267.57293579,0.00215373
5269.50174316,0.00214825
5271.43055054,0.00224418
5273.35935791,0.00223514
5275.28816528,0.00216134
5277.21697266,0.00210989
5279.14578003,0.00209998
5281.07458740,0.00211553
5283.00339478,0.00208651
5284.93220215,0.00216407
5286.86100952,0.00212780
5288.78981689,0.00208723
5290.71862427,0.00216972
5292.64743164,0.00213134
5294.57623901,0.00206097
5296.50504639,0.00209809
5298.43385376,0.00217053
5300.36266113,0.00210569
5302.29146851,0.00210207
5304.22027588,0.00214201
5306.14908325,0.00210133
5308.07789062,0.00206936
5310.00669800,0.00204212
5311.93550537,0.00208336
5313.86431274,0.00208525
5315.79312012,0.00212784
5317.72192749,0.00211001
5319.65073486,0.00202519
5321.57954224,0.00206753
5323.50834961,0.00205658
5325.43715698,0.00199356
5327.36596436,0.00193271
5329.29477173,0.00201250
5331.22357910,0.00206679
5333.15238647,0.00200804
5335.08119385,0.00201708
5337.01000122,0.00193984
5338.93880859,0.00185126
5340.86761597,0.00193828
5342.79642334,0.00199467
5344.72523071,0.00180462
5346.65403809,0.00187035
5348.58284546,0.00199464
5350.51165283,0.00188552
5352.44046020,0.00191737
5354.36926758,0.00183959
5356.29807495,0.00186298
5358.22688232,0.00190482
5360.15568970,0.00190307
5362.08449707,0.00192794
5364.01330444,0.00181120
5365.94211182,0.00190225
5367.87091919,0.00189048
5369.79972656,0.00191846
5371.72853394,0.00193333
5373.65734131,0.00181899
5375.58614868,0.00186195
5377.51495605,0.00178148
5379.44376343,0.00193661
5381.37257080,0.00197270
5383.30137817,0.00183132
5385.23018555,0.00189809
5387.15899292,0.00180520
5389.08780029,0.00179156
5391.01660767,0.00180068
5392.94541504,0.00176979
5394.87422241,0.00180911
5396.80302978,0.00178126
5398.73183716,0.00172887
5400.66064453,0.00180690
5402.58945190,0.00183997
5404.51825928,0.00171307
5406.44706665,0.00179756
5408.37587402,0.00181780
5410.30468140,0.00175619
5412.23348877,0.00176947
5414.16229614,0.00172856
5416.09110352,0.00178163
5418.01991089,0.00175304
5419.94871826,0.00172987
5421.87752563,0.00171015
5423.80633301,0.00169323
5425.73514038,0.00176897
5427.66394775,0.00167986
5429.59275513,0.00164146
5431.52156250,0.00175727
5433.45036987,0.00174068
5435.37917725,0.00169685
5437.30798462,0.00178733
5439.23679199,0.00174408
5441.16559936,0.00171375
5443.09440674,0.00178177
5445.02321411,0.00167204
5446.95202148,0.00166365
5448.88082886,0.00167739
5450.80963623,0.00164194
5452.73844360,0.00173123
5454.66725098,0.00170316
5456.59605835,0.00163274
5458.52486572,0.00167601
5460.45367310,0.00163618
5462.38248047,0.00158822
5464.31128784,0.00170180
5466.24009521,0.00165453
5468.16890259,0.00157072
5470.09770996,0.00163294
5472.02651733,0.00158073
5473.95532471,0.00161797
5475.88413208,0.00165687
5477.81293945,0.00160793
5479.74174683,0.00167555
5481.67055420,0.00169806
5483.59936157,0.00165156
5485.52816895,0.00160768
5487.45697632,0.00160611
5489.38578369,0.00159984
5491.31459106,0.00155259
5493.24339844,0.00156557
5495.17220581,0.00158753
5497.10101318,0.00163096
5499.02982056,0.00162309
5500.95862793,0.00155594
5502.88743530,0.00160455
5504.81624268,0.00157358
5506.74505005,0.00154608
5508.67385742,0.00160621
5510.60266479,0.00153188
5512.53147217,0.00155612
5514.46027954,0.00157866
5516.38908691,0.00151064
5518.31789429,0.00152406
5520.24670166,0.00153420
5522.17550903,0.00158285
5524.10431641,0.00154189
5526.03312378,0.00150223
5527.96193115,0.00150923
5529.89073853,0.00148882
5531.81954590,0.00154244
5533.74835327,0.00150202
5535.67716064,0.00147410
5537.60596802,0.00145564
5539.53477539,0.00148255
5541.46358276,0.00157257
5543.39239014,0.00150029
5545.32119751,0.00147844
5547.25000488,0.00145801
5549.17881226,0.00143509
5551.10761963,0.00145336
5553.03642700,0.00145784
5554.96523437,0.00150341
5556.89404175,0.00144130
5558.82284912,0.00142790
5560.75165649,0.00142297
5562.68046387,0.00139861
5564.60927124,0.00142247
5566.53807861,0.00137238
5568.46688599,0.00138808
5570.39569336,0.00142908
5572.32450073,0.00149062
5574.25330811,0.00145449
5576.18211548,0.00137109
5578.11092285,0.00140490
5580.03973022,0.00136170
5581.96853760,0.00140198
5583.89734497,0.00139450
5585.82615234,0.00132140
5587.75495972,0.00138403
5589.68376709,0.00139255
5591.61257446,0.00138443
5593.54138184,0.00132574
5595.47018921,0.00131807
5597.39899658,0.00131815
5599.32780395,0.00127279
5601.25661133,0.00137787
5603.18541870,0.00137905
5605.11422607,0.00135217
5607.04303345,0.00140262
5608.97184082,0.00138062
5610.90064819,0.00132815
5612.82945557,0.00127352
5614.75826294,0.00130926
5616.68707031,0.00137135
5618.61587769,0.00136361
5620.54468506,0.00128970
5622.47349243,0.00128168
5624.40229980,0.00131114
5626.33110718,0.00127457
5628.25991455,0.00126683
5630.18872192,0.00125028
5632.11752930,0.00130966
5634.04633667,0.00129201
5635.97514404,0.00122125
5637.90395142,0.00128281
5639.83275879,0.00129697
5641.76156616,0.00131919
5643.69037353,0.00125871
5645.61918091,0.00129679
5647.54798828,0.00135664
5649.47679565,0.00124321
5651.40560303,0.00134577
5653.33441040,0.00134345
5655.26321777,0.00123079
5657.19202515,0.00122157
5659.12083252,0.00121069
5661.04963989,0.00126809
5662.97844727,0.00123445
5664.90725464,0.00120345
5666.83606201,0.00119149
5668.76486938,0.00121585
5670.69367676,0.00124741
5672.62248413,0.00122623
5674.55129150,0.00128665
5676.48009888,0.00123145
5678.40890625,0.00118862
5680.33771362,0.00122521
5682.26652100,0.00118745
5684.19532837,0.00113465
5686.12413574,0.00113757
5688.05294311,0.00121196
5689.98175049,0.00117921
5691.91055786,0.00114038
5693.83936523,0.00118112
5695.76817261,0.00117941
5697.69697998,0.00110696
5699.62578735,0.00110029
5701.55459473,0.00119703
5703.48340210,0.00115460
5705.41220947,0.00110760
5707.34101685,0.00115730
5709.26982422,0.00115476
5711.19863159,0.00111323
5713.12743896,0.00111474
5715.05624634,0.00110759
5716.98505371,0.00107401
5718.91386108,0.00114674
5720.84266846,0.00115023
5722.77147583,0.00113013
5724.70028320,0.00118910
5726.62909058,0.00113142
5728.55789795,0.00107582
5730.48670532,0.00113600
5732.41551270,0.00112570
5734.34432007,0.00104146
5736.27312744,0.00113205
5738.20193481,0.00119056
5740.13074219,0.00110184
5742.05954956,0.00107840
5743.98835693,0.00109200
5745.91716431,0.00113720
5747.84597168,0.00113633
5749.77477905,0.00110185
5751.70358643,0.00109489
5753.63239380,0.00109368
5755.56120117,0.00109103
5757.49000854,0.00111610
5759.41881592,0.00111637
5761.34762329,0.00108343
5763.27643066,0.00110336
5765.20523804,0.00100511
5767.13404541,0.00103290
5769.06285278,0.00109487
5770.99166016,0.00102463
5772.92046753,0.00112230
5774.84927490,0.00108963
5776.77808228,0.00105414
5778.70688965,0.00105774
5780.63569702,0.00104708
5782.56450439,0.00108636
5784.49331177,0.00100953
5786.42211914,0.00108983
5788.35092651,0.00103608
5790.27973389,0.00092216
5792.20854126,0.00096696
5794.13734863,0.00094929
5796.06615601,0.00102021
5797.99496338,0.00098317
5799.92377075,0.00094507
5801.85257812,0.00097712
5803.78138550,0.00096669
5805.71019287,0.00096855
5807.63900024,0.00093114
5809.56780762,0.00096882
5811.49661499,0.00095836
5813.42542236,0.00095107
5815.35422974,0.00098173
5817.28303711,0.00097449
5819.21184448,0.00101045
5821.14065186,0.00099348
5823.06945923,0.00096782
5824.99826660,0.00093865
5826.92707397,0.00093852
5828.85588135,0.00095262
5830.78468872,0.00096386
5832.71349609,0.00100580
5834.64230347,0.00092089
5836.57111084,0.00094886
5838.49991821,0.00100936
5840.42872559,0.00089319
5842.35753296,0.00092338
5844.28634033,0.00095480
5846.21514770,0.00091887
5848.14395508,0.00089986
5850.07276245,0.00089088
5852.00156982,0.00092542
5853.93037720,0.00088060
5855.85918457,0.00095185
5857.78799194,0.00092116
5859.71679932,0.00079625
5861.64560669,0.00089745
5863.57441406,0.00089889
5865.50322144,0.00089327
5867.43202881,0.00087513
5869.36083618,0.00083397
5871.28964355,0.00087290
5873.21845093,0.00086012
5875.14725830,0.00085885
5877.07606567,0.00081799
5879.00487305,0.00088667
5880.93368042,0.00089209
5882.86248779,0.00080684
5884.79129517,0.00086388
5886.72010254,0.00088752
5888.64890991,0.00089309
5890.57771728,0.00084924
5892.50652466,0.00086839
5894.43533203,0.00086524
5896.36413940,0.00083933
5898.29294678,0.00088609
5900.22175415,0.00081935
5902.15056152,0.00082797
5904.07936890,0.00086295
5906.00817627,0.00088671
5907.93698364,0.00086952
5909.86579102,0.00086044
5911.79459839,0.00089262
5913.72340576,0.00080702
5915.65221313,0.00085677
5917.58102051,0.00086556
5919.50982788,0.00078961
5921.43863525,0.00077779
5923.36744263,0.00075874
5925.29625000,0.00078443
5927.22505737,0.00083254
5929.15386475,0.00088726
5931.08267212,0.00080552
5933.01147949,0.00080995
5934.94028686,0.00084572
5936.86909424,0.00079263
5938.79790161,0.00084478
5940.72670898,0.00082544
5942.65551636,0.00082130
5944.58432373,0.00079523
5946.51313110,0.00079689
5948.44193848,0.00078511
5950.37074585,0.00070131
5952.29955322,0.00082022
5954.22836060,0.00078167
5956.15716797,0.00072785
5958.08597534,0.00082892
5960.01478271,0.00077673
5961.94359009,0.00079883
5963.87239746,0.00077066
5965.80120483,0.00072645
5967.73001221,0.00083414
5969.65881958,0.00079023
5971.58762695,0.00076310
5973.51643433,0.00075472
5975.44524170,0.00068525
5977.37404907,0.00074055
5979.30285645,0.00074426
5981.23166382,0.00076597
5983.16047119,0.00074609
5985.08927856,0.00068153
5987.01808594,0.00076797
5988.94689331,0.00075558
5990.87570068,0.00074217
5992.80450806,0.00076271
5994.73331543,0.00074148
5996.66212280,0.00075100
5998.59093018,0.00070051
6000.51973755,0.00067910
