399.26312622,0.00020006
401.19193359,0.00046717
403.12074097,0.00039331
405.04954834,0.00061847
406.97835571,0.00044203
408.90716309,0.00043646
410.83597046,0.00054372
412.76477783,0.00083887
414.69358521,0.00132462
416.62239258,0.00052649
418.55119995,0.00070857
420.48000732,0.00083129
422.40881470,0.00015229
424.33762207,0.00072258
426.26642944,0.00066741
428.19523682,0.00010036
430.12404419,0.00007398
432.05285156,0.00080069
433.98165894,0.00101823
435.91046631,0.00067218
437.83927368,0.00100977
439.76808105,0.00055069
441.69688843,0.00074000
443.62569580,0.00104321
445.55450317,0.00028226
447.48331055,0.00045701
449.41211792,0.00066876
451.34092529,0.00082068
453.26973267,0.00064661
455.19854004,0.00036607
457.12734741,0.00063961
459.05615479,0.00002899
460.98496216,0.00011117
462.91376953,0.00073796
464.84257690,0.00034673
466.77138428,0.00046878
468.70019165,0.00027822
470.62899902,-0.00008493
472.55780640,0.00040618
474.48661377,0.00011506
476.41542114,0.00004478
478.34422852,0.00037430
480.27303589,0.00028184
482.20184326,0.00050332
484.13065063,0.00016268
486.05945801,-0.00005058
487.98826538,-0.00018574
489.91707275,-0.00030068
491.84588013,0.00042752
493.77468750,0.00034936
495.70349487,-0.00003700
497.63230225,0.00002509
499.56110962,0.00009753
501.48991699,0.00017735
503.41872437,0.00025558
505.34753174,0.00003524
507.27633911,0.00021492
509.20514648,0.00034259
511.13395386,0.00018020
513.06276123,0.00021114
514.99156860,0.00005320
516.92037598,-0.00010504
518.84918335,-0.00010439
520.77799072,0.00020815
522.70679810,0.00026117
524.63560547,0.00032077
526.56441284,0.00043439
528.49322021,0.00020113
530.42202759,0.00008757
532.35083496,0.00005609
534.27964233,0.00015546
536.20844971,-0.00019987
538.13725708,-0.00019621
540.06606445,-0.00011441
541.99487183,-0.00032481
543.92367920,0.00015199
545.85248657,-0.00006117
547.78129395,0.00004103
549.71010132,0.00018073
551.63890869,-0.00015401
553.56771606,0.00033826
555.49652344,0.00018452
557.42533081,0.00000195
559.35413818,0.00057591
561.28294556,0.00046709
563.21175293,-0.00005215
565.14056030,0.00025611
567.06936768,0.00043510
568.99817505,0.00019413
570.92698242,0.00015274
572.85578979,-0.00000042
574.78459717,0.00033678
576.71340454,0.00060889
578.64221191,0.00021951
580.57101929,-0.00026795
582.49982666,0.00020590
584.42863403,0.00025678
586.35744141,-0.00001736
588.28624878,0.00012066
590.21505615,-0.00015720
592.14386353,0.00033809
594.07267090,0.00010579
596.00147827,0.00010081
597.93028564,0.00027749
599.85909302,-0.00008020
601.78790039,0.00042717
603.71670776,0.00020878
605.64551514,0.00011400
607.57432251,0.00015913
609.50312988,-0.00006285
611.43193726,0.00010715
613.36074463,0.00030319
615.28955200,0.00039761
617.21835938,-0.00015216
619.14716675,0.00002483
621.07597412,0.00018410
623.00478149,-0.00020066
624.93358887,0.00014284
626.86239624,0.00033270
628.79120361,0.00015826
630.72001099,0.00013743
632.64881836,0.00034808
634.57762573,0.00022709
636.50643311,0.00054874
638.43524048,0.00064778
640.36404785,0.00034907
642.29285522,0.00101274
644.22166260,0.00073057
646.15046997,0.00069930
648.07927734,0.00126719
650.00808472,0.00107444
651.93689209,0.00104264
653.86569946,0.00105176
655.79450684,0.00109472
657.72331421,0.00089539
659.65212158,0.00132780
661.58092896,0.00130897
663.50973633,0.00098773
665.43854370,0.00153156
667.36735107,0.00110292
669.29615845,0.00121748
671.22496582,0.00143786
673.15377319,0.00151946
675.08258057,0.00211881
677.01138794,0.00154571
678.94019531,0.00146534
680.86900269,0.00167927
682.79781006,0.00138652
684.72661743,0.00163104
686.65542480,0.00159561
688.58423218,0.00143916
690.51303955,0.00169157
692.44184692,0.00165897
694.37065430,0.00185824
696.29946167,0.00228294
698.22826904,0.00239137
700.15707642,0.00271428
702.08588379,0.00259325
704.01469116,0.00244402
705.94349854,0.00234508
707.87230591,0.00198218
709.80111328,0.00188192
711.72992065,0.00121143
713.65872803,0.00076681
715.58753540,0.00070558
717.51634277,0.00047362
719.44515015,0.00038011
721.37395752,0.00026252
723.30276489,-0.00001024
725.23157227,-0.00018601
727.16037964,0.00017281
729.08918701,-0.00003276
731.01799438,-0.00018815
732.94680176,-0.00001604
734.87560913,-0.00024167
736.80441650,0.00009634
738.73322388,0.00039081
740.66203125,0.00010145
742.59083862,-0.00004027
744.51964600,0.00009633
746.44845337,-0.00004907
748.37726074,0.00010751
750.30606812,0.00019919
752.23487549,0.00004041
754.16368286,0.00031869
756.09249023,0.00020734
758.02129761,0.00015943
759.95010498,0.00033509
761.87891235,0.00029592
763.80771973,0.00021424
765.73652710,0.00021076
767.66533447,0.00045370
769.59414185,0.00036953
771.52294922,-0.00009790
773.45175659,0.00020338
775.38056396,0.00057653
777.30937134,0.00045321
779.23817871,0.00046853
781.16698608,0.00017051
783.09579346,0.00029935
785.02460083,0.00048605
786.95340820,0.00028387
788.88221558,0.00059290
790.81102295,0.00030937
792.73983032,0.00002665
794.66863770,-0.00000139
796.59744507,0.00011487
798.52625244,0.00057286
800.45505981,0.00038271
802.38386719,0.00050003
804.31267456,0.00049921
806.24148193,0.00031516
808.17028931,0.00028501
810.09909668,0.00001615
812.02790405,0.00033827
813.95671143,0.00031316
815.88551880,0.00026185
817.81432617,0.00055926
819.74313354,0.00028821
821.67194092,0.00010539
823.60074829,0.00025450
825.52955566,0.00027923
827.45836304,0.00024718
829.38717041,0.00043428
831.31597778,0.00045921
833.24478516,0.00055311
835.17359253,0.00065768
837.10239990,0.00047231
839.03120728,0.00059388
840.96001465,0.00059236
842.88882202,0.00047310
844.81762939,0.00053074
846.74643677,0.00052504
848.67524414,0.00046233
850.60405151,0.00045516
852.53285889,0.00044079
854.46166626,0.00042891
856.39047363,0.00050261
858.31928101,0.00041285
860.24808838,0.00027258
862.17689575,0.00008524
864.10570313,0.00029992
866.03451050,0.00052290
867.96331787,0.00029718
869.89212524,0.00033613
871.82093262,0.00024192
873.74973999,0.00022071
875.67854736,0.00038397
877.60735474,0.00029335
879.53616211,0.00013835
881.46496948,0.00010741
883.39377686,0.00042693
885.32258423,0.00056274
887.25139160,0.00015207
889.18019897,-0.00000381
891.10900635,0.00027139
893.03781372,0.00040226
894.96662109,0.00038469
896.89542847,0.00022875
898.82423584,0.00028688
900.75304321,0.00051335
902.68185059,0.00028700
904.61065796,0.00018676
906.53946533,0.00034506
908.46827271,0.00033228
910.39708008,0.00044280
912.32588745,0.00060979
914.25469482,0.00061625
916.18350220,0.00056150
918.11230957,0.00047615
920.04111694,0.00072960
921.96992432,0.00094949
923.89873169,0.00052649
925.82753906,0.00053370
927.75634644,0.00083022
929.68515381,0.00081875
931.61396118,0.00090816
933.54276855,0.00073769
935.47157593,0.00062442
937.40038330,0.00088712
939.32919067,0.00112201
941.25799805,0.00089210
943.18680542,0.00089534
945.11561279,0.00116333
947.04442017,0.00082398
948.97322754,0.00102965
950.90203491,0.00122847
952.83084229,0.00099955
954.75964966,0.00105350
956.68845703,0.00090671
958.61726440,0.00091034
960.54607178,0.00100309
962.47487915,0.00091345
964.40368652,0.00081328
966.33249390,0.00125288
968.26130127,0.00135326
970.19010864,0.00105184
972.11891602,0.00139197
974.04772339,0.00130594
975.97653076,0.00153625
977.90533813,0.00178630
979.83414551,0.00159786
981.76295288,0.00174045
983.69176025,0.00179985
985.62056763,0.00223797
987.54937500,0.00232796
989.47818237,0.00258337
991.40698975,0.00297965
993.33579712,0.00301258
995.26460449,0.00354466
997.19341187,0.00360723
999.12221924,0.00390281
1001.05102661,0.00433325
1002.97983398,0.00432866
1004.90864136,0.00471517
1006.83744873,0.00503320
1008.76625610,0.00536548
1010.69506348,0.00573114
1012.62387085,0.00592632
1014.55267822,0.00627118
1016.48148560,0.00688021
1018.41029297,0.00724171
1020.33910034,0.00745325
1022.26790771,0.00764397
1024.19671509,0.00791257
1026.12552246,0.00846995
1028.05432983,0.00858634
1029.98313721,0.00880234
1031.91194458,0.00890514
1033.84075195,0.00894864
1035.76955933,0.00943437
1037.69836670,0.00929679
1039.62717407,0.00930215
1041.55598145,0.00958516
1043.48478882,0.00940885
1045.41359619,0.00928577
1047.34240356,0.00934999
1049.27121094,0.00899052
1051.20001831,0.00873216
1053.12882568,0.00897800
1055.05763306,0.00857783
1056.98644043,0.00840164
1058.91524780,0.00834289
1060.84405518,0.00778590
1062.77286255,0.00772711
1064.70166992,0.00749778
1066.63047729,0.00725676
1068.55928467,0.00707797
1070.48809204,0.00644758
1072.41689941,0.00621841
1074.34570679,0.00620304
1076.27451416,0.00581770
1078.20332153,0.00551724
1080.13212891,0.00529545
1082.06093628,0.00497610
1083.98974365,0.00475392
1085.91855103,0.00460801
1087.84735840,0.00453446
1089.77616577,0.00423671
1091.70497314,0.00403149
1093.63378052,0.00399670
1095.56258789,0.00380642
1097.49139526,0.00387024
1099.42020264,0.00369384
1101.34901001,0.00339023
1103.27781738,0.00346307
1105.20662476,0.00346844
1107.13543213,0.00335562
1109.06423950,0.00332184
1110.99304687,0.00335026
1112.92185425,0.00329472
1114.85066162,0.00333561
1116.77946899,0.00338082
1118.70827637,0.00330922
1120.63708374,0.00321047
1122.56589111,0.00315764
1124.49469849,0.00331580
1126.42350586,0.00323808
1128.35231323,0.00313843
1130.28112061,0.00349521
1132.20992798,0.00365944
1134.13873535,0.00362287
1136.06754272,0.00378947
1137.99635010,0.00401477
1139.92515747,0.00434757
1141.85396484,0.00462763
1143.78277222,0.00473459
1145.71157959,0.00491687
1147.64038696,0.00544805
1149.56919434,0.00594534
1151.49800171,0.00606453
1153.42680908,0.00633749
1155.35561646,0.00642990
1157.28442383,0.00660964
1159.21323120,0.00689968
1161.14203857,0.00692222
1163.07084595,0.00753498
1164.99965332,0.00801410
1166.92846069,0.00831676
1168.85726807,0.00852517
1170.78607544,0.00848839
1172.71488281,0.00895871
1174.64369019,0.00920397
1176.57249756,0.00944079
1178.50130493,0.00998828
1180.43011230,0.01053916
1182.35891968,0.01094931
1184.28772705,0.01139903
1186.21653442,0.01198899
1188.14534180,0.01235085
1190.07414917,0.01305794
1192.00295654,0.01350327
1193.93176392,0.01403513
1195.86057129,0.01496533
1197.78937866,0.01541287
1199.71818604,0.01604842
1201.64699341,0.01679092
1203.57580078,0.01746893
1205.50460815,0.01799287
1207.43341553,0.01879153
1209.36222290,0.01957753
1211.29103027,0.01980900
1213.21983765,0.02049126
1215.14864502,0.02112617
1217.07745239,0.02166326
1219.00625977,0.02206103
1220.93506714,0.02225376
1222.86387451,0.02258133
1224.79268188,0.02257339
1226.72148926,0.02291612
1228.65029663,0.02319670
1230.57910400,0.02305742
1232.50791138,0.02321762
1234.43671875,0.02323628
1236.36552612,0.02328284
1238.29433350,0.02344188
1240.22314087,0.02327973
1242.15194824,0.02329881
1244.08075562,0.02322513
1246.00956299,0.02304592
1247.93837036,0.02309201
1249.86717773,0.02270245
1251.79598511,0.02267153
1253.72479248,0.02268247
1255.65359985,0.02228725
1257.58240723,0.02215073
1259.51121460,0.02162688
1261.44002197,0.02136032
1263.36882935,0.02113749
1265.29763672,0.02070989
1267.22644409,0.02065761
1269.15525146,0.02025056
1271.08405884,0.01980122
1273.01286621,0.01965793
1274.94167358,0.01952388
1276.87048096,0.01905778
1278.79928833,0.01856388
1280.72809570,0.01834117
1282.65690308,0.01796351
1284.58571045,0.01754887
1286.51451782,0.01722523
1288.44332520,0.01695571
1290.37213257,0.01678144
1292.30093994,0.01666282
1294.22974731,0.01641002
1296.15855469,0.01658615
1298.08736206,0.01687393
1300.01616943,0.01652174
1301.94497681,0.01643797
1303.87378418,0.01669237
1305.80259155,0.01687150
1307.73139893,0.01703775
1309.66020630,0.01741791
1311.58901367,0.01772068
1313.51782104,0.01789009
1315.44662842,0.01832451
1317.37543579,0.01868919
1319.30424316,0.01920783
1321.23305054,0.01986283
1323.16185791,0.02064936
1325.09066528,0.02131195
1327.01947266,0.02194407
1328.94828003,0.02259547
1330.87708740,0.02289878
1332.80589478,0.02360411
1334.73470215,0.02404282
1336.66350952,0.02427199
1338.59231689,0.02391294
1340.52112427,0.02390404
1342.44993164,0.02541390
1344.37873901,0.02553682
1346.30754639,0.02548465
1348.23635376,0.02545734
1350.16516113,0.02505893
1352.09396851,0.02533489
1354.02277588,0.02473965
1355.95158325,0.02470329
1357.88039062,0.02466972
1359.80919800,0.02427253
1361.73800537,0.02308580
1363.66681274,0.02224213
1365.59562012,0.02391729
1367.52442749,0.02329265
1369.45323486,0.02300770
1371.38204224,0.02381758
1373.31084961,0.02232683
1375.23965698,0.02241878
1377.16846436,0.02292176
1379.09727173,0.02309661
1381.02607910,0.02304795
1382.95488647,0.02300734
1384.88369385,0.02314745
1386.81250122,0.02161421
1388.74130859,0.02226610
1390.67011597,0.02448000
1392.59892334,0.02347021
1394.52773071,0.02161197
1396.45653809,0.02294334
1398.38534546,0.02287550
1400.31415283,0.02254032
1402.24296021,0.02492405
1404.17176758,0.02318619
1406.10057495,0.02326627
1408.02938232,0.02473625
1409.95818970,0.02360775
1411.88699707,0.02425329
1413.81580444,0.02334479
1415.74461182,0.02372039
1417.67341919,0.02118205
1419.60222656,0.01849335
1421.53103394,0.02190227
1423.45984131,0.02132970
1425.38864868,0.02071986
1427.31745605,0.02133084
1429.24626343,0.01941826
1431.17507080,0.01861262
1433.10387817,0.01930999
1435.03268555,0.01768714
1436.96149292,0.01459315
1438.89030029,0.01692679
1440.81910767,0.01762860
1442.74791504,0.01629983
1444.67672241,0.01714951
1446.60552979,0.01561566
1448.53433716,0.01587129
1450.46314453,0.01647440
1452.39195190,0.01672696
1454.32075928,0.01721255
1456.24956665,0.01370811
1458.17837402,0.01418475
1460.10718140,0.01985256
1462.03598877,0.02133799
1463.96479614,0.02079177
1465.89360352,0.02165773
1467.82241089,0.02489680
1469.75121826,0.02681909
1471.68002563,0.02325473
1473.60883301,0.02437669
1475.53764038,0.02824659
1477.46644775,0.03049385
1479.39525513,0.03387360
1481.32406250,0.03430254
1483.25286987,0.03665253
1485.18167725,0.03786194
1487.11048462,0.03679382
1489.03929199,0.03618546
1490.96809937,0.03604583
1492.89690674,0.04294878
1494.82571411,0.04200288
1496.75452148,0.03687430
1498.68332886,0.04231563
1500.61213623,0.04396728
1502.54094360,0.04761378
1504.46975098,0.04476917
1506.39855835,0.03020703
1508.32736572,0.03772974
1510.25617310,0.04616226
1512.18498047,0.04458673
1514.11378784,0.04907527
1516.04259521,0.04321212
1517.97140259,0.04521544
1519.90020996,0.04398962
1521.82901733,0.03641889
1523.75782471,0.04640915
1525.68663208,0.04557320
1527.61543945,0.04504579
1529.54424683,0.05132118
1531.47305420,0.04896697
1533.40186157,0.04382706
1535.33066895,0.04691713
1537.25947632,0.05152703
1539.18828369,0.03450866
1541.11709106,0.03575749
1543.04589844,0.04494897
1544.97470581,0.04251303
1546.90351318,0.05249921
1548.83232056,0.04835048
1550.76112793,0.04967235
1552.68993530,0.05017089
1554.61874268,0.04434795
1556.54755005,0.04824484
1558.47635742,0.03174098
1560.40516479,0.03424873
1562.33397217,0.05293198
1564.26277954,0.04971549
1566.19158691,0.05143178
1568.12039429,0.05076734
1570.04920166,0.04370070
1571.97800903,0.05205245
1573.90681641,0.05308367
1575.83562378,0.04031948
1577.76443115,0.04647398
1579.69323853,0.05379295
1581.62204590,0.05131890
1583.55085327,0.05285429
1585.47966064,0.05208652
1587.40846802,0.05260814
1589.33727539,0.05191705
1591.26608276,0.05192006
1593.19489014,0.05227114
1595.12369751,0.05154037
1597.05250488,0.05227450
1598.98131226,0.05192703
1600.91011963,0.05235893
1602.83892700,0.05119849
1604.76773437,0.05234875
1606.69654175,0.05151979
1608.62534912,0.05122980
1610.55415649,0.05141354
1612.48296387,0.05167912
1614.41177124,0.05267011
1616.34057861,0.04173598
1618.26938599,0.04559508
1620.19819336,0.05476386
1622.12700073,0.04761992
1624.05580811,0.04784253
1625.98461548,0.05073221
1627.91342285,0.05026868
1629.84223022,0.04998618
1631.77103760,0.05394480
1633.69984497,0.04928864
1635.62865234,0.03887704
1637.55745972,0.04641258
1639.48626709,0.05249543
1641.41507446,0.05106052
1643.34388184,0.05276763
1645.27268921,0.04682688
1647.20149658,0.03960496
1649.13030396,0.05125365
1651.05911133,0.04908334
1652.98791870,0.02870097
1654.91672607,0.04097511
1656.84553345,0.05411936
1658.77434082,0.05157895
1660.70314819,0.05330282
1662.63195557,0.04764714
1664.56076294,0.05033966
1666.48957031,0.05522029
1668.41837769,0.04702029
1670.34718506,0.04495869
1672.27599243,0.05262111
1674.20479980,0.04812170
1676.13360718,0.04552565
1678.06241455,0.05389168
1679.99122192,0.05154597
1681.92002930,0.05074003
1683.84883667,0.03992939
1685.77764404,0.03928272
1687.70645142,0.05719098
1689.63525879,0.04848370
1691.56406616,0.05418401
1693.49287354,0.05594946
1695.42168091,0.03809779
1697.35048828,0.04914916
1699.27929565,0.04244444
1701.20810303,0.03654394
1703.13691040,0.05362283
1705.06571777,0.04864402
1706.99452515,0.04882454
1708.92333252,0.05442929
1710.85213989,0.05198921
1712.78094727,0.05292378
1714.70975464,0.04847129
1716.63856201,0.04267768
1718.56736938,0.04170275
1720.49617676,0.05102353
1722.42498413,0.05383021
1724.35379150,0.04916065
1726.28259888,0.05453491
1728.21140625,0.04993962
1730.14021362,0.04997680
1732.06902100,0.04906625
1733.99782837,0.03516153
1735.92663574,0.04547752
1737.85544312,0.05166210
1739.78425049,0.04478971
1741.71305786,0.04943125
1743.64186523,0.05016732
1745.57067261,0.05021461
1747.49947998,0.05054930
1749.42828735,0.04803477
1751.35709473,0.04566597
1753.28590210,0.05150168
1755.21470947,0.05457374
1757.14351685,0.04859041
1759.07232422,0.05447681
1761.00113159,0.05088525
1762.92993896,0.04846512
1764.85874634,0.05715008
1766.78755371,0.05052766
1768.71636108,0.05101964
1770.64516846,0.05074010
1772.57397583,0.04446299
1774.50278320,0.05064877
1776.43159058,0.05426046
1778.36039795,0.05343280
1780.28920532,0.05235363
1782.21801270,0.05302753
1784.14682007,0.05311471
1786.07562744,0.05174481
1788.00443481,0.05506276
1789.93324219,0.05350392
1791.86204956,0.04731931
1793.79085693,0.04962818
1795.71966431,0.05404556
1797.64847168,0.05321723
1799.57727905,0.05235621
1801.50608643,0.05128868
1803.43489380,0.05329294
1805.36370117,0.05486649
1807.29250854,0.05393165
1809.22131592,0.05420454
1811.15012329,0.05242982
1813.07893066,0.05434597
1815.00773804,0.05476605
1816.93654541,0.05399743
1818.86535278,0.05450103
1820.79416016,0.05421876
1822.72296753,0.05536630
1824.65177490,0.05084974
1826.58058228,0.05304650
1828.50938965,0.05338372
1830.43819702,0.04906709
1832.36700439,0.05456131
1834.29581177,0.05434235
1836.22461914,0.05424357
1838.15342651,0.05412944
1840.08223389,0.05444959
1842.01104126,0.05464765
1843.93984863,0.04720710
1845.86865601,0.05107121
1847.79746338,0.05455462
1849.72627075,0.05298993
1851.65507812,0.05495204
1853.58388550,0.05357690
1855.51269287,0.05432095
1857.44150024,0.05408070
1859.37030762,0.05362262
1861.29911499,0.05403808
1863.22792236,0.05344369
1865.15672974,0.05425249
1867.08553711,0.05193732
1869.01434448,0.04931382
1870.94315186,0.05178605
1872.87195923,0.05428027
1874.80076660,0.05313333
1876.72957397,0.05359141
1878.65838135,0.05370857
1880.58718872,0.05316234
1882.51599609,0.05365985
1884.44480347,0.05262589
1886.37361084,0.05362247
1888.30241821,0.05222292
1890.23122559,0.05087782
1892.16003296,0.05343389
1894.08884033,0.05246254
1896.01764771,0.05209541
1897.94645508,0.05296639
1899.87526245,0.05265292
1901.80406982,0.05289536
1903.73287720,0.05247132
1905.66168457,0.05273197
1907.59049194,0.05222471
1909.51929932,0.05180174
1911.44810669,0.05213376
1913.37691406,0.05222447
1915.30572144,0.05293866
1917.23452881,0.05018198
1919.16333618,0.05012871
1921.09214355,0.05259488
1923.02095093,0.05045513
1924.94975830,0.05167028
1926.87856567,0.05256951
1928.80737305,0.05171247
1930.73618042,0.05256031
1932.66498779,0.05162585
1934.59379517,0.05223605
1936.52260254,0.05185587
1938.45140991,0.05201392
1940.38021729,0.05224623
1942.30902466,0.05009848
1944.23783203,0.05118014
1946.16663940,0.05182923
1948.09544678,0.05176540
1950.02425415,0.05205403
1951.95306152,0.05166059
1953.88186890,0.05195021
1955.81067627,0.05164818
1957.73948364,0.05188886
1959.66829102,0.05189978
1961.59709839,0.05159744
1963.52590576,0.05191613
1965.45471313,0.05151979
1967.38352051,0.05084247
1969.31232788,0.05137847
1971.24113525,0.05183541
1973.16994263,0.05141122
1975.09875000,0.05154669
1977.02755737,0.05134813
1978.95636475,0.05156525
1980.88517212,0.05147292
1982.81397949,0.05109674
1984.74278687,0.05153989
1986.67159424,0.05104734
1988.60040161,0.05116004
1990.52920898,0.05068737
1992.45801636,0.04994173
1994.38682373,0.05096705
1996.31563110,0.05103832
1998.24443848,0.05069738
2000.17324585,0.05087451
2002.10205322,0.05066532
2004.03086060,0.05055045
2005.95966797,0.05055666
2007.88847534,0.05048102
2009.81728271,0.05044324
2011.74609009,0.05027144
2013.67489746,0.05032305
2015.60370483,0.04990740
2017.53251221,0.04933750
2019.46131958,0.04995939
2021.39012695,0.05002705
2023.31893433,0.04973453
2025.24774170,0.04966185
2027.17654907,0.04952163
2029.10535645,0.04967213
2031.03416382,0.04936857
2032.96297119,0.04937354
2034.89177856,0.04942569
2036.82058594,0.04923216
2038.74939331,0.04917002
2040.67820068,0.04883856
2042.60700806,0.04876058
2044.53581543,0.04884911
2046.46462280,0.04886974
2048.39343018,0.04881056
2050.32223755,0.04856991
2052.25104492,0.04846530
2054.17985229,0.04853470
2056.10865967,0.04835746
2058.03746704,0.04827702
2059.96627441,0.04827425
2061.89508179,0.04819722
2063.82388916,0.04797946
2065.75269653,0.04761701
2067.68150391,0.04794849
2069.61031128,0.04782391
2071.53911865,0.04767973
2073.46792603,0.04782732
2075.39673340,0.04744762
2077.32554077,0.04754298
2079.25434814,0.04729657
2081.18315552,0.04734990
2083.11196289,0.04745954
2085.04077026,0.04716438
2086.96957764,0.04729056
2088.89838501,0.04697066
2090.82719238,0.04693500
2092.75599976,0.04695004
2094.68480713,0.04688345
2096.61361450,0.04679122
2098.54242187,0.04662935
2100.47122925,0.04673719
2102.40003662,0.04656199
2104.32884399,0.04669194
2106.25765137,0.04646963
2108.18645874,0.04616858
2110.11526611,0.04636229
2112.04407349,0.04629222
2113.97288086,0.04611468
2115.90168823,0.04600986
2117.83049561,0.04607294
2119.75930298,0.04597965
2121.68811035,0.04610982
2123.61691772,0.04599633
2125.54572510,0.04579266
2127.47453247,0.04602011
2129.40333984,0.04578547
2131.33214722,0.04574902
2133.26095459,0.04578227
2135.18976196,0.04573681
2137.11856934,0.04573214
2139.04737671,0.04550365
2140.97618408,0.04546956
2142.90499146,0.04542780
2144.83379883,0.04546387
2146.76260620,0.04541607
2148.69141357,0.04538666
2150.62022095,0.04543712
2152.54902832,0.04525148
2154.47783569,0.04522496
2156.40664307,0.04517106
2158.33545044,0.04509345
2160.26425781,0.04511395
2162.19306519,0.04495514
2164.12187256,0.04495884
2166.05067993,0.04507184
2167.97948730,0.04488696
2169.90829468,0.04478233
2171.83710205,0.04479042
2173.76590942,0.04467573
2175.69471680,0.04466166
2177.62352417,0.04469221
2179.55233154,0.04466249
2181.48113892,0.04464493
2183.40994629,0.04456430
2185.33875366,0.04448108
2187.26756104,0.04456521
2189.19636841,0.04439769
2191.12517578,0.04425608
2193.05398315,0.04453744
2194.98279053,0.04441528
2196.91159790,0.04415604
2198.84040527,0.04427101
2200.76921265,0.04422872
2202.69802002,0.04409441
2204.62682739,0.04415408
2206.55563477,0.04405514
2208.48444214,0.04399819
2210.41324951,0.04404607
2212.34205688,0.04387186
2214.27086426,0.04394957
2216.19967163,0.04392542
2218.12847900,0.04379547
2220.05728638,0.04382023
2221.98609375,0.04367580
2223.91490112,0.04370391
2225.84370850,0.04367259
2227.77251587,0.04356612
2229.70132324,0.04350089
2231.63013062,0.04341564
2233.55893799,0.04335921
2235.48774536,0.04330312
2237.41655273,0.04333810
2239.34536011,0.04321388
2241.27416748,0.04315156
2243.20297485,0.04309693
2245.13178223,0.04303414
2247.06058960,0.04313670
2248.98939697,0.04302033
2250.91820435,0.04280667
2252.84701172,0.04277762
2254.77581909,0.04278325
2256.70462646,0.04269311
2258.63343384,0.04266534
2260.56224121,0.04252400
2262.49104858,0.04251064
2264.41985596,0.04256697
2266.34866333,0.04244113
2268.27747070,0.04247252
2270.20627808,0.04227877
2272.13508545,0.04220523
2274.06389282,0.04231188
2275.99270020,0.04224265
2277.92150757,0.04222785
2279.85031494,0.04223426
2281.77912231,0.04225277
2283.70792969,0.04213118
2285.63673706,0.04213919
2287.56554443,0.04200007
2289.49435181,0.04178683
2291.42315918,0.04186951
2293.35196655,0.04172737
2295.28077393,0.04157130
2297.20958130,0.04147823
2299.13838867,0.04135395
2301.06719604,0.04133629
2302.99600342,0.04119893
2304.92481079,0.04088587
2306.85361816,0.04078088
2308.78242554,0.04045635
2310.71123291,0.03995994
2312.64004028,0.03987593
2314.56884766,0.03939592
2316.49765503,0.03891620
2318.42646240,0.03856399
2320.35526978,0.03795769
2322.28407715,0.03755200
2324.21288452,0.03703604
2326.14169189,0.03666658
2328.07049927,0.03637239
2329.99930664,0.03584783
2331.92811401,0.03551891
2333.85692139,0.03545274
2335.78572876,0.03531761
2337.71453613,0.03527366
2339.64334351,0.03530753
2341.57215088,0.03539334
2343.50095825,0.03587773
2345.42976562,0.03645647
2347.35857300,0.03791880
2349.28738037,0.03897373
2351.21618774,0.03786673
2353.14499512,0.03627443
2355.07380249,0.03487960
2357.00260986,0.03390374
2358.93141724,0.03325590
2360.86022461,0.03283366
2362.78903198,0.03284278
2364.71783936,0.03302618
2366.64664673,0.03356104
2368.57545410,0.03416179
2370.50426147,0.03484327
2372.43306885,0.03565257
2374.36187622,0.03669435
2376.29068359,0.03759071
2378.21949097,0.03831168
2380.14829834,0.03912102
2382.07710571,0.03939910
2384.00591309,0.03962806
2385.93472046,0.03968846
2387.86352783,0.03961870
2389.79233521,0.03973367
2391.72114258,0.03976127
2393.64994995,0.03978098
2395.57875732,0.03963839
2397.50756470,0.03958987
2399.43637207,0.03949115
2401.36517944,0.03953113
2403.29398682,0.03962497
2405.22279419,0.03949590
2407.15160156,0.03942787
2409.08040894,0.03930915
2411.00921631,0.03927409
2412.93802368,0.03914741
2414.86683105,0.03916853
2416.79563843,0.03915494
2418.72444580,0.03910247
2420.65325317,0.03918348
2422.58206055,0.03891959
2424.51086792,0.03887500
2426.43967529,0.03899293
2428.36848267,0.03907716
2430.29729004,0.03894592
2432.22609741,0.03870643
2434.15490479,0.03871001
2436.08371216,0.03868365
2438.01251953,0.03874148
2439.94132690,0.03856710
2441.87013428,0.03854301
2443.79894165,0.03859891
2445.72774902,0.03840870
2447.65655640,0.03848529
2449.58536377,0.03843510
2451.51417114,0.03833645
2453.44297852,0.03836140
2455.37178589,0.03836413
2457.30059326,0.03826519
2459.22940063,0.03819054
2461.15820801,0.03830221
2463.08701538,0.03812797
2465.01582275,0.03790056
2466.94463013,0.03800543
2468.87343750,0.03809001
2470.80224487,0.03806975
2472.73105225,0.03796608
2474.65985962,0.03782136
2476.58866699,0.03789850
2478.51747437,0.03783281
2480.44628174,0.03768083
2482.37508911,0.03764662
2484.30389648,0.03761193
2486.23270386,0.03777801
2488.16151123,0.03761474
2490.09031860,0.03748039
2492.01912598,0.03753214
2493.94793335,0.03741759
2495.87674072,0.03741695
2497.80554810,0.03729794
2499.73435547,0.03738711
2501.66316284,0.03730122
2503.59197021,0.03708151
2505.52077759,0.03715274
2507.44958496,0.03714794
2509.37839233,0.03722142
2511.30719971,0.03703491
2513.23600708,0.03698242
2515.16481445,0.03706466
2517.09362183,0.03692435
2519.02242920,0.03696816
2520.95123657,0.03696137
2522.88004395,0.03687237
2524.80885132,0.03674657
2526.73765869,0.03675598
2528.66646606,0.03671847
2530.59527344,0.03660728
2532.52408081,0.03670669
2534.45288818,0.03668113
2536.38169556,0.03655408
2538.31050293,0.03648648
2540.23931030,0.03660366
2542.16811768,0.03654794
2544.09692505,0.03635513
2546.02573242,0.03634497
2547.95453979,0.03621465
2549.88334717,0.03620612
2551.81215454,0.03621137
2553.74096191,0.03613320
2555.66976929,0.03610077
2557.59857666,0.03600564
2559.52738403,0.03603763
2561.45619141,0.03608716
2563.38499878,0.03608622
2565.31380615,0.03603385
2567.24261353,0.03589893
2569.17142090,0.03575011
2571.10022827,0.03573562
2573.02903564,0.03582223
2574.95784302,0.03568462
2576.88665039,0.03566920
2578.81545776,0.03573013
2580.74426514,0.03561136
2582.67307251,0.03563409
2584.60187988,0.03559040
2586.53068726,0.03552870
2588.45949463,0.03542411
2590.38830200,0.03526478
2592.31710937,0.03536649
2594.24591675,0.03541468
2596.17472412,0.03535027
2598.10353149,0.03525595
2600.03233887,0.03518356
2601.96114624,0.03512991
2603.88995361,0.03512429
2605.81876099,0.03512322
2607.74756836,0.03498396
2609.67637573,0.03501814
2611.60518311,0.03490814
2613.53399048,0.03488870
2615.46279785,0.03498244
2617.39160522,0.03476250
2619.32041260,0.03478926
2621.24921997,0.03471664
2623.17802734,0.03461511
2625.10683472,0.03462736
2627.03564209,0.03453295
2628.96444946,0.03457726
2630.89325684,0.03457744
2632.82206421,0.03455038
2634.75087158,0.03443366
2636.67967895,0.03445823
2638.60848633,0.03445931
2640.53729370,0.03434881
2642.46610107,0.03432534
2644.39490845,0.03418104
2646.32371582,0.03427731
2648.25252319,0.03432762
2650.18133057,0.03422920
2652.11013794,0.03410650
2654.03894531,0.03398135
2655.96775269,0.03398180
2657.89656006,0.03396291
2659.82536743,0.03397527
2661.75417480,0.03378485
2663.68298218,0.03377628
2665.61178955,0.03376389
2667.54059692,0.03362892
2669.46940430,0.03369723
2671.39821167,0.03356732
2673.32701904,0.03358991
2675.25582642,0.03362919
2677.18463379,0.03354724
2679.11344116,0.03344837
2681.04224854,0.03345075
2682.97105591,0.03354346
2684.89986328,0.03335536
2686.82867065,0.03333194
2688.75747803,0.03328826
2690.68628540,0.03321324
2692.61509277,0.03318916
2694.54390015,0.03310687
2696.47270752,0.03318108
2698.40151489,0.03317048
2700.33032227,0.03317336
2702.25912964,0.03303958
2704.18793701,0.03294222
2706.11674438,0.03292799
2708.04555176,0.03279006
2709.97435913,0.03284217
2711.90316650,0.03281932
2713.83197388,0.03274109
2715.76078125,0.03271128
2717.68958862,0.03257211
2719.61839600,0.03251456
2721.54720337,0.03258989
2723.47601074,0.03253483
2725.40481812,0.03250014
2727.33362549,0.03248647
2729.26243286,0.03231737
2731.19124023,0.03230329
2733.12004761,0.03220247
2735.04885498,0.03214631
2736.97766235,0.03222086
2738.90646973,0.03217274
2740.83527710,0.03218184
2742.76408447,0.03211658
2744.69289185,0.03207047
2746.62169922,0.03199064
2748.55050659,0.03192217
2750.47931396,0.03188683
2752.40812134,0.03182460
2754.33692871,0.03183871
2756.26573608,0.03171440
2758.19454346,0.03168184
2760.12335083,0.03162341
2762.05215820,0.03146893
2763.98096558,0.03158335
2765.90977295,0.03166667
2767.83858032,0.03148162
2769.76738770,0.03141690
2771.69619507,0.03141581
2773.62500244,0.03124582
2775.55380981,0.03129932
2777.48261719,0.03126386
2779.41142456,0.03114175
2781.34023193,0.03117045
2783.26903931,0.03109877
2785.19784668,0.03107739
2787.12665405,0.03088753
2789.05546143,0.03082143
2790.98426880,0.03088000
2792.91307617,0.03070325
2794.84188354,0.03073567
2796.77069092,0.03074837
2798.69949829,0.03057624
2800.62830566,0.03060763
2802.55711304,0.03064262
2804.48592041,0.03043874
2806.41472778,0.03035950
2808.34353516,0.03039360
2810.27234253,0.03037193
2812.20114990,0.03030310
2814.12995728,0.03015997
2816.05876465,0.03015662
2817.98757202,0.03007261
2819.91637939,0.02995239
2821.84518677,0.02996213
2823.77399414,0.02995151
2825.70280151,0.02989415
2827.63160889,0.02971788
2829.56041626,0.02973436
2831.48922363,0.02979649
2833.41803101,0.02961798
2835.34683838,0.02951046
2837.27564575,0.02947383
2839.20445312,0.02932394
2841.13326050,0.02911155
2843.06206787,0.02900063
2844.99087524,0.02892215
2846.91968262,0.02866591
2848.84848999,0.02845597
2850.77729736,0.02846951
2852.70610474,0.02845619
2854.63491211,0.02858867
2856.56371948,0.02868965
2858.49252686,0.02857338
2860.42133423,0.02862783
2862.35014160,0.02860975
2864.27894897,0.02859040
2866.20775635,0.02858151
2868.13656372,0.02849035
2870.06537109,0.02849193
2871.99417847,0.02835295
2873.92298584,0.02829569
2875.85179321,0.02828863
2877.78060059,0.02815606
2879.70940796,0.02811509
2881.63821533,0.02815084
2883.56702270,0.02817136
2885.49583008,0.02812970
2887.42463745,0.02802945
2889.35344482,0.02791820
2891.28225220,0.02787783
2893.21105957,0.02779220
2895.13986694,0.02775696
2897.06867432,0.02771478
2898.99748169,0.02753769
2900.92628906,0.02752474
2902.85509644,0.02750051
2904.78390381,0.02730927
2906.71271118,0.02722794
2908.64151855,0.02724508
2910.57032593,0.02706764
2912.49913330,0.02690400
2914.42794067,0.02675223
2916.35674805,0.02654058
2918.28555542,0.02659406
2920.21436279,0.02658629
2922.14317017,0.02660666
2924.07197754,0.02663105
2926.00078491,0.02656925
2927.92959229,0.02665335
2929.85839966,0.02663492
2931.78720703,0.02672161
2933.71601440,0.02675765
2935.64482178,0.02677747
2937.57362915,0.02690292
2939.50243652,0.02685387
2941.43124390,0.02683117
2943.36005127,0.02679249
2945.28885864,0.02688600
2947.21766602,0.02686834
2949.14647339,0.02664163
2951.07528076,0.02665842
2953.00408813,0.02657750
2954.93289551,0.02642389
2956.86170288,0.02639190
2958.79051025,0.02633531
2960.71931763,0.02636476
2962.64812500,0.02630791
2964.57693237,0.02623016
2966.50573975,0.02634765
2968.43454712,0.02627976
2970.36335449,0.02623435
2972.29216187,0.02635130
2974.22096924,0.02640241
2976.14977661,0.02648213
2978.07858398,0.02636769
2980.00739136,0.02635136
2981.93619873,0.02643718
2983.86500610,0.02640864
2985.79381348,0.02640448
2987.72262085,0.02626836
2989.65142822,0.02625030
2991.58023560,0.02623455
2993.50904297,0.02615829
2995.43785034,0.02614893
2997.36665771,0.02610978
2999.29546509,0.02609299
3001.22427246,0.02608200
3003.15307983,0.02605627
3005.08188721,0.02589423
3007.01069458,0.02590165
3008.93950195,0.02585622
3010.86830933,0.02577112
3012.79711670,0.02587559
3014.72592407,0.02565741
3016.65473145,0.02563843
3018.58353882,0.02566827
3020.51234619,0.02548438
3022.44115356,0.02550831
3024.36996094,0.02546410
3026.29876831,0.02541178
3028.22757568,0.02534037
3030.15638306,0.02525220
3032.08519043,0.02515519
3034.01399780,0.02510071
3035.94280518,0.02514929
3037.87161255,0.02509509
3039.80041992,0.02507513
3041.72922729,0.02503461
3043.65803467,0.02499168
3045.58684204,0.02490073
3047.51564941,0.02475716
3049.44445679,0.02476578
3051.37326416,0.02477387
3053.30207153,0.02478066
3055.23087891,0.02466029
3057.15968628,0.02449719
3059.08849365,0.02456217
3061.01730103,0.02460395
3062.94610840,0.02449461
3064.87491577,0.02433078
3066.80372314,0.02423222
3068.73253052,0.02427758
3070.66133789,0.02430334
3072.59014526,0.02421822
3074.51895264,0.02422996
3076.44776001,0.02423913
3078.37656738,0.02412752
3080.30537476,0.02410380
3082.23418213,0.02404461
3084.16298950,0.02405324
3086.09179687,0.02404472
3088.02060425,0.02388100
3089.94941162,0.02391688
3091.87821899,0.02380468
3093.80702637,0.02377527
3095.73583374,0.02388116
3097.66464111,0.02366253
3099.59344849,0.02364528
3101.52225586,0.02354267
3103.45106323,0.02348830
3105.37987061,0.02360369
3107.30867798,0.02342937
3109.23748535,0.02345768
3111.16629272,0.02339690
3113.09510010,0.02327405
3115.02390747,0.02328100
3116.95271484,0.02314996
3118.88152222,0.02309797
3120.81032959,0.02297897
3122.73913696,0.02286949
3124.66794434,0.02296020
3126.59675171,0.02303262
3128.52555908,0.02290323
3130.45436645,0.02283607
3132.38317383,0.02274846
3134.31198120,0.02259400
3136.24078857,0.02255609
3138.16959595,0.02249936
3140.09840332,0.02264002
3142.02721069,0.02251645
3143.95601807,0.02236493
3145.88482544,0.02238532
3147.81363281,0.02223065
3149.74244019,0.02232146
3151.67124756,0.02213416
3153.60005493,0.02201134
3155.52886230,0.02203406
3157.45766968,0.02184320
3159.38647705,0.02188841
3161.31528442,0.02182247
3163.24409180,0.02178723
3165.17289917,0.02176755
3167.10170654,0.02172634
3169.03051392,0.02171001
3170.95932129,0.02161952
3172.88812866,0.02157898
3174.81693604,0.02149177
3176.74574341,0.02147209
3178.67455078,0.02138162
3180.60335815,0.02134342
3182.53216553,0.02124344
3184.46097290,0.02116763
3186.38978027,0.02126214
3188.31858765,0.02119461
3190.24739502,0.02115982
3192.17620239,0.02103572
3194.10500977,0.02105637
3196.03381714,0.02099696
3197.96262451,0.02080055
3199.89143188,0.02092289
3201.82023926,0.02083749
3203.74904663,0.02069676
3205.67785400,0.02065235
3207.60666138,0.02063891
3209.53546875,0.02063197
3211.46427612,0.02054421
3213.39308350,0.02051325
3215.32189087,0.02040310
3217.25069824,0.02037789
3219.17950562,0.02042297
3221.10831299,0.02034046
3223.03712036,0.02033662
3224.96592773,0.02041039
3226.89473511,0.02034361
3228.82354248,0.02027372
3230.75234985,0.02010985
3232.68115723,0.02007624
3234.60996460,0.02026541
3236.53877197,0.02010472
3238.46757935,0.02013041
3240.39638672,0.02021493
3242.32519409,0.02001711
3244.25400146,0.01990815
3246.18280884,0.01986689
3248.11161621,0.01997159
3250.04042358,0.01991143
3251.96923096,0.01989099
3253.89803833,0.01990073
3255.82684570,0.01979633
3257.75565308,0.01985261
3259.68446045,0.01988980
3261.61326782,0.01984836
3263.54207520,0.01970607
3265.47088257,0.01974419
3267.39968994,0.01976324
3269.32849731,0.01974446
3271.25730469,0.01977747
3273.18611206,0.01962708
3275.11491943,0.01962676
3277.04372681,0.01953714
3278.97253418,0.01954591
3280.90134155,0.01970113
3282.83014893,0.01961379
3284.75895630,0.01961938
3286.68776367,0.01961097
3288.61657104,0.01948225
3290.54537842,0.01947709
3292.47418579,0.01945102
3294.40299316,0.01937616
3296.33180054,0.01946547
3298.26060791,0.01938460
3300.18941528,0.01932658
3302.11822266,0.01945546
3304.04703003,0.01935918
3305.97583740,0.01924570
3307.90464478,0.01916141
3309.83345215,0.01918585
3311.76225952,0.01926148
3313.69106689,0.01923697
3315.61987427,0.01922653
3317.54868164,0.01920417
3319.47748901,0.01908845
3321.40629639,0.01906181
3323.33510376,0.01921257
3325.26391113,0.01909281
3327.19271851,0.01904531
3329.12152588,0.01899164
3331.05033325,0.01886084
3332.97914062,0.01900080
3334.90794800,0.01890299
3336.83675537,0.01891834
3338.76556274,0.01902208
3340.69437012,0.01896079
3342.62317749,0.01895202
3344.55198486,0.01883104
3346.48079224,0.01873766
3348.40959961,0.01874952
3350.33840698,0.01869897
3352.26721436,0.01864150
3354.19602173,0.01876226
3356.12482910,0.01870895
3358.05363647,0.01863487
3359.98244385,0.01858854
3361.91125122,0.01853401
3363.84005859,0.01865716
3365.76886597,0.01842480
3367.69767334,0.01834583
3369.62648071,0.01846043
3371.55528809,0.01841369
3373.48409546,0.01837203
3375.41290283,0.01829808
3377.34171020,0.01837832
3379.27051758,0.01833883
3381.19932495,0.01827276
3383.12813232,0.01821819
3385.05693970,0.01814291
3386.98574707,0.01808215
3388.91455444,0.01806851
3390.84336182,0.01807473
3392.77216919,0.01792636
3394.70097656,0.01800117
3396.62978394,0.01792552
3398.55859131,0.01780558
3400.48739868,0.01788504
3402.41620605,0.01787534
3404.34501343,0.01786872
3406.27382080,0.01781424
3408.20262817,0.01785536
3410.13143555,0.01781544
3412.06024292,0.01774963
3413.98905029,0.01767303
3415.91785767,0.01770807
3417.84666504,0.01776954
3419.77547241,0.01753397
3421.70427979,0.01750244
3423.63308716,0.01758122
3425.56189453,0.01755931
3427.49070190,0.01747693
3429.41950928,0.01752438
3431.34831665,0.01748057
3433.27712402,0.01743770
3435.20593140,0.01748284
3437.13473877,0.01728109
3439.06354614,0.01741013
3440.99235352,0.01725571
3442.92116089,0.01714099
3444.84996826,0.01729528
3446.77877563,0.01693496
3448.70758301,0.01700138
3450.63639038,0.01723541
3452.56519775,0.01717085
3454.49400513,0.01713739
3456.42281250,0.01710929
3458.35161987,0.01706103
3460.28042725,0.01703653
3462.20923462,0.01691863
3464.13804199,0.01693759
3466.06684937,0.01708514
3467.99565674,0.01690523
3469.92446411,0.01703618
3471.85327148,0.01699569
3473.78207886,0.01673450
3475.71088623,0.01676270
3477.63969360,0.01684408
3479.56850098,0.01691981
3481.49730835,0.01658934
3483.42611572,0.01671332
3485.35492310,0.01685717
3487.28373047,0.01669514
3489.21253784,0.01679868
3491.14134521,0.01678691
3493.07015259,0.01683817
3494.99895996,0.01673246
3496.92776733,0.01669754
3498.85657471,0.01674446
3500.78538208,0.01674818
3502.71418945,0.01633897
3504.64299683,0.01625702
3506.57180420,0.01684533
3508.50061157,0.01652476
3510.42941895,0.01648712
3512.35822632,0.01667839
3514.28703369,0.01667993
3516.21584106,0.01682454
3518.14464844,0.01657240
3520.07345581,0.01669173
3522.00226318,0.01651738
3523.93107056,0.01618729
3525.85987793,0.01621351
3527.78868530,0.01624377
3529.71749268,0.01643422
3531.64630005,0.01657059
3533.57510742,0.01669163
3535.50391479,0.01652072
3537.43272217,0.01637325
3539.36152954,0.01663247
3541.29033691,0.01665007
3543.21914429,0.01636678
3545.14795166,0.01606014
3547.07675903,0.01578947
3549.00556641,0.01630564
3550.93437378,0.01648883
3552.86318115,0.01598013
3554.79198853,0.01641031
3556.72079590,0.01649573
3558.64960327,0.01639776
3560.57841064,0.01628728
3562.50721802,0.01615674
3564.43602539,0.01638153
3566.36483276,0.01497959
3568.29364014,0.01448881
3570.22244751,0.01602926
3572.15125488,0.01651188
3574.08006226,0.01636015
3576.00886963,0.01642014
3577.93767700,0.01629610
3579.86648437,0.01627875
3581.79529175,0.01622836
3583.72409912,0.01641915
3585.65290649,0.01602611
3587.58171387,0.01429310
3589.51052124,0.01495001
3591.43932861,0.01651929
3593.36813599,0.01588644
3595.29694336,0.01562246
3597.22575073,0.01592536
3599.15455811,0.01613035
3601.08336548,0.01589813
3603.01217285,0.01601215
3604.94098022,0.01646701
3606.86978760,0.01580660
3608.79859497,0.01461680
3610.72740234,0.01497483
3612.65620972,0.01545505
3614.58501709,0.01491949
3616.51382446,0.01624408
3618.44263184,0.01480425
3620.37143921,0.01410226
3622.30024658,0.01638720
3624.22905395,0.01587230
3626.15786133,0.01672527
3628.08666870,0.01382430
3630.01547607,0.01230738
3631.94428345,0.01620939
3633.87309082,0.01565226
3635.80189819,0.01594364
3637.73070557,0.01636604
3639.65951294,0.01601557
3641.58832031,0.01625202
3643.51712769,0.01599825
3645.44593506,0.01610309
3647.37474243,0.01418719
3649.30354980,0.01289583
3651.23235718,0.01305048
3653.16116455,0.01592807
3655.08997192,0.01580138
3657.01877930,0.01372667
3658.94758667,0.01621518
3660.87639404,0.01602058
3662.80520142,0.01621658
3664.73400879,0.01613308
3666.66281616,0.01598081
3668.59162354,0.01544266
3670.52043091,0.01205937
3672.44923828,0.01517126
3674.37804565,0.01438216
3676.30685303,0.01137458
3678.23566040,0.01506461
3680.16446777,0.01551758
3682.09327515,0.01550052
3684.02208252,0.01601005
3685.95088989,0.01568685
3687.87969727,0.01400861
3689.80850464,0.01251174
3691.73731201,0.01455075
3693.66611938,0.01529503
3695.59492676,0.01568440
3697.52373413,0.01565175
3699.45254150,0.01548069
3701.38134888,0.01494617
3703.31015625,0.01437696
3705.23896362,0.01608713
3707.16777100,0.01514487
3709.09657837,0.01469920
3711.02538574,0.01367826
3712.95419312,0.01272294
3714.88300049,0.01540479
3716.81180786,0.01516136
3718.74061523,0.01516291
3720.66942261,0.01472237
3722.59822998,0.01423308
3724.52703735,0.01479944
3726.45584473,0.01355470
3728.38465210,0.01502803
3730.31345947,0.01476000
3732.24226685,0.01333975
3734.17107422,0.01300367
3736.09988159,0.01225602
3738.02868896,0.01317818
3739.95749634,0.01432842
3741.88630371,0.01510995
3743.81511108,0.01139816
3745.74391846,0.01056603
3747.67272583,0.01433779
3749.60153320,0.01203500
3751.53034058,0.01089118
3753.45914795,0.01288733
3755.38795532,0.01406008
3757.31676270,0.01476699
3759.24557007,0.01343539
3761.17437744,0.01400536
3763.10318481,0.01511764
3765.03199219,0.01385326
3766.96079956,0.01419887
3768.88960693,0.01400720
3770.81841431,0.01319912
3772.74722168,0.01456804
3774.67602905,0.01460040
3776.60483643,0.01462574
3778.53364380,0.01415704
3780.46245117,0.01347610
3782.39125854,0.01461983
3784.32006592,0.01428280
3786.24887329,0.01418182
3788.17768066,0.01441921
3790.10648804,0.01432024
3792.03529541,0.01430430
3793.96410278,0.01449791
3795.89291016,0.01355650
3797.82171753,0.01330713
3799.75052490,0.01411933
3801.67933228,0.01084393
3803.60813965,0.01298236
3805.53694702,0.01434824
3807.46575439,0.01123911
3809.39456177,0.01398248
3811.32336914,0.01384871
3813.25217651,0.01449020
3815.18098389,0.01291025
3817.10979126,0.01102268
3819.03859863,0.01438776
3820.96740601,0.01116329
3822.89621338,0.01189595
3824.82502075,0.01429548
3826.75382812,0.01268560
3828.68263550,0.01396599
3830.61144287,0.01330753
3832.54025024,0.01270357
3834.46905762,0.01306732
3836.39786499,0.01231645
3838.32667236,0.01102986
3840.25547974,0.01206797
3842.18428711,0.01307707
3844.11309448,0.01238843
3846.04190186,0.01359508
3847.97070923,0.01343869
3849.89951660,0.01341796
3851.82832397,0.01189414
3853.75713135,0.00857483
3855.68593872,0.01036779
3857.61474609,0.01339094
3859.54355347,0.01309760
3861.47236084,0.01289358
3863.40116821,0.01252367
3865.32997559,0.01142296
3867.25878296,0.01304874
3869.18759033,0.01187051
3871.11639770,0.01078594
3873.04520508,0.01317558
3874.97401245,0.01194907
3876.90281982,0.01309229
3878.83162720,0.01338283
3880.76043457,0.01110967
3882.68924194,0.01310634
3884.61804932,0.01211446
3886.54685669,0.01101081
3888.47566406,0.01322054
3890.40447144,0.01235748
3892.33327881,0.01155627
3894.26208618,0.01281010
3896.19089355,0.01309938
3898.11970093,0.01250799
3900.04850830,0.01155120
3901.97731567,0.01129381
3903.90612305,0.01131856
3905.83493042,0.01158905
3907.76373779,0.01287542
3909.69254517,0.01276656
3911.62135254,0.01259342
3913.55015991,0.01295238
3915.47896728,0.01239237
3917.40777466,0.01204750
3919.33658203,0.01196180
3921.26538940,0.01244154
3923.19419678,0.01241415
3925.12300415,0.01207824
3927.05181152,0.01231192
3928.98061890,0.01245538
3930.90942627,0.01216950
3932.83823364,0.01170378
3934.76704102,0.01233996
3936.69584839,0.01246951
3938.62465576,0.01230856
3940.55346313,0.01254623
3942.48227051,0.01193113
3944.41107788,0.01203287
3946.33988525,0.01233290
3948.26869263,0.01197581
3950.19750000,0.01196598
3952.12630737,0.01212948
3954.05511475,0.01220723
3955.98392212,0.01221184
3957.91272949,0.01213128
3959.84153687,0.01209358
3961.77034424,0.01201235
3963.69915161,0.01200981
3965.62795898,0.01212731
3967.55676636,0.01200576
3969.48557373,0.01199110
3971.41438110,0.01199076
3973.34318848,0.01199320
3975.27199585,0.01197138
3977.20080322,0.01192094
3979.12961060,0.01200003
3981.05841797,0.01185248
3982.98722534,0.01189843
3984.91603271,0.01179339
3986.84484009,0.01185466
3988.77364746,0.01197725
3990.70245483,0.01172673
3992.63126221,0.01182741
3994.56006958,0.01164433
3996.48887695,0.01168094
3998.41768433,0.01183450
4000.34649170,0.01169877
4002.27529907,0.01168260
4004.20410645,0.01159509
4006.13291382,0.01173625
4008.06172119,0.01161331
4009.99052856,0.01148046
4011.91933594,0.01155927
4013.84814331,0.01155954
4015.77695068,0.01152582
4017.70575806,0.01143484
4019.63456543,0.01151058
4021.56337280,0.01145867
4023.49218018,0.01139190
4025.42098755,0.01136813
4027.34979492,0.01135598
4029.27860229,0.01134960
4031.20740967,0.01131982
4033.13621704,0.01134383
4035.06502441,0.01134926
4036.99383179,0.01128104
4038.92263916,0.01111547
4040.85144653,0.01125436
4042.78025391,0.01119894
4044.70906128,0.01105266
4046.63786865,0.01117035
4048.56667603,0.01110771
4050.49548340,0.01108286
4052.42429077,0.01099600
4054.35309814,0.01102370
4056.28190552,0.01105842
4058.21071289,0.01097138
4060.13952026,0.01097773
4062.06832764,0.01096450
4063.99713501,0.01100255
4065.92594238,0.01094037
4067.85474976,0.01079485
4069.78355713,0.01079395
4071.71236450,0.01091589
4073.64117187,0.01083108
4075.56997925,0.01085215
4077.49878662,0.01087295
4079.42759399,0.01071243
4081.35640137,0.01077030
4083.28520874,0.01072708
4085.21401611,0.01069763
4087.14282349,0.01062017
4089.07163086,0.01066061
4091.00043823,0.01068962
4092.92924561,0.01057720
4094.85805298,0.01061563
4096.78686035,0.01046390
4098.71566772,0.01057968
4100.64447510,0.01054994
4102.57328247,0.01045856
4104.50208984,0.01054051
4106.43089722,0.01036423
4108.35970459,0.01041861
4110.28851196,0.01041528
4112.21731934,0.01041196
4114.14612671,0.01037920
4116.07493408,0.01039539
4118.00374145,0.01041186
4119.93254883,0.01018034
4121.86135620,0.01021392
4123.79016357,0.01024494
4125.71897095,0.01026102
4127.64777832,0.01025793
4129.57658569,0.01024180
4131.50539307,0.01018134
4133.43420044,0.01008569
4135.36300781,0.01015128
4137.29181519,0.01009960
4139.22062256,0.01010477
4141.14942993,0.01004294
4143.07823730,0.00998458
4145.00704468,0.00997071
4146.93585205,0.00990447
4148.86465942,0.00992996
4150.79346680,0.00995114
4152.72227417,0.01000653
4154.65108154,0.00996130
4156.57988892,0.00994391
4158.50869629,0.00992166
4160.43750366,0.00992999
4162.36631103,0.00991271
4164.29511841,0.00983793
4166.22392578,0.00984736
4168.15273315,0.00973659
4170.08154053,0.00973476
4172.01034790,0.00970656
4173.93915527,0.00970617
4175.86796265,0.00969757
4177.79677002,0.00967890
4179.72557739,0.00973574
4181.65438477,0.00955078
4183.58319214,0.00953489
4185.51199951,0.00957257
4187.44080688,0.00960184
4189.36961426,0.00954428
4191.29842163,0.00945643
4193.22722900,0.00958431
4195.15603638,0.00950403
4197.08484375,0.00950966
4199.01365112,0.00954678
4200.94245850,0.00942296
4202.87126587,0.00937097
4204.80007324,0.00944879
4206.72888062,0.00939844
4208.65768799,0.00930644
4210.58649536,0.00935552
4212.51530273,0.00922235
4214.44411011,0.00930918
4216.37291748,0.00926891
4218.30172485,0.00912888
4220.23053223,0.00926976
4222.15933960,0.00918958
4224.08814697,0.00921588
4226.01695435,0.00923997
4227.94576172,0.00918308
4229.87456909,0.00917822
4231.80337646,0.00914465
4233.73218384,0.00910198
4235.66099121,0.00900535
4237.58979858,0.00907902
4239.51860596,0.00911158
4241.44741333,0.00904061
4243.37622070,0.00902495
4245.30502808,0.00902777
4247.23383545,0.00898384
4249.16264282,0.00894696
4251.09145020,0.00898628
4253.02025757,0.00899898
4254.94906494,0.00894968
4256.87787231,0.00883151
4258.80667969,0.00881092
4260.73548706,0.00879166
4262.66429443,0.00880955
4264.59310181,0.00884969
4266.52190918,0.00885701
4268.45071655,0.00889006
4270.37952393,0.00869523
4272.30833130,0.00870828
4274.23713867,0.00877783
4276.16594604,0.00864219
4278.09475342,0.00869262
4280.02356079,0.00863846
4281.95236816,0.00859525
4283.88117554,0.00865272
4285.80998291,0.00857090
4287.73879028,0.00858639
4289.66759766,0.00860441
4291.59640503,0.00847913
4293.52521240,0.00850829
4295.45401978,0.00853326
4297.38282715,0.00843615
4299.31163452,0.00845152
4301.24044189,0.00842747
4303.16924927,0.00837074
4305.09805664,0.00840535
4307.02686401,0.00842498
4308.95567139,0.00840970
4310.88447876,0.00839605
4312.81328613,0.00829995
4314.74209351,0.00834110
4316.67090088,0.00838614
4318.59970825,0.00820853
4320.52851562,0.00826823
4322.45732300,0.00826183
4324.38613037,0.00821492
4326.31493774,0.00828697
4328.24374512,0.00817807
4330.17255249,0.00815653
4332.10135986,0.00810422
4334.03016724,0.00813780
4335.95897461,0.00820208
4337.88778198,0.00809486
4339.81658936,0.00808990
4341.74539673,0.00810838
4343.67420410,0.00812341
4345.60301147,0.00817491
4347.53181885,0.00810130
4349.46062622,0.00797388
4351.38943359,0.00810319
4353.31824097,0.00809702
4355.24704834,0.00796628
4357.17585571,0.00794299
4359.10466309,0.00785552
4361.03347046,0.00799077
4362.96227783,0.00798523
4364.89108520,0.00784408
4366.81989258,0.00783975
4368.74869995,0.00783403
4370.67750732,0.00783867
4372.60631470,0.00782026
4374.53512207,0.00784381
4376.46392944,0.00775303
4378.39273682,0.00778128
4380.32154419,0.00778759
4382.25035156,0.00770324
4384.17915894,0.00776790
4386.10796631,0.00768586
4388.03677368,0.00766630
4389.96558105,0.00767877
4391.89438843,0.00762266
4393.82319580,0.00757356
4395.75200317,0.00757222
4397.68081055,0.00763377
4399.60961792,0.00758456
4401.53842529,0.00750624
4403.46723267,0.00754209
4405.39604004,0.00760892
4407.32484741,0.00748200
4409.25365478,0.00748249
4411.18246216,0.00748714
4413.11126953,0.00743112
4415.04007690,0.00747768
4416.96888428,0.00734455
4418.89769165,0.00740634
4420.82649902,0.00740906
4422.75530640,0.00737085
4424.68411377,0.00741610
4426.61292114,0.00724509
4428.54172852,0.00730240
4430.47053589,0.00735884
4432.39934326,0.00731761
4434.32815063,0.00730951
4436.25695801,0.00725399
4438.18576538,0.00720733
4440.11457275,0.00719239
4442.04338013,0.00727307
4443.97218750,0.00720770
4445.90099487,0.00713287
4447.82980225,0.00716979
4449.75860962,0.00715548
4451.68741699,0.00716119
4453.61622437,0.00712856
4455.54503174,0.00705780
4457.47383911,0.00711783
4459.40264648,0.00710304
4461.33145386,0.00703576
4463.26026123,0.00712259
4465.18906860,0.00706361
4467.11787598,0.00700490
4469.04668335,0.00698133
4470.97549072,0.00697571
4472.90429810,0.00702932
4474.83310547,0.00694824
4476.76191284,0.00696383
4478.69072021,0.00692631
4480.61952759,0.00691067
4482.54833496,0.00691627
4484.47714233,0.00684299
4486.40594971,0.00689794
4488.33475708,0.00682843
4490.26356445,0.00683026
4492.19237183,0.00686104
4494.12117920,0.00672318
4496.04998657,0.00668903
4497.97879395,0.00673343
4499.90760132,0.00671339
4501.83640869,0.00665810
4503.76521606,0.00667951
4505.69402344,0.00671025
4507.62283081,0.00666514
4509.55163818,0.00663912
4511.48044556,0.00672700
4513.40925293,0.00664498
4515.33806030,0.00657953
4517.26686768,0.00669677
4519.19567505,0.00659975
4521.12448242,0.00658316
4523.05328979,0.00658566
4524.98209717,0.00653987
4526.91090454,0.00658874
4528.83971191,0.00649572
4530.76851929,0.00649974
4532.69732666,0.00654149
4534.62613403,0.00649089
4536.55494141,0.00647375
4538.48374878,0.00643196
4540.41255615,0.00643203
4542.34136353,0.00642068
4544.27017090,0.00636926
4546.19897827,0.00641869
4548.12778564,0.00641739
4550.05659302,0.00635145
4551.98540039,0.00631850
4553.91420776,0.00625714
4555.84301514,0.00629106
4557.77182251,0.00631899
4559.70062988,0.00632552
4561.62943726,0.00627579
4563.55824463,0.00619573
4565.48705200,0.00625377
4567.41585937,0.00623621
4569.34466675,0.00622633
4571.27347412,0.00618411
4573.20228149,0.00617073
4575.13108887,0.00624355
4577.05989624,0.00617531
4578.98870361,0.00609191
4580.91751099,0.00606883
4582.84631836,0.00608103
4584.77512573,0.00602533
4586.70393311,0.00611789
4588.63274048,0.00617492
4590.56154785,0.00609993
4592.49035522,0.00608965
4594.41916260,0.00592764
4596.34796997,0.00599241
4598.27677734,0.00605639
4600.20558472,0.00598208
4602.13439209,0.00600675
4604.06319946,0.00596744
4605.99200684,0.00596692
4607.92081421,0.00588546
4609.84962158,0.00587315
4611.77842895,0.00589731
4613.70723633,0.00588468
4615.63604370,0.00587268
4617.56485107,0.00588260
4619.49365845,0.00592896
4621.42246582,0.00581511
4623.35127319,0.00585016
4625.28008057,0.00580748
4627.20888794,0.00575197
4629.13769531,0.00587012
4631.06650269,0.00574779
4632.99531006,0.00572851
4634.92411743,0.00580448
4636.85292480,0.00577569
4638.78173218,0.00574488
4640.71053955,0.00568256
4642.63934692,0.00564540
4644.56815430,0.00564735
4646.49696167,0.00568988
4648.42576904,0.00569315
4650.35457642,0.00558768
4652.28338379,0.00559542
4654.21219116,0.00570329
4656.14099853,0.00560769
4658.06980591,0.00552101
4659.99861328,0.00554701
4661.92742065,0.00559954
4663.85622803,0.00559494
4665.78503540,0.00550406
4667.71384277,0.00548984
4669.64265015,0.00546803
4671.57145752,0.00550609
4673.50026489,0.00550650
4675.42907227,0.00553898
4677.35787964,0.00553663
4679.28668701,0.00539054
4681.21549438,0.00545431
4683.14430176,0.00544037
4685.07310913,0.00538059
4687.00191650,0.00537697
4688.93072388,0.00536421
4690.85953125,0.00537773
4692.78833862,0.00533006
4694.71714600,0.00537930
4696.64595337,0.00537838
4698.57476074,0.00537472
4700.50356812,0.00538081
4702.43237549,0.00533883
4704.36118286,0.00527954
4706.28999023,0.00519487
4708.21879761,0.00521191
4710.14760498,0.00528423
4712.07641235,0.00532831
4714.00521973,0.00522218
4715.93402710,0.00520025
4717.86283447,0.00518858
4719.79164185,0.00517150
4721.72044922,0.00523935
4723.64925659,0.00520616
4725.57806396,0.00521613
4727.50687134,0.00510361
4729.43567871,0.00512633
4731.36448608,0.00515759
4733.29329346,0.00508138
4735.22210083,0.00514274
4737.15090820,0.00506962
4739.07971558,0.00513404
4741.00852295,0.00511783
4742.93733032,0.00501984
4744.86613770,0.00503304
4746.79494507,0.00497492
4748.72375244,0.00497108
4750.65255981,0.00503226
4752.58136719,0.00508387
4754.51017456,0.00498548
4756.43898193,0.00498839
4758.36778931,0.00492475
4760.29659668,0.00493223
4762.22540405,0.00500521
4764.15421143,0.00485211
4766.08301880,0.00497446
4768.01182617,0.00493979
4769.94063354,0.00486577
4771.86944092,0.00489984
4773.79824829,0.00481983
4775.72705566,0.00487823
4777.65586304,0.00487027
4779.58467041,0.00490355
4781.51347778,0.00480974
4783.44228516,0.00476224
4785.37109253,0.00478840
4787.29989990,0.00474684
4789.22870728,0.00485641
4791.15751465,0.00478021
4793.08632202,0.00471372
4795.01512939,0.00473250
4796.94393677,0.00474368
4798.87274414,0.00470173
4800.80155151,0.00467688
4802.73035889,0.00474522
4804.65916626,0.00466529
4806.58797363,0.00466294
4808.51678101,0.00463627
4810.44558838,0.00468089
4812.37439575,0.00470979
4814.30320312,0.00461602
4816.23201050,0.00469607
4818.16081787,0.00460206
4820.08962524,0.00458978
4822.01843262,0.00461794
4823.94723999,0.00453400
4825.87604736,0.00462676
4827.80485474,0.00459198
4829.73366211,0.00455690
4831.66246948,0.00455747
4833.59127686,0.00450547
4835.52008423,0.00450831
4837.44889160,0.00454454
4839.37769897,0.00456550
4841.30650635,0.00442888
4843.23531372,0.00442738
4845.16412109,0.00445537
4847.09292847,0.00442358
4849.02173584,0.00455854
4850.95054321,0.00446795
4852.87935059,0.00435269
4854.80815796,0.00442580
4856.73696533,0.00445363
4858.66577270,0.00443033
4860.59458008,0.00439609
4862.52338745,0.00443448
4864.45219482,0.00438701
4866.38100220,0.00439962
4868.30980957,0.00438049
4870.23861694,0.00427244
4872.16742432,0.00432108
4874.09623169,0.00429114
4876.02503906,0.00431689
4877.95384644,0.00428134
4879.88265381,0.00422480
4881.81146118,0.00429616
4883.74026855,0.00424164
4885.66907593,0.00423804
4887.59788330,0.00424617
4889.52669067,0.00429280
4891.45549805,0.00427302
4893.38430542,0.00418707
4895.31311279,0.00416777
4897.24192017,0.00416342
4899.17072754,0.00423294
4901.09953491,0.00413332
4903.02834228,0.00416457
4904.95714966,0.00423282
4906.88595703,0.00410089
4908.81476440,0.00412328
4910.74357178,0.00415042
4912.67237915,0.00412444
4914.60118652,0.00405505
4916.52999390,0.00404831
4918.45880127,0.00404864
4920.38760864,0.00401597
4922.31641602,0.00407244
4924.24522339,0.00408159
4926.17403076,0.00407104
4928.10283813,0.00401444
4930.03164551,0.00401104
4931.96045288,0.00401616
4933.88926025,0.00405202
4935.81806763,0.00406806
4937.74687500,0.00391452
4939.67568237,0.00393698
4941.60448975,0.00399780
4943.53329712,0.00398391
4945.46210449,0.00394850
4947.39091187,0.00392231
4949.31971924,0.00395801
4951.24852661,0.00389481
4953.17733398,0.00391226
4955.10614136,0.00392145
4957.03494873,0.00386343
4958.96375610,0.00389930
4960.89256348,0.00392006
4962.82137085,0.00388186
4964.75017822,0.00383269
4966.67898560,0.00385287
4968.60779297,0.00380273
4970.53660034,0.00376124
4972.46540771,0.00385781
4974.39421509,0.00384444
4976.32302246,0.00378032
4978.25182983,0.00373740
4980.18063721,0.00374542
4982.10944458,0.00380393
4984.03825195,0.00372950
4985.96705933,0.00375311
4987.89586670,0.00378296
4989.82467407,0.00368193
4991.75348145,0.00369230
4993.68228882,0.00365874
4995.61109619,0.00368197
4997.53990356,0.00370729
4999.46871094,0.00369680
5001.39751831,0.00374999
5003.32632568,0.00361533
5005.25513306,0.00357892
5007.18394043,0.00359407
5009.11274780,0.00357759
5011.04155518,0.00367058
5012.97036255,0.00359569
5014.89916992,0.00355159
5016.82797729,0.00362333
5018.75678467,0.00357543
5020.68559204,0.00352232
5022.61439941,0.00356793
5024.54320679,0.00354245
5026.47201416,0.00353831
5028.40082153,0.00362648
5030.32962891,0.00357646
5032.25843628,0.00348118
5034.18724365,0.00348298
5036.11605103,0.00353743
5038.04485840,0.00352275
5039.97366577,0.00356407
5041.90247314,0.00354902
5043.83128052,0.00342540
5045.76008789,0.00349582
5047.68889526,0.00346852
5049.61770264,0.00348733
5051.54651001,0.00355954
5053.47531738,0.00343619
5055.40412476,0.00346642
5057.33293213,0.00348083
5059.26173950,0.00343392
5061.19054687,0.00346339
5063.11935425,0.00344004
5065.04816162,0.00338326
5066.97696899,0.00331996
5068.90577637,0.00333474
5070.83458374,0.00337848
5072.76339111,0.00331464
5074.69219849,0.00331389
5076.62100586,0.00338984
5078.54981323,0.00336451
5080.47862061,0.00337733
5082.40742798,0.00338059
5084.33623535,0.00333600
5086.26504272,0.00328778
5088.19385010,0.00325965
5090.12265747,0.00333715
5092.05146484,0.00330559
5093.98027222,0.00323828
5095.90907959,0.00322522
5097.83788696,0.00326029
5099.76669434,0.00326984
5101.69550171,0.00316621
5103.62430908,0.00319405
5105.55311645,0.00325355
5107.48192383,0.00326936
5109.41073120,0.00324713
5111.33953857,0.00322087
5113.26834595,0.00322423
5115.19715332,0.00316409
5117.12596069,0.00312558
5119.05476807,0.00316025
5120.98357544,0.00320385
5122.91238281,0.00306664
5124.84119019,0.00305766
5126.76999756,0.00316617
5128.69880493,0.00314583
5130.62761230,0.00316901
5132.55641968,0.00310367
5134.48522705,0.00313675
5136.41403442,0.00314868
5138.34284180,0.00307038
5140.27164917,0.00304382
5142.20045654,0.00302156
5144.12926392,0.00312592
5146.05807129,0.00300540
5147.98687866,0.00294859
5149.91568603,0.00309164
5151.84449341,0.00305410
5153.77330078,0.00300561
5155.70210815,0.00296893
5157.63091553,0.00302226
5159.55972290,0.00308176
5161.48853027,0.00306178
5163.41733765,0.00298177
5165.34614502,0.00291939
5167.27495239,0.00298416
5169.20375977,0.00297212
5171.13256714,0.00293082
5173.06137451,0.00290725
5174.99018188,0.00289633
5176.91898926,0.00292869
5178.84779663,0.00292076
5180.77660400,0.00294754
5182.70541138,0.00300234
5184.63421875,0.00291184
5186.56302612,0.00284061
5188.49183350,0.00290070
5190.42064087,0.00282583
5192.34944824,0.00285873
5194.27825562,0.00290934
5196.20706299,0.00274863
5198.13587036,0.00282180
5200.06467773,0.00290392
5201.99348511,0.00289593
5203.92229248,0.00293655
5205.85109985,0.00275400
5207.77990723,0.00266087
5209.70871460,0.00275783
5211.63752197,0.00278553
5213.56632935,0.00283773
5215.49513672,0.00282191
5217.42394409,0.00278108
5219.35275146,0.00282778
5221.28155884,0.00281636
5223.21036621,0.00278995
5225.13917358,0.00271976
5227.06798096,0.00268138
5228.99678833,0.00272402
5230.92559570,0.00268954
5232.85440308,0.00273311
5234.78321045,0.00279044
5236.71201782,0.00270991
5238.64082520,0.00266691
5240.56963257,0.00270476
5242.49843994,0.00267460
5244.42724731,0.00263412
5246.35605469,0.00267510
5248.28486206,0.00260077
5250.21366943,0.00259738
5252.14247681,0.00272349
5254.07128418,0.00265109
5256.00009155,0.00261138
5257.92889893,0.00267841
5259.85770630,0.00265016
5261.78651367,0.00262824
5263.71532104,0.00259677
5265.64412842,0.00258490
5267.57293579,0.00263333
5269.50174316,0.00260558
5271.43055054,0.00263340
5273.35935791,0.00264442
5275.28816528,0.00259387
5277.21697266,0.00270591
5279.14578003,0.00265553
5281.07458740,0.00259212
5283.00339478,0.00266100
5284.93220215,0.00253884
5286.86100952,0.00256243
5288.78981689,0.00255077
5290.71862427,0.00247902
5292.64743164,0.00259061
5294.57623901,0.00255547
5296.50504639,0.00258182
5298.43385376,0.00257151
5300.36266113,0.00248515
5302.29146851,0.00252549
5304.22027588,0.00251934
5306.14908325,0.00251879
5308.07789062,0.00244707
5310.00669800,0.00243729
5311.93550537,0.00246078
5313.86431274,0.00245544
5315.79312012,0.00243451
5317.72192749,0.00234129
5319.65073486,0.00248529
5321.57954224,0.00248611
5323.50834961,0.00236573
5325.43715698,0.00239198
5327.36596436,0.00237573
5329.29477173,0.00245623
5331.22357910,0.00245033
5333.15238647,0.00243055
5335.08119385,0.00244818
5337.01000122,0.00237542
5338.93880859,0.00228750
5340.86761597,0.00235484
5342.79642334,0.00243886
5344.72523071,0.00226129
5346.65403809,0.00228596
5348.58284546,0.00234727
5350.51165283,0.00239567
5352.44046020,0.00243804
5354.36926758,0.00226855
5356.29807495,0.00236692
5358.22688232,0.00235948
5360.15568970,0.00228875
5362.08449707,0.00235473
5364.01330444,0.00232894
5365.94211182,0.00230908
5367.87091919,0.00224707
5369.79972656,0.00230733
5371.72853394,0.00227408
5373.65734131,0.00223801
5375.58614868,0.00224774
5377.51495605,0.00222599
5379.44376343,0.00232299
5381.37257080,0.00225145
5383.30137817,0.00221164
5385.23018555,0.00220458
5387.15899292,0.00221038
5389.08780029,0.00225928
5391.01660767,0.00223089
5392.94541504,0.00223839
5394.87422241,0.00213084
5396.80302978,0.00210693
5398.73183716,0.00220132
5400.66064453,0.00223995
5402.58945190,0.00221632
5404.51825928,0.00222140
5406.44706665,0.00228506
5408.37587402,0.00218232
5410.30468140,0.00213015
5412.23348877,0.00215016
5414.16229614,0.00210985
5416.09110352,0.00211466
5418.01991089,0.00213922
5419.94871826,0.00216103
5421.87752563,0.00213902
5423.80633301,0.00211699
5425.73514038,0.00218360
5427.66394775,0.00220197
5429.59275513,0.00208544
5431.52156250,0.00212215
5433.45036987,0.00216178
5435.37917725,0.00206105
5437.30798462,0.00206873
5439.23679199,0.00206442
5441.16559936,0.00203068
5443.09440674,0.00204355
5445.02321411,0.00207141
5446.95202148,0.00205105
5448.88082886,0.00208452
5450.80963623,0.00209073
5452.73844360,0.00205019
5454.66725098,0.00213744
5456.59605835,0.00202634
5458.52486572,0.00198343
5460.45367310,0.00205422
5462.38248047,0.00202581
5464.31128784,0.00211105
5466.24009521,0.00203468
5468.16890259,0.00200944
5470.09770996,0.00203810
5472.02651733,0.00195342
5473.95532471,0.00200709
5475.88413208,0.00194716
5477.81293945,0.00190483
5479.74174683,0.00206545
5481.67055420,0.00205284
5483.59936157,0.00195158
5485.52816895,0.00200159
5487.45697632,0.00197922
5489.38578369,0.00197085
5491.31459106,0.00202294
5493.24339844,0.00194799
5495.17220581,0.00193520
5497.10101318,0.00193932
5499.02982056,0.00195117
5500.95862793,0.00201440
5502.88743530,0.00198487
5504.81624268,0.00193918
5506.74505005,0.00189599
5508.67385742,0.00191762
5510.60266479,0.00197710
5512.53147217,0.00190541
5514.46027954,0.00186271
5516.38908691,0.00189430
5518.31789429,0.00184945
5520.24670166,0.00186717
5522.17550903,0.00190783
5524.10431641,0.00186921
5526.03312378,0.00186654
5527.96193115,0.00184358
5529.89073853,0.00184331
5531.81954590,0.00184034
5533.74835327,0.00178235
5535.67716064,0.00182539
5537.60596802,0.00188184
5539.53477539,0.00185633
5541.46358276,0.00183029
5543.39239014,0.00181056
5545.32119751,0.00181366
5547.25000488,0.00181845
5549.17881226,0.00179676
5551.10761963,0.00182767
5553.03642700,0.00182768
5554.96523437,0.00181226
5556.89404175,0.00182311
5558.82284912,0.00180254
5560.75165649,0.00183166
5562.68046387,0.00179686
5564.60927124,0.00177590
5566.53807861,0.00176930
5568.46688599,0.00172349
5570.39569336,0.00180424
5572.32450073,0.00176884
5574.25330811,0.00175676
5576.18211548,0.00183289
5578.11092285,0.00172346
5580.03973022,0.00171448
5581.96853760,0.00174416
5583.89734497,0.00168142
5585.82615234,0.00175074
5587.75495972,0.00173865
5589.68376709,0.00168378
5591.61257446,0.00180445
5593.54138184,0.00180290
5595.47018921,0.00172357
5597.39899658,0.00167029
5599.32780395,0.00163645
5601.25661133,0.00175247
5603.18541870,0.00175809
5605.11422607,0.00168896
5607.04303345,0.00169987
5608.97184082,0.00168789
5610.90064819,0.00169755
5612.82945557,0.00170007
5614.75826294,0.00168949
5616.68707031,0.00169085
5618.61587769,0.00171194
5620.54468506,0.00171709
5622.47349243,0.00167511
5624.40229980,0.00166239
5626.33110718,0.00165743
5628.25991455,0.00162194
5630.18872192,0.00161663
5632.11752930,0.00165479
5634.04633667,0.00170641
5635.97514404,0.00169860
5637.90395142,0.00165255
5639.83275879,0.00164224
5641.76156616,0.00160525
5643.69037353,0.00163723
5645.61918091,0.00161086
5647.54798828,0.00158604
5649.47679565,0.00166907
5651.40560303,0.00155844
5653.33441040,0.00158884
5655.26321777,0.00162910
5657.19202515,0.00156064
5659.12083252,0.00157521
5661.04963989,0.00150479
5662.97844727,0.00164390
5664.90725464,0.00161886
5666.83606201,0.00150277
5668.76486938,0.00157810
5670.69367676,0.00151776
5672.62248413,0.00158014
5674.55129150,0.00157036
5676.48009888,0.00147735
5678.40890625,0.00152747
5680.33771362,0.00160110
5682.26652100,0.00155791
5684.19532837,0.00148474
5686.12413574,0.00155647
5688.05294311,0.00153236
5689.98175049,0.00151959
5691.91055786,0.00149318
5693.83936523,0.00147754
5695.76817261,0.00149576
5697.69697998,0.00143716
5699.62578735,0.00150138
5701.55459473,0.00147718
5703.48340210,0.00150292
5705.41220947,0.00151271
5707.34101685,0.00143665
5709.26982422,0.00152597
5711.19863159,0.00149983
5713.12743896,0.00148950
5715.05624634,0.00151552
5716.98505371,0.00150043
5718.91386108,0.00150374
5720.84266846,0.00143972
5722.77147583,0.00143739
5724.70028320,0.00144311
5726.62909058,0.00142439
5728.55789795,0.00141095
5730.48670532,0.00140061
5732.41551270,0.00142583
5734.34432007,0.00142001
5736.27312744,0.00142721
5738.20193481,0.00142078
5740.13074219,0.00135748
5742.05954956,0.00140143
5743.98835693,0.00139305
5745.91716431,0.00133825
5747.84597168,0.00143114
5749.77477905,0.00138326
5751.70358643,0.00132912
5753.63239380,0.00138452
5755.56120117,0.00141988
5757.49000854,0.00142273
5759.41881592,0.00131259
5761.34762329,0.00130231
5763.27643066,0.00132528
5765.20523804,0.00135841
5767.13404541,0.00140597
5769.06285278,0.00136492
5770.99166016,0.00134277
5772.92046753,0.00130714
5774.84927490,0.00135850
5776.77808228,0.00138643
5778.70688965,0.00133421
5780.63569702,0.00130141
5782.56450439,0.00129191
5784.49331177,0.00127667
5786.42211914,0.00127326
5788.35092651,0.00138048
5790.27973389,0.00132069
5792.20854126,0.00127784
5794.13734863,0.00134168
5796.06615601,0.00131432
5797.99496338,0.00131317
5799.92377075,0.00127283
5801.85257812,0.00137473
5803.78138550,0.00139764
5805.71019287,0.00123267
5807.63900024,0.00125693
5809.56780762,0.00132798
5811.49661499,0.00128680
5813.42542236,0.00126266
5815.35422974,0.00130379
5817.28303711,0.00128136
5819.21184448,0.00130619
5821.14065186,0.00129631
5823.06945923,0.00123070
5824.99826660,0.00122616
5826.92707397,0.00121260
5828.85588135,0.00133082
5830.78468872,0.00128748
5832.71349609,0.00119291
5834.64230347,0.00127206
5836.57111084,0.00120988
5838.49991821,0.00117090
5840.42872559,0.00118390
5842.35753296,0.00118105
5844.28634033,0.00120863
5846.21514770,0.00122091
5848.14395508,0.00115699
5850.07276245,0.00111478
5852.00156982,0.00123450
5853.93037720,0.00121563
5855.85918457,0.00114148
5857.78799194,0.00122119
5859.71679932,0.00117889
5861.64560669,0.00113439
5863.57441406,0.00121985
5865.50322144,0.00120687
5867.43202881,0.00118526
5869.36083618,0.00119541
5871.28964355,0.00120624
5873.21845093,0.00122427
5875.14725830,0.00114600
5877.07606567,0.00117135
5879.00487305,0.00116334
5880.93368042,0.00111803
5882.86248779,0.00120764
5884.79129517,0.00113710
5886.72010254,0.00112183
5888.64890991,0.00118462
5890.57771728,0.00109929
5892.50652466,0.00102314
5894.43533203,0.00106718
5896.36413940,0.00114445
5898.29294678,0.00111592
5900.22175415,0.00112257
5902.15056152,0.00106979
5904.07936890,0.00104859
5906.00817627,0.00114878
5907.93698364,0.00113757
5909.86579102,0.00121293
5911.79459839,0.00124449
5913.72340576,0.00112504
5915.65221313,0.00109464
5917.58102051,0.00111559
5919.50982788,0.00109817
5921.43863525,0.00106610
5923.36744263,0.00109291
5925.29625000,0.00107595
5927.22505737,0.00104453
5929.15386475,0.00105458
5931.08267212,0.00103005
5933.01147949,0.00107801
5934.94028686,0.00112699
5936.86909424,0.00105602
5938.79790161,0.00105830
5940.72670898,0.00112115
5942.65551636,0.00108664
5944.58432373,0.00106805
5946.51313110,0.00104024
5948.44193848,0.00103950
5950.37074585,0.00107940
5952.29955322,0.00102146
5954.22836060,0.00101904
5956.15716797,0.00105242
5958.08597534,0.00103716
5960.01478271,0.00099661
5961.94359009,0.00098424
5963.87239746,0.00101344
5965.80120483,0.00100283
5967.73001221,0.00098680
5969.65881958,0.00089948
5971.58762695,0.00093491
5973.51643433,0.00104154
5975.44524170,0.00094491
5977.37404907,0.00092028
5979.30285645,0.00098948
5981.23166382,0.00104520
5983.16047119,0.00103817
5985.08927856,0.00098749
5987.01808594,0.00102000
5988.94689331,0.00102840
5990.87570068,0.00102991
5992.80450806,0.00098077
5994.73331543,0.00095378
5996.66212280,0.00102939
5998.59093018,0.00097692
6000.51973755,0.00094086
