399.26312622,0.00040332
401.19193359,0.00001113
403.12074097,0.00045499
405.04954834,0.00036153
406.97835571,0.00045956
408.90716309,0.00084562
410.83597046,0.00044400
412.76477783,0.00047841
414.69358521,0.00039393
416.62239258,0.00039429
418.55119995,0.00040216
420.48000732,0.00023166
422.40881470,0.00049859
424.33762207,0.00071495
426.26642944,0.00077729
428.19523682,0.00063525
430.12404419,0.00083808
432.05285156,0.00073800
433.98165894,0.00031617
435.91046631,0.00039411
437.83927368,0.00052534
439.76808105,0.00086883
441.69688843,0.00058801
443.62569580,0.00030965
445.55450317,0.00069107
447.48331055,0.00048041
449.41211792,0.00019159
451.34092529,0.00022930
453.26973267,0.00040849
455.19854004,0.00059890
457.12734741,0.00064741
459.05615479,0.00050758
460.98496216,0.00025655
462.91376953,0.00024517
464.84257690,0.00043971
466.77138428,0.00041738
468.70019165,0.00011769
470.62899902,0.00036622
472.55780640,0.00057057
474.48661377,0.00018099
476.41542114,0.00017451
478.34422852,0.00022685
480.27303589,-0.00006120
482.20184326,-0.00020218
484.13065063,0.00003696
486.05945801,0.00012394
487.98826538,0.00014460
489.91707275,0.00034127
491.84588013,0.00036580
493.77468750,0.00009565
495.70349487,0.00020677
497.63230225,0.00047926
499.56110962,0.00003222
501.48991699,0.00007980
503.41872437,0.00019777
505.34753174,-0.00000529
507.27633911,0.00047623
509.20514648,0.00032570
511.13395386,0.00023660
513.06276123,0.00025759
514.99156860,-0.00020031
516.92037598,0.00021801
518.84918335,0.00033106
520.77799072,0.00014458
522.70679810,0.00014155
524.63560547,-0.00023733
526.56441284,-0.00021396
528.49322021,0.00001615
530.42202759,0.00023516
532.35083496,0.00022762
534.27964233,-0.00008441
536.20844971,0.00013397
538.13725708,0.00031463
540.06606445,0.00012351
541.99487183,0.00016353
543.92367920,0.00012115
545.85248657,0.00001209
547.78129395,0.00022934
549.71010132,0.00032063
551.63890869,-0.00014009
553.56771606,-0.00016793
555.49652344,0.00034784
557.42533081,0.00010630
559.35413818,-0.00030960
561.28294556,0.00010768
563.21175293,0.00026874
565.14056030,0.00003520
567.06936768,0.00020007
568.99817505,-0.00005649
570.92698242,-0.00016800
572.85578979,0.00034521
574.78459717,0.00016729
576.71340454,0.00020859
578.64221191,0.00044063
580.57101929,0.00010409
582.49982666,0.00009427
584.42863403,0.00011715
586.35744141,0.00031434
588.28624878,0.00047172
590.21505615,0.00012342
592.14386353,0.00006907
594.07267090,-0.00004270
596.00147827,-0.00010658
597.93028564,0.00013925
599.85909302,0.00011994
601.78790039,0.00020137
603.71670776,0.00009965
605.64551514,-0.00020829
607.57432251,-0.00003260
609.50312988,0.00027568
611.43193726,0.00053084
613.36074463,0.00012253
615.28955200,-0.00010451
617.21835938,0.00025410
619.14716675,0.00001530
621.07597412,0.00014731
623.00478149,0.00025270
624.93358887,-0.00025389
626.86239624,-0.00010639
628.79120361,0.00011358
630.72001099,0.00012052
632.64881836,0.00042790
634.57762573,0.00049847
636.50643311,0.00040108
638.43524048,0.00040202
640.36404785,0.00046573
642.29285522,0.00059513
644.22166260,0.00035152
646.15046997,0.00043238
648.07927734,0.00063814
650.00808472,0.00076370
651.93689209,0.00061858
653.86569946,0.00033561
655.79450684,0.00084184
657.72331421,0.00091634
659.65212158,0.00098642
661.58092896,0.00094838
663.50973633,0.00057559
665.43854370,0.00111847
667.36735107,0.00106784
669.29615845,0.00104469
671.22496582,0.00137137
673.15377319,0.00101411
675.08258057,0.00114002
677.01138794,0.00125392
678.94019531,0.00109778
680.86900269,0.00128626
682.79781006,0.00130573
684.72661743,0.00120091
686.65542480,0.00124579
688.58423218,0.00120750
690.51303955,0.00138422
692.44184692,0.00154221
694.37065430,0.00135144
696.29946167,0.00155969
698.22826904,0.00180574
700.15707642,0.00173627
702.08588379,0.00174198
704.01469116,0.00173624
705.94349854,0.00158130
707.87230591,0.00131598
709.80111328,0.00101342
711.72992065,0.00075652
713.65872803,0.00058519
715.58753540,0.00023892
717.51634277,0.00011669
719.44515015,0.00006084
721.37395752,0.00007058
723.30276489,0.00046053
725.23157227,0.00018168
727.16037964,0.00008426
729.08918701,0.00030454
731.01799438,0.00020575
732.94680176,0.00033326
734.87560913,0.00012246
736.80441650,0.00024313
738.73322388,0.00023514
740.66203125,0.00000947
742.59083862,0.00020991
744.51964600,0.00006017
746.44845337,0.00006069
748.37726074,0.00030109
750.30606812,0.00054441
752.23487549,0.00017817
754.16368286,-0.00000917
756.09249023,0.00033397
758.02129761,0.00003465
759.95010498,0.00010566
761.87891235,0.00014571
763.80771973,0.00018034
765.73652710,0.00046333
767.66533447,0.00014527
769.59414185,0.00012042
771.52294922,0.00008232
773.45175659,0.00000385
775.38056396,0.00041242
777.30937134,0.00043780
779.23817871,0.00022071
781.16698608,0.00024522
783.09579346,0.00053826
785.02460083,0.00044375
786.95340820,0.00016390
788.88221558,0.00029011
790.81102295,0.00005187
792.73983032,0.00024456
794.66863770,0.00047162
796.59744507,0.00008257
798.52625244,0.00039957
800.45505981,0.00051735
802.38386719,0.00018780
804.31267456,0.00021048
806.24148193,0.00034807
808.17028931,0.00021732
810.09909668,0.00020356
812.02790405,0.00042080
813.95671143,0.00019697
815.88551880,0.00021647
817.81432617,0.00016400
819.74313354,-0.00004713
821.67194092,0.00000724
823.60074829,0.00021870
825.52955566,0.00040998
827.45836304,0.00014081
829.38717041,0.00040730
831.31597778,0.00045308
833.24478516,0.00039320
835.17359253,0.00062693
837.10239990,0.00037135
839.03120728,0.00064968
840.96001465,0.00064583
842.88882202,0.00037145
844.81762939,0.00044198
846.74643677,0.00048454
848.67524414,0.00032820
850.60405151,0.00016742
852.53285889,0.00061289
854.46166626,0.00035944
856.39047363,0.00002715
858.31928101,0.00027858
860.24808838,0.00022752
862.17689575,0.00035676
864.10570313,0.00044984
866.03451050,0.00024456
867.96331787,0.00010531
869.89212524,0.00046833
871.82093262,0.00052368
873.74973999,0.00032512
875.67854736,0.00053679
877.60735474,0.00042445
879.53616211,0.00052428
881.46496948,0.00053953
883.39377686,0.00009077
885.32258423,0.00026695
887.25139160,0.00042770
889.18019897,0.00025531
891.10900635,0.00040729
893.03781372,0.00023456
894.96662109,0.00017690
896.89542847,0.00035902
898.82423584,0.00031185
900.75304321,0.00058434
902.68185059,0.00035042
904.61065796,0.00029216
906.53946533,0.00052282
908.46827271,0.00024729
910.39708008,0.00050185
912.32588745,0.00062589
914.25469482,0.00034705
916.18350220,0.00044156
918.11230957,0.00081638
920.04111694,0.00063669
921.96992432,0.00051894
923.89873169,0.00065528
925.82753906,0.00038668
927.75634644,0.00069230
929.68515381,0.00067585
931.61396118,0.00061261
933.54276855,0.00079836
935.47157593,0.00080974
937.40038330,0.00098938
939.32919067,0.00069540
941.25799805,0.00091761
943.18680542,0.00101665
945.11561279,0.00085974
947.04442017,0.00081215
948.97322754,0.00063512
950.90203491,0.00085518
952.83084229,0.00071669
954.75964966,0.00091357
956.68845703,0.00089181
958.61726440,0.00082898
960.54607178,0.00104471
962.47487915,0.00071806
964.40368652,0.00081273
966.33249390,0.00078286
968.26130127,0.00090804
970.19010864,0.00105529
972.11891602,0.00092127
974.04772339,0.00103167
975.97653076,0.00113122
977.90533813,0.00133003
979.83414551,0.00127626
981.76295288,0.00123064
983.69176025,0.00121595
985.62056763,0.00141875
987.54937500,0.00165102
989.47818237,0.00187765
991.40698975,0.00214114
993.33579712,0.00196498
995.26460449,0.00236047
997.19341187,0.00252495
999.12221924,0.00248781
1001.05102661,0.00280741
1002.97983398,0.00291219
1004.90864136,0.00337028
1006.83744873,0.00351913
1008.76625610,0.00336577
1010.69506348,0.00358704
1012.62387085,0.00399110
1014.55267822,0.00398997
1016.48148560,0.00415245
1018.41029297,0.00479758
1020.33910034,0.00481543
1022.26790771,0.00484712
1024.19671509,0.00489845
1026.12552246,0.00498887
1028.05432983,0.00542702
1029.98313721,0.00551536
1031.91194458,0.00573345
1033.84075195,0.00588777
1035.76955933,0.00579986
1037.69836670,0.00596350
1039.62717407,0.00609441
1041.55598145,0.00604402
1043.48478882,0.00591272
1045.41359619,0.00587567
1047.34240356,0.00593140
1049.27121094,0.00578563
1051.20001831,0.00561349
1053.12882568,0.00547213
1055.05763306,0.00530275
1056.98644043,0.00518970
1058.91524780,0.00496979
1060.84405518,0.00504217
1062.77286255,0.00506381
1064.70166992,0.00469492
1066.63047729,0.00448787
1068.55928467,0.00439608
1070.48809204,0.00432420
1072.41689941,0.00414958
1074.34570679,0.00393209
1076.27451416,0.00372284
1078.20332153,0.00368471
1080.13212891,0.00348957
1082.06093628,0.00317347
1083.98974365,0.00314895
1085.91855103,0.00291973
1087.84735840,0.00298158
1089.77616577,0.00288813
1091.70497314,0.00262708
1093.63378052,0.00252301
1095.56258789,0.00222706
1097.49139526,0.00250225
1099.42020264,0.00240951
1101.34901001,0.00224998
1103.27781738,0.00256316
1105.20662476,0.00237859
1107.13543213,0.00211358
1109.06423950,0.00208623
1110.99304687,0.00213749
1112.92185425,0.00208553
1114.85066162,0.00220755
1116.77946899,0.00220007
1118.70827637,0.00215375
1120.63708374,0.00219304
1122.56589111,0.00214955
1124.49469849,0.00215949
1126.42350586,0.00199842
1128.35231323,0.00242972
1130.28112061,0.00249535
1132.20992798,0.00234332
1134.13873535,0.00253542
1136.06754272,0.00229439
1137.99635010,0.00267844
1139.92515747,0.00268538
1141.85396484,0.00271971
1143.78277222,0.00314852
1145.71157959,0.00304092
1147.64038696,0.00356066
1149.56919434,0.00374327
1151.49800171,0.00371610
1153.42680908,0.00403300
1155.35561646,0.00404096
1157.28442383,0.00414644
1159.21323120,0.00436872
1161.14203857,0.00473691
1163.07084595,0.00475322
1164.99965332,0.00466821
1166.92846069,0.00499298
1168.85726807,0.00519962
1170.78607544,0.00527468
1172.71488281,0.00554114
1174.64369019,0.00591523
1176.57249756,0.00600907
1178.50130493,0.00614150
1180.43011230,0.00634280
1182.35891968,0.00653331
1184.28772705,0.00688916
1186.21653442,0.00710218
1188.14534180,0.00752178
1190.07414917,0.00806453
1192.00295654,0.00823433
1193.93176392,0.00839849
1195.86057129,0.00887171
1197.78937866,0.00917371
1199.71818604,0.00941372
1201.64699341,0.01014623
1203.57580078,0.01054455
1205.50460815,0.01087034
1207.43341553,0.01145513
1209.36222290,0.01176137
1211.29103027,0.01211763
1213.21983765,0.01222904
1215.14864502,0.01249852
1217.07745239,0.01270749
1219.00625977,0.01280991
1220.93506714,0.01326895
1222.86387451,0.01311543
1224.79268188,0.01319388
1226.72148926,0.01355057
1228.65029663,0.01377913
1230.57910400,0.01373374
1232.50791138,0.01336594
1234.43671875,0.01375492
1236.36552612,0.01352946
1238.29433350,0.01330463
1240.22314087,0.01365634
1242.15194824,0.01339976
1244.08075562,0.01335185
1246.00956299,0.01321153
1247.93837036,0.01331279
1249.86717773,0.01339190
1251.79598511,0.01299490
1253.72479248,0.01291248
1255.65359985,0.01291006
1257.58240723,0.01278668
1259.51121460,0.01233737
1261.44002197,0.01221253
1263.36882935,0.01213092
1265.29763672,0.01177317
1267.22644409,0.01186814
1269.15525146,0.01187550
1271.08405884,0.01160193
1273.01286621,0.01128246
1274.94167358,0.01107831
1276.87048096,0.01082726
1278.79928833,0.01064560
1280.72809570,0.01055597
1282.65690308,0.01028182
1284.58571045,0.01016466
1286.51451782,0.00988779
1288.44332520,0.00964757
1290.37213257,0.00965941
1292.30093994,0.00961662
1294.22974731,0.00961414
1296.15855469,0.00939321
1298.08736206,0.00934377
1300.01616943,0.00961490
1301.94497681,0.00948189
1303.87378418,0.00947320
1305.80259155,0.00972798
1307.73139893,0.00965925
1309.66020630,0.00991717
1311.58901367,0.01016663
1313.51782104,0.01010855
1315.44662842,0.01031475
1317.37543579,0.01064859
1319.30424316,0.01100050
1321.23305054,0.01113590
1323.16185791,0.01144854
1325.09066528,0.01190690
1327.01947266,0.01225315
1328.94828003,0.01263187
1330.87708740,0.01301024
1332.80589478,0.01333043
1334.73470215,0.01325696
1336.66350952,0.01335276
1338.59231689,0.01310496
1340.52112427,0.01319581
1342.44993164,0.01409292
1344.37873901,0.01396583
1346.30754639,0.01401864
1348.23635376,0.01399376
1350.16516113,0.01365032
1352.09396851,0.01381553
1354.02277588,0.01341137
1355.95158325,0.01343809
1357.88039062,0.01362267
1359.80919800,0.01317015
1361.73800537,0.01250085
1363.66681274,0.01246975
1365.59562012,0.01317244
1367.52442749,0.01284076
1369.45323486,0.01272443
1371.38204224,0.01281123
1373.31084961,0.01211910
1375.23965698,0.01215465
1377.16846436,0.01241809
1379.09727173,0.01254241
1381.02607910,0.01261330
1382.95488647,0.01272099
1384.88369385,0.01266353
1386.81250122,0.01193877
1388.74130859,0.01212483
1390.67011597,0.01311383
1392.59892334,0.01267965
1394.52773071,0.01195840
1396.45653809,0.01266322
1398.38534546,0.01229056
1400.31415283,0.01229491
1402.24296021,0.01352356
1404.17176758,0.01269345
1406.10057495,0.01282433
1408.02938232,0.01315146
1409.95818970,0.01259144
1411.88699707,0.01286040
1413.81580444,0.01242952
1415.74461182,0.01274912
1417.67341919,0.01129841
1419.60222656,0.01025686
1421.53103394,0.01201543
1423.45984131,0.01142246
1425.38864868,0.01117442
1427.31745605,0.01138656
1429.24626343,0.01033348
1431.17507080,0.01003468
1433.10387817,0.01022835
1435.03268555,0.00926342
1436.96149292,0.00780987
1438.89030029,0.00914356
1440.81910767,0.00962179
1442.74791504,0.00896119
1444.67672241,0.00928423
1446.60552979,0.00833759
1448.53433716,0.00856674
1450.46314453,0.00886750
1452.39195190,0.00894950
1454.32075928,0.00936146
1456.24956665,0.00744048
1458.17837402,0.00784791
1460.10718140,0.01063808
1462.03598877,0.01114715
1463.96479614,0.01098772
1465.89360352,0.01128126
1467.82241089,0.01311873
1469.75121826,0.01389401
1471.68002563,0.01208788
1473.60883301,0.01299847
1475.53764038,0.01465034
1477.46644775,0.01587908
1479.39525513,0.01747144
1481.32406250,0.01773507
1483.25286987,0.01895588
1485.18167725,0.01913427
1487.11048462,0.01871467
1489.03929199,0.01846362
1490.96809937,0.01864902
1492.89690674,0.02210467
1494.82571411,0.02127457
1496.75452148,0.01877740
1498.68332886,0.02142033
1500.61213623,0.02224930
1502.54094360,0.02388862
1504.46975098,0.02214568
1506.39855835,0.01542384
1508.32736572,0.01952877
1510.25617310,0.02324737
1512.18498047,0.02247516
1514.11378784,0.02462255
1516.04259521,0.02167981
1517.97140259,0.02279124
1519.90020996,0.02184052
1521.82901733,0.01864263
1523.75782471,0.02346705
1525.68663208,0.02270922
1527.61543945,0.02287346
1529.54424683,0.02568033
1531.47305420,0.02439500
1533.40186157,0.02197748
1535.33066895,0.02374301
1537.25947632,0.02546975
1539.18828369,0.01713789
1541.11709106,0.01842539
1543.04589844,0.02253958
1544.97470581,0.02168018
1546.90351318,0.02616114
1548.83232056,0.02407505
1550.76112793,0.02483545
1552.68993530,0.02437319
1554.61874268,0.02228758
1556.54755005,0.02365845
1558.47635742,0.01555284
1560.40516479,0.01778651
1562.33397217,0.02608513
1564.26277954,0.02424134
1566.19158691,0.02537161
1568.12039429,0.02483243
1570.04920166,0.02164914
1571.97800903,0.02594402
1573.90681641,0.02581152
1575.83562378,0.01987761
1577.76443115,0.02312432
1579.69323853,0.02627330
1581.62204590,0.02537285
1583.55085327,0.02587822
1585.47966064,0.02536703
1587.40846802,0.02549577
1589.33727539,0.02523037
1591.26608276,0.02536567
1593.19489014,0.02505091
1595.12369751,0.02499809
1597.05250488,0.02545391
1598.98131226,0.02520719
1600.91011963,0.02536632
1602.83892700,0.02473978
1604.76773437,0.02529975
1606.69654175,0.02460927
1608.62534912,0.02458022
1610.55415649,0.02475295
1612.48296387,0.02489874
1614.41177124,0.02515846
1616.34057861,0.02009572
1618.26938599,0.02208649
1620.19819336,0.02593594
1622.12700073,0.02259482
1624.05580811,0.02283536
1625.98461548,0.02426731
1627.91342285,0.02387730
1629.84223022,0.02385150
1631.77103760,0.02578990
1633.69984497,0.02315509
1635.62865234,0.01864938
1637.55745972,0.02237405
1639.48626709,0.02492407
1641.41507446,0.02412799
1643.34388184,0.02488489
1645.27268921,0.02191224
1647.20149658,0.01898930
1649.13030396,0.02459226
1651.05911133,0.02243296
1652.98791870,0.01381329
1654.91672607,0.02031454
1656.84553345,0.02547116
1658.77434082,0.02435426
1660.70314819,0.02507590
1662.63195557,0.02234726
1664.56076294,0.02388420
1666.48957031,0.02590762
1668.41837769,0.02188940
1670.34718506,0.02132482
1672.27599243,0.02464213
1674.20479980,0.02217974
1676.13360718,0.02149947
1678.06241455,0.02509042
1679.99122192,0.02409077
1681.92002930,0.02366914
1683.84883667,0.01841396
1685.77764404,0.01907274
1687.70645142,0.02664779
1689.63525879,0.02238402
1691.56406616,0.02536550
1693.49287354,0.02511757
1695.42168091,0.01770233
1697.35048828,0.02294039
1699.27929565,0.01923174
1701.20810303,0.01746825
1703.13691040,0.02477790
1705.06571777,0.02236130
1706.99452515,0.02291937
1708.92333252,0.02486034
1710.85213989,0.02383741
1712.78094727,0.02411852
1714.70975464,0.02203297
1716.63856201,0.01972904
1718.56736938,0.01946445
1720.49617676,0.02361474
1722.42498413,0.02434092
1724.35379150,0.02262450
1726.28259888,0.02488825
1728.21140625,0.02255008
1730.14021362,0.02291261
1732.06902100,0.02189452
1733.99782837,0.01606784
1735.92663574,0.02103966
1737.85544312,0.02331174
1739.78425049,0.02050163
1741.71305786,0.02258116
1743.64186523,0.02281557
1745.57067261,0.02283733
1747.49947998,0.02282479
1749.42828735,0.02154537
1751.35709473,0.02069689
1753.28590210,0.02343761
1755.21470947,0.02431640
1757.14351685,0.02193345
1759.07232422,0.02457496
1761.00113159,0.02250814
1762.92993896,0.02190490
1764.85874634,0.02560354
1766.78755371,0.02244246
1768.71636108,0.02285722
1770.64516846,0.02243826
1772.57397583,0.01983375
1774.50278320,0.02263340
1776.43159058,0.02402261
1778.36039795,0.02375690
1780.28920532,0.02331590
1782.21801270,0.02358554
1784.14682007,0.02354246
1786.07562744,0.02303463
1788.00443481,0.02438118
1789.93324219,0.02344653
1791.86204956,0.02089467
1793.79085693,0.02209555
1795.71966431,0.02392778
1797.64847168,0.02322848
1799.57727905,0.02281124
1801.50608643,0.02251232
1803.43489380,0.02337903
1805.36370117,0.02411234
1807.29250854,0.02365050
1809.22131592,0.02351859
1811.15012329,0.02285001
1813.07893066,0.02381269
1815.00773804,0.02380664
1816.93654541,0.02359923
1818.86535278,0.02381866
1820.79416016,0.02359701
1822.72296753,0.02403898
1824.65177490,0.02207408
1826.58058228,0.02319583
1828.50938965,0.02303962
1830.43819702,0.02139287
1832.36700439,0.02388022
1834.29581177,0.02332151
1836.22461914,0.02341127
1838.15342651,0.02332463
1840.08223389,0.02342431
1842.01104126,0.02340527
1843.93984863,0.02030227
1845.86865601,0.02210054
1847.79746338,0.02327038
1849.72627075,0.02281685
1851.65507812,0.02359413
1853.58388550,0.02300526
1855.51269287,0.02353135
1857.44150024,0.02318583
1859.37030762,0.02292326
1861.29911499,0.02301641
1863.22792236,0.02282971
1865.15672974,0.02298809
1867.08553711,0.02192817
1869.01434448,0.02107511
1870.94315186,0.02198820
1872.87195923,0.02310169
1874.80076660,0.02264874
1876.72957397,0.02266037
1878.65838135,0.02258086
1880.58718872,0.02248955
1882.51599609,0.02292982
1884.44480347,0.02236290
1886.37361084,0.02264994
1888.30241821,0.02210986
1890.23122559,0.02160125
1892.16003296,0.02252395
1894.08884033,0.02216516
1896.01764771,0.02196726
1897.94645508,0.02220109
1899.87526245,0.02228303
1901.80406982,0.02218553
1903.73287720,0.02193778
1905.66168457,0.02205000
1907.59049194,0.02173740
1909.51929932,0.02162296
1911.44810669,0.02168313
1913.37691406,0.02184682
1915.30572144,0.02185915
1917.23452881,0.02078192
1919.16333618,0.02113366
1921.09214355,0.02178792
1923.02095093,0.02098689
1924.94975830,0.02147864
1926.87856567,0.02163688
1928.80737305,0.02140853
1930.73618042,0.02177865
1932.66498779,0.02145023
1934.59379517,0.02159153
1936.52260254,0.02143880
1938.45140991,0.02144792
1940.38021729,0.02144491
1942.30902466,0.02067862
1944.23783203,0.02103027
1946.16663940,0.02128664
1948.09544678,0.02124399
1950.02425415,0.02143071
1951.95306152,0.02126154
1953.88186890,0.02118886
1955.81067627,0.02120322
1957.73948364,0.02117798
1959.66829102,0.02113781
1961.59709839,0.02124870
1963.52590576,0.02115263
1965.45471313,0.02075925
1967.38352051,0.02049276
1969.31232788,0.02080420
1971.24113525,0.02104580
1973.16994263,0.02083112
1975.09875000,0.02087504
1977.02755737,0.02071978
1978.95636475,0.02067907
1980.88517212,0.02065997
1982.81397949,0.02068801
1984.74278687,0.02087149
1986.67159424,0.02058621
1988.60040161,0.02054160
1990.52920898,0.02026472
1992.45801636,0.02008617
1994.38682373,0.02041216
1996.31563110,0.02043310
1998.24443848,0.02038839
2000.17324585,0.02028328
2002.10205322,0.02029072
2004.03086060,0.02021224
2005.95966797,0.02004882
2007.88847534,0.02003989
2009.81728271,0.02002277
2011.74609009,0.01998276
2013.67489746,0.01991831
2015.60370483,0.01988275
2017.53251221,0.01962176
2019.46131958,0.01956664
2021.39012695,0.01968148
2023.31893433,0.01956968
2025.24774170,0.01952070
2027.17654907,0.01945855
2029.10535645,0.01942835
2031.03416382,0.01941819
2032.96297119,0.01935909
2034.89177856,0.01933283
2036.82058594,0.01934448
2038.74939331,0.01914804
2040.67820068,0.01893512
2042.60700806,0.01899381
2044.53581543,0.01894590
2046.46462280,0.01899391
2048.39343018,0.01910062
2050.32223755,0.01895187
2052.25104492,0.01887402
2054.17985229,0.01894253
2056.10865967,0.01893242
2058.03746704,0.01878462
2059.96627441,0.01859583
2061.89508179,0.01856253
2063.82388916,0.01862061
2065.75269653,0.01852733
2067.68150391,0.01851725
2069.61031128,0.01853867
2071.53911865,0.01844189
2073.46792603,0.01835207
2075.39673340,0.01832667
2077.32554077,0.01836324
2079.25434814,0.01827151
2081.18315552,0.01821979
2083.11196289,0.01816454
2085.04077026,0.01816022
2086.96957764,0.01817241
2088.89838501,0.01798802
2090.82719238,0.01794996
2092.75599976,0.01797630
2094.68480713,0.01800777
2096.61361450,0.01785916
2098.54242187,0.01776872
2100.47122925,0.01790881
2102.40003662,0.01771796
2104.32884399,0.01766708
2106.25765137,0.01773558
2108.18645874,0.01759637
2110.11526611,0.01756915
2112.04407349,0.01759038
2113.97288086,0.01756454
2115.90168823,0.01751984
2117.83049561,0.01748773
2119.75930298,0.01741845
2121.68811035,0.01739088
2123.61691772,0.01735926
2125.54572510,0.01728738
2127.47453247,0.01731227
2129.40333984,0.01720612
2131.33214722,0.01709184
2133.26095459,0.01722777
2135.18976196,0.01717242
2137.11856934,0.01706993
2139.04737671,0.01716268
2140.97618408,0.01707368
2142.90499146,0.01706215
2144.83379883,0.01703956
2146.76260620,0.01696659
2148.69141357,0.01697095
2150.62022095,0.01690446
2152.54902832,0.01696409
2154.47783569,0.01682463
2156.40664307,0.01676279
2158.33545044,0.01687303
2160.26425781,0.01684683
2162.19306519,0.01682858
2164.12187256,0.01676454
2166.05067993,0.01680028
2167.97948730,0.01666598
2169.90829468,0.01663254
2171.83710205,0.01664671
2173.76590942,0.01650138
2175.69471680,0.01648494
2177.62352417,0.01640461
2179.55233154,0.01655484
2181.48113892,0.01649695
2183.40994629,0.01641144
2185.33875366,0.01650116
2187.26756104,0.01637946
2189.19636841,0.01639216
2191.12517578,0.01622608
2193.05398315,0.01621486
2194.98279053,0.01624626
2196.91159790,0.01624349
2198.84040527,0.01629506
2200.76921265,0.01604044
2202.69802002,0.01615727
2204.62682739,0.01613032
2206.55563477,0.01595253
2208.48444214,0.01609359
2210.41324951,0.01605162
2212.34205688,0.01603349
2214.27086426,0.01603399
2216.19967163,0.01599585
2218.12847900,0.01594578
2220.05728638,0.01585372
2221.98609375,0.01584134
2223.91490112,0.01587341
2225.84370850,0.01582064
2227.77251587,0.01576606
2229.70132324,0.01576035
2231.63013062,0.01573115
2233.55893799,0.01573604
2235.48774536,0.01559150
2237.41655273,0.01557463
2239.34536011,0.01562576
2241.27416748,0.01550524
2243.20297485,0.01551731
2245.13178223,0.01544596
2247.06058960,0.01532927
2248.98939697,0.01528555
2250.91820435,0.01538629
2252.84701172,0.01546656
2254.77581909,0.01532941
2256.70462646,0.01527485
2258.63343384,0.01519037
2260.56224121,0.01524499
2262.49104858,0.01529379
2264.41985596,0.01510635
2266.34866333,0.01509081
2268.27747070,0.01513890
2270.20627808,0.01515830
2272.13508545,0.01507447
2274.06389282,0.01498220
2275.99270020,0.01498682
2277.92150757,0.01486881
2279.85031494,0.01490212
2281.77912231,0.01491795
2283.70792969,0.01480704
2285.63673706,0.01482094
2287.56554443,0.01476223
2289.49435181,0.01483901
2291.42315918,0.01482347
2293.35196655,0.01470596
2295.28077393,0.01476594
2297.20958130,0.01462437
2299.13838867,0.01459889
2301.06719604,0.01457111
2302.99600342,0.01442863
2304.92481079,0.01435811
2306.85361816,0.01426680
2308.78242554,0.01427066
2310.71123291,0.01399375
2312.64004028,0.01381929
2314.56884766,0.01375351
2316.49765503,0.01355469
2318.42646240,0.01348096
2320.35526978,0.01326562
2322.28407715,0.01310107
2324.21288452,0.01280551
2326.14169189,0.01273990
2328.07049927,0.01275129
2329.99930664,0.01239603
2331.92811401,0.01242718
2333.85692139,0.01234833
2335.78572876,0.01227879
2337.71453613,0.01227929
2339.64334351,0.01214079
2341.57215088,0.01235508
2343.50095825,0.01238069
2345.42976562,0.01255165
2347.35857300,0.01318751
2349.28738037,0.01348683
2351.21618774,0.01294515
2353.14499512,0.01230929
2355.07380249,0.01212162
2357.00260986,0.01164834
2358.93141724,0.01136213
2360.86022461,0.01134558
2362.78903198,0.01127149
2364.71783936,0.01143575
2366.64664673,0.01147686
2368.57545410,0.01167109
2370.50426147,0.01194439
2372.43306885,0.01217300
2374.36187622,0.01259190
2376.29068359,0.01277644
2378.21949097,0.01305244
2380.14829834,0.01332154
2382.07710571,0.01328913
2384.00591309,0.01342656
2385.93472046,0.01349131
2387.86352783,0.01338315
2389.79233521,0.01343569
2391.72114258,0.01351431
2393.64994995,0.01340581
2395.57875732,0.01338700
2397.50756470,0.01338624
2399.43637207,0.01323849
2401.36517944,0.01336278
2403.29398682,0.01335494
2405.22279419,0.01319659
2407.15160156,0.01325576
2409.08040894,0.01321713
2411.00921631,0.01318025
2412.93802368,0.01314731
2414.86683105,0.01320650
2416.79563843,0.01318886
2418.72444580,0.01298547
2420.65325317,0.01300097
2422.58206055,0.01303732
2424.51086792,0.01300956
2426.43967529,0.01302473
2428.36848267,0.01301499
2430.29729004,0.01289499
2432.22609741,0.01289956
2434.15490479,0.01291182
2436.08371216,0.01278785
2438.01251953,0.01286092
2439.94132690,0.01274962
2441.87013428,0.01268163
2443.79894165,0.01278260
2445.72774902,0.01274113
2447.65655640,0.01273835
2449.58536377,0.01266191
2451.51417114,0.01263279
2453.44297852,0.01259669
2455.37178589,0.01265334
2457.30059326,0.01264373
2459.22940063,0.01249367
2461.15820801,0.01258368
2463.08701538,0.01256631
2465.01582275,0.01249753
2466.94463013,0.01244302
2468.87343750,0.01250581
2470.80224487,0.01249738
2472.73105225,0.01225700
2474.65985962,0.01233820
2476.58866699,0.01234377
2478.51747437,0.01221193
2480.44628174,0.01220932
2482.37508911,0.01221643
2484.30389648,0.01224501
2486.23270386,0.01227637
2488.16151123,0.01224136
2490.09031860,0.01210265
2492.01912598,0.01215111
2493.94793335,0.01213522
2495.87674072,0.01205856
2497.80554810,0.01210256
2499.73435547,0.01208418
2501.66316284,0.01209771
2503.59197021,0.01197584
2505.52077759,0.01195100
2507.44958496,0.01206638
2509.37839233,0.01198504
2511.30719971,0.01184653
2513.23600708,0.01187669
2515.16481445,0.01188389
2517.09362183,0.01170683
2519.02242920,0.01171612
2520.95123657,0.01176152
2522.88004395,0.01184309
2524.80885132,0.01185522
2526.73765869,0.01166258
2528.66646606,0.01172970
2530.59527344,0.01172844
2532.52408081,0.01165838
2534.45288818,0.01166219
2536.38169556,0.01169456
2538.31050293,0.01171021
2540.23931030,0.01148411
2542.16811768,0.01148463
2544.09692505,0.01150939
2546.02573242,0.01142335
2547.95453979,0.01145449
2549.88334717,0.01135090
2551.81215454,0.01135017
2553.74096191,0.01146887
2555.66976929,0.01150514
2557.59857666,0.01138045
2559.52738403,0.01126907
2561.45619141,0.01130438
2563.38499878,0.01132939
2565.31380615,0.01124026
2567.24261353,0.01107885
2569.17142090,0.01129494
2571.10022827,0.01130750
2573.02903564,0.01105214
2574.95784302,0.01119060
2576.88665039,0.01111786
2578.81545776,0.01110517
2580.74426514,0.01114835
2582.67307251,0.01101770
2584.60187988,0.01110624
2586.53068726,0.01109293
2588.45949463,0.01111546
2590.38830200,0.01110725
2592.31710937,0.01100244
2594.24591675,0.01090372
2596.17472412,0.01091895
2598.10353149,0.01107564
2600.03233887,0.01092508
2601.96114624,0.01090665
2603.88995361,0.01094479
2605.81876099,0.01084943
2607.74756836,0.01081137
2609.67637573,0.01075052
2611.60518311,0.01082653
2613.53399048,0.01077500
2615.46279785,0.01070745
2617.39160522,0.01056350
2619.32041260,0.01057696
2621.24921997,0.01069438
2623.17802734,0.01053232
2625.10683472,0.01068485
2627.03564209,0.01061745
2628.96444946,0.01053059
2630.89325684,0.01060783
2632.82206421,0.01047905
2634.75087158,0.01064692
2636.67967895,0.01059469
2638.60848633,0.01053420
2640.53729370,0.01056309
2642.46610107,0.01039923
2644.39490845,0.01036134
2646.32371582,0.01031251
2648.25252319,0.01038682
2650.18133057,0.01040259
2652.11013794,0.01032913
2654.03894531,0.01025750
2655.96775269,0.01017902
2657.89656006,0.01023414
2659.82536743,0.01029630
2661.75417480,0.01028229
2663.68298218,0.01013614
2665.61178955,0.01018814
2667.54059692,0.01020609
2669.46940430,0.01009678
2671.39821167,0.01019826
2673.32701904,0.01008702
2675.25582642,0.00999975
2677.18463379,0.01004898
2679.11344116,0.00995638
2681.04224854,0.00997770
2682.97105591,0.00997518
2684.89986328,0.00991470
2686.82867065,0.00998783
2688.75747803,0.01002217
2690.68628540,0.00996630
2692.61509277,0.00987979
2694.54390015,0.00986385
2696.47270752,0.00990688
2698.40151489,0.00981225
2700.33032227,0.00981526
2702.25912964,0.00990874
2704.18793701,0.00986433
2706.11674438,0.00977464
2708.04555176,0.00971585
2709.97435913,0.00979798
2711.90316650,0.00980346
2713.83197388,0.00971619
2715.76078125,0.00968769
2717.68958862,0.00962673
2719.61839600,0.00959596
2721.54720337,0.00963003
2723.47601074,0.00963447
2725.40481812,0.00946164
2727.33362549,0.00947726
2729.26243286,0.00961522
2731.19124023,0.00945395
2733.12004761,0.00941562
2735.04885498,0.00953159
2736.97766235,0.00954061
2738.90646973,0.00944323
2740.83527710,0.00936558
2742.76408447,0.00940195
2744.69289185,0.00940304
2746.62169922,0.00932874
2748.55050659,0.00927483
2750.47931396,0.00940019
2752.40812134,0.00932631
2754.33692871,0.00912190
2756.26573608,0.00933713
2758.19454346,0.00935051
2760.12335083,0.00916233
2762.05215820,0.00928050
2763.98096558,0.00925078
2765.90977295,0.00912397
2767.83858032,0.00906121
2769.76738770,0.00898793
2771.69619507,0.00905114
2773.62500244,0.00900860
2775.55380981,0.00895224
2777.48261719,0.00898385
2779.41142456,0.00890709
2781.34023193,0.00900887
2783.26903931,0.00905739
2785.19784668,0.00887046
2787.12665405,0.00892242
2789.05546143,0.00897662
2790.98426880,0.00880949
2792.91307617,0.00870329
2794.84188354,0.00870599
2796.77069092,0.00877161
2798.69949829,0.00870622
2800.62830566,0.00866358
2802.55711304,0.00879880
2804.48592041,0.00873626
2806.41472778,0.00871146
2808.34353516,0.00873597
2810.27234253,0.00861526
2812.20114990,0.00867219
2814.12995728,0.00862641
2816.05876465,0.00854465
2817.98757202,0.00859539
2819.91637939,0.00852523
2821.84518677,0.00854945
2823.77399414,0.00852023
2825.70280151,0.00844853
2827.63160889,0.00848189
2829.56041626,0.00836981
2831.48922363,0.00838365
2833.41803101,0.00844238
2835.34683838,0.00831393
2837.27564575,0.00829675
2839.20445312,0.00828756
2841.13326050,0.00825704
2843.06206787,0.00822807
2844.99087524,0.00815530
2846.91968262,0.00816643
2848.84848999,0.00810791
2850.77729736,0.00813718
2852.70610474,0.00821385
2854.63491211,0.00813105
2856.56371948,0.00817234
2858.49252686,0.00812941
2860.42133423,0.00803800
2862.35014160,0.00812986
2864.27894897,0.00802792
2866.20775635,0.00792212
2868.13656372,0.00794632
2870.06537109,0.00788914
2871.99417847,0.00803732
2873.92298584,0.00805583
2875.85179321,0.00790100
2877.78060059,0.00798022
2879.70940796,0.00786979
2881.63821533,0.00779396
2883.56702270,0.00779429
2885.49583008,0.00773172
2887.42463745,0.00784518
2889.35344482,0.00777645
2891.28225220,0.00778795
2893.21105957,0.00785794
2895.13986694,0.00774571
2897.06867432,0.00768451
2898.99748169,0.00767216
2900.92628906,0.00775158
2902.85509644,0.00771008
2904.78390381,0.00769708
2906.71271118,0.00773574
2908.64151855,0.00765044
2910.57032593,0.00753496
2912.49913330,0.00741520
2914.42794067,0.00747949
2916.35674805,0.00748322
2918.28555542,0.00739108
2920.21436279,0.00741218
2922.14317017,0.00745925
2924.07197754,0.00742877
2926.00078491,0.00737779
2927.92959229,0.00738710
2929.85839966,0.00731291
2931.78720703,0.00738714
2933.71601440,0.00745895
2935.64482178,0.00732533
2937.57362915,0.00730712
2939.50243652,0.00735039
2941.43124390,0.00733940
2943.36005127,0.00735902
2945.28885864,0.00740897
2947.21766602,0.00727406
2949.14647339,0.00719453
2951.07528076,0.00727791
2953.00408813,0.00724372
2954.93289551,0.00717666
2956.86170288,0.00716883
2958.79051025,0.00714425
2960.71931763,0.00705064
2962.64812500,0.00718419
2964.57693237,0.00722263
2966.50573975,0.00705740
2968.43454712,0.00709589
2970.36335449,0.00707665
2972.29216187,0.00710080
2974.22096924,0.00709774
2976.14977661,0.00702562
2978.07858398,0.00699815
2980.00739136,0.00700736
2981.93619873,0.00706526
2983.86500610,0.00696294
2985.79381348,0.00701653
2987.72262085,0.00704775
2989.65142822,0.00697778
2991.58023560,0.00694166
2993.50904297,0.00683242
2995.43785034,0.00695367
2997.36665771,0.00691140
2999.29546509,0.00680125
3001.22427246,0.00691200
3003.15307983,0.00687636
3005.08188721,0.00682611
3007.01069458,0.00682737
3008.93950195,0.00680601
3010.86830933,0.00684785
3012.79711670,0.00693555
3014.72592407,0.00685874
3016.65473145,0.00675204
3018.58353882,0.00677998
3020.51234619,0.00676747
3022.44115356,0.00669818
3024.36996094,0.00662169
3026.29876831,0.00668144
3028.22757568,0.00671624
3030.15638306,0.00662076
3032.08519043,0.00662960
3034.01399780,0.00661675
3035.94280518,0.00654089
3037.87161255,0.00656451
3039.80041992,0.00656679
3041.72922729,0.00652410
3043.65803467,0.00657744
3045.58684204,0.00650761
3047.51564941,0.00640106
3049.44445679,0.00648103
3051.37326416,0.00648589
3053.30207153,0.00643541
3055.23087891,0.00640063
3057.15968628,0.00641719
3059.08849365,0.00647244
3061.01730103,0.00642282
3062.94610840,0.00641057
3064.87491577,0.00636857
3066.80372314,0.00632477
3068.73253052,0.00630507
3070.66133789,0.00616930
3072.59014526,0.00621591
3074.51895264,0.00629481
3076.44776001,0.00624345
3078.37656738,0.00622286
3080.30537476,0.00614226
3082.23418213,0.00620806
3084.16298950,0.00627191
3086.09179687,0.00618569
3088.02060425,0.00615089
3089.94941162,0.00610215
3091.87821899,0.00613447
3093.80702637,0.00618351
3095.73583374,0.00612748
3097.66464111,0.00604347
3099.59344849,0.00603677
3101.52225586,0.00602651
3103.45106323,0.00600192
3105.37987061,0.00607752
3107.30867798,0.00601767
3109.23748535,0.00600065
3111.16629272,0.00599159
3113.09510010,0.00588116
3115.02390747,0.00596963
3116.95271484,0.00594391
3118.88152222,0.00577834
3120.81032959,0.00576448
3122.73913696,0.00583249
3124.66794434,0.00582097
3126.59675171,0.00581960
3128.52555908,0.00585176
3130.45436645,0.00577207
3132.38317383,0.00573417
3134.31198120,0.00572641
3136.24078857,0.00579299
3138.16959595,0.00582917
3140.09840332,0.00574692
3142.02721069,0.00571724
3143.95601807,0.00566723
3145.88482544,0.00562450
3147.81363281,0.00555559
3149.74244019,0.00559297
3151.67124756,0.00561717
3153.60005493,0.00554812
3155.52886230,0.00563330
3157.45766968,0.00559590
3159.38647705,0.00550719
3161.31528442,0.00552676
3163.24409180,0.00554460
3165.17289917,0.00551770
3167.10170654,0.00549939
3169.03051392,0.00553473
3170.95932129,0.00546463
3172.88812866,0.00540349
3174.81693604,0.00538317
3176.74574341,0.00541810
3178.67455078,0.00543660
3180.60335815,0.00535260
3182.53216553,0.00534696
3184.46097290,0.00532227
3186.38978027,0.00529056
3188.31858765,0.00522219
3190.24739502,0.00515344
3192.17620239,0.00516299
3194.10500977,0.00514763
3196.03381714,0.00517995
3197.96262451,0.00517573
3199.89143188,0.00519823
3201.82023926,0.00515825
3203.74904663,0.00507367
3205.67785400,0.00514039
3207.60666138,0.00506185
3209.53546875,0.00501374
3211.46427612,0.00504716
3213.39308350,0.00500131
3215.32189087,0.00499883
3217.25069824,0.00498407
3219.17950562,0.00505461
3221.10831299,0.00503311
3223.03712036,0.00497988
3224.96592773,0.00507103
3226.89473511,0.00509434
3228.82354248,0.00502291
3230.75234985,0.00489012
3232.68115723,0.00495535
3234.60996460,0.00494865
3236.53877197,0.00483880
3238.46757935,0.00490396
3240.39638672,0.00482097
3242.32519409,0.00485113
3244.25400146,0.00484503
3246.18280884,0.00471695
3248.11161621,0.00478909
3250.04042358,0.00484585
3251.96923096,0.00486046
3253.89803833,0.00479009
3255.82684570,0.00480741
3257.75565308,0.00483347
3259.68446045,0.00483692
3261.61326782,0.00483309
3263.54207520,0.00472139
3265.47088257,0.00486676
3267.39968994,0.00485937
3269.32849731,0.00470978
3271.25730469,0.00474659
3273.18611206,0.00477882
3275.11491943,0.00478664
3277.04372681,0.00467447
3278.97253418,0.00470464
3280.90134155,0.00470868
3282.83014893,0.00471260
3284.75895630,0.00485342
3286.68776367,0.00471245
3288.61657104,0.00458502
3290.54537842,0.00461602
3292.47418579,0.00467061
3294.40299316,0.00466036
3296.33180054,0.00462773
3298.26060791,0.00468943
3300.18941528,0.00463192
3302.11822266,0.00464801
3304.04703003,0.00465260
3305.97583740,0.00450673
3307.90464478,0.00457166
3309.83345215,0.00460483
3311.76225952,0.00453353
3313.69106689,0.00459225
3315.61987427,0.00456812
3317.54868164,0.00453216
3319.47748901,0.00456509
3321.40629639,0.00455798
3323.33510376,0.00456621
3325.26391113,0.00454748
3327.19271851,0.00450462
3329.12152588,0.00448584
3331.05033325,0.00448614
3332.97914062,0.00448195
3334.90794800,0.00446626
3336.83675537,0.00441309
3338.76556274,0.00441563
3340.69437012,0.00452463
3342.62317749,0.00448385
3344.55198486,0.00437460
3346.48079224,0.00444822
3348.40959961,0.00448232
3350.33840698,0.00431289
3352.26721436,0.00431624
3354.19602173,0.00438550
3356.12482910,0.00433848
3358.05363647,0.00444368
3359.98244385,0.00442697
3361.91125122,0.00436843
3363.84005859,0.00438024
3365.76886597,0.00435292
3367.69767334,0.00432549
3369.62648071,0.00433467
3371.55528809,0.00445654
3373.48409546,0.00432638
3375.41290283,0.00426744
3377.34171020,0.00431682
3379.27051758,0.00422596
3381.19932495,0.00424205
3383.12813232,0.00425738
3385.05693970,0.00429543
3386.98574707,0.00419457
3388.91455444,0.00428213
3390.84336182,0.00429766
3392.77216919,0.00406402
3394.70097656,0.00420783
3396.62978394,0.00424869
3398.55859131,0.00416887
3400.48739868,0.00410588
3402.41620605,0.00414722
3404.34501343,0.00417890
3406.27382080,0.00405165
3408.20262817,0.00409282
3410.13143555,0.00409397
3412.06024292,0.00413626
3413.98905029,0.00410796
3415.91785767,0.00410616
3417.84666504,0.00408019
3419.77547241,0.00399787
3421.70427979,0.00409810
3423.63308716,0.00405675
3425.56189453,0.00409417
3427.49070190,0.00398247
3429.41950928,0.00394471
3431.34831665,0.00403881
3433.27712402,0.00395307
3435.20593140,0.00403154
3437.13473877,0.00393326
3439.06354614,0.00394645
3440.99235352,0.00399066
3442.92116089,0.00394301
3444.84996826,0.00398022
3446.77877563,0.00384806
3448.70758301,0.00390091
3450.63639038,0.00396454
3452.56519775,0.00391370
3454.49400513,0.00385015
3456.42281250,0.00384563
3458.35161987,0.00393950
3460.28042725,0.00391991
3462.20923462,0.00382902
3464.13804199,0.00379904
3466.06684937,0.00391375
3467.99565674,0.00389214
3469.92446411,0.00380822
3471.85327148,0.00384486
3473.78207886,0.00385919
3475.71088623,0.00381560
3477.63969360,0.00379828
3479.56850098,0.00380111
3481.49730835,0.00374376
3483.42611572,0.00385100
3485.35492310,0.00393701
3487.28373047,0.00382472
3489.21253784,0.00369688
3491.14134521,0.00378612
3493.07015259,0.00384780
3494.99895996,0.00370327
3496.92776733,0.00377539
3498.85657471,0.00380382
3500.78538208,0.00376251
3502.71418945,0.00365646
3504.64299683,0.00366187
3506.57180420,0.00384423
3508.50061157,0.00371363
3510.42941895,0.00365958
3512.35822632,0.00369136
3514.28703369,0.00374384
3516.21584106,0.00369050
3518.14464844,0.00365802
3520.07345581,0.00385090
3522.00226318,0.00368579
3523.93107056,0.00356970
3525.85987793,0.00363399
3527.78868530,0.00361580
3529.71749268,0.00362633
3531.64630005,0.00367620
3533.57510742,0.00372680
3535.50391479,0.00369594
3537.43272217,0.00365110
3539.36152954,0.00360967
3541.29033691,0.00372695
3543.21914429,0.00365430
3545.14795166,0.00347525
3547.07675903,0.00355393
3549.00556641,0.00364322
3550.93437378,0.00363978
3552.86318115,0.00350294
3554.79198853,0.00355886
3556.72079590,0.00364270
3558.64960327,0.00354929
3560.57841064,0.00351203
3562.50721802,0.00359422
3564.43602539,0.00358232
3566.36483276,0.00329244
3568.29364014,0.00328081
3570.22244751,0.00356281
3572.15125488,0.00368353
3574.08006226,0.00357033
3576.00886963,0.00354865
3577.93767700,0.00361286
3579.86648437,0.00354798
3581.79529175,0.00355702
3583.72409912,0.00355540
3585.65290649,0.00345182
3587.58171387,0.00316441
3589.51052124,0.00326766
3591.43932861,0.00363439
3593.36813599,0.00348435
3595.29694336,0.00338730
3597.22575073,0.00353529
3599.15455811,0.00351581
3601.08336548,0.00337492
3603.01217285,0.00350890
3604.94098022,0.00361863
3606.86978760,0.00344799
3608.79859497,0.00320076
3610.72740234,0.00323786
3612.65620972,0.00338100
3614.58501709,0.00326130
3616.51382446,0.00355590
3618.44263184,0.00324045
3620.37143921,0.00308533
3622.30024658,0.00360674
3624.22905395,0.00340272
3626.15786133,0.00356826
3628.08666870,0.00296274
3630.01547607,0.00263902
3631.94428345,0.00347438
3633.87309082,0.00332357
3635.80189819,0.00336931
3637.73070557,0.00348675
3639.65951294,0.00345360
3641.58832031,0.00342265
3643.51712769,0.00333476
3645.44593506,0.00338357
3647.37474243,0.00303451
3649.30354980,0.00278267
3651.23235718,0.00279580
3653.16116455,0.00343756
3655.08997192,0.00336495
3657.01877930,0.00301319
3658.94758667,0.00355544
3660.87639404,0.00340829
3662.80520142,0.00345023
3664.73400879,0.00343069
3666.66281616,0.00339725
3668.59162354,0.00324050
3670.52043091,0.00267770
3672.44923828,0.00332788
3674.37804565,0.00304645
3676.30685303,0.00262422
3678.23566040,0.00329916
3680.16446777,0.00319562
3682.09327515,0.00325110
3684.02208252,0.00340473
3685.95088989,0.00333015
3687.87969727,0.00289846
3689.80850464,0.00266029
3691.73731201,0.00310848
3693.66611938,0.00318737
3695.59492676,0.00336364
3697.52373413,0.00330405
3699.45254150,0.00321529
3701.38134888,0.00314622
3703.31015625,0.00298869
3705.23896362,0.00339720
3707.16777100,0.00319755
3709.09657837,0.00307075
3711.02538574,0.00286909
3712.95419312,0.00269370
3714.88300049,0.00329011
3716.81180786,0.00313627
3718.74061523,0.00305474
3720.66942261,0.00303960
3722.59822998,0.00299959
3724.52703735,0.00308487
3726.45584473,0.00292422
3728.38465210,0.00324399
3730.31345947,0.00308353
3732.24226685,0.00284854
3734.17107422,0.00271873
3736.09988159,0.00254459
3738.02868896,0.00272627
3739.95749634,0.00294536
3741.88630371,0.00303980
3743.81511108,0.00222498
3745.74391846,0.00236462
3747.67272583,0.00302714
3749.60153320,0.00241325
3751.53034058,0.00229078
3753.45914795,0.00260085
3755.38795532,0.00291962
3757.31676270,0.00305461
3759.24557007,0.00280978
3761.17437744,0.00293474
3763.10318481,0.00315267
3765.03199219,0.00293741
3766.96079956,0.00288744
3768.88960693,0.00296032
3770.81841431,0.00280631
3772.74722168,0.00306459
3774.67602905,0.00305599
3776.60483643,0.00293220
3778.53364380,0.00294392
3780.46245117,0.00280638
3782.39125854,0.00299945
3784.32006592,0.00294911
3786.24887329,0.00292540
3788.17768066,0.00298920
3790.10648804,0.00292014
3792.03529541,0.00290418
3793.96410278,0.00291844
3795.89291016,0.00274910
3797.82171753,0.00275965
3799.75052490,0.00286800
3801.67933228,0.00226458
3803.60813965,0.00272781
3805.53694702,0.00283200
3807.46575439,0.00235461
3809.39456177,0.00295874
3811.32336914,0.00271949
3813.25217651,0.00290209
3815.18098389,0.00260377
3817.10979126,0.00235626
3819.03859863,0.00298174
3820.96740601,0.00215775
3822.89621338,0.00243831
3824.82502075,0.00283286
3826.75382812,0.00256062
3828.68263550,0.00282837
3830.61144287,0.00257524
3832.54025024,0.00266388
3834.46905762,0.00266559
3836.39786499,0.00240025
3838.32667236,0.00224496
3840.25547974,0.00245660
3842.18428711,0.00265475
3844.11309448,0.00247957
3846.04190186,0.00275524
3847.97070923,0.00273381
3849.89951660,0.00264597
3851.82832397,0.00236361
3853.75713135,0.00177733
3855.68593872,0.00209929
3857.61474609,0.00256715
3859.54355347,0.00261304
3861.47236084,0.00259288
3863.40116821,0.00241371
3865.32997559,0.00234767
3867.25878296,0.00257782
3869.18759033,0.00231556
3871.11639770,0.00219835
3873.04520508,0.00258992
3874.97401245,0.00240509
3876.90281982,0.00259595
3878.83162720,0.00267432
3880.76043457,0.00224087
3882.68924194,0.00260377
3884.61804932,0.00247098
3886.54685669,0.00219150
3888.47566406,0.00258668
3890.40447144,0.00241537
3892.33327881,0.00231787
3894.26208618,0.00247458
3896.19089355,0.00250784
3898.11970093,0.00246190
3900.04850830,0.00221251
3901.97731567,0.00229861
3903.90612305,0.00226488
3905.83493042,0.00227805
3907.76373779,0.00255384
3909.69254517,0.00247141
3911.62135254,0.00249309
3913.55015991,0.00254515
3915.47896728,0.00245857
3917.40777466,0.00229417
3919.33658203,0.00226707
3921.26538940,0.00242718
3923.19419678,0.00239403
3925.12300415,0.00240970
3927.05181152,0.00244104
3928.98061890,0.00249311
3930.90942627,0.00237080
3932.83823364,0.00226211
3934.76704102,0.00244844
3936.69584839,0.00239239
3938.62465576,0.00240016
3940.55346313,0.00243615
3942.48227051,0.00233915
3944.41107788,0.00237972
3946.33988525,0.00238009
3948.26869263,0.00232665
3950.19750000,0.00231959
3952.12630737,0.00239823
3954.05511475,0.00239112
3955.98392212,0.00233123
3957.91272949,0.00228303
3959.84153687,0.00222193
3961.77034424,0.00232723
3963.69915161,0.00236430
3965.62795898,0.00230747
3967.55676636,0.00237261
3969.48557373,0.00230541
3971.41438110,0.00222241
3973.34318848,0.00222807
3975.27199585,0.00222706
3977.20080322,0.00236901
3979.12961060,0.00233496
3981.05841797,0.00228147
3982.98722534,0.00235700
3984.91603271,0.00235212
3986.84484009,0.00233550
3988.77364746,0.00219941
3990.70245483,0.00225532
3992.63126221,0.00226166
3994.56006958,0.00222360
3996.48887695,0.00231248
3998.41768433,0.00220047
4000.34649170,0.00222465
4002.27529907,0.00222446
4004.20410645,0.00223164
4006.13291382,0.00215691
4008.06172119,0.00207018
4009.99052856,0.00220379
4011.91933594,0.00211765
4013.84814331,0.00215925
4015.77695068,0.00222013
4017.70575806,0.00225235
4019.63456543,0.00225429
4021.56337280,0.00211143
4023.49218018,0.00214072
4025.42098755,0.00214087
4027.34979492,0.00222371
4029.27860229,0.00220126
4031.20740967,0.00214984
4033.13621704,0.00218772
4035.06502441,0.00211376
4036.99383179,0.00217258
4038.92263916,0.00219328
4040.85144653,0.00216060
4042.78025391,0.00208673
4044.70906128,0.00207854
4046.63786865,0.00208038
4048.56667603,0.00202176
4050.49548340,0.00210019
4052.42429077,0.00209383
4054.35309814,0.00210046
4056.28190552,0.00217213
4058.21071289,0.00221630
4060.13952026,0.00212234
4062.06832764,0.00199980
4063.99713501,0.00202142
4065.92594238,0.00204936
4067.85474976,0.00211095
4069.78355713,0.00205925
4071.71236450,0.00203820
4073.64117187,0.00206299
4075.56997925,0.00199952
4077.49878662,0.00197233
4079.42759399,0.00197290
4081.35640137,0.00206172
4083.28520874,0.00206934
4085.21401611,0.00200416
4087.14282349,0.00197903
4089.07163086,0.00194593
4091.00043823,0.00195070
4092.92924561,0.00200772
4094.85805298,0.00202114
4096.78686035,0.00200819
4098.71566772,0.00203511
4100.64447510,0.00198735
4102.57328247,0.00196406
4104.50208984,0.00191565
4106.43089722,0.00193112
4108.35970459,0.00197161
4110.28851196,0.00187782
4112.21731934,0.00194795
4114.14612671,0.00196425
4116.07493408,0.00193834
4118.00374145,0.00196862
4119.93254883,0.00191421
4121.86135620,0.00190510
4123.79016357,0.00189625
4125.71897095,0.00185981
4127.64777832,0.00184733
4129.57658569,0.00193675
4131.50539307,0.00192406
4133.43420044,0.00190962
4135.36300781,0.00192747
4137.29181519,0.00178916
4139.22062256,0.00182390
4141.14942993,0.00184412
4143.07823730,0.00182475
4145.00704468,0.00187970
4146.93585205,0.00182026
4148.86465942,0.00179352
4150.79346680,0.00185833
4152.72227417,0.00192370
4154.65108154,0.00182325
4156.57988892,0.00178970
4158.50869629,0.00184251
4160.43750366,0.00176508
4162.36631103,0.00182697
4164.29511841,0.00185794
4166.22392578,0.00177698
4168.15273315,0.00177639
4170.08154053,0.00174455
4172.01034790,0.00174514
4173.93915527,0.00175726
4175.86796265,0.00171139
4177.79677002,0.00172340
4179.72557739,0.00177266
4181.65438477,0.00171940
4183.58319214,0.00166662
4185.51199951,0.00176045
4187.44080688,0.00173236
4189.36961426,0.00166819
4191.29842163,0.00169743
4193.22722900,0.00171771
4195.15603638,0.00182492
4197.08484375,0.00172336
4199.01365112,0.00165211
4200.94245850,0.00172560
4202.87126587,0.00168666
4204.80007324,0.00173020
4206.72888062,0.00163552
4208.65768799,0.00165780
4210.58649536,0.00174573
4212.51530273,0.00164061
4214.44411011,0.00166475
4216.37291748,0.00172729
4218.30172485,0.00177024
4220.23053223,0.00165253
4222.15933960,0.00162190
4224.08814697,0.00171497
4226.01695435,0.00170472
4227.94576172,0.00169905
4229.87456909,0.00162076
4231.80337646,0.00162345
4233.73218384,0.00157908
4235.66099121,0.00157252
4237.58979858,0.00163184
4239.51860596,0.00163193
4241.44741333,0.00160982
4243.37622070,0.00151234
4245.30502808,0.00163628
4247.23383545,0.00162369
4249.16264282,0.00151670
4251.09145020,0.00154119
4253.02025757,0.00151172
4254.94906494,0.00159037
4256.87787231,0.00159766
4258.80667969,0.00159203
4260.73548706,0.00150999
4262.66429443,0.00149871
4264.59310181,0.00159208
4266.52190918,0.00149646
4268.45071655,0.00152912
4270.37952393,0.00152270
4272.30833130,0.00146499
4274.23713867,0.00151677
4276.16594604,0.00155350
4278.09475342,0.00157759
4280.02356079,0.00151855
4281.95236816,0.00147487
4283.88117554,0.00147618
4285.80998291,0.00147708
4287.73879028,0.00151917
4289.66759766,0.00154040
4291.59640503,0.00146766
4293.52521240,0.00152120
4295.45401978,0.00154524
4297.38282715,0.00144653
4299.31163452,0.00154758
4301.24044189,0.00152305
4303.16924927,0.00144507
4305.09805664,0.00148518
4307.02686401,0.00140679
4308.95567139,0.00139859
4310.88447876,0.00147508
4312.81328613,0.00145741
4314.74209351,0.00141291
4316.67090088,0.00149152
4318.59970825,0.00153398
4320.52851562,0.00146011
4322.45732300,0.00141473
4324.38613037,0.00143517
4326.31493774,0.00144748
4328.24374512,0.00141241
4330.17255249,0.00139448
4332.10135986,0.00136268
4334.03016724,0.00141071
4335.95897461,0.00139637
4337.88778198,0.00133258
4339.81658936,0.00138573
4341.74539673,0.00136881
4343.67420410,0.00141758
4345.60301147,0.00144328
4347.53181885,0.00134081
4349.46062622,0.00135623
4351.38943359,0.00148308
4353.31824097,0.00146753
4355.24704834,0.00133450
4357.17585571,0.00134277
4359.10466309,0.00135778
4361.03347046,0.00134798
4362.96227783,0.00127720
4364.89108520,0.00125806
4366.81989258,0.00138711
4368.74869995,0.00136559
4370.67750732,0.00134783
4372.60631470,0.00135491
4374.53512207,0.00134970
4376.46392944,0.00138216
4378.39273682,0.00131071
4380.32154419,0.00130124
4382.25035156,0.00135673
4384.17915894,0.00133411
4386.10796631,0.00134257
4388.03677368,0.00137058
4389.96558105,0.00130928
4391.89438843,0.00127371
4393.82319580,0.00127321
4395.75200317,0.00126905
4397.68081055,0.00124818
4399.60961792,0.00124272
4401.53842529,0.00135164
4403.46723267,0.00131323
4405.39604004,0.00122997
4407.32484741,0.00133386
4409.25365478,0.00134024
4411.18246216,0.00122344
4413.11126953,0.00123353
4415.04007690,0.00130912
4416.96888428,0.00124906
4418.89769165,0.00120790
4420.82649902,0.00122498
4422.75530640,0.00120203
4424.68411377,0.00120813
4426.61292114,0.00124530
4428.54172852,0.00126689
4430.47053589,0.00125464
4432.39934326,0.00127660
4434.32815063,0.00130048
4436.25695801,0.00123509
4438.18576538,0.00120125
4440.11457275,0.00130213
4442.04338013,0.00123059
4443.97218750,0.00117823
4445.90099487,0.00128222
4447.82980225,0.00112027
4449.75860962,0.00114444
4451.68741699,0.00121876
4453.61622437,0.00114200
4455.54503174,0.00121209
4457.47383911,0.00117768
4459.40264648,0.00127490
4461.33145386,0.00122682
4463.26026123,0.00105942
4465.18906860,0.00111062
4467.11787598,0.00112106
4469.04668335,0.00122054
4470.97549072,0.00113822
4472.90429810,0.00106373
4474.83310547,0.00118201
4476.76191284,0.00113300
4478.69072021,0.00111873
4480.61952759,0.00116705
4482.54833496,0.00118587
4484.47714233,0.00114856
4486.40594971,0.00113107
4488.33475708,0.00116632
4490.26356445,0.00115373
4492.19237183,0.00117351
4494.12117920,0.00115797
4496.04998657,0.00106938
4497.97879395,0.00113157
4499.90760132,0.00117083
4501.83640869,0.00099415
4503.76521606,0.00104549
4505.69402344,0.00114413
4507.62283081,0.00106996
4509.55163818,0.00110558
4511.48044556,0.00111007
4513.40925293,0.00113902
4515.33806030,0.00108126
4517.26686768,0.00098753
4519.19567505,0.00108739
4521.12448242,0.00111532
4523.05328979,0.00109924
4524.98209717,0.00104680
4526.91090454,0.00101916
4528.83971191,0.00107115
4530.76851929,0.00106107
4532.69732666,0.00110009
4534.62613403,0.00107745
4536.55494141,0.00099298
4538.48374878,0.00103945
4540.41255615,0.00106901
4542.34136353,0.00103227
4544.27017090,0.00105160
4546.19897827,0.00108490
4548.12778564,0.00103614
4550.05659302,0.00098193
4551.98540039,0.00103809
4553.91420776,0.00111194
4555.84301514,0.00106308
4557.77182251,0.00098143
4559.70062988,0.00101416
4561.62943726,0.00100993
4563.55824463,0.00095839
4565.48705200,0.00098067
4567.41585937,0.00098803
4569.34466675,0.00103307
4571.27347412,0.00097000
4573.20228149,0.00095599
4575.13108887,0.00110163
4577.05989624,0.00103579
4578.98870361,0.00101898
4580.91751099,0.00097274
4582.84631836,0.00093156
4584.77512573,0.00102823
4586.70393311,0.00094010
4588.63274048,0.00099265
4590.56154785,0.00098082
4592.49035522,0.00088586
4594.41916260,0.00099964
4596.34796997,0.00098000
4598.27677734,0.00092960
4600.20558472,0.00094089
4602.13439209,0.00101628
4604.06319946,0.00102892
4605.99200684,0.00089975
4607.92081421,0.00088597
4609.84962158,0.00095347
4611.77842895,0.00096938
4613.70723633,0.00090880
4615.63604370,0.00088367
4617.56485107,0.00094424
4619.49365845,0.00098478
4621.42246582,0.00091412
4623.35127319,0.00092639
4625.28008057,0.00097951
4627.20888794,0.00086826
4629.13769531,0.00092346
4631.06650269,0.00097056
4632.99531006,0.00083540
4634.92411743,0.00083049
4636.85292480,0.00087019
4638.78173218,0.00090815
4640.71053955,0.00099390
4642.63934692,0.00093123
4644.56815430,0.00082417
4646.49696167,0.00092192
4648.42576904,0.00089594
4650.35457642,0.00082319
4652.28338379,0.00092878
4654.21219116,0.00092308
4656.14099853,0.00085058
4658.06980591,0.00084794
4659.99861328,0.00087232
4661.92742065,0.00079563
4663.85622803,0.00082512
4665.78503540,0.00092576
4667.71384277,0.00087370
4669.64265015,0.00087378
4671.57145752,0.00080910
4673.50026489,0.00079326
4675.42907227,0.00087814
4677.35787964,0.00087471
4679.28668701,0.00084599
4681.21549438,0.00089054
4683.14430176,0.00093128
4685.07310913,0.00080775
4687.00191650,0.00080948
4688.93072388,0.00082878
4690.85953125,0.00082009
4692.78833862,0.00084741
4694.71714600,0.00084219
4696.64595337,0.00093696
4698.57476074,0.00082729
4700.50356812,0.00081295
4702.43237549,0.00085816
4704.36118286,0.00075907
4706.28999023,0.00083605
4708.21879761,0.00083895
4710.14760498,0.00085782
4712.07641235,0.00084277
4714.00521973,0.00078148
4715.93402710,0.00080103
4717.86283447,0.00077164
4719.79164185,0.00078852
4721.72044922,0.00078284
4723.64925659,0.00079789
4725.57806396,0.00084983
4727.50687134,0.00085903
4729.43567871,0.00078410
4731.36448608,0.00078322
4733.29329346,0.00082152
4735.22210083,0.00076088
4737.15090820,0.00080193
4739.07971558,0.00078707
4741.00852295,0.00082181
4742.93733032,0.00084286
4744.86613770,0.00073256
4746.79494507,0.00069322
4748.72375244,0.00067436
4750.65255981,0.00081374
4752.58136719,0.00082261
4754.51017456,0.00073828
4756.43898193,0.00074898
4758.36778931,0.00071058
4760.29659668,0.00078012
4762.22540405,0.00073349
4764.15421143,0.00069448
4766.08301880,0.00079656
4768.01182617,0.00076074
4769.94063354,0.00069270
4771.86944092,0.00073725
4773.79824829,0.00081004
4775.72705566,0.00077531
4777.65586304,0.00070872
4779.58467041,0.00070900
4781.51347778,0.00078637
4783.44228516,0.00078991
4785.37109253,0.00069054
4787.29989990,0.00068283
4789.22870728,0.00074529
4791.15751465,0.00076038
4793.08632202,0.00075380
4795.01512939,0.00073722
4796.94393677,0.00063363
4798.87274414,0.00068734
4800.80155151,0.00074094
4802.73035889,0.00066731
4804.65916626,0.00075173
4806.58797363,0.00070654
4808.51678101,0.00069386
4810.44558838,0.00077282
4812.37439575,0.00073208
4814.30320312,0.00074687
4816.23201050,0.00069984
4818.16081787,0.00067783
4820.08962524,0.00067264
4822.01843262,0.00067810
4823.94723999,0.00070016
4825.87604736,0.00064949
4827.80485474,0.00069167
4829.73366211,0.00068013
4831.66246948,0.00071024
4833.59127686,0.00075756
4835.52008423,0.00064308
4837.44889160,0.00065329
4839.37769897,0.00066057
4841.30650635,0.00060334
4843.23531372,0.00060827
4845.16412109,0.00059489
4847.09292847,0.00067399
4849.02173584,0.00072460
4850.95054321,0.00066428
4852.87935059,0.00066800
4854.80815796,0.00065280
4856.73696533,0.00060356
4858.66577270,0.00060385
4860.59458008,0.00066864
4862.52338745,0.00071779
4864.45219482,0.00068518
4866.38100220,0.00065273
4868.30980957,0.00062154
4870.23861694,0.00066525
4872.16742432,0.00067614
4874.09623169,0.00063136
4876.02503906,0.00070274
4877.95384644,0.00067094
4879.88265381,0.00057764
4881.81146118,0.00061549
4883.74026855,0.00070012
4885.66907593,0.00066959
4887.59788330,0.00057234
4889.52669067,0.00057125
4891.45549805,0.00055052
4893.38430542,0.00055367
4895.31311279,0.00058457
4897.24192017,0.00061660
4899.17072754,0.00063986
4901.09953491,0.00060372
4903.02834228,0.00060322
4904.95714966,0.00053371
4906.88595703,0.00053603
4908.81476440,0.00061969
4910.74357178,0.00066219
4912.67237915,0.00068989
4914.60118652,0.00054784
4916.52999390,0.00049373
4918.45880127,0.00060862
4920.38760864,0.00063998
4922.31641602,0.00056915
4924.24522339,0.00056970
4926.17403076,0.00061631
4928.10283813,0.00052614
4930.03164551,0.00053095
4931.96045288,0.00059057
4933.88926025,0.00059604
4935.81806763,0.00055511
4937.74687500,0.00052771
4939.67568237,0.00063426
4941.60448975,0.00059257
4943.53329712,0.00059021
4945.46210449,0.00061882
4947.39091187,0.00054892
4949.31971924,0.00060792
4951.24852661,0.00055972
4953.17733398,0.00057864
4955.10614136,0.00063966
4957.03494873,0.00053481
4958.96375610,0.00051984
4960.89256348,0.00051811
4962.82137085,0.00053076
4964.75017822,0.00052205
4966.67898560,0.00049377
4968.60779297,0.00051644
4970.53660034,0.00050449
4972.46540771,0.00059543
4974.39421509,0.00059705
4976.32302246,0.00049878
4978.25182983,0.00054551
4980.18063721,0.00052353
4982.10944458,0.00056677
4984.03825195,0.00059926
4985.96705933,0.00046310
4987.89586670,0.00053386
4989.82467407,0.00055262
4991.75348145,0.00049346
4993.68228882,0.00056780
4995.61109619,0.00054183
4997.53990356,0.00052472
4999.46871094,0.00052716
5001.39751831,0.00055708
5003.32632568,0.00053633
5005.25513306,0.00048656
5007.18394043,0.00054254
5009.11274780,0.00046704
5011.04155518,0.00046769
5012.97036255,0.00056664
5014.89916992,0.00055788
5016.82797729,0.00052890
5018.75678467,0.00054064
5020.68559204,0.00057756
5022.61439941,0.00052327
5024.54320679,0.00045395
5026.47201416,0.00044539
5028.40082153,0.00055735
5030.32962891,0.00052083
5032.25843628,0.00042876
5034.18724365,0.00051163
5036.11605103,0.00043412
5038.04485840,0.00047735
5039.97366577,0.00050072
5041.90247314,0.00045100
5043.83128052,0.00050780
5045.76008789,0.00045266
5047.68889526,0.00050365
5049.61770264,0.00043989
5051.54651001,0.00044399
5053.47531738,0.00054318
5055.40412476,0.00048221
5057.33293213,0.00046974
5059.26173950,0.00042452
5061.19054687,0.00052639
5063.11935425,0.00048515
5065.04816162,0.00043342
5066.97696899,0.00054706
5068.90577637,0.00044041
5070.83458374,0.00047368
5072.76339111,0.00045138
5074.69219849,0.00038302
5076.62100586,0.00052810
5078.54981323,0.00056341
5080.47862061,0.00049815
5082.40742798,0.00045996
5084.33623535,0.00048929
5086.26504272,0.00047009
5088.19385010,0.00043727
5090.12265747,0.00044120
5092.05146484,0.00041966
5093.98027222,0.00043636
5095.90907959,0.00043049
5097.83788696,0.00039716
5099.76669434,0.00043489
5101.69550171,0.00040162
5103.62430908,0.00033688
5105.55311645,0.00041625
5107.48192383,0.00040483
5109.41073120,0.00045330
5111.33953857,0.00053008
5113.26834595,0.00048048
5115.19715332,0.00051283
5117.12596069,0.00043969
5119.05476807,0.00045357
5120.98357544,0.00047055
5122.91238281,0.00038915
5124.84119019,0.00040824
5126.76999756,0.00038979
5128.69880493,0.00046333
5130.62761230,0.00045733
5132.55641968,0.00044001
5134.48522705,0.00042314
5136.41403442,0.00036568
5138.34284180,0.00044054
5140.27164917,0.00038004
5142.20045654,0.00044205
5144.12926392,0.00047065
5146.05807129,0.00031821
5147.98687866,0.00035354
5149.91568603,0.00039563
5151.84449341,0.00044318
5153.77330078,0.00045022
5155.70210815,0.00040910
5157.63091553,0.00040918
5159.55972290,0.00042666
5161.48853027,0.00048004
5163.41733765,0.00042497
5165.34614502,0.00037218
5167.27495239,0.00041860
5169.20375977,0.00043159
5171.13256714,0.00039075
5173.06137451,0.00040750
5174.99018188,0.00044279
5176.91898926,0.00030804
5178.84779663,0.00024723
5180.77660400,0.00035616
5182.70541138,0.00037104
5184.63421875,0.00035795
5186.56302612,0.00035244
5188.49183350,0.00041215
5190.42064087,0.00043214
5192.34944824,0.00032988
5194.27825562,0.00040210
5196.20706299,0.00039763
5198.13587036,0.00035579
5200.06467773,0.00041962
5201.99348511,0.00036268
5203.92229248,0.00036345
5205.85109985,0.00036163
5207.77990723,0.00041074
5209.70871460,0.00043327
5211.63752197,0.00038519
5213.56632935,0.00037181
5215.49513672,0.00027762
5217.42394409,0.00036501
5219.35275146,0.00038855
5221.28155884,0.00031798
5223.21036621,0.00031891
5225.13917358,0.00030570
5227.06798096,0.00034912
5228.99678833,0.00029064
5230.92559570,0.00038359
5232.85440308,0.00042413
5234.78321045,0.00033427
5236.71201782,0.00039794
5238.64082520,0.00039029
5240.56963257,0.00041036
5242.49843994,0.00040013
5244.42724731,0.00035154
5246.35605469,0.00033683
5248.28486206,0.00036668
5250.21366943,0.00037377
5252.14247681,0.00032569
5254.07128418,0.00038522
5256.00009155,0.00030183
5257.92889893,0.00028694
5259.85770630,0.00037756
5261.78651367,0.00032854
5263.71532104,0.00032416
5265.64412842,0.00028733
5267.57293579,0.00032705
5269.50174316,0.00042709
5271.43055054,0.00040897
5273.35935791,0.00031562
5275.28816528,0.00026120
5277.21697266,0.00032098
5279.14578003,0.00036968
5281.07458740,0.00037190
5283.00339478,0.00036077
5284.93220215,0.00035738
5286.86100952,0.00033328
5288.78981689,0.00034043
5290.71862427,0.00036916
5292.64743164,0.00031779
5294.57623901,0.00025907
5296.50504639,0.00028608
5298.43385376,0.00032708
5300.36266113,0.00028692
5302.29146851,0.00034973
5304.22027588,0.00033994
5306.14908325,0.00024841
5308.07789062,0.00035454
5310.00669800,0.00033065
5311.93550537,0.00025078
5313.86431274,0.00028639
5315.79312012,0.00029671
5317.72192749,0.00031287
5319.65073486,0.00027489
5321.57954224,0.00028320
5323.50834961,0.00034304
5325.43715698,0.00032649
5327.36596436,0.00032159
5329.29477173,0.00022033
5331.22357910,0.00015588
5333.15238647,0.00029792
5335.08119385,0.00029233
5337.01000122,0.00028527
5338.93880859,0.00029814
5340.86761597,0.00025810
5342.79642334,0.00034414
5344.72523071,0.00023665
5346.65403809,0.00022177
5348.58284546,0.00030725
5350.51165283,0.00023954
5352.44046020,0.00026755
5354.36926758,0.00023733
5356.29807495,0.00028317
5358.22688232,0.00032070
5360.15568970,0.00029590
5362.08449707,0.00032340
5364.01330444,0.00024158
5365.94211182,0.00029555
5367.87091919,0.00034257
5369.79972656,0.00026028
5371.72853394,0.00025134
5373.65734131,0.00026419
5375.58614868,0.00028451
5377.51495605,0.00032243
5379.44376343,0.00032877
5381.37257080,0.00030307
5383.30137817,0.00028884
5385.23018555,0.00023359
5387.15899292,0.00025390
5389.08780029,0.00029340
5391.01660767,0.00025392
5392.94541504,0.00027796
5394.87422241,0.00029932
5396.80302978,0.00029618
5398.73183716,0.00028566
5400.66064453,0.00032973
5402.58945190,0.00033212
5404.51825928,0.00022148
5406.44706665,0.00019801
5408.37587402,0.00022964
5410.30468140,0.00024895
5412.23348877,0.00023960
5414.16229614,0.00023597
5416.09110352,0.00027962
5418.01991089,0.00032594
5419.94871826,0.00030735
5421.87752563,0.00026393
5423.80633301,0.00026131
5425.73514038,0.00021377
5427.66394775,0.00025615
5429.59275513,0.00029748
5431.52156250,0.00022192
5433.45036987,0.00026767
5435.37917725,0.00027405
5437.30798462,0.00022457
5439.23679199,0.00027106
5441.16559936,0.00026624
5443.09440674,0.00025044
5445.02321411,0.00022997
5446.95202148,0.00021763
5448.88082886,0.00025024
5450.80963623,0.00025214
5452.73844360,0.00028886
5454.66725098,0.00023203
5456.59605835,0.00023704
5458.52486572,0.00033055
5460.45367310,0.00023009
5462.38248047,0.00028080
5464.31128784,0.00025803
5466.24009521,0.00014375
5468.16890259,0.00028293
5470.09770996,0.00023651
5472.02651733,0.00020562
5473.95532471,0.00024627
5475.88413208,0.00017520
5477.81293945,0.00024865
5479.74174683,0.00023987
5481.67055420,0.00017424
5483.59936157,0.00024838
5485.52816895,0.00026266
5487.45697632,0.00021994
5489.38578369,0.00022565
5491.31459106,0.00017498
5493.24339844,0.00017233
5495.17220581,0.00028085
5497.10101318,0.00025677
5499.02982056,0.00022127
5500.95862793,0.00023611
5502.88743530,0.00018137
5504.81624268,0.00023297
5506.74505005,0.00026305
5508.67385742,0.00020046
5510.60266479,0.00025785
5512.53147217,0.00024218
5514.46027954,0.00022698
5516.38908691,0.00027882
5518.31789429,0.00020267
5520.24670166,0.00020649
5522.17550903,0.00018738
5524.10431641,0.00018520
5526.03312378,0.00028083
5527.96193115,0.00022788
5529.89073853,0.00021804
5531.81954590,0.00026718
5533.74835327,0.00026397
5535.67716064,0.00025022
5537.60596802,0.00027328
5539.53477539,0.00028563
5541.46358276,0.00025126
5543.39239014,0.00019707
5545.32119751,0.00014433
5547.25000488,0.00023929
5549.17881226,0.00020719
5551.10761963,0.00014830
5553.03642700,0.00021942
5554.96523437,0.00020486
5556.89404175,0.00024605
5558.82284912,0.00021448
5560.75165649,0.00022587
5562.68046387,0.00023385
5564.60927124,0.00015386
5566.53807861,0.00021727
5568.46688599,0.00022935
5570.39569336,0.00023756
5572.32450073,0.00023038
5574.25330811,0.00020869
5576.18211548,0.00017429
5578.11092285,0.00013410
5580.03973022,0.00021771
5581.96853760,0.00022467
5583.89734497,0.00020273
5585.82615234,0.00018946
5587.75495972,0.00020219
5589.68376709,0.00023643
5591.61257446,0.00022735
5593.54138184,0.00021634
5595.47018921,0.00015556
5597.39899658,0.00020262
5599.32780395,0.00024556
5601.25661133,0.00020872
5603.18541870,0.00024745
5605.11422607,0.00022923
5607.04303345,0.00016766
5608.97184082,0.00016400
5610.90064819,0.00020887
5612.82945557,0.00025092
5614.75826294,0.00021061
5616.68707031,0.00017590
5618.61587769,0.00019009
5620.54468506,0.00020563
5622.47349243,0.00029403
5624.40229980,0.00025313
5626.33110718,0.00012034
5628.25991455,0.00019981
5630.18872192,0.00028421
5632.11752930,0.00020444
5634.04633667,0.00012039
5635.97514404,0.00022297
5637.90395142,0.00023147
5639.83275879,0.00012185
5641.76156616,0.00018554
5643.69037353,0.00019721
5645.61918091,0.00021433
5647.54798828,0.00018626
5649.47679565,0.00010988
5651.40560303,0.00017110
5653.33441040,0.00019534
5655.26321777,0.00020182
5657.19202515,0.00019967
5659.12083252,0.00018886
5661.04963989,0.00017660
5662.97844727,0.00017210
5664.90725464,0.00017486
5666.83606201,0.00020659
5668.76486938,0.00022398
5670.69367676,0.00013568
5672.62248413,0.00019351
5674.55129150,0.00021879
5676.48009888,0.00015750
5678.40890625,0.00024064
5680.33771362,0.00020610
5682.26652100,0.00012896
5684.19532837,0.00020106
5686.12413574,0.00021464
5688.05294311,0.00018001
5689.98175049,0.00020027
5691.91055786,0.00014994
5693.83936523,0.00015189
5695.76817261,0.00016846
5697.69697998,0.00018873
5699.62578735,0.00020804
5701.55459473,0.00011593
5703.48340210,0.00022566
5705.41220947,0.00020512
5707.34101685,0.00013023
5709.26982422,0.00021048
5711.19863159,0.00010682
5713.12743896,0.00011275
5715.05624634,0.00011751
5716.98505371,0.00013382
5718.91386108,0.00016070
5720.84266846,0.00010475
5722.77147583,0.00014976
5724.70028320,0.00016627
5726.62909058,0.00020581
5728.55789795,0.00014397
5730.48670532,0.00014071
5732.41551270,0.00019473
5734.34432007,0.00014190
5736.27312744,0.00018266
5738.20193481,0.00017251
5740.13074219,0.00015783
5742.05954956,0.00018510
5743.98835693,0.00025550
5745.91716431,0.00023129
5747.84597168,0.00015381
5749.77477905,0.00017741
5751.70358643,0.00012614
5753.63239380,0.00016056
5755.56120117,0.00015371
5757.49000854,0.00008968
5759.41881592,0.00013191
5761.34762329,0.00015321
5763.27643066,0.00015828
5765.20523804,0.00011058
5767.13404541,0.00010122
5769.06285278,0.00014098
5770.99166016,0.00014851
5772.92046753,0.00015444
5774.84927490,0.00017384
5776.77808228,0.00015183
5778.70688965,0.00011685
5780.63569702,0.00015294
5782.56450439,0.00015614
5784.49331177,0.00014827
5786.42211914,0.00016182
5788.35092651,0.00013729
5790.27973389,0.00010461
5792.20854126,0.00015910
5794.13734863,0.00016109
5796.06615601,0.00003798
5797.99496338,0.00010549
5799.92377075,0.00016860
5801.85257812,0.00013363
5803.78138550,0.00017912
5805.71019287,0.00013325
5807.63900024,0.00011231
5809.56780762,0.00016872
5811.49661499,0.00016775
5813.42542236,0.00010282
5815.35422974,0.00005254
5817.28303711,0.00005784
5819.21184448,0.00006946
5821.14065186,0.00011446
5823.06945923,0.00014176
5824.99826660,0.00011658
5826.92707397,0.00009688
5828.85588135,0.00008434
5830.78468872,0.00013537
5832.71349609,0.00020402
5834.64230347,0.00010847
5836.57111084,0.00007036
5838.49991821,0.00013779
5840.42872559,0.00014167
5842.35753296,0.00016393
5844.28634033,0.00012512
5846.21514770,0.00010394
5848.14395508,0.00011481
5850.07276245,0.00012388
5852.00156982,0.00016303
5853.93037720,0.00014570
5855.85918457,0.00014459
5857.78799194,0.00014553
5859.71679932,0.00017605
5861.64560669,0.00018132
5863.57441406,0.00013129
5865.50322144,0.00010868
5867.43202881,0.00012173
5869.36083618,0.00016648
5871.28964355,0.00017946
5873.21845093,0.00021612
5875.14725830,0.00014303
5877.07606567,0.00010636
5879.00487305,0.00014269
5880.93368042,0.00009490
5882.86248779,0.00016761
5884.79129517,0.00012845
5886.72010254,0.00009671
5888.64890991,0.00017089
5890.57771728,0.00013721
5892.50652466,0.00010407
5894.43533203,0.00007224
5896.36413940,0.00012706
5898.29294678,0.00014357
5900.22175415,0.00013094
5902.15056152,0.00011170
5904.07936890,0.00008873
5906.00817627,0.00021231
5907.93698364,0.00020064
5909.86579102,0.00011542
5911.79459839,0.00012948
5913.72340576,0.00010367
5915.65221313,0.00008714
5917.58102051,0.00016351
5919.50982788,0.00013307
5921.43863525,0.00007039
5923.36744263,0.00016627
5925.29625000,0.00013927
5927.22505737,0.00006343
5929.15386475,0.00006496
5931.08267212,0.00010982
5933.01147949,0.00008255
5934.94028686,0.00006339
5936.86909424,0.00018217
5938.79790161,0.00008215
5940.72670898,0.00010741
5942.65551636,0.00017467
5944.58432373,0.00009651
5946.51313110,0.00018550
5948.44193848,0.00010880
5950.37074585,0.00007576
5952.29955322,0.00005820
5954.22836060,0.00004117
5956.15716797,0.00013397
5958.08597534,0.00004426
5960.01478271,0.00012394
5961.94359009,0.00018119
5963.87239746,0.00012645
5965.80120483,0.00016333
5967.73001221,0.00009455
5969.65881958,0.00006492
5971.58762695,0.00005732
5973.51643433,0.00010240
5975.44524170,0.00012964
5977.37404907,0.00007394
5979.30285645,0.00008836
5981.23166382,0.00012948
5983.16047119,0.00020346
5985.08927856,0.00014365
5987.01808594,0.00009783
5988.94689331,0.00014234
5990.87570068,0.00008063
5992.80450806,0.00011167
5994.73331543,0.00014293
5996.66212280,0.00012591
5998.59093018,0.00012297
6000.51973755,0.00010568
