399.26312622,0.00028804
401.19193359,0.00051085
403.12074097,0.00051872
405.04954834,0.00062068
406.97835571,0.00055184
408.90716309,0.00042144
410.83597046,0.00052023
412.76477783,0.00070056
414.69358521,0.00071076
416.62239258,0.00088702
418.55119995,0.00099587
420.48000732,0.00087594
422.40881470,0.00081093
424.33762207,0.00100777
426.26642944,0.00110424
428.19523682,0.00076518
430.12404419,0.00081082
432.05285156,0.00088128
433.98165894,0.00087550
435.91046631,0.00078689
437.83927368,0.00072894
439.76808105,0.00091911
441.69688843,0.00044658
443.62569580,0.00066213
445.55450317,0.00081070
447.48331055,0.00043551
449.41211792,0.00100215
451.34092529,0.00096530
453.26973267,0.00085947
455.19854004,0.00092714
457.12734741,0.00055472
459.05615479,0.00072643
460.98496216,0.00082675
462.91376953,0.00032880
464.84257690,0.00024352
466.77138428,0.00060666
468.70019165,0.00033045
470.62899902,0.00016438
472.55780640,0.00026320
474.48661377,0.00020226
476.41542114,0.00003524
478.34422852,0.00012965
480.27303589,0.00067898
482.20184326,0.00029535
484.13065063,-0.00002724
486.05945801,0.00007812
487.98826538,0.00012942
489.91707275,0.00034966
491.84588013,0.00013903
493.77468750,0.00023417
495.70349487,0.00015093
497.63230225,0.00008995
499.56110962,0.00028889
501.48991699,0.00051461
503.41872437,0.00063335
505.34753174,0.00002244
507.27633911,0.00023221
509.20514648,0.00043472
511.13395386,0.00003726
513.06276123,0.00036632
514.99156860,0.00024312
516.92037598,-0.00015749
518.84918335,0.00019325
520.77799072,0.00003693
522.70679810,-0.00002115
524.63560547,0.00050934
526.56441284,0.00010071
528.49322021,0.00024229
530.42202759,0.00048812
532.35083496,-0.00006580
534.27964233,-0.00001107
536.20844971,0.00010096
538.13725708,0.00049371
540.06606445,0.00048969
541.99487183,0.00008964
543.92367920,0.00024512
545.85248657,0.00010883
547.78129395,0.00014876
549.71010132,0.00023628
551.63890869,0.00012324
553.56771606,0.00032641
555.49652344,0.00033376
557.42533081,0.00035352
559.35413818,0.00010453
561.28294556,0.00015587
563.21175293,0.00032574
565.14056030,0.00011938
567.06936768,0.00026875
568.99817505,0.00006906
570.92698242,0.00003407
572.85578979,0.00012490
574.78459717,-0.00013640
576.71340454,0.00002156
578.64221191,0.00012351
580.57101929,0.00014078
582.49982666,0.00020853
584.42863403,0.00006897
586.35744141,0.00010128
588.28624878,0.00051440
590.21505615,0.00041798
592.14386353,0.00000474
594.07267090,0.00046562
596.00147827,0.00044893
597.93028564,0.00001224
599.85909302,0.00049323
601.78790039,0.00027166
603.71670776,-0.00023776
605.64551514,0.00008768
607.57432251,0.00012389
609.50312988,0.00014114
611.43193726,0.00043367
613.36074463,0.00059411
615.28955200,0.00041547
617.21835938,0.00046161
619.14716675,0.00036547
621.07597412,-0.00015099
623.00478149,0.00007567
624.93358887,0.00035388
626.86239624,0.00025797
628.79120361,0.00018914
630.72001099,0.00017607
632.64881836,0.00046374
634.57762573,0.00054179
636.50643311,0.00057000
638.43524048,0.00076832
640.36404785,0.00065866
642.29285522,0.00076787
644.22166260,0.00118809
646.15046997,0.00095671
648.07927734,0.00070352
650.00808472,0.00105254
651.93689209,0.00133515
653.86569946,0.00126815
655.79450684,0.00114630
657.72331421,0.00144059
659.65212158,0.00112255
661.58092896,0.00096696
663.50973633,0.00155825
665.43854370,0.00117564
667.36735107,0.00101404
669.29615845,0.00123729
671.22496582,0.00132591
673.15377319,0.00173139
675.08258057,0.00183059
677.01138794,0.00176250
678.94019531,0.00168384
680.86900269,0.00170647
682.79781006,0.00168878
684.72661743,0.00165478
686.65542480,0.00159986
688.58423218,0.00176094
690.51303955,0.00200612
692.44184692,0.00173221
694.37065430,0.00211514
696.29946167,0.00260831
698.22826904,0.00270735
700.15707642,0.00298982
702.08588379,0.00266321
704.01469116,0.00210692
705.94349854,0.00203328
707.87230591,0.00207133
709.80111328,0.00156027
711.72992065,0.00114747
713.65872803,0.00088932
715.58753540,0.00035294
717.51634277,0.00021219
719.44515015,0.00010949
721.37395752,-0.00002218
723.30276489,0.00003224
725.23157227,0.00010123
727.16037964,0.00003471
729.08918701,0.00016567
731.01799438,0.00044344
732.94680176,0.00031683
734.87560913,0.00029044
736.80441650,-0.00000687
738.73322388,0.00007825
740.66203125,0.00038721
742.59083862,0.00043645
744.51964600,0.00042056
746.44845337,0.00025823
748.37726074,0.00033776
750.30606812,0.00038525
752.23487549,0.00035041
754.16368286,0.00020975
756.09249023,0.00002495
758.02129761,0.00005389
759.95010498,0.00002465
761.87891235,0.00036696
763.80771973,0.00034270
765.73652710,0.00005684
767.66533447,0.00053262
769.59414185,0.00036437
771.52294922,0.00011486
773.45175659,0.00020309
775.38056396,0.00012762
777.30937134,0.00025863
779.23817871,0.00022961
781.16698608,0.00021012
783.09579346,0.00011134
785.02460083,0.00036840
786.95340820,0.00052711
788.88221558,0.00018544
790.81102295,-0.00003026
792.73983032,0.00012226
794.66863770,0.00036640
796.59744507,0.00031025
798.52625244,0.00074674
800.45505981,0.00043617
802.38386719,0.00010755
804.31267456,0.00044983
806.24148193,0.00009840
808.17028931,0.00053736
810.09909668,0.00059035
812.02790405,0.00027914
813.95671143,0.00053534
815.88551880,0.00013687
817.81432617,0.00032499
819.74313354,0.00044799
821.67194092,0.00007822
823.60074829,0.00013562
825.52955566,0.00030917
827.45836304,0.00030075
829.38717041,0.00029646
831.31597778,0.00066578
833.24478516,0.00057115
835.17359253,0.00068480
837.10239990,0.00088110
839.03120728,0.00053684
840.96001465,0.00059477
842.88882202,0.00047307
844.81762939,0.00048339
846.74643677,0.00044044
848.67524414,0.00013137
850.60405151,0.00049793
852.53285889,0.00064908
854.46166626,0.00047307
856.39047363,0.00058481
858.31928101,0.00051848
860.24808838,0.00018343
862.17689575,0.00024375
864.10570313,0.00043571
866.03451050,0.00031921
867.96331787,0.00038424
869.89212524,0.00032135
871.82093262,0.00021357
873.74973999,0.00048745
875.67854736,0.00048692
877.60735474,0.00031113
879.53616211,0.00041733
881.46496948,0.00032233
883.39377686,0.00007024
885.32258423,0.00033072
887.25139160,0.00047547
889.18019897,0.00020216
891.10900635,0.00031028
893.03781372,0.00061515
894.96662109,0.00056627
896.89542847,0.00030130
898.82423584,0.00030365
900.75304321,0.00040317
902.68185059,0.00025856
904.61065796,0.00028468
906.53946533,0.00059082
908.46827271,0.00063808
910.39708008,0.00032886
912.32588745,0.00022849
914.25469482,0.00048954
916.18350220,0.00065646
918.11230957,0.00054853
920.04111694,0.00060857
921.96992432,0.00051919
923.89873169,0.00030425
925.82753906,0.00051231
927.75634644,0.00066992
929.68515381,0.00073909
931.61396118,0.00086814
933.54276855,0.00117081
935.47157593,0.00101980
937.40038330,0.00077964
939.32919067,0.00126392
941.25799805,0.00121962
943.18680542,0.00131494
945.11561279,0.00138958
947.04442017,0.00114736
948.97322754,0.00153994
950.90203491,0.00116489
952.83084229,0.00090707
954.75964966,0.00117155
956.68845703,0.00110005
958.61726440,0.00129284
960.54607178,0.00122527
962.47487915,0.00121318
964.40368652,0.00111873
966.33249390,0.00099125
968.26130127,0.00127514
970.19010864,0.00127468
972.11891602,0.00136327
974.04772339,0.00145490
975.97653076,0.00152011
977.90533813,0.00179522
979.83414551,0.00187636
981.76295288,0.00192229
983.69176025,0.00208668
985.62056763,0.00221326
987.54937500,0.00255157
989.47818237,0.00314631
991.40698975,0.00327286
993.33579712,0.00335619
995.26460449,0.00362897
997.19341187,0.00383387
999.12221924,0.00432866
1001.05102661,0.00462363
1002.97983398,0.00484793
1004.90864136,0.00528885
1006.83744873,0.00549024
1008.76625610,0.00567324
1010.69506348,0.00625754
1012.62387085,0.00652433
1014.55267822,0.00670526
1016.48148560,0.00735756
1018.41029297,0.00741853
1020.33910034,0.00770834
1022.26790771,0.00836366
1024.19671509,0.00870508
1026.12552246,0.00892730
1028.05432983,0.00901689
1029.98313721,0.00961732
1031.91194458,0.00973203
1033.84075195,0.00991425
1035.76955933,0.01029824
1037.69836670,0.00998606
1039.62717407,0.01020947
1041.55598145,0.01027045
1043.48478882,0.01030358
1045.41359619,0.01031839
1047.34240356,0.00986001
1049.27121094,0.00961906
1051.20001831,0.00952910
1053.12882568,0.00962532
1055.05763306,0.00929854
1056.98644043,0.00903572
1058.91524780,0.00883169
1060.84405518,0.00848641
1062.77286255,0.00837473
1064.70166992,0.00793728
1066.63047729,0.00767236
1068.55928467,0.00741879
1070.48809204,0.00720513
1072.41689941,0.00692467
1074.34570679,0.00634004
1076.27451416,0.00601512
1078.20332153,0.00574474
1080.13212891,0.00572924
1082.06093628,0.00554112
1083.98974365,0.00525100
1085.91855103,0.00516668
1087.84735840,0.00480595
1089.77616577,0.00465095
1091.70497314,0.00453118
1093.63378052,0.00409952
1095.56258789,0.00396443
1097.49139526,0.00406515
1099.42020264,0.00384299
1101.34901001,0.00358620
1103.27781738,0.00358350
1105.20662476,0.00367043
1107.13543213,0.00356486
1109.06423950,0.00350849
1110.99304687,0.00359442
1112.92185425,0.00345527
1114.85066162,0.00361846
1116.77946899,0.00357087
1118.70827637,0.00331684
1120.63708374,0.00353611
1122.56589111,0.00363422
1124.49469849,0.00370213
1126.42350586,0.00374860
1128.35231323,0.00370667
1130.28112061,0.00360799
1132.20992798,0.00378120
1134.13873535,0.00411372
1136.06754272,0.00415662
1137.99635010,0.00437150
1139.92515747,0.00452886
1141.85396484,0.00476422
1143.78277222,0.00510571
1145.71157959,0.00541010
1147.64038696,0.00573234
1149.56919434,0.00598585
1151.49800171,0.00641917
1153.42680908,0.00660597
1155.35561646,0.00690476
1157.28442383,0.00731285
1159.21323120,0.00758400
1161.14203857,0.00787675
1163.07084595,0.00800948
1164.99965332,0.00851413
1166.92846069,0.00875424
1168.85726807,0.00884790
1170.78607544,0.00928830
1172.71488281,0.00956344
1174.64369019,0.01010687
1176.57249756,0.01036029
1178.50130493,0.01058846
1180.43011230,0.01124900
1182.35891968,0.01154289
1184.28772705,0.01213315
1186.21653442,0.01283410
1188.14534180,0.01329692
1190.07414917,0.01397753
1192.00295654,0.01451774
1193.93176392,0.01507090
1195.86057129,0.01580776
1197.78937866,0.01675911
1199.71818604,0.01752822
1201.64699341,0.01823404
1203.57580078,0.01915830
1205.50460815,0.01958064
1207.43341553,0.02017667
1209.36222290,0.02085202
1211.29103027,0.02141869
1213.21983765,0.02212952
1215.14864502,0.02248773
1217.07745239,0.02316521
1219.00625977,0.02361010
1220.93506714,0.02372147
1222.86387451,0.02407880
1224.79268188,0.02437015
1226.72148926,0.02466931
1228.65029663,0.02483333
1230.57910400,0.02507472
1232.50791138,0.02506450
1234.43671875,0.02510756
1236.36552612,0.02523400
1238.29433350,0.02499710
1240.22314087,0.02514948
1242.15194824,0.02509590
1244.08075562,0.02485858
1246.00956299,0.02490444
1247.93837036,0.02477754
1249.86717773,0.02471656
1251.79598511,0.02452760
1253.72479248,0.02406945
1255.65359985,0.02387204
1257.58240723,0.02360858
1259.51121460,0.02317913
1261.44002197,0.02299461
1263.36882935,0.02262898
1265.29763672,0.02235829
1267.22644409,0.02206788
1269.15525146,0.02168602
1271.08405884,0.02158397
1273.01286621,0.02113014
1274.94167358,0.02076694
1276.87048096,0.02049864
1278.79928833,0.02009084
1280.72809570,0.01976873
1282.65690308,0.01934613
1284.58571045,0.01892772
1286.51451782,0.01862138
1288.44332520,0.01847622
1290.37213257,0.01807293
1292.30093994,0.01793630
1294.22974731,0.01795435
1296.15855469,0.01761207
1298.08736206,0.01765456
1300.01616943,0.01793299
1301.94497681,0.01799492
1303.87378418,0.01794127
1305.80259155,0.01832171
1307.73139893,0.01857772
1309.66020630,0.01871426
1311.58901367,0.01900937
1313.51782104,0.01926865
1315.44662842,0.01996989
1317.37543579,0.02009645
1319.30424316,0.02061170
1321.23305054,0.02169516
1323.16185791,0.02207327
1325.09066528,0.02273156
1327.01947266,0.02338095
1328.94828003,0.02400272
1330.87708740,0.02470028
1332.80589478,0.02531612
1334.73470215,0.02577963
1336.66350952,0.02576324
1338.59231689,0.02539430
1340.52112427,0.02570613
1342.44993164,0.02706892
1344.37873901,0.02728028
1346.30754639,0.02717236
1348.23635376,0.02727175
1350.16516113,0.02697777
1352.09396851,0.02706171
1354.02277588,0.02667873
1355.95158325,0.02654064
1357.88039062,0.02626073
1359.80919800,0.02581669
1361.73800537,0.02462706
1363.66681274,0.02405490
1365.59562012,0.02589932
1367.52442749,0.02507838
1369.45323486,0.02468450
1371.38204224,0.02545983
1373.31084961,0.02364837
1375.23965698,0.02386935
1377.16846436,0.02470570
1379.09727173,0.02465723
1381.02607910,0.02463749
1382.95488647,0.02484643
1384.88369385,0.02497602
1386.81250122,0.02317931
1388.74130859,0.02355256
1390.67011597,0.02605474
1392.59892334,0.02522695
1394.52773071,0.02317190
1396.45653809,0.02452927
1398.38534546,0.02454963
1400.31415283,0.02443765
1402.24296021,0.02683362
1404.17176758,0.02504663
1406.10057495,0.02536215
1408.02938232,0.02666103
1409.95818970,0.02529567
1411.88699707,0.02581497
1413.81580444,0.02507920
1415.74461182,0.02564343
1417.67341919,0.02246659
1419.60222656,0.01965966
1421.53103394,0.02345661
1423.45984131,0.02281666
1425.38864868,0.02205476
1427.31745605,0.02256277
1429.24626343,0.02087344
1431.17507080,0.02018185
1433.10387817,0.02076276
1435.03268555,0.01885743
1436.96149292,0.01551778
1438.89030029,0.01821841
1440.81910767,0.01880347
1442.74791504,0.01719981
1444.67672241,0.01834678
1446.60552979,0.01670637
1448.53433716,0.01685809
1450.46314453,0.01759615
1452.39195190,0.01788652
1454.32075928,0.01850867
1456.24956665,0.01489834
1458.17837402,0.01518895
1460.10718140,0.02105699
1462.03598877,0.02275083
1463.96479614,0.02219441
1465.89360352,0.02316426
1467.82241089,0.02683465
1469.75121826,0.02874600
1471.68002563,0.02471334
1473.60883301,0.02605989
1475.53764038,0.03017821
1477.46644775,0.03253623
1479.39525513,0.03627027
1481.32406250,0.03670251
1483.25286987,0.03913627
1485.18167725,0.04034209
1487.11048462,0.03922697
1489.03929199,0.03867776
1490.96809937,0.03871236
1492.89690674,0.04623364
1494.82571411,0.04498022
1496.75452148,0.03937989
1498.68332886,0.04523636
1500.61213623,0.04692702
1502.54094360,0.05069499
1504.46975098,0.04748732
1506.39855835,0.03216052
1508.32736572,0.04040575
1510.25617310,0.04924860
1512.18498047,0.04756683
1514.11378784,0.05239506
1516.04259521,0.04606219
1517.97140259,0.04814603
1519.90020996,0.04683128
1521.82901733,0.03891611
1523.75782471,0.04963306
1525.68663208,0.04856734
1527.61543945,0.04815612
1529.54424683,0.05486880
1531.47305420,0.05206716
1533.40186157,0.04680691
1535.33066895,0.05008626
1537.25947632,0.05467360
1539.18828369,0.03673515
1541.11709106,0.03822801
1543.04589844,0.04788373
1544.97470581,0.04525232
1546.90351318,0.05584629
1548.83232056,0.05149879
1550.76112793,0.05326398
1552.68993530,0.05343722
1554.61874268,0.04694068
1556.54755005,0.05152798
1558.47635742,0.03379186
1560.40516479,0.03661252
1562.33397217,0.05672126
1564.26277954,0.05287601
1566.19158691,0.05477309
1568.12039429,0.05418330
1570.04920166,0.04659896
1571.97800903,0.05537362
1573.90681641,0.05648533
1575.83562378,0.04294057
1577.76443115,0.04944136
1579.69323853,0.05743541
1581.62204590,0.05463801
1583.55085327,0.05627565
1585.47966064,0.05554849
1587.40846802,0.05591207
1589.33727539,0.05538578
1591.26608276,0.05541059
1593.19489014,0.05562270
1595.12369751,0.05470515
1597.05250488,0.05573336
1598.98131226,0.05559589
1600.91011963,0.05573440
1602.83892700,0.05469909
1604.76773437,0.05590423
1606.69654175,0.05496455
1608.62534912,0.05487234
1610.55415649,0.05466311
1612.48296387,0.05504243
1614.41177124,0.05626298
1616.34057861,0.04424123
1618.26938599,0.04837044
1620.19819336,0.05843490
1622.12700073,0.05066063
1624.05580811,0.05048170
1625.98461548,0.05377896
1627.91342285,0.05346739
1629.84223022,0.05313948
1631.77103760,0.05744475
1633.69984497,0.05235707
1635.62865234,0.04132453
1637.55745972,0.04946828
1639.48626709,0.05597237
1641.41507446,0.05436082
1643.34388184,0.05606958
1645.27268921,0.04976955
1647.20149658,0.04203118
1649.13030396,0.05461667
1651.05911133,0.05217516
1652.98791870,0.03016597
1654.91672607,0.04358349
1656.84553345,0.05758948
1658.77434082,0.05480701
1660.70314819,0.05676142
1662.63195557,0.05050318
1664.56076294,0.05362968
1666.48957031,0.05881831
1668.41837769,0.04981811
1670.34718506,0.04788314
1672.27599243,0.05584740
1674.20479980,0.05099378
1676.13360718,0.04823571
1678.06241455,0.05721119
1679.99122192,0.05504594
1681.92002930,0.05395517
1683.84883667,0.04249844
1685.77764404,0.04176846
1687.70645142,0.06067638
1689.63525879,0.05157324
1691.56406616,0.05742066
1693.49287354,0.05930590
1695.42168091,0.04054825
1697.35048828,0.05224222
1699.27929565,0.04491222
1701.20810303,0.03889846
1703.13691040,0.05700253
1705.06571777,0.05146757
1706.99452515,0.05189602
1708.92333252,0.05743996
1710.85213989,0.05509523
1712.78094727,0.05633032
1714.70975464,0.05114841
1716.63856201,0.04535617
1718.56736938,0.04429259
1720.49617676,0.05425378
1722.42498413,0.05729460
1724.35379150,0.05206302
1726.28259888,0.05797950
1728.21140625,0.05296123
1730.14021362,0.05296991
1732.06902100,0.05205514
1733.99782837,0.03731564
1735.92663574,0.04842247
1737.85544312,0.05477513
1739.78425049,0.04742199
1741.71305786,0.05246641
1743.64186523,0.05334848
1745.57067261,0.05336848
1747.49947998,0.05378367
1749.42828735,0.05117775
1751.35709473,0.04835823
1753.28590210,0.05472307
1755.21470947,0.05806187
1757.14351685,0.05153169
1759.07232422,0.05796809
1761.00113159,0.05391784
1762.92993896,0.05138679
1764.85874634,0.06083428
1766.78755371,0.05351217
1768.71636108,0.05393917
1770.64516846,0.05358198
1772.57397583,0.04712383
1774.50278320,0.05376969
1776.43159058,0.05733392
1778.36039795,0.05666897
1780.28920532,0.05560092
1782.21801270,0.05618159
1784.14682007,0.05625897
1786.07562744,0.05490208
1788.00443481,0.05851873
1789.93324219,0.05669913
1791.86204956,0.05007688
1793.79085693,0.05260939
1795.71966431,0.05744640
1797.64847168,0.05657511
1799.57727905,0.05542447
1801.50608643,0.05414698
1803.43489380,0.05631758
1805.36370117,0.05805865
1807.29250854,0.05706063
1809.22131592,0.05740136
1811.15012329,0.05541042
1813.07893066,0.05739810
1815.00773804,0.05797869
1816.93654541,0.05716368
1818.86535278,0.05773539
1820.79416016,0.05732397
1822.72296753,0.05852295
1824.65177490,0.05388516
1826.58058228,0.05610237
1828.50938965,0.05648619
1830.43819702,0.05204886
1832.36700439,0.05787648
1834.29581177,0.05765856
1836.22461914,0.05737171
1838.15342651,0.05715460
1840.08223389,0.05767321
1842.01104126,0.05788652
1843.93984863,0.04986456
1845.86865601,0.05383173
1847.79746338,0.05764258
1849.72627075,0.05612505
1851.65507812,0.05817120
1853.58388550,0.05686571
1855.51269287,0.05760782
1857.44150024,0.05718175
1859.37030762,0.05672480
1861.29911499,0.05729206
1863.22792236,0.05659995
1865.15672974,0.05733007
1867.08553711,0.05508859
1869.01434448,0.05220351
1870.94315186,0.05466666
1872.87195923,0.05746499
1874.80076660,0.05635522
1876.72957397,0.05676105
1878.65838135,0.05651486
1880.58718872,0.05610220
1882.51599609,0.05696183
1884.44480347,0.05572269
1886.37361084,0.05673098
1888.30241821,0.05526291
1890.23122559,0.05379377
1892.16003296,0.05645605
1894.08884033,0.05554833
1896.01764771,0.05521829
1897.94645508,0.05612343
1899.87526245,0.05584008
1901.80406982,0.05588148
1903.73287720,0.05545518
1905.66168457,0.05585276
1907.59049194,0.05515731
1909.51929932,0.05477007
1911.44810669,0.05518844
1913.37691406,0.05527914
1915.30572144,0.05595771
1917.23452881,0.05290411
1919.16333618,0.05291435
1921.09214355,0.05559016
1923.02095093,0.05345109
1924.94975830,0.05461936
1926.87856567,0.05541618
1928.80737305,0.05466864
1930.73618042,0.05555360
1932.66498779,0.05461411
1934.59379517,0.05526652
1936.52260254,0.05493031
1938.45140991,0.05499752
1940.38021729,0.05493947
1942.30902466,0.05283291
1944.23783203,0.05393563
1946.16663940,0.05466006
1948.09544678,0.05460085
1950.02425415,0.05486535
1951.95306152,0.05466551
1953.88186890,0.05465403
1955.81067627,0.05437291
1957.73948364,0.05477125
1959.66829102,0.05469055
1961.59709839,0.05450968
1963.52590576,0.05476626
1965.45471313,0.05430251
1967.38352051,0.05358981
1969.31232788,0.05427230
1971.24113525,0.05471271
1973.16994263,0.05430100
1975.09875000,0.05461361
1977.02755737,0.05412835
1978.95636475,0.05435674
1980.88517212,0.05441600
1982.81397949,0.05403764
1984.74278687,0.05438296
1986.67159424,0.05373296
1988.60040161,0.05394999
1990.52920898,0.05341377
1992.45801636,0.05252467
1994.38682373,0.05356212
1996.31563110,0.05388134
1998.24443848,0.05360575
2000.17324585,0.05361364
2002.10205322,0.05352297
2004.03086060,0.05336642
2005.95966797,0.05315157
2007.88847534,0.05304609
2009.81728271,0.05316358
2011.74609009,0.05300214
2013.67489746,0.05297434
2015.60370483,0.05261236
2017.53251221,0.05203829
2019.46131958,0.05265414
2021.39012695,0.05257332
2023.31893433,0.05226718
2025.24774170,0.05233426
2027.17654907,0.05207821
2029.10535645,0.05230433
2031.03416382,0.05218601
2032.96297119,0.05209410
2034.89177856,0.05199015
2036.82058594,0.05172721
2038.74939331,0.05171973
2040.67820068,0.05144675
2042.60700806,0.05129449
2044.53581543,0.05137017
2046.46462280,0.05127938
2048.39343018,0.05114899
2050.32223755,0.05127987
2052.25104492,0.05116476
2054.17985229,0.05097071
2056.10865967,0.05090614
2058.03746704,0.05069542
2059.96627441,0.05066603
2061.89508179,0.05066276
2063.82388916,0.05043740
2065.75269653,0.05026881
2067.68150391,0.05050885
2069.61031128,0.05042252
2071.53911865,0.05020176
2073.46792603,0.05026009
2075.39673340,0.05011711
2077.32554077,0.05002527
2079.25434814,0.04988722
2081.18315552,0.04990894
2083.11196289,0.04994601
2085.04077026,0.04979573
2086.96957764,0.04961347
2088.89838501,0.04953800
2090.82719238,0.04957024
2092.75599976,0.04941659
2094.68480713,0.04939890
2096.61361450,0.04929224
2098.54242187,0.04916304
2100.47122925,0.04905294
2102.40003662,0.04902945
2104.32884399,0.04904294
2106.25765137,0.04883629
2108.18645874,0.04885108
2110.11526611,0.04867588
2112.04407349,0.04853649
2113.97288086,0.04855871
2115.90168823,0.04853770
2117.83049561,0.04843434
2119.75930298,0.04832834
2121.68811035,0.04840807
2123.61691772,0.04823465
2125.54572510,0.04829892
2127.47453247,0.04829554
2129.40333984,0.04815800
2131.33214722,0.04812845
2133.26095459,0.04799809
2135.18976196,0.04797251
2137.11856934,0.04790425
2139.04737671,0.04800305
2140.97618408,0.04786375
2142.90499146,0.04776803
2144.83379883,0.04769443
2146.76260620,0.04757638
2148.69141357,0.04771820
2150.62022095,0.04759490
2152.54902832,0.04754719
2154.47783569,0.04739048
2156.40664307,0.04735552
2158.33545044,0.04731363
2160.26425781,0.04724876
2162.19306519,0.04735104
2164.12187256,0.04720880
2166.05067993,0.04715367
2167.97948730,0.04699144
2169.90829468,0.04718055
2171.83710205,0.04708142
2173.76590942,0.04692782
2175.69471680,0.04712475
2177.62352417,0.04678867
2179.55233154,0.04683209
2181.48113892,0.04673927
2183.40994629,0.04659931
2185.33875366,0.04660696
2187.26756104,0.04649827
2189.19636841,0.04665602
2191.12517578,0.04660369
2193.05398315,0.04655965
2194.98279053,0.04643305
2196.91159790,0.04641952
2198.84040527,0.04647978
2200.76921265,0.04640261
2202.69802002,0.04623692
2204.62682739,0.04617643
2206.55563477,0.04632948
2208.48444214,0.04621295
2210.41324951,0.04623089
2212.34205688,0.04608261
2214.27086426,0.04598469
2216.19967163,0.04600928
2218.12847900,0.04585927
2220.05728638,0.04587862
2221.98609375,0.04577696
2223.91490112,0.04576804
2225.84370850,0.04567209
2227.77251587,0.04576322
2229.70132324,0.04568360
2231.63013062,0.04539469
2233.55893799,0.04557719
2235.48774536,0.04549908
2237.41655273,0.04535945
2239.34536011,0.04523258
2241.27416748,0.04520308
2243.20297485,0.04520928
2245.13178223,0.04510379
2247.06058960,0.04504577
2248.98939697,0.04495893
2250.91820435,0.04502139
2252.84701172,0.04486020
2254.77581909,0.04481669
2256.70462646,0.04484686
2258.63343384,0.04479627
2260.56224121,0.04473398
2262.49104858,0.04456700
2264.41985596,0.04455878
2266.34866333,0.04440853
2268.27747070,0.04439740
2270.20627808,0.04444288
2272.13508545,0.04443475
2274.06389282,0.04441615
2275.99270020,0.04438945
2277.92150757,0.04431044
2279.85031494,0.04404669
2281.77912231,0.04412067
2283.70792969,0.04403001
2285.63673706,0.04388835
2287.56554443,0.04392640
2289.49435181,0.04392101
2291.42315918,0.04383281
2293.35196655,0.04360579
2295.28077393,0.04365147
2297.20958130,0.04342280
2299.13838867,0.04316882
2301.06719604,0.04311784
2302.99600342,0.04299626
2304.92481079,0.04278559
2306.85361816,0.04246007
2308.78242554,0.04232553
2310.71123291,0.04190855
2312.64004028,0.04154049
2314.56884766,0.04132044
2316.49765503,0.04088397
2318.42646240,0.04026381
2320.35526978,0.03968583
2322.28407715,0.03941008
2324.21288452,0.03877396
2326.14169189,0.03821033
2328.07049927,0.03799161
2329.99930664,0.03754155
2331.92811401,0.03717162
2333.85692139,0.03713064
2335.78572876,0.03689627
2337.71453613,0.03679814
2339.64334351,0.03703750
2341.57215088,0.03702023
2343.50095825,0.03749977
2345.42976562,0.03822101
2347.35857300,0.03964141
2349.28738037,0.04093018
2351.21618774,0.03958683
2353.14499512,0.03777107
2355.07380249,0.03654275
2357.00260986,0.03533072
2358.93141724,0.03466172
2360.86022461,0.03424505
2362.78903198,0.03420080
2364.71783936,0.03442156
2366.64664673,0.03487597
2368.57545410,0.03560428
2370.50426147,0.03647741
2372.43306885,0.03739135
2374.36187622,0.03832382
2376.29068359,0.03929236
2378.21949097,0.04012807
2380.14829834,0.04072751
2382.07710571,0.04114626
2384.00591309,0.04145524
2385.93472046,0.04145522
2387.86352783,0.04152435
2389.79233521,0.04151987
2391.72114258,0.04135976
2393.64994995,0.04144088
2395.57875732,0.04141221
2397.50756470,0.04134883
2399.43637207,0.04126198
2401.36517944,0.04124504
2403.29398682,0.04132248
2405.22279419,0.04125664
2407.15160156,0.04105169
2409.08040894,0.04099689
2411.00921631,0.04112012
2412.93802368,0.04100678
2414.86683105,0.04103527
2416.79563843,0.04100375
2418.72444580,0.04084031
2420.65325317,0.04078263
2422.58206055,0.04066360
2424.51086792,0.04067637
2426.43967529,0.04061139
2428.36848267,0.04058746
2430.29729004,0.04057781
2432.22609741,0.04055516
2434.15490479,0.04048730
2436.08371216,0.04028821
2438.01251953,0.04030585
2439.94132690,0.04031605
2441.87013428,0.04026699
2443.79894165,0.04026906
2445.72774902,0.04027979
2447.65655640,0.04028741
2449.58536377,0.04031440
2451.51417114,0.04003752
2453.44297852,0.03982107
2455.37178589,0.03997836
2457.30059326,0.03984259
2459.22940063,0.03985652
2461.15820801,0.03980628
2463.08701538,0.03977442
2465.01582275,0.03988586
2466.94463013,0.03966737
2468.87343750,0.03971909
2470.80224487,0.03959550
2472.73105225,0.03953267
2474.65985962,0.03957353
2476.58866699,0.03943191
2478.51747437,0.03944355
2480.44628174,0.03924400
2482.37508911,0.03936274
2484.30389648,0.03942163
2486.23270386,0.03916446
2488.16151123,0.03912552
2490.09031860,0.03907410
2492.01912598,0.03902269
2493.94793335,0.03899215
2495.87674072,0.03903061
2497.80554810,0.03884890
2499.73435547,0.03868941
2501.66316284,0.03876521
2503.59197021,0.03870828
2505.52077759,0.03871465
2507.44958496,0.03871346
2509.37839233,0.03872015
2511.30719971,0.03872584
2513.23600708,0.03860602
2515.16481445,0.03857094
2517.09362183,0.03848849
2519.02242920,0.03835338
2520.95123657,0.03838512
2522.88004395,0.03847069
2524.80885132,0.03840244
2526.73765869,0.03824540
2528.66646606,0.03820792
2530.59527344,0.03812999
2532.52408081,0.03809303
2534.45288818,0.03813705
2536.38169556,0.03805072
2538.31050293,0.03814932
2540.23931030,0.03806690
2542.16811768,0.03787925
2544.09692505,0.03792661
2546.02573242,0.03777904
2547.95453979,0.03772772
2549.88334717,0.03767125
2551.81215454,0.03764352
2553.74096191,0.03768665
2555.66976929,0.03765735
2557.59857666,0.03772040
2559.52738403,0.03752792
2561.45619141,0.03746858
2563.38499878,0.03756039
2565.31380615,0.03744883
2567.24261353,0.03737320
2569.17142090,0.03738588
2571.10022827,0.03736182
2573.02903564,0.03723168
2574.95784302,0.03716003
2576.88665039,0.03710917
2578.81545776,0.03705332
2580.74426514,0.03694785
2582.67307251,0.03705951
2584.60187988,0.03711370
2586.53068726,0.03695011
2588.45949463,0.03694978
2590.38830200,0.03671842
2592.31710937,0.03672023
2594.24591675,0.03676450
2596.17472412,0.03666983
2598.10353149,0.03665670
2600.03233887,0.03643575
2601.96114624,0.03658361
2603.88995361,0.03658084
2605.81876099,0.03645991
2607.74756836,0.03650463
2609.67637573,0.03631188
2611.60518311,0.03622581
2613.53399048,0.03621006
2615.46279785,0.03625166
2617.39160522,0.03627981
2619.32041260,0.03629218
2621.24921997,0.03614835
2623.17802734,0.03604814
2625.10683472,0.03604959
2627.03564209,0.03591257
2628.96444946,0.03598527
2630.89325684,0.03587083
2632.82206421,0.03576793
2634.75087158,0.03582473
2636.67967895,0.03575138
2638.60848633,0.03566571
2640.53729370,0.03556091
2642.46610107,0.03558888
2644.39490845,0.03559034
2646.32371582,0.03561139
2648.25252319,0.03550607
2650.18133057,0.03549192
2652.11013794,0.03551320
2654.03894531,0.03530413
2655.96775269,0.03533257
2657.89656006,0.03522746
2659.82536743,0.03520771
2661.75417480,0.03513143
2663.68298218,0.03497093
2665.61178955,0.03510815
2667.54059692,0.03487728
2669.46940430,0.03493348
2671.39821167,0.03508954
2673.32701904,0.03487354
2675.25582642,0.03492511
2677.18463379,0.03480896
2679.11344116,0.03473775
2681.04224854,0.03473588
2682.97105591,0.03455273
2684.89986328,0.03468076
2686.82867065,0.03463967
2688.75747803,0.03453651
2690.68628540,0.03462573
2692.61509277,0.03450359
2694.54390015,0.03442404
2696.47270752,0.03425411
2698.40151489,0.03424448
2700.33032227,0.03427762
2702.25912964,0.03412123
2704.18793701,0.03427070
2706.11674438,0.03415741
2708.04555176,0.03401531
2709.97435913,0.03398823
2711.90316650,0.03385191
2713.83197388,0.03393194
2715.76078125,0.03385522
2717.68958862,0.03385893
2719.61839600,0.03389041
2721.54720337,0.03375014
2723.47601074,0.03368358
2725.40481812,0.03369663
2727.33362549,0.03373922
2729.26243286,0.03356642
2731.19124023,0.03338761
2733.12004761,0.03340644
2735.04885498,0.03350890
2736.97766235,0.03339414
2738.90646973,0.03327883
2740.83527710,0.03332390
2742.76408447,0.03322241
2744.69289185,0.03321160
2746.62169922,0.03312681
2748.55050659,0.03304595
2750.47931396,0.03307423
2752.40812134,0.03301577
2754.33692871,0.03294834
2756.26573608,0.03281680
2758.19454346,0.03278590
2760.12335083,0.03278373
2762.05215820,0.03277670
2763.98096558,0.03266669
2765.90977295,0.03255593
2767.83858032,0.03263771
2769.76738770,0.03257609
2771.69619507,0.03248363
2773.62500244,0.03242129
2775.55380981,0.03244446
2777.48261719,0.03246072
2779.41142456,0.03234037
2781.34023193,0.03231866
2783.26903931,0.03224808
2785.19784668,0.03214405
2787.12665405,0.03202743
2789.05546143,0.03189996
2790.98426880,0.03192098
2792.91307617,0.03195198
2794.84188354,0.03183445
2796.77069092,0.03172912
2798.69949829,0.03172536
2800.62830566,0.03168998
2802.55711304,0.03168351
2804.48592041,0.03157102
2806.41472778,0.03146634
2808.34353516,0.03143778
2810.27234253,0.03129993
2812.20114990,0.03131203
2814.12995728,0.03128205
2816.05876465,0.03122594
2817.98757202,0.03124271
2819.91637939,0.03108930
2821.84518677,0.03099084
2823.77399414,0.03093434
2825.70280151,0.03091170
2827.63160889,0.03084462
2829.56041626,0.03072070
2831.48922363,0.03065439
2833.41803101,0.03049953
2835.34683838,0.03053390
2837.27564575,0.03050928
2839.20445312,0.03039592
2841.13326050,0.03038181
2843.06206787,0.03006647
2844.99087524,0.02988183
2846.91968262,0.02973610
2848.84848999,0.02949378
2850.77729736,0.02952091
2852.70610474,0.02956104
2854.63491211,0.02961186
2856.56371948,0.02957469
2858.49252686,0.02954315
2860.42133423,0.02955405
2862.35014160,0.02956587
2864.27894897,0.02967975
2866.20775635,0.02954140
2868.13656372,0.02940145
2870.06537109,0.02944191
2871.99417847,0.02940108
2873.92298584,0.02928573
2875.85179321,0.02924479
2877.78060059,0.02921933
2879.70940796,0.02915867
2881.63821533,0.02919219
2883.56702270,0.02904428
2885.49583008,0.02896261
2887.42463745,0.02899265
2889.35344482,0.02887833
2891.28225220,0.02886566
2893.21105957,0.02880400
2895.13986694,0.02870333
2897.06867432,0.02860428
2898.99748169,0.02856186
2900.92628906,0.02848997
2902.85509644,0.02834769
2904.78390381,0.02830549
2906.71271118,0.02819126
2908.64151855,0.02816350
2910.57032593,0.02794854
2912.49913330,0.02768596
2914.42794067,0.02771765
2916.35674805,0.02753245
2918.28555542,0.02743860
2920.21436279,0.02752977
2922.14317017,0.02754449
2924.07197754,0.02763377
2926.00078491,0.02768259
2927.92959229,0.02768206
2929.85839966,0.02763781
2931.78720703,0.02760638
2933.71601440,0.02768541
2935.64482178,0.02770302
2937.57362915,0.02774701
2939.50243652,0.02780830
2941.43124390,0.02769623
2943.36005127,0.02771376
2945.28885864,0.02773815
2947.21766602,0.02759314
2949.14647339,0.02754618
2951.07528076,0.02748786
2953.00408813,0.02737782
2954.93289551,0.02733037
2956.86170288,0.02738165
2958.79051025,0.02731239
2960.71931763,0.02719737
2962.64812500,0.02721884
2964.57693237,0.02715198
2966.50573975,0.02714452
2968.43454712,0.02710927
2970.36335449,0.02710691
2972.29216187,0.02725194
2974.22096924,0.02718019
2976.14977661,0.02715253
2978.07858398,0.02724798
2980.00739136,0.02718154
2981.93619873,0.02717782
2983.86500610,0.02724329
2985.79381348,0.02712131
2987.72262085,0.02711100
2989.65142822,0.02717296
2991.58023560,0.02700593
2993.50904297,0.02692483
2995.43785034,0.02692898
2997.36665771,0.02692433
2999.29546509,0.02694190
3001.22427246,0.02690708
3003.15307983,0.02685568
3005.08188721,0.02678318
3007.01069458,0.02669579
3008.93950195,0.02666752
3010.86830933,0.02665806
3012.79711670,0.02645585
3014.72592407,0.02633687
3016.65473145,0.02639842
3018.58353882,0.02638412
3020.51234619,0.02639099
3022.44115356,0.02633346
3024.36996094,0.02619535
3026.29876831,0.02608793
3028.22757568,0.02606543
3030.15638306,0.02601214
3032.08519043,0.02589159
3034.01399780,0.02581165
3035.94280518,0.02580442
3037.87161255,0.02588104
3039.80041992,0.02578588
3041.72922729,0.02573845
3043.65803467,0.02570689
3045.58684204,0.02558130
3047.51564941,0.02560946
3049.44445679,0.02549484
3051.37326416,0.02547799
3053.30207153,0.02552460
3055.23087891,0.02535494
3057.15968628,0.02524604
3059.08849365,0.02527051
3061.01730103,0.02533187
3062.94610840,0.02523920
3064.87491577,0.02516886
3066.80372314,0.02507085
3068.73253052,0.02500558
3070.66133789,0.02505374
3072.59014526,0.02492483
3074.51895264,0.02497249
3076.44776001,0.02498225
3078.37656738,0.02474327
3080.30537476,0.02475619
3082.23418213,0.02481496
3084.16298950,0.02466863
3086.09179687,0.02458664
3088.02060425,0.02460859
3089.94941162,0.02460177
3091.87821899,0.02458635
3093.80702637,0.02448224
3095.73583374,0.02440166
3097.66464111,0.02442356
3099.59344849,0.02436440
3101.52225586,0.02429159
3103.45106323,0.02425765
3105.37987061,0.02415352
3107.30867798,0.02404569
3109.23748535,0.02402531
3111.16629272,0.02398409
3113.09510010,0.02399774
3115.02390747,0.02396083
3116.95271484,0.02379736
3118.88152222,0.02373138
3120.81032959,0.02366592
3122.73913696,0.02363627
3124.66794434,0.02352908
3126.59675171,0.02341942
3128.52555908,0.02348768
3130.45436645,0.02344801
3132.38317383,0.02339682
3134.31198120,0.02328733
3136.24078857,0.02316091
3138.16959595,0.02315487
3140.09840332,0.02310026
3142.02721069,0.02307517
3143.95601807,0.02303846
3145.88482544,0.02296537
3147.81363281,0.02292775
3149.74244019,0.02296473
3151.67124756,0.02287931
3153.60005493,0.02268009
3155.52886230,0.02274086
3157.45766968,0.02271184
3159.38647705,0.02251488
3161.31528442,0.02248343
3163.24409180,0.02242333
3165.17289917,0.02234265
3167.10170654,0.02231017
3169.03051392,0.02222281
3170.95932129,0.02210389
3172.88812866,0.02213797
3174.81693604,0.02219336
3176.74574341,0.02195961
3178.67455078,0.02189413
3180.60335815,0.02199804
3182.53216553,0.02186772
3184.46097290,0.02178608
3186.38978027,0.02169939
3188.31858765,0.02164374
3190.24739502,0.02165344
3192.17620239,0.02155602
3194.10500977,0.02154079
3196.03381714,0.02151858
3197.96262451,0.02145407
3199.89143188,0.02139344
3201.82023926,0.02131080
3203.74904663,0.02123962
3205.67785400,0.02123823
3207.60666138,0.02124119
3209.53546875,0.02116096
3211.46427612,0.02116388
3213.39308350,0.02104676
3215.32189087,0.02100673
3217.25069824,0.02107489
3219.17950562,0.02095702
3221.10831299,0.02095961
3223.03712036,0.02087680
3224.96592773,0.02085999
3226.89473511,0.02087233
3228.82354248,0.02071717
3230.75234985,0.02081379
3232.68115723,0.02079372
3234.60996460,0.02070384
3236.53877197,0.02066492
3238.46757935,0.02053260
3240.39638672,0.02057755
3242.32519409,0.02056052
3244.25400146,0.02048742
3246.18280884,0.02051503
3248.11161621,0.02051673
3250.04042358,0.02047861
3251.96923096,0.02035155
3253.89803833,0.02025916
3255.82684570,0.02028270
3257.75565308,0.02033104
3259.68446045,0.02031064
3261.61326782,0.02026051
3263.54207520,0.02028877
3265.47088257,0.02021705
3267.39968994,0.02015286
3269.32849731,0.02019854
3271.25730469,0.02019307
3273.18611206,0.02018945
3275.11491943,0.02004265
3277.04372681,0.01999904
3278.97253418,0.02010045
3280.90134155,0.02009054
3282.83014893,0.02013035
3284.75895630,0.02007713
3286.68776367,0.02002107
3288.61657104,0.01997888
3290.54537842,0.01995723
3292.47418579,0.01989572
3294.40299316,0.01976869
3296.33180054,0.01983201
3298.26060791,0.01981504
3300.18941528,0.01993700
3302.11822266,0.01994795
3304.04703003,0.01974751
3305.97583740,0.01981779
3307.90464478,0.01975087
3309.83345215,0.01966451
3311.76225952,0.01965808
3313.69106689,0.01966042
3315.61987427,0.01963951
3317.54868164,0.01953558
3319.47748901,0.01955451
3321.40629639,0.01957962
3323.33510376,0.01947361
3325.26391113,0.01941287
3327.19271851,0.01956061
3329.12152588,0.01946760
3331.05033325,0.01939500
3332.97914062,0.01944681
3334.90794800,0.01933397
3336.83675537,0.01937584
3338.76556274,0.01929603
3340.69437012,0.01929799
3342.62317749,0.01931999
3344.55198486,0.01920738
3346.48079224,0.01920854
3348.40959961,0.01920446
3350.33840698,0.01914298
3352.26721436,0.01903114
3354.19602173,0.01911560
3356.12482910,0.01898826
3358.05363647,0.01897506
3359.98244385,0.01909925
3361.91125122,0.01894072
3363.84005859,0.01898289
3365.76886597,0.01886804
3367.69767334,0.01886854
3369.62648071,0.01885626
3371.55528809,0.01870971
3373.48409546,0.01884142
3375.41290283,0.01883274
3377.34171020,0.01874741
3379.27051758,0.01867995
3381.19932495,0.01873839
3383.12813232,0.01864081
3385.05693970,0.01851178
3386.98574707,0.01856976
3388.91455444,0.01856857
3390.84336182,0.01850818
3392.77216919,0.01831429
3394.70097656,0.01835420
3396.62978394,0.01831005
3398.55859131,0.01831281
3400.48739868,0.01842156
3402.41620605,0.01822146
3404.34501343,0.01817787
3406.27382080,0.01818952
3408.20262817,0.01819008
3410.13143555,0.01813208
3412.06024292,0.01814593
3413.98905029,0.01818855
3415.91785767,0.01811112
3417.84666504,0.01806932
3419.77547241,0.01791276
3421.70427979,0.01786327
3423.63308716,0.01784123
3425.56189453,0.01790027
3427.49070190,0.01796107
3429.41950928,0.01788665
3431.34831665,0.01783492
3433.27712402,0.01778721
3435.20593140,0.01779592
3437.13473877,0.01774691
3439.06354614,0.01779012
3440.99235352,0.01760558
3442.92116089,0.01744922
3444.84996826,0.01751120
3446.77877563,0.01725482
3448.70758301,0.01729436
3450.63639038,0.01761719
3452.56519775,0.01760516
3454.49400513,0.01750961
3456.42281250,0.01754946
3458.35161987,0.01739052
3460.28042725,0.01734241
3462.20923462,0.01739842
3464.13804199,0.01728598
3466.06684937,0.01730039
3467.99565674,0.01726156
3469.92446411,0.01733596
3471.85327148,0.01728735
3473.78207886,0.01723942
3475.71088623,0.01726518
3477.63969360,0.01722428
3479.56850098,0.01726317
3481.49730835,0.01694215
3483.42611572,0.01700353
3485.35492310,0.01712914
3487.28373047,0.01702685
3489.21253784,0.01709371
3491.14134521,0.01709100
3493.07015259,0.01718617
3494.99895996,0.01701083
3496.92776733,0.01693996
3498.85657471,0.01702248
3500.78538208,0.01707925
3502.71418945,0.01675401
3504.64299683,0.01663434
3506.57180420,0.01719162
3508.50061157,0.01684422
3510.42941895,0.01674083
3512.35822632,0.01706629
3514.28703369,0.01705709
3516.21584106,0.01704139
3518.14464844,0.01677346
3520.07345581,0.01697390
3522.00226318,0.01683993
3523.93107056,0.01648933
3525.85987793,0.01662174
3527.78868530,0.01659303
3529.71749268,0.01664308
3531.64630005,0.01682765
3533.57510742,0.01698861
3535.50391479,0.01680841
3537.43272217,0.01668933
3539.36152954,0.01696249
3541.29033691,0.01688978
3543.21914429,0.01673775
3545.14795166,0.01641662
3547.07675903,0.01597592
3549.00556641,0.01668575
3550.93437378,0.01686236
3552.86318115,0.01623376
3554.79198853,0.01665509
3556.72079590,0.01671971
3558.64960327,0.01662213
3560.57841064,0.01652659
3562.50721802,0.01644438
3564.43602539,0.01657910
3566.36483276,0.01525658
3568.29364014,0.01476705
3570.22244751,0.01624041
3572.15125488,0.01690175
3574.08006226,0.01661426
3576.00886963,0.01663232
3577.93767700,0.01657491
3579.86648437,0.01647909
3581.79529175,0.01655418
3583.72409912,0.01667611
3585.65290649,0.01623037
3587.58171387,0.01460312
3589.51052124,0.01523211
3591.43932861,0.01683681
3593.36813599,0.01608782
3595.29694336,0.01578295
3597.22575073,0.01625330
3599.15455811,0.01634797
3601.08336548,0.01610291
3603.01217285,0.01638961
3604.94098022,0.01679598
3606.86978760,0.01601090
3608.79859497,0.01489200
3610.72740234,0.01535216
3612.65620972,0.01567651
3614.58501709,0.01510282
3616.51382446,0.01644463
3618.44263184,0.01495558
3620.37143921,0.01435292
3622.30024658,0.01658741
3624.22905395,0.01610788
3626.15786133,0.01695720
3628.08666870,0.01394112
3630.01547607,0.01251758
3631.94428345,0.01635004
3633.87309082,0.01584822
3635.80189819,0.01627414
3637.73070557,0.01669912
3639.65951294,0.01636781
3641.58832031,0.01642680
3643.51712769,0.01622905
3645.44593506,0.01643140
3647.37474243,0.01434785
3649.30354980,0.01298284
3651.23235718,0.01317771
3653.16116455,0.01616199
3655.08997192,0.01600576
3657.01877930,0.01405247
3658.94758667,0.01661556
3660.87639404,0.01620625
3662.80520142,0.01647493
3664.73400879,0.01638677
3666.66281616,0.01608308
3668.59162354,0.01551487
3670.52043091,0.01221382
3672.44923828,0.01546608
3674.37804565,0.01459157
3676.30685303,0.01159491
3678.23566040,0.01532576
3680.16446777,0.01571259
3682.09327515,0.01573280
3684.02208252,0.01630879
3685.95088989,0.01596090
3687.87969727,0.01417942
3689.80850464,0.01281340
3691.73731201,0.01481574
3693.66611938,0.01544509
3695.59492676,0.01596161
3697.52373413,0.01582339
3699.45254150,0.01568646
3701.38134888,0.01521781
3703.31015625,0.01453253
3705.23896362,0.01627570
3707.16777100,0.01533788
3709.09657837,0.01491834
3711.02538574,0.01390001
3712.95419312,0.01292031
3714.88300049,0.01558477
3716.81180786,0.01530614
3718.74061523,0.01542443
3720.66942261,0.01502994
3722.59822998,0.01447818
3724.52703735,0.01504472
3726.45584473,0.01375260
3728.38465210,0.01520211
3730.31345947,0.01500365
3732.24226685,0.01355996
3734.17107422,0.01315244
3736.09988159,0.01237780
3738.02868896,0.01332629
3739.95749634,0.01462996
3741.88630371,0.01539566
3743.81511108,0.01148888
3745.74391846,0.01067869
3747.67272583,0.01454624
3749.60153320,0.01218040
3751.53034058,0.01097408
3753.45914795,0.01300507
3755.38795532,0.01419311
3757.31676270,0.01493258
3759.24557007,0.01361645
3761.17437744,0.01414916
3763.10318481,0.01532436
3765.03199219,0.01404682
3766.96079956,0.01435244
3768.88960693,0.01422228
3770.81841431,0.01344202
3772.74722168,0.01487200
3774.67602905,0.01482543
3776.60483643,0.01476764
3778.53364380,0.01439778
3780.46245117,0.01372843
3782.39125854,0.01485984
3784.32006592,0.01438397
3786.24887329,0.01417355
3788.17768066,0.01465812
3790.10648804,0.01462121
3792.03529541,0.01444603
3793.96410278,0.01473617
3795.89291016,0.01378264
3797.82171753,0.01344804
3799.75052490,0.01437199
3801.67933228,0.01099693
3803.60813965,0.01306218
3805.53694702,0.01450702
3807.46575439,0.01149392
3809.39456177,0.01430852
3811.32336914,0.01400013
3813.25217651,0.01457961
3815.18098389,0.01298931
3817.10979126,0.01115465
3819.03859863,0.01454176
3820.96740601,0.01119938
3822.89621338,0.01204973
3824.82502075,0.01440382
3826.75382812,0.01280914
3828.68263550,0.01406305
3830.61144287,0.01337291
3832.54025024,0.01295377
3834.46905762,0.01312727
3836.39786499,0.01246866
3838.32667236,0.01116708
3840.25547974,0.01201046
3842.18428711,0.01322923
3844.11309448,0.01254387
3846.04190186,0.01381742
3847.97070923,0.01361659
3849.89951660,0.01353125
3851.82832397,0.01199526
3853.75713135,0.00853042
3855.68593872,0.01050904
3857.61474609,0.01357111
3859.54355347,0.01322061
3861.47236084,0.01300257
3863.40116821,0.01259030
3865.32997559,0.01169459
3867.25878296,0.01332312
3869.18759033,0.01196174
3871.11639770,0.01094149
3873.04520508,0.01332990
3874.97401245,0.01193984
3876.90281982,0.01322099
3878.83162720,0.01357028
3880.76043457,0.01120259
3882.68924194,0.01333601
3884.61804932,0.01227269
3886.54685669,0.01106729
3888.47566406,0.01335530
3890.40447144,0.01246110
3892.33327881,0.01162888
3894.26208618,0.01298301
3896.19089355,0.01328623
3898.11970093,0.01253795
3900.04850830,0.01168551
3901.97731567,0.01152684
3903.90612305,0.01133736
3905.83493042,0.01154797
3907.76373779,0.01292424
3909.69254517,0.01294248
3911.62135254,0.01276716
3913.55015991,0.01300721
3915.47896728,0.01253584
3917.40777466,0.01216371
3919.33658203,0.01207729
3921.26538940,0.01268760
3923.19419678,0.01251168
3925.12300415,0.01217066
3927.05181152,0.01250515
3928.98061890,0.01256974
3930.90942627,0.01231471
3932.83823364,0.01186892
3934.76704102,0.01243240
3936.69584839,0.01262365
3938.62465576,0.01248711
3940.55346313,0.01261140
3942.48227051,0.01203101
3944.41107788,0.01210613
3946.33988525,0.01236760
3948.26869263,0.01210735
3950.19750000,0.01211675
3952.12630737,0.01229429
3954.05511475,0.01227550
3955.98392212,0.01222971
3957.91272949,0.01218219
3959.84153687,0.01221939
3961.77034424,0.01213644
3963.69915161,0.01204052
3965.62795898,0.01226674
3967.55676636,0.01200305
3969.48557373,0.01202857
3971.41438110,0.01220060
3973.34318848,0.01200791
3975.27199585,0.01198101
3977.20080322,0.01191230
3979.12961060,0.01207613
3981.05841797,0.01196933
3982.98722534,0.01195290
3984.91603271,0.01196496
3986.84484009,0.01190686
3988.77364746,0.01195665
3990.70245483,0.01175756
3992.63126221,0.01191568
3994.56006958,0.01176855
3996.48887695,0.01167090
3998.41768433,0.01171945
4000.34649170,0.01168375
4002.27529907,0.01178300
4004.20410645,0.01164187
4006.13291382,0.01178506
4008.06172119,0.01165865
4009.99052856,0.01159449
4011.91933594,0.01167030
4013.84814331,0.01155765
4015.77695068,0.01165600
4017.70575806,0.01156694
4019.63456543,0.01155472
4021.56337280,0.01150970
4023.49218018,0.01144108
4025.42098755,0.01138486
4027.34979492,0.01138089
4029.27860229,0.01146504
4031.20740967,0.01146030
4033.13621704,0.01144705
4035.06502441,0.01136406
4036.99383179,0.01141877
4038.92263916,0.01128200
4040.85144653,0.01125563
4042.78025391,0.01126719
4044.70906128,0.01112297
4046.63786865,0.01115870
4048.56667603,0.01108687
4050.49548340,0.01117514
4052.42429077,0.01114228
4054.35309814,0.01109662
4056.28190552,0.01112211
4058.21071289,0.01107295
4060.13952026,0.01110634
4062.06832764,0.01097197
4063.99713501,0.01096362
4065.92594238,0.01097918
4067.85474976,0.01096851
4069.78355713,0.01091904
4071.71236450,0.01090097
4073.64117187,0.01090105
4075.56997925,0.01083161
4077.49878662,0.01087891
4079.42759399,0.01081413
4081.35640137,0.01086123
4083.28520874,0.01080226
4085.21401611,0.01071334
4087.14282349,0.01075081
4089.07163086,0.01065777
4091.00043823,0.01059745
4092.92924561,0.01053475
4094.85805298,0.01062321
4096.78686035,0.01060415
4098.71566772,0.01058454
4100.64447510,0.01063116
4102.57328247,0.01055463
4104.50208984,0.01053992
4106.43089722,0.01046997
4108.35970459,0.01045199
4110.28851196,0.01049861
4112.21731934,0.01054954
4114.14612671,0.01046585
4116.07493408,0.01043693
4118.00374145,0.01042054
4119.93254883,0.01034806
4121.86135620,0.01038625
4123.79016357,0.01028944
4125.71897095,0.01034905
4127.64777832,0.01032696
4129.57658569,0.01025799
4131.50539307,0.01024081
4133.43420044,0.01010782
4135.36300781,0.01018185
4137.29181519,0.01014886
4139.22062256,0.01012135
4141.14942993,0.01011212
4143.07823730,0.01003498
4145.00704468,0.01006059
4146.93585205,0.01010921
4148.86465942,0.01005469
4150.79346680,0.00992956
4152.72227417,0.00998126
4154.65108154,0.00996996
4156.57988892,0.00994522
4158.50869629,0.00989756
4160.43750366,0.00989251
4162.36631103,0.00994991
4164.29511841,0.00986234
4166.22392578,0.00987343
4168.15273315,0.00983031
4170.08154053,0.00977640
4172.01034790,0.00973596
4173.93915527,0.00977217
4175.86796265,0.00978088
4177.79677002,0.00967822
4179.72557739,0.00972167
4181.65438477,0.00962154
4183.58319214,0.00960254
4185.51199951,0.00968120
4187.44080688,0.00965924
4189.36961426,0.00963689
4191.29842163,0.00960175
4193.22722900,0.00953642
4195.15603638,0.00947894
4197.08484375,0.00955091
4199.01365112,0.00947683
4200.94245850,0.00939711
4202.87126587,0.00935378
4204.80007324,0.00932329
4206.72888062,0.00935920
4208.65768799,0.00933268
4210.58649536,0.00936531
4212.51530273,0.00933033
4214.44411011,0.00935040
4216.37291748,0.00930412
4218.30172485,0.00928637
4220.23053223,0.00927446
4222.15933960,0.00916199
4224.08814697,0.00926699
4226.01695435,0.00920944
4227.94576172,0.00920769
4229.87456909,0.00919451
4231.80337646,0.00910192
4233.73218384,0.00917336
4235.66099121,0.00906024
4237.58979858,0.00906113
4239.51860596,0.00908470
4241.44741333,0.00897212
4243.37622070,0.00896983
4245.30502808,0.00898993
4247.23383545,0.00894875
4249.16264282,0.00899688
4251.09145020,0.00899768
4253.02025757,0.00883476
4254.94906494,0.00885559
4256.87787231,0.00886715
4258.80667969,0.00884391
4260.73548706,0.00882675
4262.66429443,0.00875857
4264.59310181,0.00875578
4266.52190918,0.00874378
4268.45071655,0.00877695
4270.37952393,0.00874807
4272.30833130,0.00874445
4274.23713867,0.00872417
4276.16594604,0.00866531
4278.09475342,0.00866781
4280.02356079,0.00869020
4281.95236816,0.00868319
4283.88117554,0.00854892
4285.80998291,0.00862488
4287.73879028,0.00863031
4289.66759766,0.00853555
4291.59640503,0.00860652
4293.52521240,0.00849713
4295.45401978,0.00843660
4297.38282715,0.00846108
4299.31163452,0.00848223
4301.24044189,0.00847328
4303.16924927,0.00838903
4305.09805664,0.00837827
4307.02686401,0.00833273
4308.95567139,0.00833314
4310.88447876,0.00840809
4312.81328613,0.00832607
4314.74209351,0.00823042
4316.67090088,0.00832056
4318.59970825,0.00830167
4320.52851562,0.00824338
4322.45732300,0.00826528
4324.38613037,0.00819959
4326.31493774,0.00822373
4328.24374512,0.00816745
4330.17255249,0.00808484
4332.10135986,0.00819759
4334.03016724,0.00818242
4335.95897461,0.00809695
4337.88778198,0.00810060
4339.81658936,0.00805535
4341.74539673,0.00798438
4343.67420410,0.00796191
4345.60301147,0.00800608
4347.53181885,0.00801365
4349.46062622,0.00799171
4351.38943359,0.00800120
4353.31824097,0.00789467
4355.24704834,0.00788724
4357.17585571,0.00792086
4359.10466309,0.00786422
4361.03347046,0.00789217
4362.96227783,0.00785163
4364.89108520,0.00789874
4366.81989258,0.00790282
4368.74869995,0.00778555
4370.67750732,0.00777457
4372.60631470,0.00780261
4374.53512207,0.00785326
4376.46392944,0.00773661
4378.39273682,0.00765256
4380.32154419,0.00769912
4382.25035156,0.00771350
4384.17915894,0.00766699
4386.10796631,0.00761836
4388.03677368,0.00767146
4389.96558105,0.00762278
4391.89438843,0.00763158
4393.82319580,0.00763920
4395.75200317,0.00754786
4397.68081055,0.00755762
4399.60961792,0.00758269
4401.53842529,0.00756448
4403.46723267,0.00748402
4405.39604004,0.00745740
4407.32484741,0.00746583
4409.25365478,0.00749742
4411.18246216,0.00747100
4413.11126953,0.00740713
4415.04007690,0.00739539
4416.96888428,0.00738630
4418.89769165,0.00739816
4420.82649902,0.00725768
4422.75530640,0.00732305
4424.68411377,0.00744798
4426.61292114,0.00729587
4428.54172852,0.00728687
4430.47053589,0.00730993
4432.39934326,0.00724489
4434.32815063,0.00719572
4436.25695801,0.00719591
4438.18576538,0.00719818
4440.11457275,0.00729430
4442.04338013,0.00731653
4443.97218750,0.00713263
4445.90099487,0.00708066
4447.82980225,0.00709275
4449.75860962,0.00716756
4451.68741699,0.00713512
4453.61622437,0.00707045
4455.54503174,0.00710251
4457.47383911,0.00698928
4459.40264648,0.00701378
4461.33145386,0.00709336
4463.26026123,0.00700973
4465.18906860,0.00696601
4467.11787598,0.00701291
4469.04668335,0.00691840
4470.97549072,0.00689451
4472.90429810,0.00694234
4474.83310547,0.00684593
4476.76191284,0.00691566
4478.69072021,0.00689345
4480.61952759,0.00686722
4482.54833496,0.00682711
4484.47714233,0.00674390
4486.40594971,0.00686499
4488.33475708,0.00680337
4490.26356445,0.00677832
4492.19237183,0.00673279
4494.12117920,0.00672999
4496.04998657,0.00678899
4497.97879395,0.00664641
4499.90760132,0.00671659
4501.83640869,0.00669009
4503.76521606,0.00662416
4505.69402344,0.00669214
4507.62283081,0.00661953
4509.55163818,0.00658620
4511.48044556,0.00656998
4513.40925293,0.00657199
4515.33806030,0.00654073
4517.26686768,0.00650823
4519.19567505,0.00655884
4521.12448242,0.00653060
4523.05328979,0.00652787
4524.98209717,0.00656715
4526.91090454,0.00646947
4528.83971191,0.00641634
4530.76851929,0.00643842
4532.69732666,0.00636726
4534.62613403,0.00638661
4536.55494141,0.00646559
4538.48374878,0.00640580
4540.41255615,0.00634827
4542.34136353,0.00635957
4544.27017090,0.00632118
4546.19897827,0.00635201
4548.12778564,0.00631244
4550.05659302,0.00621852
4551.98540039,0.00630739
4553.91420776,0.00621364
4555.84301514,0.00619398
4557.77182251,0.00629881
4559.70062988,0.00622776
4561.62943726,0.00623508
4563.55824463,0.00621590
4565.48705200,0.00620455
4567.41585937,0.00615267
4569.34466675,0.00614127
4571.27347412,0.00618601
4573.20228149,0.00610937
4575.13108887,0.00614017
4577.05989624,0.00613197
4578.98870361,0.00608885
4580.91751099,0.00605607
4582.84631836,0.00604276
4584.77512573,0.00608773
4586.70393311,0.00603343
4588.63274048,0.00601598
4590.56154785,0.00600570
4592.49035522,0.00592301
4594.41916260,0.00591615
4596.34796997,0.00600552
4598.27677734,0.00598805
4600.20558472,0.00593060
4602.13439209,0.00586379
4604.06319946,0.00579709
4605.99200684,0.00589475
4607.92081421,0.00591771
4609.84962158,0.00590903
4611.77842895,0.00584493
4613.70723633,0.00579636
4615.63604370,0.00583729
4617.56485107,0.00572912
4619.49365845,0.00577411
4621.42246582,0.00579160
4623.35127319,0.00569378
4625.28008057,0.00573666
4627.20888794,0.00573562
4629.13769531,0.00572979
4631.06650269,0.00574483
4632.99531006,0.00571793
4634.92411743,0.00564325
4636.85292480,0.00559337
4638.78173218,0.00557665
4640.71053955,0.00557925
4642.63934692,0.00562859
4644.56815430,0.00564280
4646.49696167,0.00564636
4648.42576904,0.00561796
4650.35457642,0.00558186
4652.28338379,0.00557000
4654.21219116,0.00554439
4656.14099853,0.00550375
4658.06980591,0.00543846
4659.99861328,0.00547625
4661.92742065,0.00549918
4663.85622803,0.00540844
4665.78503540,0.00542489
4667.71384277,0.00542527
4669.64265015,0.00544898
4671.57145752,0.00546751
4673.50026489,0.00530333
4675.42907227,0.00535289
4677.35787964,0.00539981
4679.28668701,0.00537470
4681.21549438,0.00545508
4683.14430176,0.00536454
4685.07310913,0.00538653
4687.00191650,0.00537434
4688.93072388,0.00531291
4690.85953125,0.00531917
4692.78833862,0.00524355
4694.71714600,0.00530923
4696.64595337,0.00527708
4698.57476074,0.00524253
4700.50356812,0.00526963
4702.43237549,0.00526110
4704.36118286,0.00523013
4706.28999023,0.00510545
4708.21879761,0.00521009
4710.14760498,0.00522706
4712.07641235,0.00513113
4714.00521973,0.00515587
4715.93402710,0.00511397
4717.86283447,0.00514131
4719.79164185,0.00509592
4721.72044922,0.00507987
4723.64925659,0.00516488
4725.57806396,0.00509267
4727.50687134,0.00507789
4729.43567871,0.00510460
4731.36448608,0.00504132
4733.29329346,0.00504108
4735.22210083,0.00503506
4737.15090820,0.00504076
4739.07971558,0.00503671
4741.00852295,0.00498950
4742.93733032,0.00500034
4744.86613770,0.00492764
4746.79494507,0.00495833
4748.72375244,0.00499155
4750.65255981,0.00489067
4752.58136719,0.00489343
4754.51017456,0.00486732
4756.43898193,0.00490728
4758.36778931,0.00488018
4760.29659668,0.00487256
4762.22540405,0.00490657
4764.15421143,0.00475556
4766.08301880,0.00484394
4768.01182617,0.00486439
4769.94063354,0.00476694
4771.86944092,0.00481051
4773.79824829,0.00478108
4775.72705566,0.00479729
4777.65586304,0.00473240
4779.58467041,0.00472707
4781.51347778,0.00480784
4783.44228516,0.00471769
4785.37109253,0.00470906
4787.29989990,0.00476618
4789.22870728,0.00471022
4791.15751465,0.00467480
4793.08632202,0.00468824
4795.01512939,0.00464472
4796.94393677,0.00465009
4798.87274414,0.00464580
4800.80155151,0.00460578
4802.73035889,0.00464899
4804.65916626,0.00456235
4806.58797363,0.00449128
4808.51678101,0.00456900
4810.44558838,0.00457899
4812.37439575,0.00454057
4814.30320312,0.00451257
4816.23201050,0.00455858
4818.16081787,0.00449820
4820.08962524,0.00445108
4822.01843262,0.00455912
4823.94723999,0.00447455
4825.87604736,0.00443884
4827.80485474,0.00445577
4829.73366211,0.00442303
4831.66246948,0.00446581
4833.59127686,0.00442246
4835.52008423,0.00442476
4837.44889160,0.00438170
4839.37769897,0.00439035
4841.30650635,0.00441446
4843.23531372,0.00432618
4845.16412109,0.00433855
4847.09292847,0.00426672
4849.02173584,0.00428403
4850.95054321,0.00430372
4852.87935059,0.00431871
4854.80815796,0.00441295
4856.73696533,0.00430248
4858.66577270,0.00424918
4860.59458008,0.00424345
4862.52338745,0.00432605
4864.45219482,0.00433260
4866.38100220,0.00419925
4868.30980957,0.00428044
4870.23861694,0.00429505
4872.16742432,0.00420066
4874.09623169,0.00417263
4876.02503906,0.00422629
4877.95384644,0.00417605
4879.88265381,0.00413540
4881.81146118,0.00422504
4883.74026855,0.00416305
4885.66907593,0.00415614
4887.59788330,0.00417784
4889.52669067,0.00410923
4891.45549805,0.00413855
4893.38430542,0.00420489
4895.31311279,0.00409476
4897.24192017,0.00397692
4899.17072754,0.00405756
4901.09953491,0.00411658
4903.02834228,0.00406762
4904.95714966,0.00397625
4906.88595703,0.00403104
4908.81476440,0.00404727
4910.74357178,0.00399340
4912.67237915,0.00400745
4914.60118652,0.00400500
4916.52999390,0.00406902
4918.45880127,0.00393161
4920.38760864,0.00391818
4922.31641602,0.00399855
4924.24522339,0.00390871
4926.17403076,0.00397099
4928.10283813,0.00394547
4930.03164551,0.00397289
4931.96045288,0.00395397
4933.88926025,0.00386598
4935.81806763,0.00391653
4937.74687500,0.00389968
4939.67568237,0.00392960
4941.60448975,0.00390391
4943.53329712,0.00383924
4945.46210449,0.00382892
4947.39091187,0.00386931
4949.31971924,0.00384290
4951.24852661,0.00377289
4953.17733398,0.00382086
4955.10614136,0.00383514
4957.03494873,0.00381605
4958.96375610,0.00372351
4960.89256348,0.00377529
4962.82137085,0.00378381
4964.75017822,0.00367814
4966.67898560,0.00378196
4968.60779297,0.00375486
4970.53660034,0.00378308
4972.46540771,0.00382526
4974.39421509,0.00374110
4976.32302246,0.00373093
4978.25182983,0.00364966
4980.18063721,0.00364189
4982.10944458,0.00364817
4984.03825195,0.00363260
4985.96705933,0.00368356
4987.89586670,0.00366980
4989.82467407,0.00360263
4991.75348145,0.00359056
4993.68228882,0.00363126
4995.61109619,0.00361529
4997.53990356,0.00358080
4999.46871094,0.00360138
5001.39751831,0.00364986
5003.32632568,0.00358624
5005.25513306,0.00351508
5007.18394043,0.00355726
5009.11274780,0.00356537
5011.04155518,0.00352232
5012.97036255,0.00349411
5014.89916992,0.00356268
5016.82797729,0.00352850
5018.75678467,0.00343902
5020.68559204,0.00351061
5022.61439941,0.00345184
5024.54320679,0.00341831
5026.47201416,0.00349761
5028.40082153,0.00339053
5030.32962891,0.00342505
5032.25843628,0.00349512
5034.18724365,0.00334451
5036.11605103,0.00339397
5038.04485840,0.00343698
5039.97366577,0.00340200
5041.90247314,0.00346971
5043.83128052,0.00338292
5045.76008789,0.00334342
5047.68889526,0.00336894
5049.61770264,0.00331321
5051.54651001,0.00332042
5053.47531738,0.00337082
5055.40412476,0.00337644
5057.33293213,0.00334016
5059.26173950,0.00327820
5061.19054687,0.00324630
5063.11935425,0.00331089
5065.04816162,0.00327165
5066.97696899,0.00328587
5068.90577637,0.00334994
5070.83458374,0.00326842
5072.76339111,0.00329105
5074.69219849,0.00322505
5076.62100586,0.00317455
5078.54981323,0.00324354
5080.47862061,0.00322627
5082.40742798,0.00322035
5084.33623535,0.00319505
5086.26504272,0.00322536
5088.19385010,0.00319929
5090.12265747,0.00318608
5092.05146484,0.00320866
5093.98027222,0.00312706
5095.90907959,0.00317220
5097.83788696,0.00313101
5099.76669434,0.00306717
5101.69550171,0.00314352
5103.62430908,0.00313154
5105.55311645,0.00317679
5107.48192383,0.00316131
5109.41073120,0.00305268
5111.33953857,0.00312752
5113.26834595,0.00315024
5115.19715332,0.00306896
5117.12596069,0.00309197
5119.05476807,0.00311456
5120.98357544,0.00304688
5122.91238281,0.00299481
5124.84119019,0.00308636
5126.76999756,0.00306156
5128.69880493,0.00296326
5130.62761230,0.00302792
5132.55641968,0.00299244
5134.48522705,0.00299961
5136.41403442,0.00304489
5138.34284180,0.00298185
5140.27164917,0.00299135
5142.20045654,0.00299597
5144.12926392,0.00298663
5146.05807129,0.00300470
5147.98687866,0.00301102
5149.91568603,0.00290714
5151.84449341,0.00289494
5153.77330078,0.00298959
5155.70210815,0.00292498
5157.63091553,0.00290275
5159.55972290,0.00288221
5161.48853027,0.00291329
5163.41733765,0.00296240
5165.34614502,0.00289716
5167.27495239,0.00293014
5169.20375977,0.00287105
5171.13256714,0.00283708
5173.06137451,0.00290463
5174.99018188,0.00288287
5176.91898926,0.00289192
5178.84779663,0.00279440
5180.77660400,0.00272988
5182.70541138,0.00285862
5184.63421875,0.00282297
5186.56302612,0.00274257
5188.49183350,0.00284085
5190.42064087,0.00284200
5192.34944824,0.00281511
5194.27825562,0.00279337
5196.20706299,0.00271577
5198.13587036,0.00278328
5200.06467773,0.00277943
5201.99348511,0.00273529
5203.92229248,0.00273418
5205.85109985,0.00262412
5207.77990723,0.00262357
5209.70871460,0.00270798
5211.63752197,0.00276192
5213.56632935,0.00276977
5215.49513672,0.00271044
5217.42394409,0.00264083
5219.35275146,0.00264664
5221.28155884,0.00272337
5223.21036621,0.00267296
5225.13917358,0.00263988
5227.06798096,0.00269151
5228.99678833,0.00265748
5230.92559570,0.00265024
5232.85440308,0.00264558
5234.78321045,0.00262012
5236.71201782,0.00267551
5238.64082520,0.00265278
5240.56963257,0.00259448
5242.49843994,0.00265802
5244.42724731,0.00263009
5246.35605469,0.00257069
5248.28486206,0.00254482
5250.21366943,0.00258888
5252.14247681,0.00268774
5254.07128418,0.00253437
5256.00009155,0.00256634
5257.92889893,0.00267112
5259.85770630,0.00254734
5261.78651367,0.00260401
5263.71532104,0.00253401
5265.64412842,0.00245245
5267.57293579,0.00251613
5269.50174316,0.00251209
5271.43055054,0.00253178
5273.35935791,0.00249825
5275.28816528,0.00252502
5277.21697266,0.00256016
5279.14578003,0.00250026
5281.07458740,0.00248015
5283.00339478,0.00252774
5284.93220215,0.00241663
5286.86100952,0.00237625
5288.78981689,0.00252744
5290.71862427,0.00235867
5292.64743164,0.00236957
5294.57623901,0.00250953
5296.50504639,0.00241526
5298.43385376,0.00242224
5300.36266113,0.00234611
5302.29146851,0.00239496
5304.22027588,0.00243698
5306.14908325,0.00236898
5308.07789062,0.00237269
5310.00669800,0.00232097
5311.93550537,0.00240168
5313.86431274,0.00242327
5315.79312012,0.00237364
5317.72192749,0.00237031
5319.65073486,0.00239609
5321.57954224,0.00236702
5323.50834961,0.00229445
5325.43715698,0.00240723
5327.36596436,0.00230862
5329.29477173,0.00223572
5331.22357910,0.00240908
5333.15238647,0.00235308
5335.08119385,0.00231299
5337.01000122,0.00230594
5338.93880859,0.00222991
5340.86761597,0.00230612
5342.79642334,0.00227738
5344.72523071,0.00218022
5346.65403809,0.00227317
5348.58284546,0.00226698
5350.51165283,0.00224207
5352.44046020,0.00218959
5354.36926758,0.00208189
5356.29807495,0.00223525
5358.22688232,0.00222255
5360.15568970,0.00218579
5362.08449707,0.00226731
5364.01330444,0.00214211
5365.94211182,0.00215390
5367.87091919,0.00212219
5369.79972656,0.00211854
5371.72853394,0.00222671
5373.65734131,0.00213298
5375.58614868,0.00215419
5377.51495605,0.00215785
5379.44376343,0.00212053
5381.37257080,0.00215714
5383.30137817,0.00212145
5385.23018555,0.00217365
5387.15899292,0.00206138
5389.08780029,0.00202846
5391.01660767,0.00222310
5392.94541504,0.00209124
5394.87422241,0.00201816
5396.80302978,0.00209052
5398.73183716,0.00207737
5400.66064453,0.00217107
5402.58945190,0.00216795
5404.51825928,0.00210664
5406.44706665,0.00214261
5408.37587402,0.00212243
5410.30468140,0.00204542
5412.23348877,0.00202200
5414.16229614,0.00202051
5416.09110352,0.00210796
5418.01991089,0.00213628
5419.94871826,0.00204174
5421.87752563,0.00208967
5423.80633301,0.00202550
5425.73514038,0.00206150
5427.66394775,0.00213563
5429.59275513,0.00197007
5431.52156250,0.00204978
5433.45036987,0.00202401
5435.37917725,0.00194419
5437.30798462,0.00204269
5439.23679199,0.00201759
5441.16559936,0.00201109
5443.09440674,0.00198929
5445.02321411,0.00199298
5446.95202148,0.00197127
5448.88082886,0.00189958
5450.80963623,0.00190748
5452.73844360,0.00197334
5454.66725098,0.00194844
5456.59605835,0.00188979
5458.52486572,0.00198927
5460.45367310,0.00189430
5462.38248047,0.00182292
5464.31128784,0.00193157
5466.24009521,0.00193853
5468.16890259,0.00194018
5470.09770996,0.00189143
5472.02651733,0.00193509
5473.95532471,0.00192499
5475.88413208,0.00181964
5477.81293945,0.00189224
5479.74174683,0.00197059
5481.67055420,0.00195105
5483.59936157,0.00191902
5485.52816895,0.00189621
5487.45697632,0.00184603
5489.38578369,0.00187698
5491.31459106,0.00185044
5493.24339844,0.00178518
5495.17220581,0.00181029
5497.10101318,0.00180264
5499.02982056,0.00192831
5500.95862793,0.00195155
5502.88743530,0.00183850
5504.81624268,0.00188007
5506.74505005,0.00186637
5508.67385742,0.00179373
5510.60266479,0.00179983
5512.53147217,0.00179205
5514.46027954,0.00178874
5516.38908691,0.00184427
5518.31789429,0.00179194
5520.24670166,0.00180937
5522.17550903,0.00188498
5524.10431641,0.00180919
5526.03312378,0.00178777
5527.96193115,0.00172892
5529.89073853,0.00174704
5531.81954590,0.00183727
5533.74835327,0.00177872
5535.67716064,0.00174557
5537.60596802,0.00170125
5539.53477539,0.00169090
5541.46358276,0.00172949
5543.39239014,0.00173878
5545.32119751,0.00175357
5547.25000488,0.00173206
5549.17881226,0.00168789
5551.10761963,0.00168857
5553.03642700,0.00176295
5554.96523437,0.00175572
5556.89404175,0.00168774
5558.82284912,0.00169481
5560.75165649,0.00171847
5562.68046387,0.00167267
5564.60927124,0.00163489
5566.53807861,0.00172068
5568.46688599,0.00174395
5570.39569336,0.00171681
5572.32450073,0.00171275
5574.25330811,0.00169773
5576.18211548,0.00168569
5578.11092285,0.00160741
5580.03973022,0.00164381
5581.96853760,0.00163671
5583.89734497,0.00154862
5585.82615234,0.00164424
5587.75495972,0.00167362
5589.68376709,0.00165792
5591.61257446,0.00165083
5593.54138184,0.00165224
5595.47018921,0.00169215
5597.39899658,0.00165236
5599.32780395,0.00168352
5601.25661133,0.00164985
5603.18541870,0.00155508
5605.11422607,0.00161231
5607.04303345,0.00166657
5608.97184082,0.00161823
5610.90064819,0.00158585
5612.82945557,0.00162722
5614.75826294,0.00162459
5616.68707031,0.00166062
5618.61587769,0.00159747
5620.54468506,0.00149841
5622.47349243,0.00158619
5624.40229980,0.00155604
5626.33110718,0.00155825
5628.25991455,0.00158402
5630.18872192,0.00150914
5632.11752930,0.00153662
5634.04633667,0.00154594
5635.97514404,0.00160306
5637.90395142,0.00165782
5639.83275879,0.00155420
5641.76156616,0.00149187
5643.69037353,0.00152187
5645.61918091,0.00150806
5647.54798828,0.00151516
5649.47679565,0.00155352
5651.40560303,0.00152002
5653.33441040,0.00149214
5655.26321777,0.00149990
5657.19202515,0.00151463
5659.12083252,0.00148724
5661.04963989,0.00148604
5662.97844727,0.00149223
5664.90725464,0.00144342
5666.83606201,0.00149091
5668.76486938,0.00155736
5670.69367676,0.00151726
5672.62248413,0.00142713
5674.55129150,0.00143820
5676.48009888,0.00146435
5678.40890625,0.00144868
5680.33771362,0.00143051
5682.26652100,0.00140749
5684.19532837,0.00148927
5686.12413574,0.00142231
5688.05294311,0.00137782
5689.98175049,0.00145276
5691.91055786,0.00143615
5693.83936523,0.00147913
5695.76817261,0.00143968
5697.69697998,0.00143213
5699.62578735,0.00146130
5701.55459473,0.00143544
5703.48340210,0.00140283
5705.41220947,0.00137838
5707.34101685,0.00142918
5709.26982422,0.00138090
5711.19863159,0.00139616
5713.12743896,0.00137578
5715.05624634,0.00132771
5716.98505371,0.00137774
5718.91386108,0.00132363
5720.84266846,0.00135530
5722.77147583,0.00136431
5724.70028320,0.00134991
5726.62909058,0.00137654
5728.55789795,0.00131613
5730.48670532,0.00128656
5732.41551270,0.00135201
5734.34432007,0.00141646
5736.27312744,0.00136314
5738.20193481,0.00134355
5740.13074219,0.00135306
5742.05954956,0.00134812
5743.98835693,0.00132207
5745.91716431,0.00129627
5747.84597168,0.00131273
5749.77477905,0.00130892
5751.70358643,0.00135857
5753.63239380,0.00131506
5755.56120117,0.00128947
5757.49000854,0.00130576
5759.41881592,0.00125694
5761.34762329,0.00129586
5763.27643066,0.00126043
5765.20523804,0.00123054
5767.13404541,0.00128685
5769.06285278,0.00130085
5770.99166016,0.00127419
5772.92046753,0.00125752
5774.84927490,0.00127868
5776.77808228,0.00131202
5778.70688965,0.00130569
5780.63569702,0.00122659
5782.56450439,0.00124757
5784.49331177,0.00128840
5786.42211914,0.00124505
5788.35092651,0.00123300
5790.27973389,0.00125539
5792.20854126,0.00126246
5794.13734863,0.00127718
5796.06615601,0.00128546
5797.99496338,0.00124509
5799.92377075,0.00127568
5801.85257812,0.00120423
5803.78138550,0.00116296
5805.71019287,0.00123550
5807.63900024,0.00121216
5809.56780762,0.00123683
5811.49661499,0.00122491
5813.42542236,0.00126575
5815.35422974,0.00120871
5817.28303711,0.00113748
5819.21184448,0.00120840
5821.14065186,0.00111451
5823.06945923,0.00118679
5824.99826660,0.00126294
5826.92707397,0.00115075
5828.85588135,0.00113812
5830.78468872,0.00118975
5832.71349609,0.00117356
5834.64230347,0.00112849
5836.57111084,0.00115115
5838.49991821,0.00117411
5840.42872559,0.00122546
5842.35753296,0.00112082
5844.28634033,0.00107303
5846.21514770,0.00112128
5848.14395508,0.00109747
5850.07276245,0.00118416
5852.00156982,0.00113135
5853.93037720,0.00110300
5855.85918457,0.00109613
5857.78799194,0.00108045
5859.71679932,0.00109121
5861.64560669,0.00107899
5863.57441406,0.00115892
5865.50322144,0.00106920
5867.43202881,0.00113765
5869.36083618,0.00116000
5871.28964355,0.00105486
5873.21845093,0.00113705
5875.14725830,0.00108471
5877.07606567,0.00110064
5879.00487305,0.00109700
5880.93368042,0.00111901
5882.86248779,0.00115526
5884.79129517,0.00107899
5886.72010254,0.00110125
5888.64890991,0.00100731
5890.57771728,0.00100521
5892.50652466,0.00110040
5894.43533203,0.00105853
5896.36413940,0.00105895
5898.29294678,0.00106517
5900.22175415,0.00103958
5902.15056152,0.00108366
5904.07936890,0.00104378
5906.00817627,0.00100004
5907.93698364,0.00106703
5909.86579102,0.00099879
5911.79459839,0.00099647
5913.72340576,0.00100823
5915.65221313,0.00104080
5917.58102051,0.00106469
5919.50982788,0.00093886
5921.43863525,0.00104345
5923.36744263,0.00100339
5925.29625000,0.00093970
5927.22505737,0.00102882
5929.15386475,0.00100826
5931.08267212,0.00105811
5933.01147949,0.00097792
5934.94028686,0.00098791
5936.86909424,0.00102276
5938.79790161,0.00101833
5940.72670898,0.00110833
5942.65551636,0.00102530
5944.58432373,0.00101973
5946.51313110,0.00100414
5948.44193848,0.00094506
5950.37074585,0.00098495
5952.29955322,0.00101037
5954.22836060,0.00103199
5956.15716797,0.00102058
5958.08597534,0.00100278
5960.01478271,0.00093906
5961.94359009,0.00097199
5963.87239746,0.00097689
5965.80120483,0.00090598
5967.73001221,0.00098100
5969.65881958,0.00091956
5971.58762695,0.00087789
5973.51643433,0.00093643
5975.44524170,0.00091132
5977.37404907,0.00096348
5979.30285645,0.00094065
5981.23166382,0.00091825
5983.16047119,0.00096187
5985.08927856,0.00092325
5987.01808594,0.00093038
5988.94689331,0.00093272
5990.87570068,0.00086355
5992.80450806,0.00081350
5994.73331543,0.00087964
5996.66212280,0.00090342
5998.59093018,0.00089015
6000.51973755,0.00095138
