399.26312622,0.00076789
401.19193359,0.00107533
403.12074097,0.00092659
405.04954834,0.00067569
406.97835571,0.00085351
408.90716309,0.00069910
410.83597046,0.00081550
412.76477783,0.00091711
414.69358521,0.00075018
416.62239258,0.00098040
418.55119995,0.00079701
420.48000732,0.00054906
422.40881470,0.00062525
424.33762207,0.00088860
426.26642944,0.00116936
428.19523682,0.00082042
430.12404419,0.00083194
432.05285156,0.00067976
433.98165894,0.00057009
435.91046631,0.00097520
437.83927368,0.00076606
439.76808105,0.00081708
441.69688843,0.00060933
443.62569580,0.00058009
445.55450317,0.00110043
447.48331055,0.00093151
449.41211792,0.00087369
451.34092529,0.00062078
453.26973267,0.00037936
455.19854004,0.00068123
457.12734741,0.00058344
459.05615479,0.00069782
460.98496216,0.00076893
462.91376953,0.00017487
464.84257690,0.00034028
466.77138428,0.00039541
468.70019165,0.00025709
470.62899902,0.00060974
472.55780640,0.00028189
474.48661377,0.00049692
476.41542114,0.00059779
478.34422852,0.00021055
480.27303589,0.00063800
482.20184326,0.00034914
484.13065063,-0.00014900
486.05945801,0.00039042
487.98826538,0.00055916
489.91707275,0.00023405
491.84588013,0.00030351
493.77468750,0.00020896
495.70349487,0.00000673
497.63230225,-0.00003927
499.56110962,0.00025833
501.48991699,0.00029268
503.41872437,0.00041080
505.34753174,0.00059067
507.27633911,-0.00017993
509.20514648,-0.00014597
511.13395386,0.00009884
513.06276123,0.00021330
514.99156860,0.00047319
516.92037598,0.00004704
518.84918335,-0.00001162
520.77799072,0.00017997
522.70679810,0.00008378
524.63560547,0.00007687
526.56441284,0.00027846
528.49322021,0.00038639
530.42202759,0.00009065
532.35083496,0.00006936
534.27964233,0.00040533
536.20844971,0.00052704
538.13725708,0.00039219
540.06606445,0.00003742
541.99487183,0.00011010
543.92367920,0.00006282
545.85248657,0.00005082
547.78129395,0.00025749
549.71010132,-0.00011854
551.63890869,0.00012377
553.56771606,-0.00004553
555.49652344,-0.00029614
557.42533081,0.00010268
559.35413818,0.00004144
561.28294556,0.00022307
563.21175293,-0.00007382
565.14056030,-0.00022608
567.06936768,0.00019908
568.99817505,-0.00002015
570.92698242,-0.00000188
572.85578979,0.00018282
574.78459717,-0.00019584
576.71340454,0.00007812
578.64221191,0.00039304
580.57101929,0.00000208
582.49982666,-0.00003404
584.42863403,0.00027536
586.35744141,-0.00020510
588.28624878,0.00023029
590.21505615,0.00018738
592.14386353,-0.00011213
594.07267090,0.00049080
596.00147827,0.00030062
597.93028564,0.00007499
599.85909302,-0.00009953
601.78790039,0.00000900
603.71670776,0.00012224
605.64551514,-0.00001031
607.57432251,0.00009890
609.50312988,0.00000374
611.43193726,-0.00003910
613.36074463,0.00003939
615.28955200,0.00012735
617.21835938,0.00027387
619.14716675,0.00033853
621.07597412,0.00045458
623.00478149,0.00028476
624.93358887,0.00009486
626.86239624,-0.00012172
628.79120361,-0.00020510
630.72001099,0.00013119
632.64881836,0.00038508
634.57762573,0.00073357
636.50643311,0.00075920
638.43524048,0.00078421
640.36404785,0.00075204
642.29285522,0.00074911
644.22166260,0.00120190
646.15046997,0.00098305
648.07927734,0.00110870
650.00808472,0.00141760
651.93689209,0.00118230
653.86569946,0.00153145
655.79450684,0.00129065
657.72331421,0.00101320
659.65212158,0.00140554
661.58092896,0.00143837
663.50973633,0.00153323
665.43854370,0.00140207
667.36735107,0.00124682
669.29615845,0.00154958
671.22496582,0.00182810
673.15377319,0.00185588
675.08258057,0.00182264
677.01138794,0.00203249
678.94019531,0.00203785
680.86900269,0.00188683
682.79781006,0.00205118
684.72661743,0.00202234
686.65542480,0.00180013
688.58423218,0.00199990
690.51303955,0.00223723
692.44184692,0.00226495
694.37065430,0.00244649
696.29946167,0.00269758
698.22826904,0.00300947
700.15707642,0.00323297
702.08588379,0.00320643
704.01469116,0.00319833
705.94349854,0.00313097
707.87230591,0.00257718
709.80111328,0.00182475
711.72992065,0.00137020
713.65872803,0.00074664
715.58753540,0.00029797
717.51634277,0.00050360
719.44515015,0.00036164
721.37395752,-0.00007084
723.30276489,-0.00005132
725.23157227,0.00008540
727.16037964,0.00004134
729.08918701,0.00015938
731.01799438,0.00030550
732.94680176,0.00018169
734.87560913,0.00042662
736.80441650,0.00032304
738.73322388,-0.00019838
740.66203125,0.00011085
742.59083862,0.00021447
744.51964600,0.00000787
746.44845337,0.00040853
748.37726074,0.00039208
750.30606812,0.00003728
752.23487549,0.00020242
754.16368286,0.00008145
756.09249023,-0.00012635
758.02129761,0.00041617
759.95010498,0.00032127
761.87891235,0.00005491
763.80771973,0.00064425
765.73652710,0.00054526
767.66533447,0.00031192
769.59414185,0.00035836
771.52294922,0.00004175
773.45175659,0.00004661
775.38056396,0.00038385
777.30937134,0.00047577
779.23817871,0.00027062
781.16698608,0.00038607
783.09579346,0.00035565
785.02460083,0.00017448
786.95340820,0.00052262
788.88221558,0.00044139
790.81102295,0.00005067
792.73983032,0.00010142
794.66863770,0.00030019
796.59744507,0.00038243
798.52625244,0.00058101
800.45505981,0.00042711
802.38386719,0.00004653
804.31267456,0.00030315
806.24148193,0.00017660
808.17028931,0.00019227
810.09909668,0.00056064
812.02790405,0.00026339
813.95671143,0.00011610
815.88551880,0.00021251
817.81432617,0.00037354
819.74313354,0.00010948
821.67194092,-0.00003689
823.60074829,0.00035926
825.52955566,0.00025616
827.45836304,0.00017676
829.38717041,0.00028334
831.31597778,0.00050187
833.24478516,0.00051260
835.17359253,0.00030282
837.10239990,0.00079240
839.03120728,0.00118971
840.96001465,0.00090699
842.88882202,0.00073090
844.81762939,0.00082511
846.74643677,0.00070177
848.67524414,0.00063722
850.60405151,0.00049562
852.53285889,0.00036060
854.46166626,0.00060600
856.39047363,0.00052666
858.31928101,0.00040936
860.24808838,0.00022207
862.17689575,0.00005050
864.10570313,0.00024137
866.03451050,0.00032721
867.96331787,0.00033540
869.89212524,0.00018827
871.82093262,0.00018087
873.74973999,0.00025843
875.67854736,0.00024935
877.60735474,0.00014416
879.53616211,0.00021999
881.46496948,0.00053961
883.39377686,0.00029881
885.32258423,0.00016713
887.25139160,0.00040574
889.18019897,0.00049535
891.10900635,0.00037976
893.03781372,0.00018449
894.96662109,0.00019816
896.89542847,0.00014581
898.82423584,0.00038021
900.75304321,0.00049227
902.68185059,0.00030603
904.61065796,0.00041321
906.53946533,0.00042338
908.46827271,0.00044489
910.39708008,0.00041003
912.32588745,0.00044682
914.25469482,0.00056853
916.18350220,0.00058521
918.11230957,0.00069679
920.04111694,0.00071666
921.96992432,0.00072835
923.89873169,0.00051938
925.82753906,0.00072759
927.75634644,0.00104750
929.68515381,0.00070820
931.61396118,0.00098718
933.54276855,0.00115560
935.47157593,0.00106097
937.40038330,0.00137277
939.32919067,0.00130255
941.25799805,0.00121296
943.18680542,0.00105704
945.11561279,0.00110533
947.04442017,0.00129119
948.97322754,0.00121023
950.90203491,0.00137462
952.83084229,0.00127087
954.75964966,0.00127529
956.68845703,0.00130015
958.61726440,0.00115182
960.54607178,0.00141571
962.47487915,0.00126382
964.40368652,0.00121890
966.33249390,0.00129432
968.26130127,0.00108770
970.19010864,0.00132842
972.11891602,0.00138654
974.04772339,0.00133049
975.97653076,0.00148210
977.90533813,0.00180374
979.83414551,0.00215340
981.76295288,0.00204023
983.69176025,0.00197532
985.62056763,0.00214477
987.54937500,0.00264185
989.47818237,0.00317158
991.40698975,0.00329469
993.33579712,0.00363360
995.26460449,0.00399234
997.19341187,0.00422600
999.12221924,0.00458005
1001.05102661,0.00487772
1002.97983398,0.00524675
1004.90864136,0.00561280
1006.83744873,0.00583052
1008.76625610,0.00622616
1010.69506348,0.00683264
1012.62387085,0.00705859
1014.55267822,0.00733068
1016.48148560,0.00781217
1018.41029297,0.00794468
1020.33910034,0.00848079
1022.26790771,0.00901962
1024.19671509,0.00916321
1026.12552246,0.00968556
1028.05432983,0.01025070
1029.98313721,0.01048789
1031.91194458,0.01042091
1033.84075195,0.01063097
1035.76955933,0.01098662
1037.69836670,0.01113288
1039.62717407,0.01132591
1041.55598145,0.01118999
1043.48478882,0.01097901
1045.41359619,0.01070851
1047.34240356,0.01062595
1049.27121094,0.01078018
1051.20001831,0.01046069
1053.12882568,0.01015907
1055.05763306,0.00994730
1056.98644043,0.00979768
1058.91524780,0.00962722
1060.84405518,0.00927175
1062.77286255,0.00907276
1064.70166992,0.00889232
1066.63047729,0.00854077
1068.55928467,0.00792616
1070.48809204,0.00770071
1072.41689941,0.00754525
1074.34570679,0.00691520
1076.27451416,0.00675327
1078.20332153,0.00660097
1080.13212891,0.00608865
1082.06093628,0.00579990
1083.98974365,0.00557366
1085.91855103,0.00535092
1087.84735840,0.00517455
1089.77616577,0.00504729
1091.70497314,0.00485358
1093.63378052,0.00455096
1095.56258789,0.00439769
1097.49139526,0.00431532
1099.42020264,0.00431903
1101.34901001,0.00413996
1103.27781738,0.00381810
1105.20662476,0.00395479
1107.13543213,0.00386968
1109.06423950,0.00370101
1110.99304687,0.00388769
1112.92185425,0.00386051
1114.85066162,0.00377212
1116.77946899,0.00369075
1118.70827637,0.00383670
1120.63708374,0.00384317
1122.56589111,0.00365758
1124.49469849,0.00378382
1126.42350586,0.00377555
1128.35231323,0.00395918
1130.28112061,0.00412724
1132.20992798,0.00416405
1134.13873535,0.00449555
1136.06754272,0.00455817
1137.99635010,0.00465770
1139.92515747,0.00506738
1141.85396484,0.00525452
1143.78277222,0.00554479
1145.71157959,0.00608761
1147.64038696,0.00633523
1149.56919434,0.00649916
1151.49800171,0.00678597
1153.42680908,0.00726258
1155.35561646,0.00771664
1157.28442383,0.00793659
1159.21323120,0.00825228
1161.14203857,0.00845093
1163.07084595,0.00876115
1164.99965332,0.00898695
1166.92846069,0.00943151
1168.85726807,0.01015588
1170.78607544,0.01024192
1172.71488281,0.01052158
1174.64369019,0.01090297
1176.57249756,0.01131067
1178.50130493,0.01172850
1180.43011230,0.01218496
1182.35891968,0.01294241
1184.28772705,0.01321193
1186.21653442,0.01390170
1188.14534180,0.01456800
1190.07414917,0.01514810
1192.00295654,0.01600026
1193.93176392,0.01633992
1195.86057129,0.01723312
1197.78937866,0.01818914
1199.71818604,0.01894505
1201.64699341,0.01971002
1203.57580078,0.02044450
1205.50460815,0.02148652
1207.43341553,0.02222578
1209.36222290,0.02284143
1211.29103027,0.02338115
1213.21983765,0.02414080
1215.14864502,0.02481449
1217.07745239,0.02522586
1219.00625977,0.02585190
1220.93506714,0.02608074
1222.86387451,0.02632543
1224.79268188,0.02667208
1226.72148926,0.02675705
1228.65029663,0.02694656
1230.57910400,0.02717396
1232.50791138,0.02723723
1234.43671875,0.02745976
1236.36552612,0.02744944
1238.29433350,0.02717148
1240.22314087,0.02740599
1242.15194824,0.02723050
1244.08075562,0.02709689
1246.00956299,0.02715436
1247.93837036,0.02670894
1249.86717773,0.02678209
1251.79598511,0.02666234
1253.72479248,0.02618740
1255.65359985,0.02593037
1257.58240723,0.02571314
1259.51121460,0.02536028
1261.44002197,0.02487383
1263.36882935,0.02484169
1265.29763672,0.02454861
1267.22644409,0.02403421
1269.15525146,0.02371485
1271.08405884,0.02339656
1273.01286621,0.02322031
1274.94167358,0.02254798
1276.87048096,0.02200666
1278.79928833,0.02184995
1280.72809570,0.02132992
1282.65690308,0.02094682
1284.58571045,0.02055305
1286.51451782,0.02007516
1288.44332520,0.01988835
1290.37213257,0.01970517
1292.30093994,0.01945819
1294.22974731,0.01929535
1296.15855469,0.01934965
1298.08736206,0.01925367
1300.01616943,0.01912614
1301.94497681,0.01927100
1303.87378418,0.01928304
1305.80259155,0.01960493
1307.73139893,0.01997161
1309.66020630,0.02021070
1311.58901367,0.02068293
1313.51782104,0.02096971
1315.44662842,0.02144928
1317.37543579,0.02192817
1319.30424316,0.02245774
1321.23305054,0.02323503
1323.16185791,0.02390534
1325.09066528,0.02472150
1327.01947266,0.02537109
1328.94828003,0.02606241
1330.87708740,0.02675876
1332.80589478,0.02730442
1334.73470215,0.02795409
1336.66350952,0.02803045
1338.59231689,0.02755519
1340.52112427,0.02796603
1342.44993164,0.02929814
1344.37873901,0.02965352
1346.30754639,0.02949737
1348.23635376,0.02940887
1350.16516113,0.02937440
1352.09396851,0.02944125
1354.02277588,0.02875255
1355.95158325,0.02858919
1357.88039062,0.02853332
1359.80919800,0.02801454
1361.73800537,0.02672762
1363.66681274,0.02605238
1365.59562012,0.02761011
1367.52442749,0.02702552
1369.45323486,0.02673691
1371.38204224,0.02735822
1373.31084961,0.02577675
1375.23965698,0.02605625
1377.16846436,0.02672486
1379.09727173,0.02668491
1381.02607910,0.02659959
1382.95488647,0.02663354
1384.88369385,0.02681349
1386.81250122,0.02508575
1388.74130859,0.02548469
1390.67011597,0.02806204
1392.59892334,0.02713295
1394.52773071,0.02495332
1396.45653809,0.02639617
1398.38534546,0.02635198
1400.31415283,0.02622289
1402.24296021,0.02884001
1404.17176758,0.02689207
1406.10057495,0.02712520
1408.02938232,0.02854767
1409.95818970,0.02740454
1411.88699707,0.02795685
1413.81580444,0.02677061
1415.74461182,0.02757723
1417.67341919,0.02432398
1419.60222656,0.02133242
1421.53103394,0.02561543
1423.45984131,0.02465544
1425.38864868,0.02396543
1427.31745605,0.02459094
1429.24626343,0.02243015
1431.17507080,0.02175704
1433.10387817,0.02241764
1435.03268555,0.02045179
1436.96149292,0.01663492
1438.89030029,0.01938856
1440.81910767,0.02022420
1442.74791504,0.01842119
1444.67672241,0.01972794
1446.60552979,0.01787388
1448.53433716,0.01817477
1450.46314453,0.01908734
1452.39195190,0.01921374
1454.32075928,0.02000270
1456.24956665,0.01594839
1458.17837402,0.01630897
1460.10718140,0.02257257
1462.03598877,0.02444287
1463.96479614,0.02421604
1465.89360352,0.02486415
1467.82241089,0.02874966
1469.75121826,0.03096167
1471.68002563,0.02662118
1473.60883301,0.02827056
1475.53764038,0.03253999
1477.46644775,0.03505937
1479.39525513,0.03917217
1481.32406250,0.03931412
1483.25286987,0.04196721
1485.18167725,0.04351433
1487.11048462,0.04201228
1489.03929199,0.04133325
1490.96809937,0.04142271
1492.89690674,0.04951347
1494.82571411,0.04818185
1496.75452148,0.04218497
1498.68332886,0.04862584
1500.61213623,0.05018337
1502.54094360,0.05447947
1504.46975098,0.05101755
1506.39855835,0.03443650
1508.32736572,0.04367016
1510.25617310,0.05280593
1512.18498047,0.05111736
1514.11378784,0.05613326
1516.04259521,0.04926845
1517.97140259,0.05172106
1519.90020996,0.05006278
1521.82901733,0.04190132
1523.75782471,0.05318353
1525.68663208,0.05226953
1527.61543945,0.05157764
1529.54424683,0.05832521
1531.47305420,0.05593599
1533.40186157,0.04994773
1535.33066895,0.05357955
1537.25947632,0.05854360
1539.18828369,0.03941058
1541.11709106,0.04120128
1543.04589844,0.05115837
1544.97470581,0.04873944
1546.90351318,0.05989754
1548.83232056,0.05530832
1550.76112793,0.05712788
1552.68993530,0.05705801
1554.61874268,0.05059252
1556.54755005,0.05506351
1558.47635742,0.03619291
1560.40516479,0.03945234
1562.33397217,0.06061267
1564.26277954,0.05661826
1566.19158691,0.05872445
1568.12039429,0.05797881
1570.04920166,0.04987329
1571.97800903,0.05952016
1573.90681641,0.06044137
1575.83562378,0.04586171
1577.76443115,0.05309749
1579.69323853,0.06154602
1581.62204590,0.05855589
1583.55085327,0.06024392
1585.47966064,0.05944162
1587.40846802,0.05981156
1589.33727539,0.05941757
1591.26608276,0.05944438
1593.19489014,0.05938061
1595.12369751,0.05882882
1597.05250488,0.05971357
1598.98131226,0.05901314
1600.91011963,0.05963684
1602.83892700,0.05844349
1604.76773437,0.05947107
1606.69654175,0.05868968
1608.62534912,0.05838463
1610.55415649,0.05834658
1612.48296387,0.05886724
1614.41177124,0.05985324
1616.34057861,0.04743567
1618.26938599,0.05192867
1620.19819336,0.06218041
1622.12700073,0.05393597
1624.05580811,0.05395748
1625.98461548,0.05735431
1627.91342285,0.05690396
1629.84223022,0.05667751
1631.77103760,0.06129421
1633.69984497,0.05592091
1635.62865234,0.04418845
1637.55745972,0.05268457
1639.48626709,0.05952140
1641.41507446,0.05792625
1643.34388184,0.05982298
1645.27268921,0.05283568
1647.20149658,0.04476318
1649.13030396,0.05828112
1651.05911133,0.05537556
1652.98791870,0.03230216
1654.91672607,0.04642854
1656.84553345,0.06118388
1658.77434082,0.05840813
1660.70314819,0.05999612
1662.63195557,0.05367528
1664.56076294,0.05730898
1666.48957031,0.06264307
1668.41837769,0.05315985
1670.34718506,0.05113455
1672.27599243,0.05968395
1674.20479980,0.05417473
1676.13360718,0.05145622
1678.06241455,0.06108809
1679.99122192,0.05842952
1681.92002930,0.05749203
1683.84883667,0.04513980
1685.77764404,0.04443290
1687.70645142,0.06442728
1689.63525879,0.05492368
1691.56406616,0.06148741
1693.49287354,0.06296046
1695.42168091,0.04324187
1697.35048828,0.05547726
1699.27929565,0.04767221
1701.20810303,0.04190040
1703.13691040,0.06086268
1705.06571777,0.05492731
1706.99452515,0.05544078
1708.92333252,0.06143358
1710.85213989,0.05858898
1712.78094727,0.05970591
1714.70975464,0.05459100
1716.63856201,0.04809098
1718.56736938,0.04722967
1720.49617676,0.05787422
1722.42498413,0.06075276
1724.35379150,0.05559396
1726.28259888,0.06157162
1728.21140625,0.05618916
1730.14021362,0.05649325
1732.06902100,0.05517146
1733.99782837,0.03967420
1735.92663574,0.05178325
1737.85544312,0.05845710
1739.78425049,0.05064178
1741.71305786,0.05607507
1743.64186523,0.05679748
1745.57067261,0.05671415
1747.49947998,0.05732278
1749.42828735,0.05424122
1751.35709473,0.05142470
1753.28590210,0.05823998
1755.21470947,0.06144101
1757.14351685,0.05496886
1759.07232422,0.06152114
1761.00113159,0.05722623
1762.92993896,0.05490597
1764.85874634,0.06442477
1766.78755371,0.05680070
1768.71636108,0.05742972
1770.64516846,0.05697812
1772.57397583,0.04999206
1774.50278320,0.05711744
1776.43159058,0.06109459
1778.36039795,0.06006087
1780.28920532,0.05905087
1782.21801270,0.05972312
1784.14682007,0.05965627
1786.07562744,0.05823009
1788.00443481,0.06211172
1789.93324219,0.06012444
1791.86204956,0.05303379
1793.79085693,0.05592837
1795.71966431,0.06078544
1797.64847168,0.05994023
1799.57727905,0.05893882
1801.50608643,0.05759064
1803.43489380,0.05999571
1805.36370117,0.06154083
1807.29250854,0.06057290
1809.22131592,0.06090135
1811.15012329,0.05889076
1813.07893066,0.06113142
1815.00773804,0.06147226
1816.93654541,0.06049332
1818.86535278,0.06093956
1820.79416016,0.06102129
1822.72296753,0.06220911
1824.65177490,0.05704388
1826.58058228,0.05967129
1828.50938965,0.05961179
1830.43819702,0.05514885
1832.36700439,0.06146353
1834.29581177,0.06095469
1836.22461914,0.06093090
1838.15342651,0.06063782
1840.08223389,0.06101380
1842.01104126,0.06123114
1843.93984863,0.05292514
1845.86865601,0.05705362
1847.79746338,0.06094567
1849.72627075,0.05958487
1851.65507812,0.06166545
1853.58388550,0.06020461
1855.51269287,0.06099856
1857.44150024,0.06050854
1859.37030762,0.06018700
1861.29911499,0.06065943
1863.22792236,0.05986210
1865.15672974,0.06071624
1867.08553711,0.05813467
1869.01434448,0.05517036
1870.94315186,0.05783889
1872.87195923,0.06065578
1874.80076660,0.05958682
1876.72957397,0.05998942
1878.65838135,0.05979290
1880.58718872,0.05934010
1882.51599609,0.06005257
1884.44480347,0.05897345
1886.37361084,0.06009732
1888.30241821,0.05839770
1890.23122559,0.05700268
1892.16003296,0.05974182
1894.08884033,0.05860701
1896.01764771,0.05832586
1897.94645508,0.05914427
1899.87526245,0.05884832
1901.80406982,0.05907507
1903.73287720,0.05846601
1905.66168457,0.05885705
1907.59049194,0.05817843
1909.51929932,0.05777987
1911.44810669,0.05834486
1913.37691406,0.05829282
1915.30572144,0.05891887
1917.23452881,0.05590510
1919.16333618,0.05596524
1921.09214355,0.05860237
1923.02095093,0.05632539
1924.94975830,0.05787311
1926.87856567,0.05878557
1928.80737305,0.05771644
1930.73618042,0.05850143
1932.66498779,0.05758453
1934.59379517,0.05833779
1936.52260254,0.05784239
1938.45140991,0.05799014
1940.38021729,0.05809779
1942.30902466,0.05568642
1944.23783203,0.05683258
1946.16663940,0.05769842
1948.09544678,0.05756268
1950.02425415,0.05784178
1951.95306152,0.05774937
1953.88186890,0.05785657
1955.81067627,0.05749859
1957.73948364,0.05774863
1959.66829102,0.05760112
1961.59709839,0.05745251
1963.52590576,0.05774726
1965.45471313,0.05731882
1967.38352051,0.05648156
1969.31232788,0.05708614
1971.24113525,0.05771670
1973.16994263,0.05722929
1975.09875000,0.05753113
1977.02755737,0.05706319
1978.95636475,0.05712081
1980.88517212,0.05729927
1982.81397949,0.05694087
1984.74278687,0.05715060
1986.67159424,0.05647247
1988.60040161,0.05667609
1990.52920898,0.05619761
1992.45801636,0.05547416
1994.38682373,0.05649298
1996.31563110,0.05657628
1998.24443848,0.05634830
2000.17324585,0.05639112
2002.10205322,0.05613133
2004.03086060,0.05609370
2005.95966797,0.05608590
2007.88847534,0.05586037
2009.81728271,0.05579925
2011.74609009,0.05571111
2013.67489746,0.05575761
2015.60370483,0.05537217
2017.53251221,0.05475573
2019.46131958,0.05532328
2021.39012695,0.05526258
2023.31893433,0.05498277
2025.24774170,0.05508315
2027.17654907,0.05480936
2029.10535645,0.05485393
2031.03416382,0.05461663
2032.96297119,0.05453695
2034.89177856,0.05446148
2036.82058594,0.05435064
2038.74939331,0.05437455
2040.67820068,0.05402007
2042.60700806,0.05398011
2044.53581543,0.05404590
2046.46462280,0.05387292
2048.39343018,0.05371455
2050.32223755,0.05369967
2052.25104492,0.05360322
2054.17985229,0.05342976
2056.10865967,0.05334828
2058.03746704,0.05331375
2059.96627441,0.05306509
2061.89508179,0.05289065
2063.82388916,0.05284651
2065.75269653,0.05254925
2067.68150391,0.05283318
2069.61031128,0.05278365
2071.53911865,0.05249333
2073.46792603,0.05262802
2075.39673340,0.05241351
2077.32554077,0.05239988
2079.25434814,0.05225185
2081.18315552,0.05225560
2083.11196289,0.05216672
2085.04077026,0.05192112
2086.96957764,0.05204096
2088.89838501,0.05176399
2090.82719238,0.05167033
2092.75599976,0.05171024
2094.68480713,0.05162948
2096.61361450,0.05148839
2098.54242187,0.05140898
2100.47122925,0.05144184
2102.40003662,0.05132591
2104.32884399,0.05123995
2106.25765137,0.05108227
2108.18645874,0.05102836
2110.11526611,0.05091518
2112.04407349,0.05092306
2113.97288086,0.05082148
2115.90168823,0.05070789
2117.83049561,0.05080540
2119.75930298,0.05056090
2121.68811035,0.05052623
2123.61691772,0.05042461
2125.54572510,0.05047035
2127.47453247,0.05054121
2129.40333984,0.05024646
2131.33214722,0.05016258
2133.26095459,0.05008132
2135.18976196,0.05005078
2137.11856934,0.04999227
2139.04737671,0.05008081
2140.97618408,0.05000181
2142.90499146,0.04990087
2144.83379883,0.04986939
2146.76260620,0.04962485
2148.69141357,0.04975156
2150.62022095,0.04968475
2152.54902832,0.04959317
2154.47783569,0.04951946
2156.40664307,0.04948070
2158.33545044,0.04950051
2160.26425781,0.04930415
2162.19306519,0.04945997
2164.12187256,0.04937392
2166.05067993,0.04923411
2167.97948730,0.04910321
2169.90829468,0.04896764
2171.83710205,0.04905903
2173.76590942,0.04889566
2175.69471680,0.04899133
2177.62352417,0.04902349
2179.55233154,0.04881469
2181.48113892,0.04881396
2183.40994629,0.04883527
2185.33875366,0.04867959
2187.26756104,0.04862534
2189.19636841,0.04868553
2191.12517578,0.04847091
2193.05398315,0.04848307
2194.98279053,0.04852762
2196.91159790,0.04839293
2198.84040527,0.04837379
2200.76921265,0.04827492
2202.69802002,0.04826711
2204.62682739,0.04821406
2206.55563477,0.04801640
2208.48444214,0.04799828
2210.41324951,0.04800240
2212.34205688,0.04793883
2214.27086426,0.04789692
2216.19967163,0.04783117
2218.12847900,0.04781871
2220.05728638,0.04777147
2221.98609375,0.04780653
2223.91490112,0.04769315
2225.84370850,0.04759840
2227.77251587,0.04769279
2229.70132324,0.04745460
2231.63013062,0.04751519
2233.55893799,0.04738445
2235.48774536,0.04714160
2237.41655273,0.04732864
2239.34536011,0.04711967
2241.27416748,0.04690520
2243.20297485,0.04692432
2245.13178223,0.04709169
2247.06058960,0.04686312
2248.98939697,0.04678954
2250.91820435,0.04689547
2252.84701172,0.04658437
2254.77581909,0.04670421
2256.70462646,0.04649863
2258.63343384,0.04650458
2260.56224121,0.04656035
2262.49104858,0.04627289
2264.41985596,0.04634528
2266.34866333,0.04611059
2268.27747070,0.04610725
2270.20627808,0.04603437
2272.13508545,0.04598480
2274.06389282,0.04594098
2275.99270020,0.04587980
2277.92150757,0.04605656
2279.85031494,0.04580586
2281.77912231,0.04597928
2283.70792969,0.04582228
2285.63673706,0.04556043
2287.56554443,0.04582121
2289.49435181,0.04565418
2291.42315918,0.04550294
2293.35196655,0.04526118
2295.28077393,0.04503011
2297.20958130,0.04504543
2299.13838867,0.04505032
2301.06719604,0.04475245
2302.99600342,0.04454879
2304.92481079,0.04447666
2306.85361816,0.04414473
2308.78242554,0.04393561
2310.71123291,0.04351491
2312.64004028,0.04312348
2314.56884766,0.04279110
2316.49765503,0.04229309
2318.42646240,0.04170306
2320.35526978,0.04122726
2322.28407715,0.04091391
2324.21288452,0.04016883
2326.14169189,0.03979184
2328.07049927,0.03950321
2329.99930664,0.03879461
2331.92811401,0.03859144
2333.85692139,0.03854512
2335.78572876,0.03819967
2337.71453613,0.03814652
2339.64334351,0.03824537
2341.57215088,0.03834835
2343.50095825,0.03894942
2345.42976562,0.03958393
2347.35857300,0.04114324
2349.28738037,0.04236443
2351.21618774,0.04090537
2353.14499512,0.03898861
2355.07380249,0.03764046
2357.00260986,0.03653431
2358.93141724,0.03586378
2360.86022461,0.03556462
2362.78903198,0.03549092
2364.71783936,0.03562486
2366.64664673,0.03620993
2368.57545410,0.03678477
2370.50426147,0.03765770
2372.43306885,0.03870523
2374.36187622,0.03966216
2376.29068359,0.04057853
2378.21949097,0.04143605
2380.14829834,0.04219982
2382.07710571,0.04256069
2384.00591309,0.04285814
2385.93472046,0.04283728
2387.86352783,0.04295478
2389.79233521,0.04302710
2391.72114258,0.04282531
2393.64994995,0.04289299
2395.57875732,0.04268993
2397.50756470,0.04275684
2399.43637207,0.04276211
2401.36517944,0.04263684
2403.29398682,0.04271127
2405.22279419,0.04255287
2407.15160156,0.04250171
2409.08040894,0.04242658
2411.00921631,0.04234952
2412.93802368,0.04222786
2414.86683105,0.04225234
2416.79563843,0.04225971
2418.72444580,0.04210493
2420.65325317,0.04204199
2422.58206055,0.04193681
2424.51086792,0.04200037
2426.43967529,0.04191226
2428.36848267,0.04181282
2430.29729004,0.04173734
2432.22609741,0.04173353
2434.15490479,0.04172768
2436.08371216,0.04155818
2438.01251953,0.04170359
2439.94132690,0.04156810
2441.87013428,0.04150772
2443.79894165,0.04158548
2445.72774902,0.04140408
2447.65655640,0.04145341
2449.58536377,0.04145483
2451.51417114,0.04135891
2453.44297852,0.04124179
2455.37178589,0.04112441
2457.30059326,0.04101973
2459.22940063,0.04105804
2461.15820801,0.04103557
2463.08701538,0.04094476
2465.01582275,0.04103704
2466.94463013,0.04090653
2468.87343750,0.04078926
2470.80224487,0.04076041
2472.73105225,0.04075838
2474.65985962,0.04078487
2476.58866699,0.04078892
2478.51747437,0.04067072
2480.44628174,0.04049487
2482.37508911,0.04058390
2484.30389648,0.04043780
2486.23270386,0.04036612
2488.16151123,0.04039295
2490.09031860,0.04029126
2492.01912598,0.04038472
2493.94793335,0.04024660
2495.87674072,0.04008341
2497.80554810,0.04004850
2499.73435547,0.03998674
2501.66316284,0.03993500
2503.59197021,0.03994124
2505.52077759,0.03988888
2507.44958496,0.03972716
2509.37839233,0.03973601
2511.30719971,0.03973021
2513.23600708,0.03966564
2515.16481445,0.03961481
2517.09362183,0.03959551
2519.02242920,0.03952935
2520.95123657,0.03956111
2522.88004395,0.03956730
2524.80885132,0.03932826
2526.73765869,0.03936382
2528.66646606,0.03931178
2530.59527344,0.03923056
2532.52408081,0.03933052
2534.45288818,0.03923381
2536.38169556,0.03916037
2538.31050293,0.03904316
2540.23931030,0.03901486
2542.16811768,0.03908680
2544.09692505,0.03903171
2546.02573242,0.03883871
2547.95453979,0.03869352
2549.88334717,0.03882328
2551.81215454,0.03879056
2553.74096191,0.03863661
2555.66976929,0.03879043
2557.59857666,0.03876205
2559.52738403,0.03850608
2561.45619141,0.03857354
2563.38499878,0.03855003
2565.31380615,0.03841975
2567.24261353,0.03832320
2569.17142090,0.03813719
2571.10022827,0.03827215
2573.02903564,0.03832357
2574.95784302,0.03817529
2576.88665039,0.03814895
2578.81545776,0.03805958
2580.74426514,0.03794979
2582.67307251,0.03797102
2584.60187988,0.03798774
2586.53068726,0.03779455
2588.45949463,0.03768804
2590.38830200,0.03775311
2592.31710937,0.03777154
2594.24591675,0.03765668
2596.17472412,0.03758936
2598.10353149,0.03762345
2600.03233887,0.03754180
2601.96114624,0.03746431
2603.88995361,0.03747738
2605.81876099,0.03747458
2607.74756836,0.03726174
2609.67637573,0.03720728
2611.60518311,0.03724014
2613.53399048,0.03716312
2615.46279785,0.03720401
2617.39160522,0.03703139
2619.32041260,0.03700478
2621.24921997,0.03703193
2623.17802734,0.03699986
2625.10683472,0.03693850
2627.03564209,0.03675195
2628.96444946,0.03686175
2630.89325684,0.03670435
2632.82206421,0.03662660
2634.75087158,0.03670383
2636.67967895,0.03649767
2638.60848633,0.03649639
2640.53729370,0.03648425
2642.46610107,0.03643580
2644.39490845,0.03637553
2646.32371582,0.03638074
2648.25252319,0.03637202
2650.18133057,0.03626122
2652.11013794,0.03624997
2654.03894531,0.03614630
2655.96775269,0.03604654
2657.89656006,0.03608018
2659.82536743,0.03612522
2661.75417480,0.03600111
2663.68298218,0.03596980
2665.61178955,0.03591650
2667.54059692,0.03575674
2669.46940430,0.03582346
2671.39821167,0.03583350
2673.32701904,0.03573355
2675.25582642,0.03553168
2677.18463379,0.03553756
2679.11344116,0.03560079
2681.04224854,0.03543605
2682.97105591,0.03539621
2684.89986328,0.03543336
2686.82867065,0.03545570
2688.75747803,0.03526879
2690.68628540,0.03522430
2692.61509277,0.03519204
2694.54390015,0.03508750
2696.47270752,0.03517303
2698.40151489,0.03497402
2700.33032227,0.03494410
2702.25912964,0.03501987
2704.18793701,0.03491912
2706.11674438,0.03487621
2708.04555176,0.03481128
2709.97435913,0.03474998
2711.90316650,0.03466325
2713.83197388,0.03469221
2715.76078125,0.03465383
2717.68958862,0.03462287
2719.61839600,0.03456682
2721.54720337,0.03435871
2723.47601074,0.03435329
2725.40481812,0.03439683
2727.33362549,0.03428886
2729.26243286,0.03416177
2731.19124023,0.03425173
2733.12004761,0.03428673
2735.04885498,0.03414099
2736.97766235,0.03393900
2738.90646973,0.03382829
2740.83527710,0.03395246
2742.76408447,0.03385400
2744.69289185,0.03378353
2746.62169922,0.03385041
2748.55050659,0.03377647
2750.47931396,0.03371420
2752.40812134,0.03369357
2754.33692871,0.03369770
2756.26573608,0.03354847
2758.19454346,0.03347979
2760.12335083,0.03347873
2762.05215820,0.03337561
2763.98096558,0.03335879
2765.90977295,0.03328452
2767.83858032,0.03317911
2769.76738770,0.03312121
2771.69619507,0.03308174
2773.62500244,0.03306892
2775.55380981,0.03298887
2777.48261719,0.03287365
2779.41142456,0.03281355
2781.34023193,0.03271975
2783.26903931,0.03270740
2785.19784668,0.03267244
2787.12665405,0.03254044
2789.05546143,0.03261215
2790.98426880,0.03254023
2792.91307617,0.03244601
2794.84188354,0.03244721
2796.77069092,0.03232917
2798.69949829,0.03230089
2800.62830566,0.03214996
2802.55711304,0.03213872
2804.48592041,0.03215705
2806.41472778,0.03195098
2808.34353516,0.03196188
2810.27234253,0.03198465
2812.20114990,0.03197727
2814.12995728,0.03186616
2816.05876465,0.03162248
2817.98757202,0.03160315
2819.91637939,0.03155679
2821.84518677,0.03148644
2823.77399414,0.03147269
2825.70280151,0.03134809
2827.63160889,0.03138606
2829.56041626,0.03139614
2831.48922363,0.03129249
2833.41803101,0.03119458
2835.34683838,0.03094397
2837.27564575,0.03092504
2839.20445312,0.03091487
2841.13326050,0.03072618
2843.06206787,0.03058274
2844.99087524,0.03039372
2846.91968262,0.03026812
2848.84848999,0.02997418
2850.77729736,0.02992721
2852.70610474,0.03020608
2854.63491211,0.03015452
2856.56371948,0.03009854
2858.49252686,0.03008739
2860.42133423,0.03004493
2862.35014160,0.03011550
2864.27894897,0.03002635
2866.20775635,0.02990762
2868.13656372,0.02995595
2870.06537109,0.02981578
2871.99417847,0.02973123
2873.92298584,0.02977422
2875.85179321,0.02962826
2877.78060059,0.02965175
2879.70940796,0.02967200
2881.63821533,0.02961567
2883.56702270,0.02951602
2885.49583008,0.02939714
2887.42463745,0.02939295
2889.35344482,0.02924083
2891.28225220,0.02922611
2893.21105957,0.02912362
2895.13986694,0.02899918
2897.06867432,0.02898781
2898.99748169,0.02880387
2900.92628906,0.02890247
2902.85509644,0.02886720
2904.78390381,0.02870389
2906.71271118,0.02876626
2908.64151855,0.02861383
2910.57032593,0.02836626
2912.49913330,0.02825462
2914.42794067,0.02821124
2916.35674805,0.02810245
2918.28555542,0.02798952
2920.21436279,0.02795025
2922.14317017,0.02793757
2924.07197754,0.02797741
2926.00078491,0.02806241
2927.92959229,0.02803605
2929.85839966,0.02807779
2931.78720703,0.02815564
2933.71601440,0.02809153
2935.64482178,0.02816654
2937.57362915,0.02810089
2939.50243652,0.02822832
2941.43124390,0.02831944
2943.36005127,0.02801341
2945.28885864,0.02812504
2947.21766602,0.02801387
2949.14647339,0.02783362
2951.07528076,0.02792513
2953.00408813,0.02785572
2954.93289551,0.02781211
2956.86170288,0.02761726
2958.79051025,0.02757362
2960.71931763,0.02750017
2962.64812500,0.02740959
2964.57693237,0.02748351
2966.50573975,0.02743802
2968.43454712,0.02755795
2970.36335449,0.02749560
2972.29216187,0.02736200
2974.22096924,0.02748517
2976.14977661,0.02753617
2978.07858398,0.02755007
2980.00739136,0.02759456
2981.93619873,0.02755077
2983.86500610,0.02746356
2985.79381348,0.02745864
2987.72262085,0.02738437
2989.65142822,0.02739172
2991.58023560,0.02741784
2993.50904297,0.02723486
2995.43785034,0.02719530
2997.36665771,0.02722121
2999.29546509,0.02716556
3001.22427246,0.02718309
3003.15307983,0.02704988
3005.08188721,0.02695917
3007.01069458,0.02708486
3008.93950195,0.02686534
3010.86830933,0.02669875
3012.79711670,0.02677303
3014.72592407,0.02662697
3016.65473145,0.02658670
3018.58353882,0.02661736
3020.51234619,0.02664687
3022.44115356,0.02657898
3024.36996094,0.02646389
3026.29876831,0.02649494
3028.22757568,0.02637408
3030.15638306,0.02624829
3032.08519043,0.02618494
3034.01399780,0.02612245
3035.94280518,0.02606861
3037.87161255,0.02605377
3039.80041992,0.02605151
3041.72922729,0.02595512
3043.65803467,0.02593548
3045.58684204,0.02588003
3047.51564941,0.02572818
3049.44445679,0.02560169
3051.37326416,0.02566213
3053.30207153,0.02567556
3055.23087891,0.02547653
3057.15968628,0.02548760
3059.08849365,0.02549803
3061.01730103,0.02540080
3062.94610840,0.02539581
3064.87491577,0.02532459
3066.80372314,0.02523150
3068.73253052,0.02527590
3070.66133789,0.02523910
3072.59014526,0.02511086
3074.51895264,0.02508761
3076.44776001,0.02500272
3078.37656738,0.02493388
3080.30537476,0.02493503
3082.23418213,0.02495969
3084.16298950,0.02484405
3086.09179687,0.02480330
3088.02060425,0.02488518
3089.94941162,0.02463955
3091.87821899,0.02465020
3093.80702637,0.02466181
3095.73583374,0.02451640
3097.66464111,0.02458430
3099.59344849,0.02446521
3101.52225586,0.02446623
3103.45106323,0.02434063
3105.37987061,0.02415785
3107.30867798,0.02421971
3109.23748535,0.02414557
3111.16629272,0.02411429
3113.09510010,0.02411890
3115.02390747,0.02404744
3116.95271484,0.02384588
3118.88152222,0.02379022
3120.81032959,0.02382364
3122.73913696,0.02368499
3124.66794434,0.02365997
3126.59675171,0.02363634
3128.52555908,0.02363652
3130.45436645,0.02358869
3132.38317383,0.02346480
3134.31198120,0.02347523
3136.24078857,0.02343488
3138.16959595,0.02343369
3140.09840332,0.02341213
3142.02721069,0.02321351
3143.95601807,0.02313910
3145.88482544,0.02309131
3147.81363281,0.02297089
3149.74244019,0.02296829
3151.67124756,0.02293064
3153.60005493,0.02285171
3155.52886230,0.02275455
3157.45766968,0.02269593
3159.38647705,0.02262850
3161.31528442,0.02252911
3163.24409180,0.02261841
3165.17289917,0.02250994
3167.10170654,0.02233543
3169.03051392,0.02235244
3170.95932129,0.02234336
3172.88812866,0.02228719
3174.81693604,0.02214253
3176.74574341,0.02210576
3178.67455078,0.02204762
3180.60335815,0.02204706
3182.53216553,0.02205113
3184.46097290,0.02188645
3186.38978027,0.02181687
3188.31858765,0.02168706
3190.24739502,0.02166012
3192.17620239,0.02165241
3194.10500977,0.02161955
3196.03381714,0.02169336
3197.96262451,0.02159041
3199.89143188,0.02149279
3201.82023926,0.02141489
3203.74904663,0.02135181
3205.67785400,0.02132739
3207.60666138,0.02124592
3209.53546875,0.02118263
3211.46427612,0.02114745
3213.39308350,0.02117548
3215.32189087,0.02110132
3217.25069824,0.02097155
3219.17950562,0.02100965
3221.10831299,0.02102476
3223.03712036,0.02092945
3224.96592773,0.02092602
3226.89473511,0.02092415
3228.82354248,0.02081162
3230.75234985,0.02078706
3232.68115723,0.02081267
3234.60996460,0.02074650
3236.53877197,0.02072499
3238.46757935,0.02060847
3240.39638672,0.02047222
3242.32519409,0.02061690
3244.25400146,0.02054649
3246.18280884,0.02042487
3248.11161621,0.02049508
3250.04042358,0.02044004
3251.96923096,0.02043805
3253.89803833,0.02037684
3255.82684570,0.02034898
3257.75565308,0.02028139
3259.68446045,0.02018534
3261.61326782,0.02023427
3263.54207520,0.02031353
3265.47088257,0.02035890
3267.39968994,0.02018701
3269.32849731,0.02023922
3271.25730469,0.02014254
3273.18611206,0.01999444
3275.11491943,0.02009973
3277.04372681,0.01997741
3278.97253418,0.02011742
3280.90134155,0.02006503
3282.83014893,0.01998650
3284.75895630,0.02012087
3286.68776367,0.02000901
3288.61657104,0.01991430
3290.54537842,0.01987078
3292.47418579,0.02003290
3294.40299316,0.01991109
3296.33180054,0.01986393
3298.26060791,0.01991652
3300.18941528,0.01967387
3302.11822266,0.01977958
3304.04703003,0.01981994
3305.97583740,0.01973655
3307.90464478,0.01962940
3309.83345215,0.01960432
3311.76225952,0.01963803
3313.69106689,0.01956312
3315.61987427,0.01964219
3317.54868164,0.01960702
3319.47748901,0.01958882
3321.40629639,0.01956433
3323.33510376,0.01955390
3325.26391113,0.01955093
3327.19271851,0.01938309
3329.12152588,0.01934510
3331.05033325,0.01943111
3332.97914062,0.01941957
3334.90794800,0.01924284
3336.83675537,0.01924602
3338.76556274,0.01927837
3340.69437012,0.01923857
3342.62317749,0.01923859
3344.55198486,0.01922670
3346.48079224,0.01921701
3348.40959961,0.01911219
3350.33840698,0.01912326
3352.26721436,0.01903372
3354.19602173,0.01900738
3356.12482910,0.01906187
3358.05363647,0.01897078
3359.98244385,0.01893687
3361.91125122,0.01881531
3363.84005859,0.01884730
3365.76886597,0.01883845
3367.69767334,0.01874353
3369.62648071,0.01874596
3371.55528809,0.01864792
3373.48409546,0.01869869
3375.41290283,0.01886207
3377.34171020,0.01871023
3379.27051758,0.01850732
3381.19932495,0.01861371
3383.12813232,0.01853055
3385.05693970,0.01843717
3386.98574707,0.01842401
3388.91455444,0.01845760
3390.84336182,0.01848417
3392.77216919,0.01826033
3394.70097656,0.01830520
3396.62978394,0.01821256
3398.55859131,0.01819146
3400.48739868,0.01825069
3402.41620605,0.01808831
3404.34501343,0.01820791
3406.27382080,0.01818831
3408.20262817,0.01813082
3410.13143555,0.01806188
3412.06024292,0.01807169
3413.98905029,0.01806445
3415.91785767,0.01790983
3417.84666504,0.01790846
3419.77547241,0.01782564
3421.70427979,0.01781148
3423.63308716,0.01776351
3425.56189453,0.01777794
3427.49070190,0.01777062
3429.41950928,0.01775528
3431.34831665,0.01768027
3433.27712402,0.01757452
3435.20593140,0.01770550
3437.13473877,0.01754673
3439.06354614,0.01757170
3440.99235352,0.01743422
3442.92116089,0.01736803
3444.84996826,0.01747289
3446.77877563,0.01707954
3448.70758301,0.01727962
3450.63639038,0.01742937
3452.56519775,0.01738999
3454.49400513,0.01748054
3456.42281250,0.01739662
3458.35161987,0.01738584
3460.28042725,0.01721874
3462.20923462,0.01719177
3464.13804199,0.01720672
3466.06684937,0.01719201
3467.99565674,0.01709129
3469.92446411,0.01707842
3471.85327148,0.01716640
3473.78207886,0.01708757
3475.71088623,0.01709138
3477.63969360,0.01712539
3479.56850098,0.01716269
3481.49730835,0.01688511
3483.42611572,0.01691644
3485.35492310,0.01711364
3487.28373047,0.01691548
3489.21253784,0.01691783
3491.14134521,0.01697605
3493.07015259,0.01704656
3494.99895996,0.01688215
3496.92776733,0.01677347
3498.85657471,0.01692718
3500.78538208,0.01684579
3502.71418945,0.01642282
3504.64299683,0.01643450
3506.57180420,0.01692955
3508.50061157,0.01664582
3510.42941895,0.01652979
3512.35822632,0.01682487
3514.28703369,0.01689744
3516.21584106,0.01682014
3518.14464844,0.01671004
3520.07345581,0.01694977
3522.00226318,0.01664712
3523.93107056,0.01633391
3525.85987793,0.01645788
3527.78868530,0.01642415
3529.71749268,0.01641413
3531.64630005,0.01660354
3533.57510742,0.01687774
3535.50391479,0.01659771
3537.43272217,0.01648910
3539.36152954,0.01671188
3541.29033691,0.01664266
3543.21914429,0.01664942
3545.14795166,0.01621728
3547.07675903,0.01578156
3549.00556641,0.01652168
3550.93437378,0.01664978
3552.86318115,0.01606215
3554.79198853,0.01655591
3556.72079590,0.01660181
3558.64960327,0.01639722
3560.57841064,0.01637107
3562.50721802,0.01623394
3564.43602539,0.01636320
3566.36483276,0.01509877
3568.29364014,0.01461385
3570.22244751,0.01621024
3572.15125488,0.01666040
3574.08006226,0.01632381
3576.00886963,0.01650479
3577.93767700,0.01641727
3579.86648437,0.01637485
3581.79529175,0.01637723
3583.72409912,0.01643331
3585.65290649,0.01597523
3587.58171387,0.01434629
3589.51052124,0.01494778
3591.43932861,0.01644250
3593.36813599,0.01590431
3595.29694336,0.01562266
3597.22575073,0.01591042
3599.15455811,0.01616545
3601.08336548,0.01591646
3603.01217285,0.01611672
3604.94098022,0.01645669
3606.86978760,0.01567850
3608.79859497,0.01475562
3610.72740234,0.01507000
3612.65620972,0.01543964
3614.58501709,0.01506135
3616.51382446,0.01626694
3618.44263184,0.01477953
3620.37143921,0.01420338
3622.30024658,0.01643053
3624.22905395,0.01582220
3626.15786133,0.01668483
3628.08666870,0.01377288
3630.01547607,0.01218168
3631.94428345,0.01613652
3633.87309082,0.01563777
3635.80189819,0.01589027
3637.73070557,0.01635320
3639.65951294,0.01603872
3641.58832031,0.01623819
3643.51712769,0.01608113
3645.44593506,0.01617844
3647.37474243,0.01409343
3649.30354980,0.01280484
3651.23235718,0.01297382
3653.16116455,0.01594586
3655.08997192,0.01584788
3657.01877930,0.01379293
3658.94758667,0.01636846
3660.87639404,0.01592553
3662.80520142,0.01608109
3664.73400879,0.01605122
3666.66281616,0.01576279
3668.59162354,0.01529906
3670.52043091,0.01206562
3672.44923828,0.01515435
3674.37804565,0.01425157
3676.30685303,0.01137446
3678.23566040,0.01498127
3680.16446777,0.01529380
3682.09327515,0.01550144
3684.02208252,0.01605406
3685.95088989,0.01571495
3687.87969727,0.01403684
3689.80850464,0.01256906
3691.73731201,0.01460670
3693.66611938,0.01518147
3695.59492676,0.01555640
3697.52373413,0.01560287
3699.45254150,0.01546242
3701.38134888,0.01496160
3703.31015625,0.01438010
3705.23896362,0.01600940
3707.16777100,0.01509206
3709.09657837,0.01461950
3711.02538574,0.01355010
3712.95419312,0.01260272
3714.88300049,0.01516471
3716.81180786,0.01497689
3718.74061523,0.01507539
3720.66942261,0.01473956
3722.59822998,0.01424499
3724.52703735,0.01468454
3726.45584473,0.01352475
3728.38465210,0.01496451
3730.31345947,0.01474254
3732.24226685,0.01327320
3734.17107422,0.01287283
3736.09988159,0.01222323
3738.02868896,0.01299539
3739.95749634,0.01427941
3741.88630371,0.01508694
3743.81511108,0.01123882
3745.74391846,0.01051771
3747.67272583,0.01422209
3749.60153320,0.01192032
3751.53034058,0.01076145
3753.45914795,0.01274823
3755.38795532,0.01397751
3757.31676270,0.01454353
3759.24557007,0.01317310
3761.17437744,0.01382615
3763.10318481,0.01494323
3765.03199219,0.01365646
3766.96079956,0.01403600
3768.88960693,0.01386159
3770.81841431,0.01308929
3772.74722168,0.01448435
3774.67602905,0.01444938
3776.60483643,0.01442500
3778.53364380,0.01394981
3780.46245117,0.01334084
3782.39125854,0.01445705
3784.32006592,0.01403765
3786.24887329,0.01397661
3788.17768066,0.01427624
3790.10648804,0.01418650
3792.03529541,0.01414545
3793.96410278,0.01438492
3795.89291016,0.01335805
3797.82171753,0.01315008
3799.75052490,0.01408027
3801.67933228,0.01066621
3803.60813965,0.01284175
3805.53694702,0.01417026
3807.46575439,0.01110018
3809.39456177,0.01400478
3811.32336914,0.01370001
3813.25217651,0.01423395
3815.18098389,0.01262966
3817.10979126,0.01083815
3819.03859863,0.01426226
3820.96740601,0.01099247
3822.89621338,0.01175932
3824.82502075,0.01410709
3826.75382812,0.01250589
3828.68263550,0.01371888
3830.61144287,0.01310138
3832.54025024,0.01252323
3834.46905762,0.01277541
3836.39786499,0.01221124
3838.32667236,0.01089370
3840.25547974,0.01177605
3842.18428711,0.01287106
3844.11309448,0.01224099
3846.04190186,0.01339908
3847.97070923,0.01316901
3849.89951660,0.01316191
3851.82832397,0.01161417
3853.75713135,0.00833149
3855.68593872,0.01024568
3857.61474609,0.01327142
3859.54355347,0.01284168
3861.47236084,0.01258918
3863.40116821,0.01231699
3865.32997559,0.01129692
3867.25878296,0.01295175
3869.18759033,0.01167149
3871.11639770,0.01057892
3873.04520508,0.01289325
3874.97401245,0.01164227
3876.90281982,0.01294906
3878.83162720,0.01309850
3880.76043457,0.01087366
3882.68924194,0.01294050
3884.61804932,0.01188364
3886.54685669,0.01084332
3888.47566406,0.01289086
3890.40447144,0.01209422
3892.33327881,0.01132638
3894.26208618,0.01245731
3896.19089355,0.01284612
3898.11970093,0.01223372
3900.04850830,0.01135288
3901.97731567,0.01114989
3903.90612305,0.01109333
3905.83493042,0.01128811
3907.76373779,0.01251947
3909.69254517,0.01258413
3911.62135254,0.01241495
3913.55015991,0.01270947
3915.47896728,0.01222352
3917.40777466,0.01176628
3919.33658203,0.01166722
3921.26538940,0.01225682
3923.19419678,0.01218468
3925.12300415,0.01178865
3927.05181152,0.01210649
3928.98061890,0.01226910
3930.90942627,0.01195076
3932.83823364,0.01153103
3934.76704102,0.01206058
3936.69584839,0.01218555
3938.62465576,0.01202209
3940.55346313,0.01214970
3942.48227051,0.01160034
3944.41107788,0.01168028
3946.33988525,0.01199386
3948.26869263,0.01164898
3950.19750000,0.01162152
3952.12630737,0.01183715
3954.05511475,0.01187163
3955.98392212,0.01188901
3957.91272949,0.01178600
3959.84153687,0.01178220
3961.77034424,0.01174858
3963.69915161,0.01175767
3965.62795898,0.01192631
3967.55676636,0.01175447
3969.48557373,0.01170193
3971.41438110,0.01154722
3973.34318848,0.01159009
3975.27199585,0.01171565
3977.20080322,0.01153575
3979.12961060,0.01167393
3981.05841797,0.01160213
3982.98722534,0.01158396
3984.91603271,0.01152407
3986.84484009,0.01151546
3988.77364746,0.01151311
3990.70245483,0.01135563
3992.63126221,0.01144986
3994.56006958,0.01130212
3996.48887695,0.01146891
3998.41768433,0.01145031
4000.34649170,0.01130573
4002.27529907,0.01137387
4004.20410645,0.01126212
4006.13291382,0.01134022
4008.06172119,0.01120725
4009.99052856,0.01124782
4011.91933594,0.01120793
4013.84814331,0.01114731
4015.77695068,0.01118648
4017.70575806,0.01106879
4019.63456543,0.01117737
4021.56337280,0.01109957
4023.49218018,0.01107763
4025.42098755,0.01103072
4027.34979492,0.01102464
4029.27860229,0.01101944
4031.20740967,0.01100815
4033.13621704,0.01106854
4035.06502441,0.01094243
4036.99383179,0.01098825
4038.92263916,0.01080300
4040.85144653,0.01085135
4042.78025391,0.01087938
4044.70906128,0.01069094
4046.63786865,0.01082154
4048.56667603,0.01075436
4050.49548340,0.01082350
4052.42429077,0.01075033
4054.35309814,0.01062235
4056.28190552,0.01067680
4058.21071289,0.01066562
4060.13952026,0.01067447
4062.06832764,0.01064811
4063.99713501,0.01067496
4065.92594238,0.01053724
4067.85474976,0.01051718
4069.78355713,0.01054155
4071.71236450,0.01047391
4073.64117187,0.01047305
4075.56997925,0.01046363
4077.49878662,0.01043986
4079.42759399,0.01043303
4081.35640137,0.01048545
4083.28520874,0.01031716
4085.21401611,0.01029512
4087.14282349,0.01032533
4089.07163086,0.01024570
4091.00043823,0.01022640
4092.92924561,0.01025685
4094.85805298,0.01030602
4096.78686035,0.01007232
4098.71566772,0.01011371
4100.64447510,0.01018889
4102.57328247,0.01014812
4104.50208984,0.01016744
4106.43089722,0.01003912
4108.35970459,0.01006773
4110.28851196,0.01001482
4112.21731934,0.01003106
4114.14612671,0.01003696
4116.07493408,0.00996025
4118.00374145,0.00991347
4119.93254883,0.00990003
4121.86135620,0.00999996
4123.79016357,0.00989918
4125.71897095,0.00979707
4127.64777832,0.00978161
4129.57658569,0.00985897
4131.50539307,0.00978852
4133.43420044,0.00977136
4135.36300781,0.00987937
4137.29181519,0.00972296
4139.22062256,0.00968823
4141.14942993,0.00964912
4143.07823730,0.00966887
4145.00704468,0.00965907
4146.93585205,0.00960428
4148.86465942,0.00958759
4150.79346680,0.00951211
4152.72227417,0.00957573
4154.65108154,0.00948452
4156.57988892,0.00946623
4158.50869629,0.00947677
4160.43750366,0.00948453
4162.36631103,0.00950029
4164.29511841,0.00941865
4166.22392578,0.00939817
4168.15273315,0.00934451
4170.08154053,0.00941019
4172.01034790,0.00930332
4173.93915527,0.00929838
4175.86796265,0.00939500
4177.79677002,0.00934780
4179.72557739,0.00930039
4181.65438477,0.00923060
4183.58319214,0.00929124
4185.51199951,0.00910834
4187.44080688,0.00915512
4189.36961426,0.00920048
4191.29842163,0.00912089
4193.22722900,0.00923735
4195.15603638,0.00904376
4197.08484375,0.00909839
4199.01365112,0.00907224
4200.94245850,0.00898450
4202.87126587,0.00906952
4204.80007324,0.00898301
4206.72888062,0.00897446
4208.65768799,0.00895316
4210.58649536,0.00902028
4212.51530273,0.00891707
4214.44411011,0.00884326
4216.37291748,0.00887429
4218.30172485,0.00881755
4220.23053223,0.00888932
4222.15933960,0.00882795
4224.08814697,0.00880963
4226.01695435,0.00880181
4227.94576172,0.00873891
4229.87456909,0.00872706
4231.80337646,0.00866256
4233.73218384,0.00866527
4235.66099121,0.00873375
4237.58979858,0.00866638
4239.51860596,0.00857190
4241.44741333,0.00858922
4243.37622070,0.00851052
4245.30502808,0.00852796
4247.23383545,0.00856546
4249.16264282,0.00860874
4251.09145020,0.00866920
4253.02025757,0.00854152
4254.94906494,0.00848816
4256.87787231,0.00842434
4258.80667969,0.00842819
4260.73548706,0.00846189
4262.66429443,0.00839796
4264.59310181,0.00837098
4266.52190918,0.00838046
4268.45071655,0.00836062
4270.37952393,0.00830799
4272.30833130,0.00841130
4274.23713867,0.00831550
4276.16594604,0.00819138
4278.09475342,0.00828926
4280.02356079,0.00826585
4281.95236816,0.00823060
4283.88117554,0.00820000
4285.80998291,0.00815287
4287.73879028,0.00815577
4289.66759766,0.00820779
4291.59640503,0.00811493
4293.52521240,0.00805663
4295.45401978,0.00812069
4297.38282715,0.00807021
4299.31163452,0.00807056
4301.24044189,0.00801080
4303.16924927,0.00797372
4305.09805664,0.00800437
4307.02686401,0.00793941
4308.95567139,0.00788736
4310.88447876,0.00790198
4312.81328613,0.00790566
4314.74209351,0.00785142
4316.67090088,0.00784663
4318.59970825,0.00787957
4320.52851562,0.00791036
4322.45732300,0.00786316
4324.38613037,0.00786748
4326.31493774,0.00780596
4328.24374512,0.00773263
4330.17255249,0.00783937
4332.10135986,0.00776259
4334.03016724,0.00776327
4335.95897461,0.00775011
4337.88778198,0.00757970
4339.81658936,0.00762586
4341.74539673,0.00772266
4343.67420410,0.00760510
4345.60301147,0.00752369
4347.53181885,0.00763742
4349.46062622,0.00757613
4351.38943359,0.00758469
4353.31824097,0.00755364
4355.24704834,0.00754386
4357.17585571,0.00763155
4359.10466309,0.00745513
4361.03347046,0.00748818
4362.96227783,0.00745863
4364.89108520,0.00744076
4366.81989258,0.00743535
4368.74869995,0.00734279
4370.67750732,0.00745470
4372.60631470,0.00736682
4374.53512207,0.00735944
4376.46392944,0.00728468
4378.39273682,0.00727156
4380.32154419,0.00734068
4382.25035156,0.00721411
4384.17915894,0.00731295
4386.10796631,0.00727460
4388.03677368,0.00724814
4389.96558105,0.00727254
4391.89438843,0.00721588
4393.82319580,0.00718283
4395.75200317,0.00706949
4397.68081055,0.00714034
4399.60961792,0.00712744
4401.53842529,0.00699803
4403.46723267,0.00706594
4405.39604004,0.00717467
4407.32484741,0.00708955
4409.25365478,0.00698803
4411.18246216,0.00705216
4413.11126953,0.00706571
4415.04007690,0.00702030
4416.96888428,0.00704453
4418.89769165,0.00703121
4420.82649902,0.00695516
4422.75530640,0.00697993
4424.68411377,0.00692919
4426.61292114,0.00691346
4428.54172852,0.00694187
4430.47053589,0.00684887
4432.39934326,0.00682690
4434.32815063,0.00683990
4436.25695801,0.00686447
4438.18576538,0.00672580
4440.11457275,0.00676882
4442.04338013,0.00684879
4443.97218750,0.00666984
4445.90099487,0.00673084
4447.82980225,0.00675267
4449.75860962,0.00674202
4451.68741699,0.00663682
4453.61622437,0.00657369
4455.54503174,0.00667845
4457.47383911,0.00660060
4459.40264648,0.00666520
4461.33145386,0.00666725
4463.26026123,0.00658337
4465.18906860,0.00656477
4467.11787598,0.00655433
4469.04668335,0.00656735
4470.97549072,0.00653525
4472.90429810,0.00650210
4474.83310547,0.00640934
4476.76191284,0.00644580
4478.69072021,0.00641241
4480.61952759,0.00638476
4482.54833496,0.00647007
4484.47714233,0.00642132
4486.40594971,0.00640111
4488.33475708,0.00635111
4490.26356445,0.00634919
4492.19237183,0.00635505
4494.12117920,0.00637775
4496.04998657,0.00636267
4497.97879395,0.00622965
4499.90760132,0.00626783
4501.83640869,0.00624414
4503.76521606,0.00616616
4505.69402344,0.00625259
4507.62283081,0.00625696
4509.55163818,0.00618029
4511.48044556,0.00622233
4513.40925293,0.00618152
4515.33806030,0.00609062
4517.26686768,0.00612951
4519.19567505,0.00615929
4521.12448242,0.00616230
4523.05328979,0.00610983
4524.98209717,0.00609484
4526.91090454,0.00609511
4528.83971191,0.00610002
4530.76851929,0.00606680
4532.69732666,0.00602075
4534.62613403,0.00603599
4536.55494141,0.00598156
4538.48374878,0.00603162
4540.41255615,0.00594059
4542.34136353,0.00591058
4544.27017090,0.00597994
4546.19897827,0.00584631
4548.12778564,0.00589998
4550.05659302,0.00585580
4551.98540039,0.00583800
4553.91420776,0.00587868
4555.84301514,0.00582889
4557.77182251,0.00589293
4559.70062988,0.00585240
4561.62943726,0.00587397
4563.55824463,0.00583906
4565.48705200,0.00580608
4567.41585937,0.00587113
4569.34466675,0.00577394
4571.27347412,0.00573286
4573.20228149,0.00576007
4575.13108887,0.00571796
4577.05989624,0.00565765
4578.98870361,0.00562226
4580.91751099,0.00559722
4582.84631836,0.00562763
4584.77512573,0.00567038
4586.70393311,0.00565787
4588.63274048,0.00558075
4590.56154785,0.00555319
4592.49035522,0.00557386
4594.41916260,0.00556918
4596.34796997,0.00561614
4598.27677734,0.00549636
4600.20558472,0.00546229
4602.13439209,0.00550152
4604.06319946,0.00545162
4605.99200684,0.00553495
4607.92081421,0.00548487
4609.84962158,0.00548685
4611.77842895,0.00550173
4613.70723633,0.00539675
4615.63604370,0.00538006
4617.56485107,0.00539253
4619.49365845,0.00538126
4621.42246582,0.00535149
4623.35127319,0.00537362
4625.28008057,0.00528818
4627.20888794,0.00525523
4629.13769531,0.00527804
4631.06650269,0.00533186
4632.99531006,0.00542286
4634.92411743,0.00533326
4636.85292480,0.00529040
4638.78173218,0.00522862
4640.71053955,0.00521887
4642.63934692,0.00518553
4644.56815430,0.00521328
4646.49696167,0.00532857
4648.42576904,0.00515625
4650.35457642,0.00515034
4652.28338379,0.00519306
4654.21219116,0.00512137
4656.14099853,0.00508558
4658.06980591,0.00509261
4659.99861328,0.00513503
4661.92742065,0.00508522
4663.85622803,0.00514119
4665.78503540,0.00506389
4667.71384277,0.00503578
4669.64265015,0.00511467
4671.57145752,0.00498857
4673.50026489,0.00499683
4675.42907227,0.00503856
4677.35787964,0.00500981
4679.28668701,0.00500597
4681.21549438,0.00495253
4683.14430176,0.00489589
4685.07310913,0.00489310
4687.00191650,0.00484153
4688.93072388,0.00488138
4690.85953125,0.00497913
4692.78833862,0.00490719
4694.71714600,0.00492930
4696.64595337,0.00491518
4698.57476074,0.00485630
4700.50356812,0.00483345
4702.43237549,0.00478088
4704.36118286,0.00484180
4706.28999023,0.00481511
4708.21879761,0.00477084
4710.14760498,0.00473819
4712.07641235,0.00471695
4714.00521973,0.00478504
4715.93402710,0.00478917
4717.86283447,0.00479611
4719.79164185,0.00478938
4721.72044922,0.00472498
4723.64925659,0.00466829
4725.57806396,0.00467797
4727.50687134,0.00468948
4729.43567871,0.00464270
4731.36448608,0.00461929
4733.29329346,0.00462306
4735.22210083,0.00462119
4737.15090820,0.00460465
4739.07971558,0.00458403
4741.00852295,0.00458139
4742.93733032,0.00455123
4744.86613770,0.00451759
4746.79494507,0.00461074
4748.72375244,0.00460006
4750.65255981,0.00450307
4752.58136719,0.00450776
4754.51017456,0.00450423
4756.43898193,0.00452898
4758.36778931,0.00451268
4760.29659668,0.00454069
4762.22540405,0.00444715
4764.15421143,0.00434267
4766.08301880,0.00447335
4768.01182617,0.00442406
4769.94063354,0.00438606
4771.86944092,0.00440512
4773.79824829,0.00440346
4775.72705566,0.00444134
4777.65586304,0.00444998
4779.58467041,0.00446620
4781.51347778,0.00437315
4783.44228516,0.00436173
4785.37109253,0.00433339
4787.29989990,0.00433123
4789.22870728,0.00438209
4791.15751465,0.00434456
4793.08632202,0.00441780
4795.01512939,0.00431077
4796.94393677,0.00419830
4798.87274414,0.00429136
4800.80155151,0.00430518
4802.73035889,0.00425905
4804.65916626,0.00424807
4806.58797363,0.00423549
4808.51678101,0.00415927
4810.44558838,0.00421125
4812.37439575,0.00425710
4814.30320312,0.00418791
4816.23201050,0.00420535
4818.16081787,0.00421364
4820.08962524,0.00414640
4822.01843262,0.00416779
4823.94723999,0.00420273
4825.87604736,0.00409513
4827.80485474,0.00413516
4829.73366211,0.00418592
4831.66246948,0.00408474
4833.59127686,0.00412092
4835.52008423,0.00417320
4837.44889160,0.00413572
4839.37769897,0.00409806
4841.30650635,0.00408949
4843.23531372,0.00403426
4845.16412109,0.00400611
4847.09292847,0.00401795
4849.02173584,0.00395475
4850.95054321,0.00400053
4852.87935059,0.00401339
4854.80815796,0.00389979
4856.73696533,0.00396183
4858.66577270,0.00404460
4860.59458008,0.00397056
4862.52338745,0.00394967
4864.45219482,0.00395510
4866.38100220,0.00393516
4868.30980957,0.00394608
4870.23861694,0.00389236
4872.16742432,0.00384979
4874.09623169,0.00386220
4876.02503906,0.00382783
4877.95384644,0.00382755
4879.88265381,0.00391458
4881.81146118,0.00389581
4883.74026855,0.00382401
4885.66907593,0.00382527
4887.59788330,0.00378838
4889.52669067,0.00383238
4891.45549805,0.00379643
4893.38430542,0.00368350
4895.31311279,0.00378439
4897.24192017,0.00377864
4899.17072754,0.00373853
4901.09953491,0.00379911
4903.02834228,0.00372699
4904.95714966,0.00374989
4906.88595703,0.00375382
4908.81476440,0.00367708
4910.74357178,0.00375905
4912.67237915,0.00369218
4914.60118652,0.00364607
4916.52999390,0.00367408
4918.45880127,0.00356298
4920.38760864,0.00362880
4922.31641602,0.00362235
4924.24522339,0.00356356
4926.17403076,0.00361209
4928.10283813,0.00358751
4930.03164551,0.00363253
4931.96045288,0.00362635
4933.88926025,0.00356523
4935.81806763,0.00351226
4937.74687500,0.00352645
4939.67568237,0.00357559
4941.60448975,0.00353721
4943.53329712,0.00353807
4945.46210449,0.00352654
4947.39091187,0.00353156
4949.31971924,0.00346914
4951.24852661,0.00343249
4953.17733398,0.00348118
4955.10614136,0.00342014
4957.03494873,0.00347760
4958.96375610,0.00349725
4960.89256348,0.00337384
4962.82137085,0.00339382
4964.75017822,0.00347142
4966.67898560,0.00344213
4968.60779297,0.00339346
4970.53660034,0.00339747
4972.46540771,0.00339354
4974.39421509,0.00336474
4976.32302246,0.00332436
4978.25182983,0.00340877
4980.18063721,0.00341770
4982.10944458,0.00332649
4984.03825195,0.00337246
4985.96705933,0.00326910
4987.89586670,0.00323854
4989.82467407,0.00335596
4991.75348145,0.00330383
4993.68228882,0.00331848
4995.61109619,0.00329572
4997.53990356,0.00323527
4999.46871094,0.00327019
5001.39751831,0.00323802
5003.32632568,0.00326365
5005.25513306,0.00325059
5007.18394043,0.00319881
5009.11274780,0.00321359
5011.04155518,0.00317556
5012.97036255,0.00318676
5014.89916992,0.00319928
5016.82797729,0.00318497
5018.75678467,0.00314814
5020.68559204,0.00314053
5022.61439941,0.00318390
5024.54320679,0.00322246
5026.47201416,0.00323194
5028.40082153,0.00308079
5030.32962891,0.00312724
5032.25843628,0.00315965
5034.18724365,0.00305074
5036.11605103,0.00313649
5038.04485840,0.00311782
5039.97366577,0.00311898
5041.90247314,0.00306671
5043.83128052,0.00307510
5045.76008789,0.00309890
5047.68889526,0.00298504
5049.61770264,0.00308380
5051.54651001,0.00303021
5053.47531738,0.00304117
5055.40412476,0.00306062
5057.33293213,0.00299221
5059.26173950,0.00306720
5061.19054687,0.00301812
5063.11935425,0.00307439
5065.04816162,0.00300768
5066.97696899,0.00294152
5068.90577637,0.00297589
5070.83458374,0.00291380
5072.76339111,0.00294956
5074.69219849,0.00292998
5076.62100586,0.00295791
5078.54981323,0.00292587
5080.47862061,0.00288852
5082.40742798,0.00287099
5084.33623535,0.00283233
5086.26504272,0.00294082
5088.19385010,0.00290208
5090.12265747,0.00285287
5092.05146484,0.00287528
5093.98027222,0.00280709
5095.90907959,0.00280627
5097.83788696,0.00292869
5099.76669434,0.00287945
5101.69550171,0.00279589
5103.62430908,0.00285002
5105.55311645,0.00275456
5107.48192383,0.00280576
5109.41073120,0.00283678
5111.33953857,0.00275520
5113.26834595,0.00282506
5115.19715332,0.00280056
5117.12596069,0.00277902
5119.05476807,0.00275289
5120.98357544,0.00271996
5122.91238281,0.00274167
5124.84119019,0.00277162
5126.76999756,0.00277579
5128.69880493,0.00275764
5130.62761230,0.00275590
5132.55641968,0.00268993
5134.48522705,0.00266943
5136.41403442,0.00265496
5138.34284180,0.00272363
5140.27164917,0.00275744
5142.20045654,0.00261481
5144.12926392,0.00264138
5146.05807129,0.00267644
5147.98687866,0.00265168
5149.91568603,0.00268482
5151.84449341,0.00266303
5153.77330078,0.00265072
5155.70210815,0.00267735
5157.63091553,0.00267375
5159.55972290,0.00264595
5161.48853027,0.00267177
5163.41733765,0.00265794
5165.34614502,0.00257990
5167.27495239,0.00262428
5169.20375977,0.00260308
5171.13256714,0.00249610
5173.06137451,0.00260137
5174.99018188,0.00260688
5176.91898926,0.00253947
5178.84779663,0.00252845
5180.77660400,0.00245948
5182.70541138,0.00257417
5184.63421875,0.00251983
5186.56302612,0.00242260
5188.49183350,0.00257457
5190.42064087,0.00259599
5192.34944824,0.00253663
5194.27825562,0.00244678
5196.20706299,0.00239063
5198.13587036,0.00242269
5200.06467773,0.00247723
5201.99348511,0.00249152
5203.92229248,0.00249875
5205.85109985,0.00246131
5207.77990723,0.00239537
5209.70871460,0.00246518
5211.63752197,0.00246989
5213.56632935,0.00246656
5215.49513672,0.00239281
5217.42394409,0.00234433
5219.35275146,0.00239871
5221.28155884,0.00239888
5223.21036621,0.00250768
5225.13917358,0.00235102
5227.06798096,0.00226588
5228.99678833,0.00240513
5230.92559570,0.00236198
5232.85440308,0.00236743
5234.78321045,0.00236027
5236.71201782,0.00239237
5238.64082520,0.00234579
5240.56963257,0.00233696
5242.49843994,0.00238838
5244.42724731,0.00230136
5246.35605469,0.00237167
5248.28486206,0.00233700
5250.21366943,0.00227554
5252.14247681,0.00234930
5254.07128418,0.00223563
5256.00009155,0.00219238
5257.92889893,0.00233845
5259.85770630,0.00228871
5261.78651367,0.00217573
5263.71532104,0.00222393
5265.64412842,0.00225932
5267.57293579,0.00222589
5269.50174316,0.00216148
5271.43055054,0.00228536
5273.35935791,0.00231290
5275.28816528,0.00221650
5277.21697266,0.00226749
5279.14578003,0.00218970
5281.07458740,0.00223878
5283.00339478,0.00225287
5284.93220215,0.00216894
5286.86100952,0.00220914
5288.78981689,0.00215719
5290.71862427,0.00221868
5292.64743164,0.00224899
5294.57623901,0.00216463
5296.50504639,0.00216069
5298.43385376,0.00219370
5300.36266113,0.00214969
5302.29146851,0.00211577
5304.22027588,0.00215119
5306.14908325,0.00205678
5308.07789062,0.00212061
5310.00669800,0.00221916
5311.93550537,0.00213752
5313.86431274,0.00212373
5315.79312012,0.00206374
5317.72192749,0.00203616
5319.65073486,0.00208830
5321.57954224,0.00206857
5323.50834961,0.00204732
5325.43715698,0.00207227
5327.36596436,0.00205884
5329.29477173,0.00205382
5331.22357910,0.00202343
5333.15238647,0.00196700
5335.08119385,0.00210121
5337.01000122,0.00210553
5338.93880859,0.00191843
5340.86761597,0.00195363
5342.79642334,0.00198487
5344.72523071,0.00192212
5346.65403809,0.00196139
5348.58284546,0.00199341
5350.51165283,0.00202541
5352.44046020,0.00197187
5354.36926758,0.00190928
5356.29807495,0.00198314
5358.22688232,0.00194452
5360.15568970,0.00197665
5362.08449707,0.00199239
5364.01330444,0.00188113
5365.94211182,0.00199762
5367.87091919,0.00204883
5369.79972656,0.00199194
5371.72853394,0.00198520
5373.65734131,0.00195498
5375.58614868,0.00194880
5377.51495605,0.00188852
5379.44376343,0.00189557
5381.37257080,0.00198220
5383.30137817,0.00195164
5385.23018555,0.00188291
5387.15899292,0.00189225
5389.08780029,0.00187594
5391.01660767,0.00187446
5392.94541504,0.00192373
5394.87422241,0.00184485
5396.80302978,0.00182474
5398.73183716,0.00192857
5400.66064453,0.00189814
5402.58945190,0.00186492
5404.51825928,0.00185339
5406.44706665,0.00181192
5408.37587402,0.00186847
5410.30468140,0.00183015
5412.23348877,0.00179708
5414.16229614,0.00180412
5416.09110352,0.00176953
5418.01991089,0.00187337
5419.94871826,0.00184443
5421.87752563,0.00184998
5423.80633301,0.00187929
5425.73514038,0.00179067
5427.66394775,0.00180115
5429.59275513,0.00170060
5431.52156250,0.00177562
5433.45036987,0.00177622
5435.37917725,0.00161005
5437.30798462,0.00174046
5439.23679199,0.00173562
5441.16559936,0.00169946
5443.09440674,0.00179602
5445.02321411,0.00176825
5446.95202148,0.00167918
5448.88082886,0.00170527
5450.80963623,0.00177880
5452.73844360,0.00177731
5454.66725098,0.00173610
5456.59605835,0.00164868
5458.52486572,0.00167825
5460.45367310,0.00166422
5462.38248047,0.00164610
5464.31128784,0.00168581
5466.24009521,0.00162313
5468.16890259,0.00165786
5470.09770996,0.00165658
5472.02651733,0.00167813
5473.95532471,0.00168913
5475.88413208,0.00160992
5477.81293945,0.00165133
5479.74174683,0.00168571
5481.67055420,0.00171386
5483.59936157,0.00174349
5485.52816895,0.00170406
5487.45697632,0.00162964
5489.38578369,0.00162885
5491.31459106,0.00159492
5493.24339844,0.00156469
5495.17220581,0.00160607
5497.10101318,0.00154001
5499.02982056,0.00157927
5500.95862793,0.00157950
5502.88743530,0.00157826
5504.81624268,0.00166890
5506.74505005,0.00158637
5508.67385742,0.00160068
5510.60266479,0.00159582
5512.53147217,0.00156657
5514.46027954,0.00164020
5516.38908691,0.00161817
5518.31789429,0.00164597
5520.24670166,0.00155669
5522.17550903,0.00145574
5524.10431641,0.00161018
5526.03312378,0.00162625
5527.96193115,0.00158630
5529.89073853,0.00158860
5531.81954590,0.00153090
5533.74835327,0.00158621
5535.67716064,0.00155477
5537.60596802,0.00151920
5539.53477539,0.00151651
5541.46358276,0.00150516
5543.39239014,0.00156853
5545.32119751,0.00146707
5547.25000488,0.00150124
5549.17881226,0.00156964
5551.10761963,0.00151384
5553.03642700,0.00153848
5554.96523437,0.00149267
5556.89404175,0.00152477
5558.82284912,0.00152043
5560.75165649,0.00149456
5562.68046387,0.00151345
5564.60927124,0.00152488
5566.53807861,0.00152640
5568.46688599,0.00141162
5570.39569336,0.00149533
5572.32450073,0.00147836
5574.25330811,0.00138640
5576.18211548,0.00155815
5578.11092285,0.00155037
5580.03973022,0.00147871
5581.96853760,0.00145610
5583.89734497,0.00141513
5585.82615234,0.00143042
5587.75495972,0.00142441
5589.68376709,0.00144565
5591.61257446,0.00145693
5593.54138184,0.00144924
5595.47018921,0.00146951
5597.39899658,0.00147777
5599.32780395,0.00142983
5601.25661133,0.00138039
5603.18541870,0.00142178
5605.11422607,0.00145009
5607.04303345,0.00141707
5608.97184082,0.00141053
5610.90064819,0.00140068
5612.82945557,0.00138610
5614.75826294,0.00139005
5616.68707031,0.00136982
5618.61587769,0.00135785
5620.54468506,0.00137174
5622.47349243,0.00136399
5624.40229980,0.00137495
5626.33110718,0.00142797
5628.25991455,0.00140750
5630.18872192,0.00137551
5632.11752930,0.00139708
5634.04633667,0.00138984
5635.97514404,0.00137087
5637.90395142,0.00132703
5639.83275879,0.00128421
5641.76156616,0.00130628
5643.69037353,0.00138001
5645.61918091,0.00131210
5647.54798828,0.00126943
5649.47679565,0.00137664
5651.40560303,0.00133007
5653.33441040,0.00134786
5655.26321777,0.00129614
5657.19202515,0.00124259
5659.12083252,0.00137402
5661.04963989,0.00132103
5662.97844727,0.00134342
5664.90725464,0.00131107
5666.83606201,0.00128327
5668.76486938,0.00133956
5670.69367676,0.00123680
5672.62248413,0.00129892
5674.55129150,0.00127963
5676.48009888,0.00126704
5678.40890625,0.00128468
5680.33771362,0.00116255
5682.26652100,0.00128290
5684.19532837,0.00132359
5686.12413574,0.00123895
5688.05294311,0.00123293
5689.98175049,0.00114739
5691.91055786,0.00123275
5693.83936523,0.00132592
5695.76817261,0.00119571
5697.69697998,0.00125992
5699.62578735,0.00126917
5701.55459473,0.00114773
5703.48340210,0.00127406
5705.41220947,0.00130791
5707.34101685,0.00126567
5709.26982422,0.00120502
5711.19863159,0.00110138
5713.12743896,0.00114191
5715.05624634,0.00119288
5716.98505371,0.00116340
5718.91386108,0.00109832
5720.84266846,0.00113375
5722.77147583,0.00113423
5724.70028320,0.00116001
5726.62909058,0.00121042
5728.55789795,0.00117181
5730.48670532,0.00123717
5732.41551270,0.00119617
5734.34432007,0.00115915
5736.27312744,0.00115478
5738.20193481,0.00112621
5740.13074219,0.00120105
5742.05954956,0.00117690
5743.98835693,0.00114176
5745.91716431,0.00112259
5747.84597168,0.00116852
5749.77477905,0.00118847
5751.70358643,0.00107918
5753.63239380,0.00108425
5755.56120117,0.00114618
5757.49000854,0.00116983
5759.41881592,0.00114377
5761.34762329,0.00108695
5763.27643066,0.00108709
5765.20523804,0.00114231
5767.13404541,0.00107564
5769.06285278,0.00103100
5770.99166016,0.00109885
5772.92046753,0.00107627
5774.84927490,0.00109903
5776.77808228,0.00108171
5778.70688965,0.00108592
5780.63569702,0.00112092
5782.56450439,0.00104771
5784.49331177,0.00107145
5786.42211914,0.00108888
5788.35092651,0.00107212
5790.27973389,0.00107904
5792.20854126,0.00108985
5794.13734863,0.00107509
5796.06615601,0.00104813
5797.99496338,0.00105479
5799.92377075,0.00106374
5801.85257812,0.00106235
5803.78138550,0.00103063
5805.71019287,0.00109110
5807.63900024,0.00102564
5809.56780762,0.00100213
5811.49661499,0.00110593
5813.42542236,0.00099943
5815.35422974,0.00106124
5817.28303711,0.00108155
5819.21184448,0.00100657
5821.14065186,0.00107179
5823.06945923,0.00103418
5824.99826660,0.00101339
5826.92707397,0.00099097
5828.85588135,0.00100504
5830.78468872,0.00100066
5832.71349609,0.00099643
5834.64230347,0.00105004
5836.57111084,0.00096182
5838.49991821,0.00091819
5840.42872559,0.00098617
5842.35753296,0.00101067
5844.28634033,0.00092220
5846.21514770,0.00094404
5848.14395508,0.00100841
5850.07276245,0.00093797
5852.00156982,0.00097780
5853.93037720,0.00096557
5855.85918457,0.00094273
5857.78799194,0.00096242
5859.71679932,0.00091706
5861.64560669,0.00096273
5863.57441406,0.00093177
5865.50322144,0.00084379
5867.43202881,0.00087293
5869.36083618,0.00094071
5871.28964355,0.00091234
5873.21845093,0.00086941
5875.14725830,0.00089462
5877.07606567,0.00085107
5879.00487305,0.00090830
5880.93368042,0.00100782
5882.86248779,0.00096043
5884.79129517,0.00093330
5886.72010254,0.00094679
5888.64890991,0.00097488
5890.57771728,0.00091017
5892.50652466,0.00083762
5894.43533203,0.00090408
5896.36413940,0.00089205
5898.29294678,0.00085857
5900.22175415,0.00087602
5902.15056152,0.00089032
5904.07936890,0.00092872
5906.00817627,0.00088793
5907.93698364,0.00086224
5909.86579102,0.00090858
5911.79459839,0.00092962
5913.72340576,0.00089500
5915.65221313,0.00085430
5917.58102051,0.00089371
5919.50982788,0.00088473
5921.43863525,0.00083703
5923.36744263,0.00085101
5925.29625000,0.00087337
5927.22505737,0.00087154
5929.15386475,0.00083020
5931.08267212,0.00080339
5933.01147949,0.00080629
5934.94028686,0.00085278
5936.86909424,0.00089496
5938.79790161,0.00085579
5940.72670898,0.00078017
5942.65551636,0.00076799
5944.58432373,0.00084780
5946.51313110,0.00087349
5948.44193848,0.00086467
5950.37074585,0.00085031
5952.29955322,0.00083066
5954.22836060,0.00081768
5956.15716797,0.00079036
5958.08597534,0.00083697
5960.01478271,0.00079738
5961.94359009,0.00080177
5963.87239746,0.00086780
5965.80120483,0.00080652
5967.73001221,0.00085412
5969.65881958,0.00083269
5971.58762695,0.00077831
5973.51643433,0.00079363
5975.44524170,0.00079185
5977.37404907,0.00082155
5979.30285645,0.00071999
5981.23166382,0.00074757
5983.16047119,0.00080948
5985.08927856,0.00075348
5987.01808594,0.00079501
5988.94689331,0.00081525
5990.87570068,0.00077218
5992.80450806,0.00067173
5994.73331543,0.00077082
5996.66212280,0.00083766
5998.59093018,0.00072669
6000.51973755,0.00078635
