399.26312622,0.00049440
401.19193359,0.00063420
403.12074097,0.00110955
405.04954834,0.00114147
406.97835571,0.00064414
408.90716309,0.00063253
410.83597046,0.00079487
412.76477783,0.00072186
414.69358521,0.00118838
416.62239258,0.00111541
418.55119995,0.00082754
420.48000732,0.00093833
422.40881470,0.00116423
424.33762207,0.00116520
426.26642944,0.00089727
428.19523682,0.00114753
430.12404419,0.00112419
432.05285156,0.00106255
433.98165894,0.00119183
435.91046631,0.00101966
437.83927368,0.00066301
439.76808105,0.00033652
441.69688843,0.00063424
443.62569580,0.00093340
445.55450317,0.00087913
447.48331055,0.00056843
449.41211792,0.00070973
451.34092529,0.00082852
453.26973267,0.00063976
455.19854004,0.00097329
457.12734741,0.00043695
459.05615479,0.00041522
460.98496216,0.00079828
462.91376953,0.00051880
464.84257690,0.00084069
466.77138428,0.00038989
468.70019165,0.00003313
470.62899902,0.00010849
472.55780640,0.00038156
474.48661377,0.00083983
476.41542114,0.00030483
478.34422852,0.00022843
480.27303589,0.00008436
482.20184326,-0.00013920
484.13065063,0.00018826
486.05945801,0.00016129
487.98826538,0.00007674
489.91707275,0.00016422
491.84588013,0.00056607
493.77468750,0.00028111
495.70349487,-0.00004166
497.63230225,0.00018729
499.56110962,-0.00003352
501.48991699,0.00023333
503.41872437,0.00040756
505.34753174,0.00014717
507.27633911,0.00031838
509.20514648,0.00002432
511.13395386,-0.00021123
513.06276123,0.00022041
514.99156860,0.00013619
516.92037598,-0.00000926
518.84918335,0.00014224
520.77799072,0.00012470
522.70679810,0.00037775
524.63560547,0.00027102
526.56441284,0.00005454
528.49322021,0.00028565
530.42202759,0.00007730
532.35083496,0.00001548
534.27964233,0.00018655
536.20844971,-0.00009794
538.13725708,-0.00022233
540.06606445,0.00020295
541.99487183,0.00026254
543.92367920,0.00024626
545.85248657,0.00039026
547.78129395,0.00011621
549.71010132,0.00024697
551.63890869,0.00016770
553.56771606,-0.00001313
555.49652344,0.00021347
557.42533081,-0.00002144
559.35413818,-0.00025687
561.28294556,0.00001162
563.21175293,-0.00000228
565.14056030,-0.00005259
567.06936768,0.00026197
568.99817505,0.00012750
570.92698242,0.00007215
572.85578979,0.00031147
574.78459717,0.00027233
576.71340454,0.00020966
578.64221191,0.00024389
580.57101929,-0.00004184
582.49982666,-0.00004195
584.42863403,0.00018579
586.35744141,0.00004598
588.28624878,-0.00005396
590.21505615,-0.00022409
592.14386353,0.00014018
594.07267090,0.00035356
596.00147827,0.00012957
597.93028564,0.00024562
599.85909302,0.00025272
601.78790039,0.00045342
603.71670776,0.00013413
605.64551514,-0.00033356
607.57432251,0.00000686
609.50312988,0.00002145
611.43193726,-0.00010407
613.36074463,0.00009819
615.28955200,0.00007056
617.21835938,0.00041677
619.14716675,0.00051834
621.07597412,-0.00005728
623.00478149,0.00038929
624.93358887,0.00009534
626.86239624,-0.00028182
628.79120361,0.00025141
630.72001099,-0.00038182
632.64881836,0.00037295
634.57762573,0.00107813
636.50643311,0.00057709
638.43524048,0.00098332
640.36404785,0.00067648
642.29285522,0.00083653
644.22166260,0.00111932
646.15046997,0.00086767
648.07927734,0.00129528
650.00808472,0.00128776
651.93689209,0.00143677
653.86569946,0.00169933
655.79450684,0.00149948
657.72331421,0.00133858
659.65212158,0.00119482
661.58092896,0.00141904
663.50973633,0.00153292
665.43854370,0.00132479
667.36735107,0.00146765
669.29615845,0.00156600
671.22496582,0.00187439
673.15377319,0.00230419
675.08258057,0.00202342
677.01138794,0.00200036
678.94019531,0.00208917
680.86900269,0.00213182
682.79781006,0.00227710
684.72661743,0.00198156
686.65542480,0.00208372
688.58423218,0.00217607
690.51303955,0.00220207
692.44184692,0.00226597
694.37065430,0.00226659
696.29946167,0.00287748
698.22826904,0.00307714
700.15707642,0.00311115
702.08588379,0.00324008
704.01469116,0.00285085
705.94349854,0.00257885
707.87230591,0.00231116
709.80111328,0.00175059
711.72992065,0.00123556
713.65872803,0.00070899
715.58753540,0.00029005
717.51634277,0.00033668
719.44515015,0.00039768
721.37395752,0.00052769
723.30276489,0.00019185
725.23157227,-0.00011421
727.16037964,0.00024871
729.08918701,0.00000837
731.01799438,0.00029339
732.94680176,0.00037055
734.87560913,-0.00002252
736.80441650,0.00024454
738.73322388,0.00011416
740.66203125,0.00018665
742.59083862,-0.00000268
744.51964600,-0.00007291
746.44845337,0.00021289
748.37726074,0.00033534
750.30606812,0.00040569
752.23487549,-0.00013564
754.16368286,0.00004190
756.09249023,0.00021838
758.02129761,0.00011854
759.95010498,0.00040772
761.87891235,0.00005385
763.80771973,0.00007510
765.73652710,0.00031065
767.66533447,0.00005899
769.59414185,0.00025625
771.52294922,0.00047378
773.45175659,0.00024645
775.38056396,0.00019604
777.30937134,0.00012681
779.23817871,0.00015637
781.16698608,0.00041215
783.09579346,0.00021940
785.02460083,0.00034375
786.95340820,0.00046854
788.88221558,-0.00001095
790.81102295,0.00010293
792.73983032,0.00029405
794.66863770,0.00027465
796.59744507,0.00058460
798.52625244,0.00075144
800.45505981,0.00069649
802.38386719,0.00037545
804.31267456,0.00028135
806.24148193,0.00052781
808.17028931,0.00021954
810.09909668,0.00010995
812.02790405,0.00035130
813.95671143,0.00025893
815.88551880,0.00031576
817.81432617,0.00038549
819.74313354,0.00017773
821.67194092,0.00010567
823.60074829,0.00042766
825.52955566,0.00045915
827.45836304,0.00021131
829.38717041,0.00031645
831.31597778,0.00043680
833.24478516,0.00066457
835.17359253,0.00097867
837.10239990,0.00088760
839.03120728,0.00065413
840.96001465,0.00071537
842.88882202,0.00072460
844.81762939,0.00061463
846.74643677,0.00079044
848.67524414,0.00071427
850.60405151,0.00059222
852.53285889,0.00063421
854.46166626,0.00056047
856.39047363,0.00040742
858.31928101,0.00014755
860.24808838,0.00035826
862.17689575,0.00038038
864.10570313,0.00043922
866.03451050,0.00063189
867.96331787,0.00028007
869.89212524,0.00042293
871.82093262,0.00055288
873.74973999,0.00034798
875.67854736,0.00019284
877.60735474,0.00026769
879.53616211,0.00049523
881.46496948,0.00031029
883.39377686,0.00033001
885.32258423,0.00041869
887.25139160,0.00022381
889.18019897,0.00013081
891.10900635,0.00023244
893.03781372,0.00034169
894.96662109,0.00036809
896.89542847,0.00024876
898.82423584,0.00028161
900.75304321,0.00047950
902.68185059,0.00061391
904.61065796,0.00059341
906.53946533,0.00028915
908.46827271,0.00061066
910.39708008,0.00057692
912.32588745,0.00020097
914.25469482,0.00056614
916.18350220,0.00044558
918.11230957,0.00070677
920.04111694,0.00093370
921.96992432,0.00066430
923.89873169,0.00074631
925.82753906,0.00069691
927.75634644,0.00086890
929.68515381,0.00086246
931.61396118,0.00091828
933.54276855,0.00107949
935.47157593,0.00110121
937.40038330,0.00117233
939.32919067,0.00105201
941.25799805,0.00117650
943.18680542,0.00098596
945.11561279,0.00105358
947.04442017,0.00123183
948.97322754,0.00094462
950.90203491,0.00122846
952.83084229,0.00126047
954.75964966,0.00102318
956.68845703,0.00116617
958.61726440,0.00120665
960.54607178,0.00103702
962.47487915,0.00124495
964.40368652,0.00139045
966.33249390,0.00097396
968.26130127,0.00101152
970.19010864,0.00123923
972.11891602,0.00132484
974.04772339,0.00141922
975.97653076,0.00148894
977.90533813,0.00159077
979.83414551,0.00175686
981.76295288,0.00195843
983.69176025,0.00195965
985.62056763,0.00235414
987.54937500,0.00265393
989.47818237,0.00276586
991.40698975,0.00318135
993.33579712,0.00340654
995.26460449,0.00382628
997.19341187,0.00417339
999.12221924,0.00428926
1001.05102661,0.00456553
1002.97983398,0.00491283
1004.90864136,0.00527911
1006.83744873,0.00562573
1008.76625610,0.00579681
1010.69506348,0.00611372
1012.62387085,0.00687727
1014.55267822,0.00707468
1016.48148560,0.00727475
1018.41029297,0.00793326
1020.33910034,0.00824286
1022.26790771,0.00849676
1024.19671509,0.00865468
1026.12552246,0.00894285
1028.05432983,0.00937262
1029.98313721,0.00973810
1031.91194458,0.00991739
1033.84075195,0.00992075
1035.76955933,0.01016166
1037.69836670,0.01035207
1039.62717407,0.01034351
1041.55598145,0.01030400
1043.48478882,0.01016187
1045.41359619,0.00978504
1047.34240356,0.00999217
1049.27121094,0.01011092
1051.20001831,0.00956110
1053.12882568,0.00955956
1055.05763306,0.00922355
1056.98644043,0.00899778
1058.91524780,0.00914164
1060.84405518,0.00875097
1062.77286255,0.00844933
1064.70166992,0.00815540
1066.63047729,0.00806440
1068.55928467,0.00759949
1070.48809204,0.00692888
1072.41689941,0.00681591
1074.34570679,0.00656679
1076.27451416,0.00625772
1078.20332153,0.00600456
1080.13212891,0.00590236
1082.06093628,0.00554807
1083.98974365,0.00528048
1085.91855103,0.00540689
1087.84735840,0.00473329
1089.77616577,0.00443574
1091.70497314,0.00462773
1093.63378052,0.00406029
1095.56258789,0.00394115
1097.49139526,0.00393771
1099.42020264,0.00373891
1101.34901001,0.00386127
1103.27781738,0.00366522
1105.20662476,0.00358591
1107.13543213,0.00347898
1109.06423950,0.00338105
1110.99304687,0.00358238
1112.92185425,0.00349679
1114.85066162,0.00339690
1116.77946899,0.00338652
1118.70827637,0.00337799
1120.63708374,0.00330203
1122.56589111,0.00345204
1124.49469849,0.00343932
1126.42350586,0.00341968
1128.35231323,0.00383388
1130.28112061,0.00356861
1132.20992798,0.00368656
1134.13873535,0.00405991
1136.06754272,0.00396669
1137.99635010,0.00418737
1139.92515747,0.00439075
1141.85396484,0.00483303
1143.78277222,0.00500779
1145.71157959,0.00524600
1147.64038696,0.00566465
1149.56919434,0.00591798
1151.49800171,0.00640957
1153.42680908,0.00654851
1155.35561646,0.00706835
1157.28442383,0.00734694
1159.21323120,0.00732279
1161.14203857,0.00779295
1163.07084595,0.00786876
1164.99965332,0.00826623
1166.92846069,0.00867283
1168.85726807,0.00871705
1170.78607544,0.00902635
1172.71488281,0.00950632
1174.64369019,0.01002063
1176.57249756,0.01022630
1178.50130493,0.01062669
1180.43011230,0.01116474
1182.35891968,0.01144345
1184.28772705,0.01201195
1186.21653442,0.01273315
1188.14534180,0.01317962
1190.07414917,0.01364456
1192.00295654,0.01431298
1193.93176392,0.01494422
1195.86057129,0.01551481
1197.78937866,0.01623352
1199.71818604,0.01726655
1201.64699341,0.01822274
1203.57580078,0.01867865
1205.50460815,0.01914484
1207.43341553,0.01996534
1209.36222290,0.02073960
1211.29103027,0.02135627
1213.21983765,0.02189953
1215.14864502,0.02247906
1217.07745239,0.02294832
1219.00625977,0.02315101
1220.93506714,0.02353569
1222.86387451,0.02382822
1224.79268188,0.02389993
1226.72148926,0.02414793
1228.65029663,0.02442965
1230.57910400,0.02451500
1232.50791138,0.02451167
1234.43671875,0.02465833
1236.36552612,0.02462930
1238.29433350,0.02462644
1240.22314087,0.02446903
1242.15194824,0.02418417
1244.08075562,0.02425558
1246.00956299,0.02393754
1247.93837036,0.02376697
1249.86717773,0.02390541
1251.79598511,0.02367786
1253.72479248,0.02341370
1255.65359985,0.02325294
1257.58240723,0.02286969
1259.51121460,0.02237090
1261.44002197,0.02232352
1263.36882935,0.02195654
1265.29763672,0.02144160
1267.22644409,0.02131845
1269.15525146,0.02106747
1271.08405884,0.02070110
1273.01286621,0.02023709
1274.94167358,0.02001867
1276.87048096,0.01958981
1278.79928833,0.01905957
1280.72809570,0.01885137
1282.65690308,0.01855324
1284.58571045,0.01828589
1286.51451782,0.01794622
1288.44332520,0.01754198
1290.37213257,0.01721772
1292.30093994,0.01721000
1294.22974731,0.01699100
1296.15855469,0.01682077
1298.08736206,0.01712145
1300.01616943,0.01708912
1301.94497681,0.01712498
1303.87378418,0.01711638
1305.80259155,0.01731492
1307.73139893,0.01767324
1309.66020630,0.01786607
1311.58901367,0.01828324
1313.51782104,0.01836419
1315.44662842,0.01879818
1317.37543579,0.01926774
1319.30424316,0.01953716
1321.23305054,0.02048143
1323.16185791,0.02121179
1325.09066528,0.02160000
1327.01947266,0.02215338
1328.94828003,0.02274693
1330.87708740,0.02330245
1332.80589478,0.02401657
1334.73470215,0.02447129
1336.66350952,0.02430857
1338.59231689,0.02398765
1340.52112427,0.02449600
1342.44993164,0.02561080
1344.37873901,0.02574142
1346.30754639,0.02579343
1348.23635376,0.02575203
1350.16516113,0.02533701
1352.09396851,0.02542508
1354.02277588,0.02507912
1355.95158325,0.02477503
1357.88039062,0.02481007
1359.80919800,0.02458842
1361.73800537,0.02316367
1363.66681274,0.02284047
1365.59562012,0.02444785
1367.52442749,0.02345940
1369.45323486,0.02330235
1371.38204224,0.02382451
1373.31084961,0.02206994
1375.23965698,0.02250533
1377.16846436,0.02315504
1379.09727173,0.02319955
1381.02607910,0.02346318
1382.95488647,0.02319027
1384.88369385,0.02312449
1386.81250122,0.02179041
1388.74130859,0.02219518
1390.67011597,0.02450412
1392.59892334,0.02358033
1394.52773071,0.02195634
1396.45653809,0.02337283
1398.38534546,0.02305817
1400.31415283,0.02294536
1402.24296021,0.02505502
1404.17176758,0.02332731
1406.10057495,0.02368705
1408.02938232,0.02495791
1409.95818970,0.02386364
1411.88699707,0.02432697
1413.81580444,0.02337920
1415.74461182,0.02375616
1417.67341919,0.02107364
1419.60222656,0.01868484
1421.53103394,0.02204378
1423.45984131,0.02126216
1425.38864868,0.02081759
1427.31745605,0.02132899
1429.24626343,0.01948096
1431.17507080,0.01890947
1433.10387817,0.01940584
1435.03268555,0.01778405
1436.96149292,0.01464111
1438.89030029,0.01687852
1440.81910767,0.01763455
1442.74791504,0.01609724
1444.67672241,0.01701127
1446.60552979,0.01551067
1448.53433716,0.01572551
1450.46314453,0.01631532
1452.39195190,0.01658771
1454.32075928,0.01724560
1456.24956665,0.01367471
1458.17837402,0.01432324
1460.10718140,0.01982293
1462.03598877,0.02107377
1463.96479614,0.02061647
1465.89360352,0.02141671
1467.82241089,0.02497366
1469.75121826,0.02671537
1471.68002563,0.02302290
1473.60883301,0.02426464
1475.53764038,0.02784334
1477.46644775,0.03032560
1479.39525513,0.03357435
1481.32406250,0.03373752
1483.25286987,0.03608061
1485.18167725,0.03688295
1487.11048462,0.03582330
1489.03929199,0.03540511
1490.96809937,0.03561883
1492.89690674,0.04259361
1494.82571411,0.04096056
1496.75452148,0.03612012
1498.68332886,0.04157024
1500.61213623,0.04268540
1502.54094360,0.04653855
1504.46975098,0.04320946
1506.39855835,0.02940339
1508.32736572,0.03750883
1510.25617310,0.04500807
1512.18498047,0.04369892
1514.11378784,0.04768278
1516.04259521,0.04206590
1517.97140259,0.04425099
1519.90020996,0.04229658
1521.82901733,0.03576346
1523.75782471,0.04517594
1525.68663208,0.04419683
1527.61543945,0.04432670
1529.54424683,0.04977575
1531.47305420,0.04738051
1533.40186157,0.04273951
1535.33066895,0.04622725
1537.25947632,0.04987897
1539.18828369,0.03329035
1541.11709106,0.03545725
1543.04589844,0.04386289
1544.97470581,0.04171031
1546.90351318,0.05083207
1548.83232056,0.04664855
1550.76112793,0.04852686
1552.68993530,0.04839658
1554.61874268,0.04313000
1556.54755005,0.04658132
1558.47635742,0.03051748
1560.40516479,0.03396187
1562.33397217,0.05156070
1564.26277954,0.04800083
1566.19158691,0.04974503
1568.12039429,0.04890364
1570.04920166,0.04240146
1571.97800903,0.05055101
1573.90681641,0.05097388
1575.83562378,0.03898429
1577.76443115,0.04502057
1579.69323853,0.05177876
1581.62204590,0.04949498
1583.55085327,0.05067983
1585.47966064,0.04994017
1587.40846802,0.05039545
1589.33727539,0.04993046
1591.26608276,0.04992824
1593.19489014,0.04986136
1595.12369751,0.04942789
1597.05250488,0.05011909
1598.98131226,0.04977135
1600.91011963,0.05002327
1602.83892700,0.04897820
1604.76773437,0.05017930
1606.69654175,0.04912382
1608.62534912,0.04880449
1610.55415649,0.04886604
1612.48296387,0.04965090
1614.41177124,0.05007530
1616.34057861,0.03949194
1618.26938599,0.04401107
1620.19819336,0.05214615
1622.12700073,0.04534301
1624.05580811,0.04548244
1625.98461548,0.04808465
1627.91342285,0.04780164
1629.84223022,0.04749735
1631.77103760,0.05140231
1633.69984497,0.04635655
1635.62865234,0.03691145
1637.55745972,0.04458486
1639.48626709,0.04987380
1641.41507446,0.04850218
1643.34388184,0.04997937
1645.27268921,0.04411212
1647.20149658,0.03771910
1649.13030396,0.04896677
1651.05911133,0.04582873
1652.98791870,0.02702837
1654.91672607,0.03949682
1656.84553345,0.05119578
1658.77434082,0.04883830
1660.70314819,0.05010015
1662.63195557,0.04478418
1664.56076294,0.04801541
1666.48957031,0.05212579
1668.41837769,0.04412311
1670.34718506,0.04268661
1672.27599243,0.04970422
1674.20479980,0.04502233
1676.13360718,0.04318985
1678.06241455,0.05100548
1679.99122192,0.04869831
1681.92002930,0.04776978
1683.84883667,0.03730397
1685.77764404,0.03759546
1687.70645142,0.05374542
1689.63525879,0.04557443
1691.56406616,0.05134165
1693.49287354,0.05183082
1695.42168091,0.03600422
1697.35048828,0.04628732
1699.27929565,0.03936430
1701.20810303,0.03502358
1703.13691040,0.05030768
1705.06571777,0.04518891
1706.99452515,0.04591291
1708.92333252,0.05064717
1710.85213989,0.04850215
1712.78094727,0.04944275
1714.70975464,0.04500110
1716.63856201,0.03991294
1718.56736938,0.03915013
1720.49617676,0.04783494
1722.42498413,0.05022932
1724.35379150,0.04587486
1726.28259888,0.05071766
1728.21140625,0.04632838
1730.14021362,0.04657199
1732.06902100,0.04510266
1733.99782837,0.03292810
1735.92663574,0.04307735
1737.85544312,0.04790589
1739.78425049,0.04196900
1741.71305786,0.04629168
1743.64186523,0.04667299
1745.57067261,0.04692312
1747.49947998,0.04720417
1749.42828735,0.04460902
1751.35709473,0.04227821
1753.28590210,0.04805816
1755.21470947,0.05036186
1757.14351685,0.04525051
1759.07232422,0.05100482
1761.00113159,0.04674111
1762.92993896,0.04516257
1764.85874634,0.05294475
1766.78755371,0.04640195
1768.71636108,0.04723420
1770.64516846,0.04651387
1772.57397583,0.04109807
1774.50278320,0.04705094
1776.43159058,0.04998892
1778.36039795,0.04927812
1780.28920532,0.04839849
1782.21801270,0.04892114
1784.14682007,0.04891602
1786.07562744,0.04782327
1788.00443481,0.05086594
1789.93324219,0.04904881
1791.86204956,0.04342486
1793.79085693,0.04603876
1795.71966431,0.04988182
1797.64847168,0.04904965
1799.57727905,0.04824152
1801.50608643,0.04707829
1803.43489380,0.04918639
1805.36370117,0.05036634
1807.29250854,0.04954795
1809.22131592,0.04981140
1811.15012329,0.04809837
1813.07893066,0.05009376
1815.00773804,0.05012525
1816.93654541,0.04953942
1818.86535278,0.05016085
1820.79416016,0.04977145
1822.72296753,0.05063710
1824.65177490,0.04654945
1826.58058228,0.04875182
1828.50938965,0.04875410
1830.43819702,0.04512156
1832.36700439,0.05016832
1834.29581177,0.04966817
1836.22461914,0.04955057
1838.15342651,0.04943489
1840.08223389,0.04976106
1842.01104126,0.04955703
1843.93984863,0.04311734
1845.86865601,0.04677881
1847.79746338,0.04972209
1849.72627075,0.04848763
1851.65507812,0.05015849
1853.58388550,0.04907073
1855.51269287,0.04966584
1857.44150024,0.04923495
1859.37030762,0.04889454
1861.29911499,0.04936736
1863.22792236,0.04866266
1865.15672974,0.04914195
1867.08553711,0.04733969
1869.01434448,0.04493879
1870.94315186,0.04701065
1872.87195923,0.04927997
1874.80076660,0.04830112
1876.72957397,0.04862013
1878.65838135,0.04838866
1880.58718872,0.04811219
1882.51599609,0.04876529
1884.44480347,0.04774501
1886.37361084,0.04857149
1888.30241821,0.04742491
1890.23122559,0.04620281
1892.16003296,0.04821445
1894.08884033,0.04748965
1896.01764771,0.04723649
1897.94645508,0.04802500
1899.87526245,0.04777845
1901.80406982,0.04772096
1903.73287720,0.04737777
1905.66168457,0.04776762
1907.59049194,0.04714506
1909.51929932,0.04675880
1911.44810669,0.04721757
1913.37691406,0.04720244
1915.30572144,0.04756087
1917.23452881,0.04510289
1919.16333618,0.04534262
1921.09214355,0.04739081
1923.02095093,0.04551485
1924.94975830,0.04680002
1926.87856567,0.04738937
1928.80737305,0.04669314
1930.73618042,0.04726925
1932.66498779,0.04635438
1934.59379517,0.04708714
1936.52260254,0.04673236
1938.45140991,0.04673903
1940.38021729,0.04659034
1942.30902466,0.04486168
1944.23783203,0.04597749
1946.16663940,0.04655254
1948.09544678,0.04654303
1950.02425415,0.04679082
1951.95306152,0.04653869
1953.88186890,0.04648018
1955.81067627,0.04634777
1957.73948364,0.04655425
1959.66829102,0.04625057
1961.59709839,0.04623466
1963.52590576,0.04646327
1965.45471313,0.04605939
1967.38352051,0.04561692
1969.31232788,0.04611367
1971.24113525,0.04637404
1973.16994263,0.04599331
1975.09875000,0.04626543
1977.02755737,0.04601429
1978.95636475,0.04606413
1980.88517212,0.04593311
1982.81397949,0.04572409
1984.74278687,0.04610469
1986.67159424,0.04567067
1988.60040161,0.04570295
1990.52920898,0.04518782
1992.45801636,0.04452895
1994.38682373,0.04528747
1996.31563110,0.04554001
1998.24443848,0.04519672
2000.17324585,0.04520176
2002.10205322,0.04513280
2004.03086060,0.04509532
2005.95966797,0.04516662
2007.88847534,0.04480102
2009.81728271,0.04476237
2011.74609009,0.04468397
2013.67489746,0.04458892
2015.60370483,0.04445553
2017.53251221,0.04392890
2019.46131958,0.04426164
2021.39012695,0.04427957
2023.31893433,0.04403327
2025.24774170,0.04407737
2027.17654907,0.04392968
2029.10535645,0.04388845
2031.03416382,0.04369746
2032.96297119,0.04365253
2034.89177856,0.04347523
2036.82058594,0.04346638
2038.74939331,0.04336670
2040.67820068,0.04298013
2042.60700806,0.04305263
2044.53581543,0.04304095
2046.46462280,0.04298346
2048.39343018,0.04293996
2050.32223755,0.04285228
2052.25104492,0.04273952
2054.17985229,0.04266092
2056.10865967,0.04262216
2058.03746704,0.04247738
2059.96627441,0.04237508
2061.89508179,0.04234318
2063.82388916,0.04223450
2065.75269653,0.04197443
2067.68150391,0.04210492
2069.61031128,0.04214671
2071.53911865,0.04191625
2073.46792603,0.04182585
2075.39673340,0.04173653
2077.32554077,0.04168371
2079.25434814,0.04153432
2081.18315552,0.04162007
2083.11196289,0.04154893
2085.04077026,0.04141667
2086.96957764,0.04138396
2088.89838501,0.04110660
2090.82719238,0.04107712
2092.75599976,0.04112742
2094.68480713,0.04111731
2096.61361450,0.04088263
2098.54242187,0.04074883
2100.47122925,0.04080083
2102.40003662,0.04073702
2104.32884399,0.04066610
2106.25765137,0.04049046
2108.18645874,0.04050299
2110.11526611,0.04057238
2112.04407349,0.04059804
2113.97288086,0.04036182
2115.90168823,0.04021298
2117.83049561,0.04024230
2119.75930298,0.04008022
2121.68811035,0.04009183
2123.61691772,0.03992669
2125.54572510,0.03995540
2127.47453247,0.04000397
2129.40333984,0.03985359
2131.33214722,0.03983035
2133.26095459,0.03972230
2135.18976196,0.03969408
2137.11856934,0.03963248
2139.04737671,0.03972809
2140.97618408,0.03961910
2142.90499146,0.03954595
2144.83379883,0.03960611
2146.76260620,0.03945223
2148.69141357,0.03940577
2150.62022095,0.03924287
2152.54902832,0.03938157
2154.47783569,0.03925091
2156.40664307,0.03903341
2158.33545044,0.03912037
2160.26425781,0.03900395
2162.19306519,0.03917362
2164.12187256,0.03901014
2166.05067993,0.03884164
2167.97948730,0.03891211
2169.90829468,0.03880088
2171.83710205,0.03885907
2173.76590942,0.03874016
2175.69471680,0.03862274
2177.62352417,0.03867970
2179.55233154,0.03853685
2181.48113892,0.03850109
2183.40994629,0.03866720
2185.33875366,0.03838587
2187.26756104,0.03831554
2189.19636841,0.03843815
2191.12517578,0.03821387
2193.05398315,0.03833912
2194.98279053,0.03826118
2196.91159790,0.03817837
2198.84040527,0.03826150
2200.76921265,0.03808074
2202.69802002,0.03803721
2204.62682739,0.03800486
2206.55563477,0.03797007
2208.48444214,0.03786327
2210.41324951,0.03788021
2212.34205688,0.03782486
2214.27086426,0.03766574
2216.19967163,0.03779476
2218.12847900,0.03772624
2220.05728638,0.03759253
2221.98609375,0.03755603
2223.91490112,0.03753289
2225.84370850,0.03746584
2227.77251587,0.03727781
2229.70132324,0.03722338
2231.63013062,0.03733533
2233.55893799,0.03734629
2235.48774536,0.03714585
2237.41655273,0.03715086
2239.34536011,0.03713620
2241.27416748,0.03700243
2243.20297485,0.03709782
2245.13178223,0.03692731
2247.06058960,0.03671071
2248.98939697,0.03675553
2250.91820435,0.03669758
2252.84701172,0.03670089
2254.77581909,0.03664954
2256.70462646,0.03657878
2258.63343384,0.03660382
2260.56224121,0.03648350
2262.49104858,0.03646060
2264.41985596,0.03642315
2266.34866333,0.03634916
2268.27747070,0.03628031
2270.20627808,0.03621051
2272.13508545,0.03629286
2274.06389282,0.03620190
2275.99270020,0.03614485
2277.92150757,0.03609546
2279.85031494,0.03603015
2281.77912231,0.03604979
2283.70792969,0.03595015
2285.63673706,0.03592438
2287.56554443,0.03577583
2289.49435181,0.03568978
2291.42315918,0.03571559
2293.35196655,0.03555736
2295.28077393,0.03541912
2297.20958130,0.03544883
2299.13838867,0.03541260
2301.06719604,0.03520105
2302.99600342,0.03504459
2304.92481079,0.03475396
2306.85361816,0.03460500
2308.78242554,0.03444484
2310.71123291,0.03410805
2312.64004028,0.03376234
2314.56884766,0.03333092
2316.49765503,0.03316443
2318.42646240,0.03275817
2320.35526978,0.03230975
2322.28407715,0.03180166
2324.21288452,0.03140411
2326.14169189,0.03132922
2328.07049927,0.03072320
2329.99930664,0.03052282
2331.92811401,0.03033601
2333.85692139,0.03002391
2335.78572876,0.03007280
2337.71453613,0.02987108
2339.64334351,0.02990295
2341.57215088,0.03007152
2343.50095825,0.03052717
2345.42976562,0.03111178
2347.35857300,0.03221231
2349.28738037,0.03312314
2351.21618774,0.03200265
2353.14499512,0.03052870
2355.07380249,0.02947506
2357.00260986,0.02863209
2358.93141724,0.02827103
2360.86022461,0.02796002
2362.78903198,0.02784923
2364.71783936,0.02790545
2366.64664673,0.02820395
2368.57545410,0.02876443
2370.50426147,0.02954132
2372.43306885,0.03030350
2374.36187622,0.03095626
2376.29068359,0.03180783
2378.21949097,0.03243600
2380.14829834,0.03284493
2382.07710571,0.03328668
2384.00591309,0.03340026
2385.93472046,0.03343144
2387.86352783,0.03351148
2389.79233521,0.03343144
2391.72114258,0.03349430
2393.64994995,0.03338277
2395.57875732,0.03325915
2397.50756470,0.03333127
2399.43637207,0.03315606
2401.36517944,0.03320342
2403.29398682,0.03320791
2405.22279419,0.03305306
2407.15160156,0.03312383
2409.08040894,0.03315917
2411.00921631,0.03312703
2412.93802368,0.03295176
2414.86683105,0.03281078
2416.79563843,0.03281042
2418.72444580,0.03278832
2420.65325317,0.03268353
2422.58206055,0.03266668
2424.51086792,0.03270587
2426.43967529,0.03262565
2428.36848267,0.03255928
2430.29729004,0.03247735
2432.22609741,0.03251636
2434.15490479,0.03249945
2436.08371216,0.03243230
2438.01251953,0.03242692
2439.94132690,0.03230985
2441.87013428,0.03229760
2443.79894165,0.03217151
2445.72774902,0.03202357
2447.65655640,0.03203714
2449.58536377,0.03199486
2451.51417114,0.03207685
2453.44297852,0.03209075
2455.37178589,0.03190740
2457.30059326,0.03199439
2459.22940063,0.03205315
2461.15820801,0.03186423
2463.08701538,0.03181478
2465.01582275,0.03172032
2466.94463013,0.03171338
2468.87343750,0.03168247
2470.80224487,0.03160560
2472.73105225,0.03161956
2474.65985962,0.03154081
2476.58866699,0.03164719
2478.51747437,0.03156530
2480.44628174,0.03151972
2482.37508911,0.03149388
2484.30389648,0.03127893
2486.23270386,0.03127745
2488.16151123,0.03120420
2490.09031860,0.03133454
2492.01912598,0.03121026
2493.94793335,0.03101652
2495.87674072,0.03117741
2497.80554810,0.03103965
2499.73435547,0.03101458
2501.66316284,0.03099852
2503.59197021,0.03092939
2505.52077759,0.03091798
2507.44958496,0.03088265
2509.37839233,0.03091449
2511.30719971,0.03083345
2513.23600708,0.03070140
2515.16481445,0.03065414
2517.09362183,0.03075746
2519.02242920,0.03063396
2520.95123657,0.03049840
2522.88004395,0.03057844
2524.80885132,0.03053106
2526.73765869,0.03041458
2528.66646606,0.03040646
2530.59527344,0.03043414
2532.52408081,0.03029947
2534.45288818,0.03035841
2536.38169556,0.03034274
2538.31050293,0.03024168
2540.23931030,0.03019620
2542.16811768,0.03007144
2544.09692505,0.03021373
2546.02573242,0.03000334
2547.95453979,0.02989344
2549.88334717,0.03005248
2551.81215454,0.02989350
2553.74096191,0.02992814
2555.66976929,0.02986509
2557.59857666,0.02982182
2559.52738403,0.02992243
2561.45619141,0.02979381
2563.38499878,0.02965604
2565.31380615,0.02968515
2567.24261353,0.02969413
2569.17142090,0.02950562
2571.10022827,0.02947116
2573.02903564,0.02961286
2574.95784302,0.02953182
2576.88665039,0.02930814
2578.81545776,0.02936752
2580.74426514,0.02934973
2582.67307251,0.02911201
2584.60187988,0.02921936
2586.53068726,0.02927137
2588.45949463,0.02913220
2590.38830200,0.02911745
2592.31710937,0.02900440
2594.24591675,0.02894239
2596.17472412,0.02907605
2598.10353149,0.02897222
2600.03233887,0.02888641
2601.96114624,0.02901971
2603.88995361,0.02888099
2605.81876099,0.02875550
2607.74756836,0.02872076
2609.67637573,0.02863836
2611.60518311,0.02864847
2613.53399048,0.02861890
2615.46279785,0.02859996
2617.39160522,0.02860435
2619.32041260,0.02848285
2621.24921997,0.02843120
2623.17802734,0.02854521
2625.10683472,0.02834193
2627.03564209,0.02819987
2628.96444946,0.02830211
2630.89325684,0.02825501
2632.82206421,0.02825447
2634.75087158,0.02811915
2636.67967895,0.02808356
2638.60848633,0.02809387
2640.53729370,0.02799583
2642.46610107,0.02795248
2644.39490845,0.02785761
2646.32371582,0.02793232
2648.25252319,0.02785563
2650.18133057,0.02774078
2652.11013794,0.02775988
2654.03894531,0.02778674
2655.96775269,0.02780612
2657.89656006,0.02764875
2659.82536743,0.02763471
2661.75417480,0.02766911
2663.68298218,0.02765908
2665.61178955,0.02749545
2667.54059692,0.02737155
2669.46940430,0.02748484
2671.39821167,0.02736363
2673.32701904,0.02732708
2675.25582642,0.02737518
2677.18463379,0.02728083
2679.11344116,0.02725124
2681.04224854,0.02719473
2682.97105591,0.02708113
2684.89986328,0.02713512
2686.82867065,0.02715912
2688.75747803,0.02699462
2690.68628540,0.02703063
2692.61509277,0.02694968
2694.54390015,0.02682293
2696.47270752,0.02686338
2698.40151489,0.02679786
2700.33032227,0.02678490
2702.25912964,0.02669897
2704.18793701,0.02664719
2706.11674438,0.02665503
2708.04555176,0.02660692
2709.97435913,0.02661826
2711.90316650,0.02657630
2713.83197388,0.02650797
2715.76078125,0.02649160
2717.68958862,0.02648072
2719.61839600,0.02647849
2721.54720337,0.02643178
2723.47601074,0.02618110
2725.40481812,0.02618339
2727.33362549,0.02637646
2729.26243286,0.02627709
2731.19124023,0.02618485
2733.12004761,0.02614646
2735.04885498,0.02610963
2736.97766235,0.02596054
2738.90646973,0.02593896
2740.83527710,0.02603644
2742.76408447,0.02589123
2744.69289185,0.02582798
2746.62169922,0.02579394
2748.55050659,0.02577224
2750.47931396,0.02574264
2752.40812134,0.02570097
2754.33692871,0.02568709
2756.26573608,0.02554705
2758.19454346,0.02551148
2760.12335083,0.02553106
2762.05215820,0.02550290
2763.98096558,0.02538338
2765.90977295,0.02533629
2767.83858032,0.02535553
2769.76738770,0.02525876
2771.69619507,0.02521523
2773.62500244,0.02508290
2775.55380981,0.02510910
2777.48261719,0.02525460
2779.41142456,0.02511507
2781.34023193,0.02500319
2783.26903931,0.02495172
2785.19784668,0.02485480
2787.12665405,0.02489976
2789.05546143,0.02488353
2790.98426880,0.02476980
2792.91307617,0.02478153
2794.84188354,0.02466525
2796.77069092,0.02458030
2798.69949829,0.02455356
2800.62830566,0.02447415
2802.55711304,0.02453060
2804.48592041,0.02447420
2806.41472778,0.02441866
2808.34353516,0.02433624
2810.27234253,0.02434155
2812.20114990,0.02436136
2814.12995728,0.02414960
2816.05876465,0.02420248
2817.98757202,0.02415016
2819.91637939,0.02404102
2821.84518677,0.02406030
2823.77399414,0.02390539
2825.70280151,0.02391287
2827.63160889,0.02390296
2829.56041626,0.02381682
2831.48922363,0.02377610
2833.41803101,0.02374852
2835.34683838,0.02367466
2837.27564575,0.02351380
2839.20445312,0.02354800
2841.13326050,0.02354465
2843.06206787,0.02339614
2844.99087524,0.02333515
2846.91968262,0.02322126
2848.84848999,0.02308932
2850.77729736,0.02302624
2852.70610474,0.02287057
2854.63491211,0.02287207
2856.56371948,0.02297851
2858.49252686,0.02287010
2860.42133423,0.02290816
2862.35014160,0.02284209
2864.27894897,0.02270482
2866.20775635,0.02287945
2868.13656372,0.02280508
2870.06537109,0.02263806
2871.99417847,0.02265069
2873.92298584,0.02262168
2875.85179321,0.02265483
2877.78060059,0.02261011
2879.70940796,0.02240521
2881.63821533,0.02236791
2883.56702270,0.02243441
2885.49583008,0.02237679
2887.42463745,0.02238328
2889.35344482,0.02231498
2891.28225220,0.02216316
2893.21105957,0.02214819
2895.13986694,0.02208364
2897.06867432,0.02202025
2898.99748169,0.02199486
2900.92628906,0.02195894
2902.85509644,0.02197881
2904.78390381,0.02190583
2906.71271118,0.02172964
2908.64151855,0.02175498
2910.57032593,0.02183859
2912.49913330,0.02168413
2914.42794067,0.02159612
2916.35674805,0.02161393
2918.28555542,0.02155430
2920.21436279,0.02144613
2922.14317017,0.02143378
2924.07197754,0.02148603
2926.00078491,0.02141429
2927.92959229,0.02141965
2929.85839966,0.02142446
2931.78720703,0.02138635
2933.71601440,0.02136607
2935.64482178,0.02137977
2937.57362915,0.02145891
2939.50243652,0.02131411
2941.43124390,0.02128465
2943.36005127,0.02133976
2945.28885864,0.02124038
2947.21766602,0.02126038
2949.14647339,0.02131634
2951.07528076,0.02129035
2953.00408813,0.02106470
2954.93289551,0.02098106
2956.86170288,0.02097213
2958.79051025,0.02093056
2960.71931763,0.02105217
2962.64812500,0.02088952
2964.57693237,0.02080797
2966.50573975,0.02083556
2968.43454712,0.02071619
2970.36335449,0.02086432
2972.29216187,0.02092276
2974.22096924,0.02073190
2976.14977661,0.02076117
2978.07858398,0.02091642
2980.00739136,0.02084149
2981.93619873,0.02071988
2983.86500610,0.02069339
2985.79381348,0.02074338
2987.72262085,0.02074932
2989.65142822,0.02062996
2991.58023560,0.02054389
2993.50904297,0.02053676
2995.43785034,0.02056904
2997.36665771,0.02036884
2999.29546509,0.02037922
3001.22427246,0.02051119
3003.15307983,0.02034066
3005.08188721,0.02035138
3007.01069458,0.02031893
3008.93950195,0.02025930
3010.86830933,0.02007110
3012.79711670,0.02003230
3014.72592407,0.02020549
3016.65473145,0.02002241
3018.58353882,0.02007912
3020.51234619,0.02001769
3022.44115356,0.01988694
3024.36996094,0.01985146
3026.29876831,0.01979411
3028.22757568,0.01988537
3030.15638306,0.01963406
3032.08519043,0.01969935
3034.01399780,0.01968769
3035.94280518,0.01954090
3037.87161255,0.01967179
3039.80041992,0.01948035
3041.72922729,0.01950949
3043.65803467,0.01946428
3045.58684204,0.01943953
3047.51564941,0.01952138
3049.44445679,0.01928829
3051.37326416,0.01926384
3053.30207153,0.01927715
3055.23087891,0.01925232
3057.15968628,0.01922530
3059.08849365,0.01916952
3061.01730103,0.01908962
3062.94610840,0.01902633
3064.87491577,0.01901863
3066.80372314,0.01891349
3068.73253052,0.01889748
3070.66133789,0.01890845
3072.59014526,0.01890719
3074.51895264,0.01887943
3076.44776001,0.01881652
3078.37656738,0.01879648
3080.30537476,0.01879962
3082.23418213,0.01865625
3084.16298950,0.01855427
3086.09179687,0.01874363
3088.02060425,0.01860323
3089.94941162,0.01848083
3091.87821899,0.01853636
3093.80702637,0.01841687
3095.73583374,0.01839212
3097.66464111,0.01828995
3099.59344849,0.01826456
3101.52225586,0.01819202
3103.45106323,0.01815474
3105.37987061,0.01824872
3107.30867798,0.01820882
3109.23748535,0.01816522
3111.16629272,0.01800363
3113.09510010,0.01800574
3115.02390747,0.01799116
3116.95271484,0.01786828
3118.88152222,0.01783912
3120.81032959,0.01774407
3122.73913696,0.01776932
3124.66794434,0.01765883
3126.59675171,0.01752407
3128.52555908,0.01760364
3130.45436645,0.01759454
3132.38317383,0.01745034
3134.31198120,0.01741248
3136.24078857,0.01746823
3138.16959595,0.01739017
3140.09840332,0.01738045
3142.02721069,0.01738552
3143.95601807,0.01732603
3145.88482544,0.01731487
3147.81363281,0.01729371
3149.74244019,0.01720081
3151.67124756,0.01707639
3153.60005493,0.01706542
3155.52886230,0.01699783
3157.45766968,0.01688562
3159.38647705,0.01687891
3161.31528442,0.01688778
3163.24409180,0.01684230
3165.17289917,0.01681058
3167.10170654,0.01675198
3169.03051392,0.01661723
3170.95932129,0.01658594
3172.88812866,0.01660988
3174.81693604,0.01656985
3176.74574341,0.01639275
3178.67455078,0.01632790
3180.60335815,0.01637081
3182.53216553,0.01636292
3184.46097290,0.01635266
3186.38978027,0.01622837
3188.31858765,0.01636871
3190.24739502,0.01630035
3192.17620239,0.01600537
3194.10500977,0.01616083
3196.03381714,0.01614621
3197.96262451,0.01598789
3199.89143188,0.01599786
3201.82023926,0.01604502
3203.74904663,0.01594992
3205.67785400,0.01581505
3207.60666138,0.01585140
3209.53546875,0.01584112
3211.46427612,0.01578874
3213.39308350,0.01565862
3215.32189087,0.01565358
3217.25069824,0.01575207
3219.17950562,0.01569409
3221.10831299,0.01557160
3223.03712036,0.01552911
3224.96592773,0.01556044
3226.89473511,0.01547589
3228.82354248,0.01544700
3230.75234985,0.01549846
3232.68115723,0.01551326
3234.60996460,0.01537854
3236.53877197,0.01536028
3238.46757935,0.01539239
3240.39638672,0.01524239
3242.32519409,0.01534613
3244.25400146,0.01526544
3246.18280884,0.01525512
3248.11161621,0.01536305
3250.04042358,0.01521724
3251.96923096,0.01520661
3253.89803833,0.01508886
3255.82684570,0.01513821
3257.75565308,0.01513805
3259.68446045,0.01507925
3261.61326782,0.01513889
3263.54207520,0.01502397
3265.47088257,0.01504363
3267.39968994,0.01504006
3269.32849731,0.01506987
3271.25730469,0.01491535
3273.18611206,0.01489156
3275.11491943,0.01508240
3277.04372681,0.01485623
3278.97253418,0.01485607
3280.90134155,0.01498182
3282.83014893,0.01489446
3284.75895630,0.01482595
3286.68776367,0.01481721
3288.61657104,0.01475216
3290.54537842,0.01478588
3292.47418579,0.01485103
3294.40299316,0.01470301
3296.33180054,0.01475669
3298.26060791,0.01470887
3300.18941528,0.01465495
3302.11822266,0.01465741
3304.04703003,0.01456771
3305.97583740,0.01456289
3307.90464478,0.01436528
3309.83345215,0.01444115
3311.76225952,0.01457089
3313.69106689,0.01451983
3315.61987427,0.01450187
3317.54868164,0.01445772
3319.47748901,0.01455063
3321.40629639,0.01452221
3323.33510376,0.01444616
3325.26391113,0.01443955
3327.19271851,0.01452405
3329.12152588,0.01449853
3331.05033325,0.01433257
3332.97914062,0.01430309
3334.90794800,0.01430526
3336.83675537,0.01426305
3338.76556274,0.01419796
3340.69437012,0.01425906
3342.62317749,0.01414370
3344.55198486,0.01413778
3346.48079224,0.01427972
3348.40959961,0.01415563
3350.33840698,0.01409397
3352.26721436,0.01399478
3354.19602173,0.01400501
3356.12482910,0.01400861
3358.05363647,0.01399896
3359.98244385,0.01402208
3361.91125122,0.01391203
3363.84005859,0.01395255
3365.76886597,0.01391986
3367.69767334,0.01389767
3369.62648071,0.01387287
3371.55528809,0.01378598
3373.48409546,0.01375550
3375.41290283,0.01384632
3377.34171020,0.01386119
3379.27051758,0.01359664
3381.19932495,0.01361430
3383.12813232,0.01370964
3385.05693970,0.01356624
3386.98574707,0.01342683
3388.91455444,0.01360932
3390.84336182,0.01357831
3392.77216919,0.01334605
3394.70097656,0.01354013
3396.62978394,0.01337416
3398.55859131,0.01335851
3400.48739868,0.01343045
3402.41620605,0.01325320
3404.34501343,0.01340327
3406.27382080,0.01335939
3408.20262817,0.01328240
3410.13143555,0.01320371
3412.06024292,0.01320903
3413.98905029,0.01324096
3415.91785767,0.01318557
3417.84666504,0.01319935
3419.77547241,0.01308937
3421.70427979,0.01306566
3423.63308716,0.01297633
3425.56189453,0.01303179
3427.49070190,0.01307930
3429.41950928,0.01299573
3431.34831665,0.01298871
3433.27712402,0.01288998
3435.20593140,0.01287407
3437.13473877,0.01288162
3439.06354614,0.01290566
3440.99235352,0.01275745
3442.92116089,0.01279478
3444.84996826,0.01279873
3446.77877563,0.01257467
3448.70758301,0.01273516
3450.63639038,0.01279674
3452.56519775,0.01285912
3454.49400513,0.01276614
3456.42281250,0.01259031
3458.35161987,0.01273243
3460.28042725,0.01266318
3462.20923462,0.01253665
3464.13804199,0.01260961
3466.06684937,0.01257822
3467.99565674,0.01247627
3469.92446411,0.01264212
3471.85327148,0.01258978
3473.78207886,0.01250382
3475.71088623,0.01250963
3477.63969360,0.01245837
3479.56850098,0.01250799
3481.49730835,0.01223226
3483.42611572,0.01232706
3485.35492310,0.01246639
3487.28373047,0.01232492
3489.21253784,0.01236182
3491.14134521,0.01239291
3493.07015259,0.01246517
3494.99895996,0.01233420
3496.92776733,0.01236827
3498.85657471,0.01234313
3500.78538208,0.01224902
3502.71418945,0.01208627
3504.64299683,0.01203927
3506.57180420,0.01240968
3508.50061157,0.01220511
3510.42941895,0.01219396
3512.35822632,0.01231784
3514.28703369,0.01226861
3516.21584106,0.01232038
3518.14464844,0.01218378
3520.07345581,0.01234185
3522.00226318,0.01213206
3523.93107056,0.01185919
3525.85987793,0.01197318
3527.78868530,0.01196940
3529.71749268,0.01197003
3531.64630005,0.01215396
3533.57510742,0.01233448
3535.50391479,0.01207503
3537.43272217,0.01199543
3539.36152954,0.01216099
3541.29033691,0.01212939
3543.21914429,0.01200411
3545.14795166,0.01170431
3547.07675903,0.01155258
3549.00556641,0.01196968
3550.93437378,0.01203729
3552.86318115,0.01172856
3554.79198853,0.01203623
3556.72079590,0.01207947
3558.64960327,0.01199161
3560.57841064,0.01189264
3562.50721802,0.01185851
3564.43602539,0.01188382
3566.36483276,0.01081669
3568.29364014,0.01056510
3570.22244751,0.01162716
3572.15125488,0.01212131
3574.08006226,0.01193837
3576.00886963,0.01182280
3577.93767700,0.01193980
3579.86648437,0.01189828
3581.79529175,0.01180375
3583.72409912,0.01186613
3585.65290649,0.01159490
3587.58171387,0.01042373
3589.51052124,0.01078200
3591.43932861,0.01203456
3593.36813599,0.01150423
3595.29694336,0.01125063
3597.22575073,0.01159543
3599.15455811,0.01170704
3601.08336548,0.01155674
3603.01217285,0.01160785
3604.94098022,0.01195863
3606.86978760,0.01133696
3608.79859497,0.01047939
3610.72740234,0.01095464
3612.65620972,0.01119052
3614.58501709,0.01079943
3616.51382446,0.01166767
3618.44263184,0.01061237
3620.37143921,0.01026640
3622.30024658,0.01178134
3624.22905395,0.01142977
3626.15786133,0.01207841
3628.08666870,0.00990257
3630.01547607,0.00885826
3631.94428345,0.01163906
3633.87309082,0.01124630
3635.80189819,0.01149083
3637.73070557,0.01177271
3639.65951294,0.01150590
3641.58832031,0.01161557
3643.51712769,0.01155070
3645.44593506,0.01165948
3647.37474243,0.01016480
3649.30354980,0.00928343
3651.23235718,0.00933922
3653.16116455,0.01135776
3655.08997192,0.01130325
3657.01877930,0.00994815
3658.94758667,0.01178681
3660.87639404,0.01150738
3662.80520142,0.01168140
3664.73400879,0.01153793
3666.66281616,0.01139004
3668.59162354,0.01109967
3670.52043091,0.00870266
3672.44923828,0.01093312
3674.37804565,0.01027671
3676.30685303,0.00820318
3678.23566040,0.01078996
3680.16446777,0.01100993
3682.09327515,0.01105259
3684.02208252,0.01146965
3685.95088989,0.01127530
3687.87969727,0.00995253
3689.80850464,0.00896254
3691.73731201,0.01045883
3693.66611938,0.01089922
3695.59492676,0.01118968
3697.52373413,0.01115683
3699.45254150,0.01112678
3701.38134888,0.01069405
3703.31015625,0.01018272
3705.23896362,0.01137336
3707.16777100,0.01069397
3709.09657837,0.01040065
3711.02538574,0.00968738
3712.95419312,0.00901622
3714.88300049,0.01090459
3716.81180786,0.01079503
3718.74061523,0.01079914
3720.66942261,0.01055345
3722.59822998,0.01022996
3724.52703735,0.01057909
3726.45584473,0.00968982
3728.38465210,0.01057836
3730.31345947,0.01050335
3732.24226685,0.00956087
3734.17107422,0.00924512
3736.09988159,0.00868974
3738.02868896,0.00924038
3739.95749634,0.01031488
3741.88630371,0.01083049
3743.81511108,0.00794883
3745.74391846,0.00749878
3747.67272583,0.01017289
3749.60153320,0.00856269
3751.53034058,0.00782122
3753.45914795,0.00916845
3755.38795532,0.00991560
3757.31676270,0.01035820
3759.24557007,0.00950159
3761.17437744,0.00986419
3763.10318481,0.01051899
3765.03199219,0.00976725
3766.96079956,0.01006189
3768.88960693,0.00986786
3770.81841431,0.00939528
3772.74722168,0.01032481
3774.67602905,0.01026266
3776.60483643,0.01026128
3778.53364380,0.00996731
3780.46245117,0.00953348
3782.39125854,0.01024254
3784.32006592,0.00997282
3786.24887329,0.00998028
3788.17768066,0.01027735
3790.10648804,0.01018444
3792.03529541,0.01002867
3793.96410278,0.01019695
3795.89291016,0.00954714
3797.82171753,0.00940170
3799.75052490,0.00997657
3801.67933228,0.00761144
3803.60813965,0.00911824
3805.53694702,0.00998366
3807.46575439,0.00791555
3809.39456177,0.01001777
3811.32336914,0.00975234
3813.25217651,0.01011368
3815.18098389,0.00900607
3817.10979126,0.00762622
3819.03859863,0.01002079
3820.96740601,0.00782582
3822.89621338,0.00835763
3824.82502075,0.00998880
3826.75382812,0.00887398
3828.68263550,0.00974070
3830.61144287,0.00919549
3832.54025024,0.00882414
3834.46905762,0.00910921
3836.39786499,0.00863401
3838.32667236,0.00767399
3840.25547974,0.00826417
3842.18428711,0.00913063
3844.11309448,0.00874390
3846.04190186,0.00944425
3847.97070923,0.00928103
3849.89951660,0.00936638
3851.82832397,0.00829334
3853.75713135,0.00585271
3855.68593872,0.00714997
3857.61474609,0.00924311
3859.54355347,0.00909317
3861.47236084,0.00907744
3863.40116821,0.00870202
3865.32997559,0.00805816
3867.25878296,0.00919432
3869.18759033,0.00808955
3871.11639770,0.00743065
3873.04520508,0.00915868
3874.97401245,0.00821841
3876.90281982,0.00903234
3878.83162720,0.00924632
3880.76043457,0.00770370
3882.68924194,0.00914267
3884.61804932,0.00842701
3886.54685669,0.00754162
3888.47566406,0.00909393
3890.40447144,0.00853345
3892.33327881,0.00797105
3894.26208618,0.00887752
3896.19089355,0.00900301
3898.11970093,0.00857651
3900.04850830,0.00791687
3901.97731567,0.00776620
3903.90612305,0.00781980
3905.83493042,0.00796232
3907.76373779,0.00893533
3909.69254517,0.00889405
3911.62135254,0.00872296
3913.55015991,0.00894732
3915.47896728,0.00854854
3917.40777466,0.00827745
3919.33658203,0.00816651
3921.26538940,0.00851951
3923.19419678,0.00851052
3925.12300415,0.00828013
3927.05181152,0.00846599
3928.98061890,0.00859188
3930.90942627,0.00834741
3932.83823364,0.00807168
3934.76704102,0.00860387
3936.69584839,0.00863692
3938.62465576,0.00852454
3940.55346313,0.00854697
3942.48227051,0.00810812
3944.41107788,0.00829707
3946.33988525,0.00836675
3948.26869263,0.00815621
3950.19750000,0.00825978
3952.12630737,0.00836371
3954.05511475,0.00833226
3955.98392212,0.00829091
3957.91272949,0.00824592
3959.84153687,0.00820690
3961.77034424,0.00822383
3963.69915161,0.00811559
3965.62795898,0.00819769
3967.55676636,0.00819219
3969.48557373,0.00815275
3971.41438110,0.00824258
3973.34318848,0.00812072
3975.27199585,0.00810768
3977.20080322,0.00814117
3979.12961060,0.00810329
3981.05841797,0.00807348
3982.98722534,0.00806723
3984.91603271,0.00801697
3986.84484009,0.00809073
3988.77364746,0.00811454
3990.70245483,0.00797681
3992.63126221,0.00799991
3994.56006958,0.00793009
3996.48887695,0.00792548
3998.41768433,0.00795438
4000.34649170,0.00788965
4002.27529907,0.00781496
4004.20410645,0.00785366
4006.13291382,0.00790500
4008.06172119,0.00781478
4009.99052856,0.00789246
4011.91933594,0.00778190
4013.84814331,0.00778639
4015.77695068,0.00785351
4017.70575806,0.00775873
4019.63456543,0.00782218
4021.56337280,0.00774898
4023.49218018,0.00774758
4025.42098755,0.00763415
4027.34979492,0.00759121
4029.27860229,0.00762131
4031.20740967,0.00753990
4033.13621704,0.00762434
4035.06502441,0.00756575
4036.99383179,0.00758603
4038.92263916,0.00752577
4040.85144653,0.00742148
4042.78025391,0.00746686
4044.70906128,0.00739781
4046.63786865,0.00741087
4048.56667603,0.00748744
4050.49548340,0.00742120
4052.42429077,0.00732407
4054.35309814,0.00744509
4056.28190552,0.00741806
4058.21071289,0.00733855
4060.13952026,0.00737081
4062.06832764,0.00731463
4063.99713501,0.00737387
4065.92594238,0.00734297
4067.85474976,0.00724659
4069.78355713,0.00723437
4071.71236450,0.00723776
4073.64117187,0.00721700
4075.56997925,0.00724648
4077.49878662,0.00722281
4079.42759399,0.00711662
4081.35640137,0.00720483
4083.28520874,0.00722431
4085.21401611,0.00716104
4087.14282349,0.00716914
4089.07163086,0.00718886
4091.00043823,0.00713241
4092.92924561,0.00708578
4094.85805298,0.00704612
4096.78686035,0.00698164
4098.71566772,0.00709043
4100.64447510,0.00702250
4102.57328247,0.00697576
4104.50208984,0.00705526
4106.43089722,0.00699716
4108.35970459,0.00693515
4110.28851196,0.00691769
4112.21731934,0.00692198
4114.14612671,0.00686413
4116.07493408,0.00694767
4118.00374145,0.00683495
4119.93254883,0.00673748
4121.86135620,0.00685393
4123.79016357,0.00680943
4125.71897095,0.00684428
4127.64777832,0.00677990
4129.57658569,0.00679608
4131.50539307,0.00675662
4133.43420044,0.00664102
4135.36300781,0.00668635
4137.29181519,0.00665506
4139.22062256,0.00664786
4141.14942993,0.00660967
4143.07823730,0.00668019
4145.00704468,0.00662362
4146.93585205,0.00663639
4148.86465942,0.00665371
4150.79346680,0.00647159
4152.72227417,0.00659794
4154.65108154,0.00651394
4156.57988892,0.00649140
4158.50869629,0.00659444
4160.43750366,0.00646773
4162.36631103,0.00652812
4164.29511841,0.00653576
4166.22392578,0.00645941
4168.15273315,0.00648509
4170.08154053,0.00647689
4172.01034790,0.00644799
4173.93915527,0.00646467
4175.86796265,0.00638916
4177.79677002,0.00639492
4179.72557739,0.00636243
4181.65438477,0.00630676
4183.58319214,0.00634322
4185.51199951,0.00620194
4187.44080688,0.00628442
4189.36961426,0.00630996
4191.29842163,0.00626852
4193.22722900,0.00628352
4195.15603638,0.00619491
4197.08484375,0.00622413
4199.01365112,0.00610902
4200.94245850,0.00616950
4202.87126587,0.00617734
4204.80007324,0.00612414
4206.72888062,0.00617951
4208.65768799,0.00605078
4210.58649536,0.00609651
4212.51530273,0.00609388
4214.44411011,0.00605129
4216.37291748,0.00603528
4218.30172485,0.00604529
4220.23053223,0.00606420
4222.15933960,0.00604861
4224.08814697,0.00604751
4226.01695435,0.00591303
4227.94576172,0.00593210
4229.87456909,0.00590807
4231.80337646,0.00591987
4233.73218384,0.00591880
4235.66099121,0.00583937
4237.58979858,0.00592612
4239.51860596,0.00583915
4241.44741333,0.00582043
4243.37622070,0.00586741
4245.30502808,0.00588228
4247.23383545,0.00582257
4249.16264282,0.00575468
4251.09145020,0.00581102
4253.02025757,0.00575844
4254.94906494,0.00576703
4256.87787231,0.00579399
4258.80667969,0.00575315
4260.73548706,0.00563011
4262.66429443,0.00570211
4264.59310181,0.00571495
4266.52190918,0.00556112
4268.45071655,0.00568873
4270.37952393,0.00560312
4272.30833130,0.00561386
4274.23713867,0.00566708
4276.16594604,0.00556140
4278.09475342,0.00562353
4280.02356079,0.00548689
4281.95236816,0.00552494
4283.88117554,0.00567489
4285.80998291,0.00556111
4287.73879028,0.00548640
4289.66759766,0.00551913
4291.59640503,0.00557876
4293.52521240,0.00552009
4295.45401978,0.00538567
4297.38282715,0.00547856
4299.31163452,0.00552271
4301.24044189,0.00537695
4303.16924927,0.00542231
4305.09805664,0.00537115
4307.02686401,0.00536450
4308.95567139,0.00538597
4310.88447876,0.00529748
4312.81328613,0.00538782
4314.74209351,0.00530540
4316.67090088,0.00529541
4318.59970825,0.00531964
4320.52851562,0.00528072
4322.45732300,0.00535209
4324.38613037,0.00527972
4326.31493774,0.00524078
4328.24374512,0.00518579
4330.17255249,0.00516652
4332.10135986,0.00520934
4334.03016724,0.00521352
4335.95897461,0.00520516
4337.88778198,0.00517711
4339.81658936,0.00516265
4341.74539673,0.00513216
4343.67420410,0.00517162
4345.60301147,0.00517755
4347.53181885,0.00518635
4349.46062622,0.00510440
4351.38943359,0.00504662
4353.31824097,0.00508453
4355.24704834,0.00500122
4357.17585571,0.00506883
4359.10466309,0.00507065
4361.03347046,0.00501124
4362.96227783,0.00496912
4364.89108520,0.00491037
4366.81989258,0.00500405
4368.74869995,0.00492553
4370.67750732,0.00484830
4372.60631470,0.00494111
4374.53512207,0.00494634
4376.46392944,0.00487815
4378.39273682,0.00490993
4380.32154419,0.00491476
4382.25035156,0.00480264
4384.17915894,0.00483572
4386.10796631,0.00489891
4388.03677368,0.00486874
4389.96558105,0.00482649
4391.89438843,0.00480187
4393.82319580,0.00480110
4395.75200317,0.00480720
4397.68081055,0.00474914
4399.60961792,0.00469101
4401.53842529,0.00477123
4403.46723267,0.00481029
4405.39604004,0.00474080
4407.32484741,0.00467906
4409.25365478,0.00470726
4411.18246216,0.00471275
4413.11126953,0.00466873
4415.04007690,0.00464917
4416.96888428,0.00464065
4418.89769165,0.00467533
4420.82649902,0.00461739
4422.75530640,0.00458922
4424.68411377,0.00462137
4426.61292114,0.00460032
4428.54172852,0.00456563
4430.47053589,0.00454292
4432.39934326,0.00458724
4434.32815063,0.00460145
4436.25695801,0.00455574
4438.18576538,0.00449500
4440.11457275,0.00450871
4442.04338013,0.00445607
4443.97218750,0.00445281
4445.90099487,0.00451545
4447.82980225,0.00445681
4449.75860962,0.00448951
4451.68741699,0.00440509
4453.61622437,0.00444629
4455.54503174,0.00449572
4457.47383911,0.00433620
4459.40264648,0.00436363
4461.33145386,0.00435812
4463.26026123,0.00442446
4465.18906860,0.00440386
4467.11787598,0.00427563
4469.04668335,0.00430173
4470.97549072,0.00431847
4472.90429810,0.00428149
4474.83310547,0.00423090
4476.76191284,0.00426768
4478.69072021,0.00424814
4480.61952759,0.00430641
4482.54833496,0.00426705
4484.47714233,0.00416167
4486.40594971,0.00423699
4488.33475708,0.00424478
4490.26356445,0.00427352
4492.19237183,0.00421147
4494.12117920,0.00419666
4496.04998657,0.00415300
4497.97879395,0.00414625
4499.90760132,0.00422500
4501.83640869,0.00414222
4503.76521606,0.00418515
4505.69402344,0.00405095
4507.62283081,0.00409135
4509.55163818,0.00426346
4511.48044556,0.00409802
4513.40925293,0.00406213
4515.33806030,0.00407186
4517.26686768,0.00405688
4519.19567505,0.00400813
4521.12448242,0.00408534
4523.05328979,0.00412158
4524.98209717,0.00399488
4526.91090454,0.00401486
4528.83971191,0.00396947
4530.76851929,0.00396265
4532.69732666,0.00399478
4534.62613403,0.00402624
4536.55494141,0.00401911
4538.48374878,0.00393783
4540.41255615,0.00400770
4542.34136353,0.00400692
4544.27017090,0.00392867
4546.19897827,0.00392760
4548.12778564,0.00385414
4550.05659302,0.00380199
4551.98540039,0.00391113
4553.91420776,0.00390675
4555.84301514,0.00381115
4557.77182251,0.00380631
4559.70062988,0.00383301
4561.62943726,0.00384592
4563.55824463,0.00380547
4565.48705200,0.00384073
4567.41585937,0.00381292
4569.34466675,0.00374542
4571.27347412,0.00377508
4573.20228149,0.00378013
4575.13108887,0.00375490
4577.05989624,0.00377212
4578.98870361,0.00380384
4580.91751099,0.00371696
4582.84631836,0.00371721
4584.77512573,0.00366953
4586.70393311,0.00365714
4588.63274048,0.00373923
4590.56154785,0.00364911
4592.49035522,0.00369172
4594.41916260,0.00364541
4596.34796997,0.00360850
4598.27677734,0.00363518
4600.20558472,0.00359175
4602.13439209,0.00367058
4604.06319946,0.00360550
4605.99200684,0.00355806
4607.92081421,0.00353210
4609.84962158,0.00354608
4611.77842895,0.00358612
4613.70723633,0.00358640
4615.63604370,0.00365820
4617.56485107,0.00353511
4619.49365845,0.00346311
4621.42246582,0.00348770
4623.35127319,0.00348797
4625.28008057,0.00353041
4627.20888794,0.00351872
4629.13769531,0.00344946
4631.06650269,0.00340763
4632.99531006,0.00343646
4634.92411743,0.00342141
4636.85292480,0.00345870
4638.78173218,0.00345519
4640.71053955,0.00348430
4642.63934692,0.00350988
4644.56815430,0.00340757
4646.49696167,0.00338361
4648.42576904,0.00328511
4650.35457642,0.00328109
4652.28338379,0.00332610
4654.21219116,0.00333607
4656.14099853,0.00334303
4658.06980591,0.00324142
4659.99861328,0.00329585
4661.92742065,0.00335694
4663.85622803,0.00333187
4665.78503540,0.00329603
4667.71384277,0.00329279
4669.64265015,0.00328792
4671.57145752,0.00326177
4673.50026489,0.00331864
4675.42907227,0.00328589
4677.35787964,0.00324432
4679.28668701,0.00321794
4681.21549438,0.00319309
4683.14430176,0.00322093
4685.07310913,0.00324071
4687.00191650,0.00318580
4688.93072388,0.00312996
4690.85953125,0.00323668
4692.78833862,0.00322487
4694.71714600,0.00318576
4696.64595337,0.00319331
4698.57476074,0.00307952
4700.50356812,0.00310645
4702.43237549,0.00317059
4704.36118286,0.00309865
4706.28999023,0.00309628
4708.21879761,0.00310534
4710.14760498,0.00301289
4712.07641235,0.00306911
4714.00521973,0.00310767
4715.93402710,0.00304760
4717.86283447,0.00306116
4719.79164185,0.00303394
4721.72044922,0.00302540
4723.64925659,0.00297247
4725.57806396,0.00299995
4727.50687134,0.00303820
4729.43567871,0.00299322
4731.36448608,0.00303243
4733.29329346,0.00295932
4735.22210083,0.00294636
4737.15090820,0.00298906
4739.07971558,0.00294906
4741.00852295,0.00297440
4742.93733032,0.00298424
4744.86613770,0.00289496
4746.79494507,0.00289518
4748.72375244,0.00299211
4750.65255981,0.00293175
4752.58136719,0.00293812
4754.51017456,0.00290753
4756.43898193,0.00281878
4758.36778931,0.00287836
4760.29659668,0.00287511
4762.22540405,0.00289390
4764.15421143,0.00284982
4766.08301880,0.00286242
4768.01182617,0.00290589
4769.94063354,0.00285197
4771.86944092,0.00288855
4773.79824829,0.00283944
4775.72705566,0.00283272
4777.65586304,0.00280533
4779.58467041,0.00277138
4781.51347778,0.00279382
4783.44228516,0.00273176
4785.37109253,0.00280206
4787.29989990,0.00278248
4789.22870728,0.00275850
4791.15751465,0.00278938
4793.08632202,0.00272889
4795.01512939,0.00276837
4796.94393677,0.00273535
4798.87274414,0.00273649
4800.80155151,0.00273937
4802.73035889,0.00271552
4804.65916626,0.00277878
4806.58797363,0.00269846
4808.51678101,0.00268719
4810.44558838,0.00269550
4812.37439575,0.00262746
4814.30320312,0.00264679
4816.23201050,0.00270195
4818.16081787,0.00267585
4820.08962524,0.00252232
4822.01843262,0.00263011
4823.94723999,0.00270237
4825.87604736,0.00255068
4827.80485474,0.00255646
4829.73366211,0.00253956
4831.66246948,0.00265175
4833.59127686,0.00266824
4835.52008423,0.00252537
4837.44889160,0.00259313
4839.37769897,0.00257852
4841.30650635,0.00255292
4843.23531372,0.00255813
4845.16412109,0.00252629
4847.09292847,0.00250635
4849.02173584,0.00244697
4850.95054321,0.00247349
4852.87935059,0.00255256
4854.80815796,0.00256873
4856.73696533,0.00252543
4858.66577270,0.00252028
4860.59458008,0.00246140
4862.52338745,0.00243976
4864.45219482,0.00252267
4866.38100220,0.00244057
4868.30980957,0.00238951
4870.23861694,0.00246696
4872.16742432,0.00252128
4874.09623169,0.00251711
4876.02503906,0.00245347
4877.95384644,0.00241921
4879.88265381,0.00239691
4881.81146118,0.00245489
4883.74026855,0.00249319
4885.66907593,0.00238225
4887.59788330,0.00238064
4889.52669067,0.00240109
4891.45549805,0.00234300
4893.38430542,0.00238964
4895.31311279,0.00235443
4897.24192017,0.00230842
4899.17072754,0.00234785
4901.09953491,0.00231321
4903.02834228,0.00229959
4904.95714966,0.00228362
4906.88595703,0.00231606
4908.81476440,0.00233250
4910.74357178,0.00229561
4912.67237915,0.00231290
4914.60118652,0.00228302
4916.52999390,0.00226418
4918.45880127,0.00229595
4920.38760864,0.00235836
4922.31641602,0.00230324
4924.24522339,0.00229114
4926.17403076,0.00236347
4928.10283813,0.00223137
4930.03164551,0.00226552
4931.96045288,0.00238440
4933.88926025,0.00227447
4935.81806763,0.00222928
4937.74687500,0.00228072
4939.67568237,0.00217251
4941.60448975,0.00215867
4943.53329712,0.00228506
4945.46210449,0.00216136
4947.39091187,0.00218987
4949.31971924,0.00227685
4951.24852661,0.00218031
4953.17733398,0.00218076
4955.10614136,0.00213127
4957.03494873,0.00208243
4958.96375610,0.00211172
4960.89256348,0.00221140
4962.82137085,0.00215620
4964.75017822,0.00206913
4966.67898560,0.00213424
4968.60779297,0.00208460
4970.53660034,0.00211578
4972.46540771,0.00212873
4974.39421509,0.00209341
4976.32302246,0.00213105
4978.25182983,0.00212138
4980.18063721,0.00211230
4982.10944458,0.00212325
4984.03825195,0.00204625
4985.96705933,0.00194770
4987.89586670,0.00209110
4989.82467407,0.00204490
4991.75348145,0.00199628
4993.68228882,0.00215115
4995.61109619,0.00203124
4997.53990356,0.00201521
4999.46871094,0.00201905
5001.39751831,0.00197672
5003.32632568,0.00201395
5005.25513306,0.00202982
5007.18394043,0.00205497
5009.11274780,0.00197505
5011.04155518,0.00200066
5012.97036255,0.00199333
5014.89916992,0.00196386
5016.82797729,0.00196914
5018.75678467,0.00196582
5020.68559204,0.00204237
5022.61439941,0.00197548
5024.54320679,0.00198271
5026.47201416,0.00195470
5028.40082153,0.00189421
5030.32962891,0.00197995
5032.25843628,0.00195238
5034.18724365,0.00190296
5036.11605103,0.00184944
5038.04485840,0.00188149
5039.97366577,0.00193418
5041.90247314,0.00187978
5043.83128052,0.00187332
5045.76008789,0.00191595
5047.68889526,0.00190348
5049.61770264,0.00181881
5051.54651001,0.00182416
5053.47531738,0.00181499
5055.40412476,0.00184704
5057.33293213,0.00193950
5059.26173950,0.00190548
5061.19054687,0.00187725
5063.11935425,0.00182404
5065.04816162,0.00180862
5066.97696899,0.00180263
5068.90577637,0.00174266
5070.83458374,0.00177850
5072.76339111,0.00180887
5074.69219849,0.00179764
5076.62100586,0.00178746
5078.54981323,0.00177473
5080.47862061,0.00177273
5082.40742798,0.00179215
5084.33623535,0.00176343
5086.26504272,0.00177004
5088.19385010,0.00186121
5090.12265747,0.00179030
5092.05146484,0.00172086
5093.98027222,0.00175499
5095.90907959,0.00175698
5097.83788696,0.00177213
5099.76669434,0.00173735
5101.69550171,0.00174093
5103.62430908,0.00176026
5105.55311645,0.00168676
5107.48192383,0.00167366
5109.41073120,0.00171104
5111.33953857,0.00172299
5113.26834595,0.00171049
5115.19715332,0.00168535
5117.12596069,0.00168588
5119.05476807,0.00165551
5120.98357544,0.00165613
5122.91238281,0.00169509
5124.84119019,0.00161328
5126.76999756,0.00161951
5128.69880493,0.00172256
5130.62761230,0.00167874
5132.55641968,0.00166678
5134.48522705,0.00167256
5136.41403442,0.00161492
5138.34284180,0.00164489
5140.27164917,0.00165008
5142.20045654,0.00156903
5144.12926392,0.00157505
5146.05807129,0.00163587
5147.98687866,0.00165124
5149.91568603,0.00164254
5151.84449341,0.00159111
5153.77330078,0.00156047
5155.70210815,0.00157213
5157.63091553,0.00155133
5159.55972290,0.00150625
5161.48853027,0.00154777
5163.41733765,0.00162111
5165.34614502,0.00156328
5167.27495239,0.00152674
5169.20375977,0.00152902
5171.13256714,0.00155887
5173.06137451,0.00153357
5174.99018188,0.00147292
5176.91898926,0.00159790
5178.84779663,0.00154788
5180.77660400,0.00149097
5182.70541138,0.00152791
5184.63421875,0.00145093
5186.56302612,0.00146972
5188.49183350,0.00143003
5190.42064087,0.00152192
5192.34944824,0.00155789
5194.27825562,0.00145708
5196.20706299,0.00150076
5198.13587036,0.00143343
5200.06467773,0.00143811
5201.99348511,0.00145626
5203.92229248,0.00151653
5205.85109985,0.00151469
5207.77990723,0.00135252
5209.70871460,0.00144264
5211.63752197,0.00149213
5213.56632935,0.00146544
5215.49513672,0.00144263
5217.42394409,0.00144033
5219.35275146,0.00148573
5221.28155884,0.00143116
5223.21036621,0.00145993
5225.13917358,0.00142813
5227.06798096,0.00135733
5228.99678833,0.00139933
5230.92559570,0.00145010
5232.85440308,0.00144586
5234.78321045,0.00139941
5236.71201782,0.00139194
5238.64082520,0.00138776
5240.56963257,0.00139996
5242.49843994,0.00136192
5244.42724731,0.00136557
5246.35605469,0.00138158
5248.28486206,0.00128656
5250.21366943,0.00131948
5252.14247681,0.00143068
5254.07128418,0.00136310
5256.00009155,0.00125834
5257.92889893,0.00134092
5259.85770630,0.00138815
5261.78651367,0.00132734
5263.71532104,0.00118725
5265.64412842,0.00122979
5267.57293579,0.00144360
5269.50174316,0.00130583
5271.43055054,0.00133183
5273.35935791,0.00142115
5275.28816528,0.00125171
5277.21697266,0.00133848
5279.14578003,0.00141725
5281.07458740,0.00129970
5283.00339478,0.00119732
5284.93220215,0.00129085
5286.86100952,0.00132963
5288.78981689,0.00122896
5290.71862427,0.00127395
5292.64743164,0.00127090
5294.57623901,0.00126112
5296.50504639,0.00129712
5298.43385376,0.00130895
5300.36266113,0.00124124
5302.29146851,0.00121044
5304.22027588,0.00131774
5306.14908325,0.00126481
5308.07789062,0.00117268
5310.00669800,0.00123050
5311.93550537,0.00129228
5313.86431274,0.00125882
5315.79312012,0.00123375
5317.72192749,0.00120705
5319.65073486,0.00120660
5321.57954224,0.00125826
5323.50834961,0.00120247
5325.43715698,0.00120749
5327.36596436,0.00117867
5329.29477173,0.00119872
5331.22357910,0.00127681
5333.15238647,0.00111252
5335.08119385,0.00111516
5337.01000122,0.00121873
5338.93880859,0.00115777
5340.86761597,0.00118262
5342.79642334,0.00119696
5344.72523071,0.00109249
5346.65403809,0.00111558
5348.58284546,0.00118071
5350.51165283,0.00113563
5352.44046020,0.00110609
5354.36926758,0.00111039
5356.29807495,0.00122160
5358.22688232,0.00118588
5360.15568970,0.00113242
5362.08449707,0.00121053
5364.01330444,0.00113263
5365.94211182,0.00117733
5367.87091919,0.00115272
5369.79972656,0.00108497
5371.72853394,0.00115319
5373.65734131,0.00110871
5375.58614868,0.00108298
5377.51495605,0.00102750
5379.44376343,0.00105522
5381.37257080,0.00112253
5383.30137817,0.00112496
5385.23018555,0.00110517
5387.15899292,0.00105963
5389.08780029,0.00111230
5391.01660767,0.00107302
5392.94541504,0.00106004
5394.87422241,0.00109072
5396.80302978,0.00106826
5398.73183716,0.00107146
5400.66064453,0.00107271
5402.58945190,0.00106467
5404.51825928,0.00094173
5406.44706665,0.00101931
5408.37587402,0.00106952
5410.30468140,0.00095666
5412.23348877,0.00102272
5414.16229614,0.00096504
5416.09110352,0.00100362
5418.01991089,0.00104757
5419.94871826,0.00097652
5421.87752563,0.00107208
5423.80633301,0.00104935
5425.73514038,0.00104798
5427.66394775,0.00102109
5429.59275513,0.00089932
5431.52156250,0.00092299
5433.45036987,0.00100115
5435.37917725,0.00104226
5437.30798462,0.00100133
5439.23679199,0.00099939
5441.16559936,0.00093051
5443.09440674,0.00096077
5445.02321411,0.00104572
5446.95202148,0.00088011
5448.88082886,0.00094493
5450.80963623,0.00101837
5452.73844360,0.00098501
5454.66725098,0.00097567
5456.59605835,0.00087907
5458.52486572,0.00101056
5460.45367310,0.00096244
5462.38248047,0.00090615
5464.31128784,0.00100809
5466.24009521,0.00093648
5468.16890259,0.00098451
5470.09770996,0.00096505
5472.02651733,0.00101003
5473.95532471,0.00098458
5475.88413208,0.00085053
5477.81293945,0.00094127
5479.74174683,0.00089868
5481.67055420,0.00100885
5483.59936157,0.00106570
5485.52816895,0.00092700
5487.45697632,0.00089245
5489.38578369,0.00084543
5491.31459106,0.00101000
5493.24339844,0.00096348
5495.17220581,0.00089152
5497.10101318,0.00100384
5499.02982056,0.00086974
5500.95862793,0.00090809
5502.88743530,0.00094512
5504.81624268,0.00088924
5506.74505005,0.00088001
5508.67385742,0.00078509
5510.60266479,0.00087652
5512.53147217,0.00093054
5514.46027954,0.00083283
5516.38908691,0.00082928
5518.31789429,0.00087237
5520.24670166,0.00089084
5522.17550903,0.00087303
5524.10431641,0.00088811
5526.03312378,0.00089803
5527.96193115,0.00083041
5529.89073853,0.00083570
5531.81954590,0.00088601
5533.74835327,0.00084343
5535.67716064,0.00083692
5537.60596802,0.00086126
5539.53477539,0.00091269
5541.46358276,0.00089775
5543.39239014,0.00077917
5545.32119751,0.00085862
5547.25000488,0.00093475
5549.17881226,0.00088358
5551.10761963,0.00085377
5553.03642700,0.00083862
5554.96523437,0.00085245
5556.89404175,0.00082300
5558.82284912,0.00084354
5560.75165649,0.00085831
5562.68046387,0.00083903
5564.60927124,0.00087164
5566.53807861,0.00085771
5568.46688599,0.00078266
5570.39569336,0.00077662
5572.32450073,0.00084591
5574.25330811,0.00080064
5576.18211548,0.00084616
5578.11092285,0.00085646
5580.03973022,0.00077583
5581.96853760,0.00083644
5583.89734497,0.00070495
5585.82615234,0.00077504
5587.75495972,0.00096470
5589.68376709,0.00081713
5591.61257446,0.00080246
5593.54138184,0.00082358
5595.47018921,0.00078818
5597.39899658,0.00077115
5599.32780395,0.00073121
5601.25661133,0.00078497
5603.18541870,0.00079847
5605.11422607,0.00079617
5607.04303345,0.00080684
5608.97184082,0.00077399
5610.90064819,0.00079177
5612.82945557,0.00075713
5614.75826294,0.00073445
5616.68707031,0.00078865
5618.61587769,0.00070530
5620.54468506,0.00069645
5622.47349243,0.00072471
5624.40229980,0.00072818
5626.33110718,0.00082359
5628.25991455,0.00073497
5630.18872192,0.00072200
5632.11752930,0.00077451
5634.04633667,0.00074274
5635.97514404,0.00074141
5637.90395142,0.00068973
5639.83275879,0.00070858
5641.76156616,0.00066271
5643.69037353,0.00069515
5645.61918091,0.00072306
5647.54798828,0.00062723
5649.47679565,0.00067299
5651.40560303,0.00070070
5653.33441040,0.00070474
5655.26321777,0.00064759
5657.19202515,0.00072129
5659.12083252,0.00075724
5661.04963989,0.00063364
5662.97844727,0.00070422
5664.90725464,0.00068316
5666.83606201,0.00067683
5668.76486938,0.00068996
5670.69367676,0.00066755
5672.62248413,0.00070994
5674.55129150,0.00069115
5676.48009888,0.00070300
5678.40890625,0.00068544
5680.33771362,0.00069616
5682.26652100,0.00067874
5684.19532837,0.00071553
5686.12413574,0.00069320
5688.05294311,0.00060897
5689.98175049,0.00070710
5691.91055786,0.00065735
5693.83936523,0.00071309
5695.76817261,0.00068462
5697.69697998,0.00055881
5699.62578735,0.00070040
5701.55459473,0.00063941
5703.48340210,0.00062564
5705.41220947,0.00063633
5707.34101685,0.00058431
5709.26982422,0.00067769
5711.19863159,0.00063251
5713.12743896,0.00064866
5715.05624634,0.00074954
5716.98505371,0.00073220
5718.91386108,0.00066872
5720.84266846,0.00059154
5722.77147583,0.00059663
5724.70028320,0.00068040
5726.62909058,0.00063071
5728.55789795,0.00056659
5730.48670532,0.00066316
5732.41551270,0.00067775
5734.34432007,0.00066821
5736.27312744,0.00065453
5738.20193481,0.00059799
5740.13074219,0.00059513
5742.05954956,0.00054132
5743.98835693,0.00060904
5745.91716431,0.00065221
5747.84597168,0.00059082
5749.77477905,0.00069873
5751.70358643,0.00067935
5753.63239380,0.00054024
5755.56120117,0.00054392
5757.49000854,0.00059091
5759.41881592,0.00057101
5761.34762329,0.00056778
5763.27643066,0.00062449
5765.20523804,0.00053847
5767.13404541,0.00054222
5769.06285278,0.00064146
5770.99166016,0.00057658
5772.92046753,0.00060331
5774.84927490,0.00059828
5776.77808228,0.00053424
5778.70688965,0.00058017
5780.63569702,0.00057529
5782.56450439,0.00057363
5784.49331177,0.00058561
5786.42211914,0.00056152
5788.35092651,0.00055337
5790.27973389,0.00053440
5792.20854126,0.00054256
5794.13734863,0.00057820
5796.06615601,0.00053313
5797.99496338,0.00054406
5799.92377075,0.00060730
5801.85257812,0.00058421
5803.78138550,0.00055130
5805.71019287,0.00052411
5807.63900024,0.00058952
5809.56780762,0.00056264
5811.49661499,0.00051960
5813.42542236,0.00059548
5815.35422974,0.00054467
5817.28303711,0.00058158
5819.21184448,0.00059088
5821.14065186,0.00052763
5823.06945923,0.00049511
5824.99826660,0.00047022
5826.92707397,0.00058047
5828.85588135,0.00059669
5830.78468872,0.00055097
5832.71349609,0.00051244
5834.64230347,0.00051143
5836.57111084,0.00050712
5838.49991821,0.00053561
5840.42872559,0.00060137
5842.35753296,0.00051695
5844.28634033,0.00056409
5846.21514770,0.00053276
5848.14395508,0.00045581
5850.07276245,0.00053345
5852.00156982,0.00054993
5853.93037720,0.00052492
5855.85918457,0.00050355
5857.78799194,0.00055896
5859.71679932,0.00044458
5861.64560669,0.00046569
5863.57441406,0.00052932
5865.50322144,0.00045155
5867.43202881,0.00054616
5869.36083618,0.00043884
5871.28964355,0.00045864
5873.21845093,0.00051833
5875.14725830,0.00044820
5877.07606567,0.00049523
5879.00487305,0.00047353
5880.93368042,0.00047829
5882.86248779,0.00042704
5884.79129517,0.00049119
5886.72010254,0.00048690
5888.64890991,0.00045029
5890.57771728,0.00054680
5892.50652466,0.00046224
5894.43533203,0.00047574
5896.36413940,0.00045463
5898.29294678,0.00043670
5900.22175415,0.00050459
5902.15056152,0.00047775
5904.07936890,0.00048090
5906.00817627,0.00044656
5907.93698364,0.00043833
5909.86579102,0.00044656
5911.79459839,0.00045972
5913.72340576,0.00046681
5915.65221313,0.00045447
5917.58102051,0.00046805
5919.50982788,0.00045423
5921.43863525,0.00043825
5923.36744263,0.00042737
5925.29625000,0.00040869
5927.22505737,0.00042965
5929.15386475,0.00045918
5931.08267212,0.00039038
5933.01147949,0.00041766
5934.94028686,0.00041923
5936.86909424,0.00039144
5938.79790161,0.00047326
5940.72670898,0.00038794
5942.65551636,0.00038894
5944.58432373,0.00041948
5946.51313110,0.00038778
5948.44193848,0.00044111
5950.37074585,0.00045460
5952.29955322,0.00045698
5954.22836060,0.00040949
5956.15716797,0.00038347
5958.08597534,0.00041366
5960.01478271,0.00049436
5961.94359009,0.00044364
5963.87239746,0.00040241
5965.80120483,0.00041861
5967.73001221,0.00032253
5969.65881958,0.00043476
5971.58762695,0.00043901
5973.51643433,0.00041281
5975.44524170,0.00047464
5977.37404907,0.00041333
5979.30285645,0.00040273
5981.23166382,0.00035813
5983.16047119,0.00040643
5985.08927856,0.00039005
5987.01808594,0.00038611
5988.94689331,0.00045128
5990.87570068,0.00035483
5992.80450806,0.00032713
5994.73331543,0.00038228
5996.66212280,0.00040790
5998.59093018,0.00036732
6000.51973755,0.00042730
