399.26312622,0.00036617
401.19193359,0.00010373
403.12074097,-0.00006026
405.04954834,0.00013401
406.97835571,-0.00004615
408.90716309,0.00019444
410.83597046,0.00034757
412.76477783,0.00014049
414.69358521,-0.00000631
416.62239258,-0.00000427
418.55119995,0.00018657
420.48000732,0.00004753
422.40881470,0.00004648
424.33762207,0.00013303
426.26642944,0.00015938
428.19523682,0.00033752
430.12404419,0.00040013
432.05285156,0.00023490
433.98165894,0.00009068
435.91046631,-0.00004882
437.83927368,0.00000053
439.76808105,0.00029864
441.69688843,0.00022501
443.62569580,0.00021760
445.55450317,0.00017323
447.48331055,0.00016079
449.41211792,0.00041093
451.34092529,0.00013350
453.26973267,-0.00003393
455.19854004,0.00022289
457.12734741,0.00030409
459.05615479,0.00017925
460.98496216,0.00015451
462.91376953,0.00019620
464.84257690,0.00001574
466.77138428,-0.00007420
468.70019165,0.00015114
470.62899902,0.00005444
472.55780640,0.00010711
474.48661377,0.00043374
476.41542114,0.00013428
478.34422852,-0.00010040
480.27303589,0.00009153
482.20184326,0.00019992
484.13065063,0.00023420
486.05945801,0.00040413
487.98826538,0.00019199
489.91707275,-0.00018184
491.84588013,0.00015802
493.77468750,0.00014419
495.70349487,-0.00005719
497.63230225,0.00013067
499.56110962,-0.00002423
501.48991699,0.00016993
503.41872437,0.00034744
505.34753174,-0.00003796
507.27633911,-0.00000790
509.20514648,0.00029100
511.13395386,0.00030342
513.06276123,0.00008361
514.99156860,0.00016302
516.92037598,0.00026481
518.84918335,-0.00002947
520.77799072,0.00017487
522.70679810,0.00037371
524.63560547,0.00009751
526.56441284,0.00014724
528.49322021,0.00017712
530.42202759,0.00001589
532.35083496,0.00018512
534.27964233,0.00018771
536.20844971,-0.00010500
538.13725708,0.00012819
540.06606445,0.00037728
541.99487183,-0.00002118
543.92367920,-0.00006874
545.85248657,0.00028053
547.78129395,0.00000031
549.71010132,-0.00022697
551.63890869,0.00002581
553.56771606,0.00015868
555.49652344,0.00033192
557.42533081,0.00022461
559.35413818,0.00002502
561.28294556,0.00010938
563.21175293,0.00006106
565.14056030,0.00011873
567.06936768,-0.00001022
568.99817505,0.00014471
570.92698242,0.00045155
572.85578979,0.00001502
574.78459717,0.00024994
576.71340454,0.00040595
578.64221191,-0.00004763
580.57101929,0.00002801
582.49982666,0.00007807
584.42863403,0.00021984
586.35744141,0.00023904
588.28624878,0.00016239
590.21505615,0.00018084
592.14386353,0.00004536
594.07267090,0.00028800
596.00147827,0.00033574
597.93028564,0.00011824
599.85909302,0.00014891
601.78790039,0.00009569
603.71670776,0.00002114
605.64551514,0.00015833
607.57432251,0.00011161
609.50312988,0.00000181
611.43193726,0.00011026
613.36074463,0.00014115
615.28955200,0.00015443
617.21835938,0.00006734
619.14716675,0.00014031
621.07597412,0.00008786
623.00478149,0.00002500
624.93358887,0.00027690
626.86239624,0.00010973
628.79120361,0.00031474
630.72001099,0.00020984
632.64881836,-0.00002923
634.57762573,0.00046435
636.50643311,0.00013050
638.43524048,0.00012140
640.36404785,0.00027995
642.29285522,0.00002220
644.22166260,0.00020456
646.15046997,0.00016589
648.07927734,0.00017616
650.00808472,0.00022422
651.93689209,0.00030713
653.86569946,0.00026066
655.79450684,0.00018141
657.72331421,0.00042034
659.65212158,0.00035400
661.58092896,0.00018300
663.50973633,0.00038833
665.43854370,0.00025783
667.36735107,-0.00003190
669.29615845,0.00035166
671.22496582,0.00029387
673.15377319,0.00022786
675.08258057,0.00036365
677.01138794,0.00016702
678.94019531,0.00041092
680.86900269,0.00033360
682.79781006,0.00037029
684.72661743,0.00038079
686.65542480,0.00014518
688.58423218,0.00049455
690.51303955,0.00047553
692.44184692,0.00040372
694.37065430,0.00036445
696.29946167,0.00028031
698.22826904,0.00039586
700.15707642,0.00045021
702.08588379,0.00075801
704.01469116,0.00068070
705.94349854,0.00039441
707.87230591,0.00042627
709.80111328,0.00025717
711.72992065,0.00014817
713.65872803,0.00032640
715.58753540,0.00021010
717.51634277,0.00014876
719.44515015,0.00021408
721.37395752,-0.00000348
723.30276489,0.00026761
725.23157227,0.00031646
727.16037964,0.00014805
729.08918701,0.00024533
731.01799438,0.00022627
732.94680176,0.00033216
734.87560913,0.00019495
736.80441650,0.00026083
738.73322388,0.00014355
740.66203125,-0.00015230
742.59083862,0.00014473
744.51964600,0.00011766
746.44845337,0.00003297
748.37726074,0.00026599
750.30606812,0.00026670
752.23487549,0.00011682
754.16368286,0.00014384
756.09249023,0.00023997
758.02129761,0.00023821
759.95010498,0.00027195
761.87891235,0.00024565
763.80771973,0.00026106
765.73652710,0.00016200
767.66533447,0.00004007
769.59414185,0.00003583
771.52294922,0.00004325
773.45175659,0.00025676
775.38056396,0.00017376
777.30937134,0.00015118
779.23817871,0.00028087
781.16698608,-0.00002297
783.09579346,-0.00000953
785.02460083,0.00021065
786.95340820,0.00028179
788.88221558,0.00034744
790.81102295,0.00013283
792.73983032,0.00001075
794.66863770,0.00014562
796.59744507,0.00019076
798.52625244,0.00019240
800.45505981,0.00013365
802.38386719,0.00017592
804.31267456,0.00023327
806.24148193,0.00004854
808.17028931,0.00022341
810.09909668,0.00028106
812.02790405,0.00000034
813.95671143,0.00021115
815.88551880,0.00023320
817.81432617,0.00022595
819.74313354,0.00032275
821.67194092,0.00017754
823.60074829,0.00030496
825.52955566,0.00035884
827.45836304,0.00029671
829.38717041,0.00033201
831.31597778,0.00030937
833.24478516,0.00021037
835.17359253,0.00034458
837.10239990,0.00039293
839.03120728,0.00011562
840.96001465,0.00013447
842.88882202,0.00024491
844.81762939,0.00042265
846.74643677,0.00039945
848.67524414,0.00026534
850.60405151,0.00039519
852.53285889,0.00032127
854.46166626,0.00037488
856.39047363,0.00033039
858.31928101,0.00015588
860.24808838,0.00032019
862.17689575,0.00024581
864.10570313,0.00015507
866.03451050,0.00043314
867.96331787,0.00038051
869.89212524,0.00011816
871.82093262,0.00033313
873.74973999,0.00054238
875.67854736,0.00035546
877.60735474,0.00017511
879.53616211,0.00027664
881.46496948,0.00046899
883.39377686,0.00043558
885.32258423,0.00032252
887.25139160,0.00030609
889.18019897,0.00048465
891.10900635,0.00047605
893.03781372,0.00020984
894.96662109,0.00039729
896.89542847,0.00053292
898.82423584,0.00036874
900.75304321,0.00032698
902.68185059,0.00022384
904.61065796,0.00023978
906.53946533,0.00036475
908.46827271,0.00047118
910.39708008,0.00034564
912.32588745,0.00024800
914.25469482,0.00054742
916.18350220,0.00045144
918.11230957,0.00035482
920.04111694,0.00047349
921.96992432,0.00037085
923.89873169,0.00054812
925.82753906,0.00059908
927.75634644,0.00052037
929.68515381,0.00059601
931.61396118,0.00061287
933.54276855,0.00061437
935.47157593,0.00054422
937.40038330,0.00051700
939.32919067,0.00045095
941.25799805,0.00047856
943.18680542,0.00053828
945.11561279,0.00057183
947.04442017,0.00064450
948.97322754,0.00047620
950.90203491,0.00044993
952.83084229,0.00046569
954.75964966,0.00048782
956.68845703,0.00070883
958.61726440,0.00071320
960.54607178,0.00064137
962.47487915,0.00053911
964.40368652,0.00050422
966.33249390,0.00075778
968.26130127,0.00070568
970.19010864,0.00041973
972.11891602,0.00064427
974.04772339,0.00068439
975.97653076,0.00038591
977.90533813,0.00058990
979.83414551,0.00073167
981.76295288,0.00060454
983.69176025,0.00071078
985.62056763,0.00089815
987.54937500,0.00084916
989.47818237,0.00084435
991.40698975,0.00092284
993.33579712,0.00086638
995.26460449,0.00098629
997.19341187,0.00101888
999.12221924,0.00102313
1001.05102661,0.00105647
1002.97983398,0.00107746
1004.90864136,0.00125261
1006.83744873,0.00120090
1008.76625610,0.00123749
1010.69506348,0.00131915
1012.62387085,0.00130484
1014.55267822,0.00127528
1016.48148560,0.00133099
1018.41029297,0.00154967
1020.33910034,0.00142514
1022.26790771,0.00150739
1024.19671509,0.00164905
1026.12552246,0.00159997
1028.05432983,0.00186873
1029.98313721,0.00201007
1031.91194458,0.00193335
1033.84075195,0.00176819
1035.76955933,0.00179448
1037.69836670,0.00188424
1039.62717407,0.00190314
1041.55598145,0.00197038
1043.48478882,0.00184544
1045.41359619,0.00175531
1047.34240356,0.00167788
1049.27121094,0.00167179
1051.20001831,0.00168103
1053.12882568,0.00170797
1055.05763306,0.00173646
1056.98644043,0.00161976
1058.91524780,0.00164014
1060.84405518,0.00165260
1062.77286255,0.00171341
1064.70166992,0.00163774
1066.63047729,0.00159099
1068.55928467,0.00151874
1070.48809204,0.00146365
1072.41689941,0.00171239
1074.34570679,0.00134092
1076.27451416,0.00130227
1078.20332153,0.00127418
1080.13212891,0.00102132
1082.06093628,0.00157475
1083.98974365,0.00133652
1085.91855103,0.00119846
1087.84735840,0.00142524
1089.77616577,0.00110644
1091.70497314,0.00122078
1093.63378052,0.00121183
1095.56258789,0.00115180
1097.49139526,0.00123103
1099.42020264,0.00111331
1101.34901001,0.00106833
1103.27781738,0.00107548
1105.20662476,0.00102389
1107.13543213,0.00109236
1109.06423950,0.00126475
1110.99304687,0.00104756
1112.92185425,0.00102635
1114.85066162,0.00130133
1116.77946899,0.00128168
1118.70827637,0.00118221
1120.63708374,0.00116820
1122.56589111,0.00121125
1124.49469849,0.00100179
1126.42350586,0.00112735
1128.35231323,0.00136537
1130.28112061,0.00110931
1132.20992798,0.00125298
1134.13873535,0.00133451
1136.06754272,0.00126138
1137.99635010,0.00142663
1139.92515747,0.00143356
1141.85396484,0.00147633
1143.78277222,0.00138847
1145.71157959,0.00144341
1147.64038696,0.00165361
1149.56919434,0.00165231
1151.49800171,0.00170623
1153.42680908,0.00160498
1155.35561646,0.00159198
1157.28442383,0.00169701
1159.21323120,0.00162057
1161.14203857,0.00169509
1163.07084595,0.00181542
1164.99965332,0.00196764
1166.92846069,0.00201097
1168.85726807,0.00187570
1170.78607544,0.00196385
1172.71488281,0.00203696
1174.64369019,0.00220922
1176.57249756,0.00241511
1178.50130493,0.00231132
1180.43011230,0.00238132
1182.35891968,0.00249386
1184.28772705,0.00252080
1186.21653442,0.00261433
1188.14534180,0.00268993
1190.07414917,0.00286477
1192.00295654,0.00300140
1193.93176392,0.00305315
1195.86057129,0.00302130
1197.78937866,0.00321318
1199.71818604,0.00347480
1201.64699341,0.00336875
1203.57580078,0.00349985
1205.50460815,0.00365619
1207.43341553,0.00372109
1209.36222290,0.00393912
1211.29103027,0.00403811
1213.21983765,0.00424686
1215.14864502,0.00424332
1217.07745239,0.00419655
1219.00625977,0.00428497
1220.93506714,0.00425048
1222.86387451,0.00444613
1224.79268188,0.00442922
1226.72148926,0.00435965
1228.65029663,0.00447138
1230.57910400,0.00446687
1232.50791138,0.00450826
1234.43671875,0.00448354
1236.36552612,0.00456157
1238.29433350,0.00451824
1240.22314087,0.00443299
1242.15194824,0.00454574
1244.08075562,0.00448526
1246.00956299,0.00447718
1247.93837036,0.00456329
1249.86717773,0.00456129
1251.79598511,0.00449670
1253.72479248,0.00459376
1255.65359985,0.00449608
1257.58240723,0.00419736
1259.51121460,0.00421369
1261.44002197,0.00417231
1263.36882935,0.00413964
1265.29763672,0.00408085
1267.22644409,0.00420312
1269.15525146,0.00418619
1271.08405884,0.00375837
1273.01286621,0.00389476
1274.94167358,0.00397177
1276.87048096,0.00392367
1278.79928833,0.00386171
1280.72809570,0.00364597
1282.65690308,0.00378120
1284.58571045,0.00371681
1286.51451782,0.00365493
1288.44332520,0.00363500
1290.37213257,0.00348653
1292.30093994,0.00346999
1294.22974731,0.00356658
1296.15855469,0.00360093
1298.08736206,0.00337702
1300.01616943,0.00341546
1301.94497681,0.00350389
1303.87378418,0.00356549
1305.80259155,0.00363708
1307.73139893,0.00359511
1309.66020630,0.00375700
1311.58901367,0.00363643
1313.51782104,0.00357457
1315.44662842,0.00377763
1317.37543579,0.00390275
1319.30424316,0.00404197
1321.23305054,0.00407795
1323.16185791,0.00419182
1325.09066528,0.00419097
1327.01947266,0.00428395
1328.94828003,0.00447274
1330.87708740,0.00436342
1332.80589478,0.00453018
1334.73470215,0.00464238
1336.66350952,0.00448355
1338.59231689,0.00461263
1340.52112427,0.00466468
1342.44993164,0.00476021
1344.37873901,0.00509020
1346.30754639,0.00500518
1348.23635376,0.00485057
1350.16516113,0.00489378
1352.09396851,0.00472194
1354.02277588,0.00475705
1355.95158325,0.00488170
1357.88039062,0.00475947
1359.80919800,0.00474994
1361.73800537,0.00458188
1363.66681274,0.00453395
1365.59562012,0.00475456
1367.52442749,0.00454163
1369.45323486,0.00452601
1371.38204224,0.00460381
1373.31084961,0.00438964
1375.23965698,0.00443554
1377.16846436,0.00441086
1379.09727173,0.00448031
1381.02607910,0.00446195
1382.95488647,0.00439975
1384.88369385,0.00455424
1386.81250122,0.00425029
1388.74130859,0.00433646
1390.67011597,0.00475194
1392.59892334,0.00449260
1394.52773071,0.00431415
1396.45653809,0.00454147
1398.38534546,0.00441895
1400.31415283,0.00443277
1402.24296021,0.00485620
1404.17176758,0.00468780
1406.10057495,0.00467874
1408.02938232,0.00486736
1409.95818970,0.00469149
1411.88699707,0.00459676
1413.81580444,0.00451202
1415.74461182,0.00461461
1417.67341919,0.00424386
1419.60222656,0.00399269
1421.53103394,0.00436511
1423.45984131,0.00432680
1425.38864868,0.00428304
1427.31745605,0.00419300
1429.24626343,0.00399835
1431.17507080,0.00404328
1433.10387817,0.00410325
1435.03268555,0.00375141
1436.96149292,0.00351248
1438.89030029,0.00388685
1440.81910767,0.00381341
1442.74791504,0.00362003
1444.67672241,0.00372305
1446.60552979,0.00368590
1448.53433716,0.00375944
1450.46314453,0.00374808
1452.39195190,0.00377319
1454.32075928,0.00378867
1456.24956665,0.00322598
1458.17837402,0.00329962
1460.10718140,0.00425990
1462.03598877,0.00437313
1463.96479614,0.00428670
1465.89360352,0.00449958
1467.82241089,0.00487173
1469.75121826,0.00521855
1471.68002563,0.00471143
1473.60883301,0.00488679
1475.53764038,0.00553498
1477.46644775,0.00580746
1479.39525513,0.00618101
1481.32406250,0.00633487
1483.25286987,0.00669659
1485.18167725,0.00668377
1487.11048462,0.00654181
1489.03929199,0.00641622
1490.96809937,0.00654437
1492.89690674,0.00767989
1494.82571411,0.00731217
1496.75452148,0.00663074
1498.68332886,0.00747488
1500.61213623,0.00756123
1502.54094360,0.00809113
1504.46975098,0.00767334
1506.39855835,0.00555217
1508.32736572,0.00664094
1510.25617310,0.00783431
1512.18498047,0.00783045
1514.11378784,0.00846072
1516.04259521,0.00738360
1517.97140259,0.00785012
1519.90020996,0.00768282
1521.82901733,0.00664958
1523.75782471,0.00820299
1525.68663208,0.00795024
1527.61543945,0.00791497
1529.54424683,0.00883199
1531.47305420,0.00839312
1533.40186157,0.00763865
1535.33066895,0.00822993
1537.25947632,0.00864372
1539.18828369,0.00611376
1541.11709106,0.00655670
1543.04589844,0.00776856
1544.97470581,0.00758346
1546.90351318,0.00885716
1548.83232056,0.00815385
1550.76112793,0.00850612
1552.68993530,0.00839100
1554.61874268,0.00773300
1556.54755005,0.00813614
1558.47635742,0.00576418
1560.40516479,0.00636161
1562.33397217,0.00882221
1564.26277954,0.00847577
1566.19158691,0.00873157
1568.12039429,0.00852842
1570.04920166,0.00762340
1571.97800903,0.00877777
1573.90681641,0.00878454
1575.83562378,0.00702890
1577.76443115,0.00808971
1579.69323853,0.00904108
1581.62204590,0.00853436
1583.55085327,0.00880599
1585.47966064,0.00882402
1587.40846802,0.00886161
1589.33727539,0.00866000
1591.26608276,0.00862055
1593.19489014,0.00877229
1595.12369751,0.00869847
1597.05250488,0.00869282
1598.98131226,0.00863698
1600.91011963,0.00864347
1602.83892700,0.00864250
1604.76773437,0.00880381
1606.69654175,0.00855980
1608.62534912,0.00863838
1610.55415649,0.00856881
1612.48296387,0.00860858
1614.41177124,0.00872106
1616.34057861,0.00721854
1618.26938599,0.00781195
1620.19819336,0.00905887
1622.12700073,0.00811995
1624.05580811,0.00795556
1625.98461548,0.00845603
1627.91342285,0.00840833
1629.84223022,0.00832663
1631.77103760,0.00901406
1633.69984497,0.00812388
1635.62865234,0.00676437
1637.55745972,0.00793282
1639.48626709,0.00878080
1641.41507446,0.00864088
1643.34388184,0.00870765
1645.27268921,0.00781482
1647.20149658,0.00689791
1649.13030396,0.00853671
1651.05911133,0.00797908
1652.98791870,0.00531475
1654.91672607,0.00723495
1656.84553345,0.00881619
1658.77434082,0.00854989
1660.70314819,0.00873520
1662.63195557,0.00784603
1664.56076294,0.00833353
1666.48957031,0.00892740
1668.41837769,0.00777987
1670.34718506,0.00764766
1672.27599243,0.00868150
1674.20479980,0.00799164
1676.13360718,0.00773142
1678.06241455,0.00875373
1679.99122192,0.00844441
1681.92002930,0.00838802
1683.84883667,0.00687873
1685.77764404,0.00695668
1687.70645142,0.00920203
1689.63525879,0.00811042
1691.56406616,0.00896461
1693.49287354,0.00894170
1695.42168091,0.00671979
1697.35048828,0.00812922
1699.27929565,0.00713303
1701.20810303,0.00650423
1703.13691040,0.00866857
1705.06571777,0.00786636
1706.99452515,0.00796016
1708.92333252,0.00877625
1710.85213989,0.00840301
1712.78094727,0.00864804
1714.70975464,0.00800492
1716.63856201,0.00716094
1718.56736938,0.00714900
1720.49617676,0.00834249
1722.42498413,0.00878096
1724.35379150,0.00811254
1726.28259888,0.00869582
1728.21140625,0.00806707
1730.14021362,0.00807420
1732.06902100,0.00793218
1733.99782837,0.00614821
1735.92663574,0.00779283
1737.85544312,0.00842156
1739.78425049,0.00732051
1741.71305786,0.00813134
1743.64186523,0.00824959
1745.57067261,0.00826335
1747.49947998,0.00816363
1749.42828735,0.00770223
1751.35709473,0.00752641
1753.28590210,0.00835758
1755.21470947,0.00857588
1757.14351685,0.00786715
1759.07232422,0.00881171
1761.00113159,0.00812974
1762.92993896,0.00799699
1764.85874634,0.00917644
1766.78755371,0.00805509
1768.71636108,0.00820034
1770.64516846,0.00809669
1772.57397583,0.00734513
1774.50278320,0.00819915
1776.43159058,0.00858013
1778.36039795,0.00845826
1780.28920532,0.00835175
1782.21801270,0.00856824
1784.14682007,0.00834277
1786.07562744,0.00817222
1788.00443481,0.00878460
1789.93324219,0.00835426
1791.86204956,0.00760657
1793.79085693,0.00805520
1795.71966431,0.00858488
1797.64847168,0.00841704
1799.57727905,0.00831189
1801.50608643,0.00816261
1803.43489380,0.00832543
1805.36370117,0.00861905
1807.29250854,0.00844570
1809.22131592,0.00844538
1811.15012329,0.00831033
1813.07893066,0.00839727
1815.00773804,0.00856130
1816.93654541,0.00855307
1818.86535278,0.00844219
1820.79416016,0.00843394
1822.72296753,0.00865061
1824.65177490,0.00816010
1826.58058228,0.00827632
1828.50938965,0.00825322
1830.43819702,0.00790512
1832.36700439,0.00840426
1834.29581177,0.00843753
1836.22461914,0.00852390
1838.15342651,0.00830685
1840.08223389,0.00849263
1842.01104126,0.00844993
1843.93984863,0.00742549
1845.86865601,0.00797619
1847.79746338,0.00837686
1849.72627075,0.00834032
1851.65507812,0.00846473
1853.58388550,0.00820534
1855.51269287,0.00846035
1857.44150024,0.00838559
1859.37030762,0.00831885
1861.29911499,0.00829232
1863.22792236,0.00812590
1865.15672974,0.00823928
1867.08553711,0.00793261
1869.01434448,0.00768863
1870.94315186,0.00813187
1872.87195923,0.00839138
1874.80076660,0.00816509
1876.72957397,0.00825205
1878.65838135,0.00816189
1880.58718872,0.00816794
1882.51599609,0.00835687
1884.44480347,0.00812937
1886.37361084,0.00823155
1888.30241821,0.00801842
1890.23122559,0.00796118
1892.16003296,0.00826155
1894.08884033,0.00798337
1896.01764771,0.00796001
1897.94645508,0.00799315
1899.87526245,0.00794218
1901.80406982,0.00791249
1903.73287720,0.00795461
1905.66168457,0.00809584
1907.59049194,0.00788291
1909.51929932,0.00796626
1911.44810669,0.00798957
1913.37691406,0.00785078
1915.30572144,0.00802275
1917.23452881,0.00775980
1919.16333618,0.00775733
1921.09214355,0.00795640
1923.02095093,0.00763695
1924.94975830,0.00778717
1926.87856567,0.00803410
1928.80737305,0.00796036
1930.73618042,0.00789861
1932.66498779,0.00777406
1934.59379517,0.00782732
1936.52260254,0.00778781
1938.45140991,0.00784995
1940.38021729,0.00787263
1942.30902466,0.00753736
1944.23783203,0.00758834
1946.16663940,0.00779699
1948.09544678,0.00777105
1950.02425415,0.00772633
1951.95306152,0.00779512
1953.88186890,0.00781039
1955.81067627,0.00777947
1957.73948364,0.00778752
1959.66829102,0.00762822
1961.59709839,0.00766150
1963.52590576,0.00769069
1965.45471313,0.00753539
1967.38352051,0.00753659
1969.31232788,0.00761249
1971.24113525,0.00770228
1973.16994263,0.00762821
1975.09875000,0.00756009
1977.02755737,0.00760350
1978.95636475,0.00759324
1980.88517212,0.00751154
1982.81397949,0.00751602
1984.74278687,0.00765598
1986.67159424,0.00757195
1988.60040161,0.00748976
1990.52920898,0.00747210
1992.45801636,0.00736521
1994.38682373,0.00741731
1996.31563110,0.00749636
1998.24443848,0.00748092
2000.17324585,0.00744810
2002.10205322,0.00743240
2004.03086060,0.00739461
2005.95966797,0.00731241
2007.88847534,0.00725306
2009.81728271,0.00732995
2011.74609009,0.00741713
2013.67489746,0.00735674
2015.60370483,0.00730397
2017.53251221,0.00730754
2019.46131958,0.00732209
2021.39012695,0.00723707
2023.31893433,0.00721978
2025.24774170,0.00722453
2027.17654907,0.00707929
2029.10535645,0.00709056
2031.03416382,0.00712794
2032.96297119,0.00717674
2034.89177856,0.00714840
2036.82058594,0.00705772
2038.74939331,0.00717501
2040.67820068,0.00705466
2042.60700806,0.00699932
2044.53581543,0.00708085
2046.46462280,0.00690366
2048.39343018,0.00694922
2050.32223755,0.00697911
2052.25104492,0.00693183
2054.17985229,0.00702414
2056.10865967,0.00689790
2058.03746704,0.00687047
2059.96627441,0.00693019
2061.89508179,0.00691831
2063.82388916,0.00697676
2065.75269653,0.00680070
2067.68150391,0.00673286
2069.61031128,0.00693934
2071.53911865,0.00688625
2073.46792603,0.00671696
2075.39673340,0.00679685
2077.32554077,0.00683254
2079.25434814,0.00670691
2081.18315552,0.00680272
2083.11196289,0.00685453
2085.04077026,0.00674252
2086.96957764,0.00671774
2088.89838501,0.00671963
2090.82719238,0.00675921
2092.75599976,0.00677854
2094.68480713,0.00679633
2096.61361450,0.00671322
2098.54242187,0.00663037
2100.47122925,0.00659054
2102.40003662,0.00654713
2104.32884399,0.00665693
2106.25765137,0.00664177
2108.18645874,0.00663003
2110.11526611,0.00655454
2112.04407349,0.00649118
2113.97288086,0.00661803
2115.90168823,0.00648710
2117.83049561,0.00644213
2119.75930298,0.00646868
2121.68811035,0.00644964
2123.61691772,0.00643586
2125.54572510,0.00636372
2127.47453247,0.00648852
2129.40333984,0.00642266
2131.33214722,0.00629788
2133.26095459,0.00639975
2135.18976196,0.00645320
2137.11856934,0.00639197
2139.04737671,0.00642117
2140.97618408,0.00644333
2142.90499146,0.00622094
2144.83379883,0.00624880
2146.76260620,0.00636218
2148.69141357,0.00635506
2150.62022095,0.00631546
2152.54902832,0.00629502
2154.47783569,0.00641205
2156.40664307,0.00630120
2158.33545044,0.00640090
2160.26425781,0.00637826
2162.19306519,0.00619364
2164.12187256,0.00638267
2166.05067993,0.00622805
2167.97948730,0.00620330
2169.90829468,0.00627225
2171.83710205,0.00613030
2173.76590942,0.00618719
2175.69471680,0.00617881
2177.62352417,0.00621822
2179.55233154,0.00619088
2181.48113892,0.00606349
2183.40994629,0.00605801
2185.33875366,0.00623189
2187.26756104,0.00624743
2189.19636841,0.00606966
2191.12517578,0.00613987
2193.05398315,0.00606617
2194.98279053,0.00604969
2196.91159790,0.00611568
2198.84040527,0.00605560
2200.76921265,0.00605107
2202.69802002,0.00598968
2204.62682739,0.00614086
2206.55563477,0.00606932
2208.48444214,0.00593508
2210.41324951,0.00608582
2212.34205688,0.00597700
2214.27086426,0.00584925
2216.19967163,0.00581484
2218.12847900,0.00587590
2220.05728638,0.00592117
2221.98609375,0.00587340
2223.91490112,0.00589616
2225.84370850,0.00593747
2227.77251587,0.00599141
2229.70132324,0.00588826
2231.63013062,0.00589006
2233.55893799,0.00590489
2235.48774536,0.00573504
2237.41655273,0.00575941
2239.34536011,0.00582422
2241.27416748,0.00585941
2243.20297485,0.00582497
2245.13178223,0.00568744
2247.06058960,0.00570252
2248.98939697,0.00575849
2250.91820435,0.00578861
2252.84701172,0.00585660
2254.77581909,0.00576474
2256.70462646,0.00565767
2258.63343384,0.00573381
2260.56224121,0.00569754
2262.49104858,0.00569000
2264.41985596,0.00575025
2266.34866333,0.00562318
2268.27747070,0.00566433
2270.20627808,0.00574308
2272.13508545,0.00558125
2274.06389282,0.00566355
2275.99270020,0.00577403
2277.92150757,0.00561848
2279.85031494,0.00565334
2281.77912231,0.00561845
2283.70792969,0.00548073
2285.63673706,0.00553073
2287.56554443,0.00552206
2289.49435181,0.00556154
2291.42315918,0.00558353
2293.35196655,0.00549025
2295.28077393,0.00545279
2297.20958130,0.00547742
2299.13838867,0.00549113
2301.06719604,0.00552873
2302.99600342,0.00548552
2304.92481079,0.00530315
2306.85361816,0.00538826
2308.78242554,0.00535764
2310.71123291,0.00518769
2312.64004028,0.00523093
2314.56884766,0.00515015
2316.49765503,0.00510470
2318.42646240,0.00501843
2320.35526978,0.00501078
2322.28407715,0.00501093
2324.21288452,0.00491792
2326.14169189,0.00500027
2328.07049927,0.00482643
2329.99930664,0.00467936
2331.92811401,0.00471114
2333.85692139,0.00472555
2335.78572876,0.00469504
2337.71453613,0.00460245
2339.64334351,0.00469115
2341.57215088,0.00471145
2343.50095825,0.00471242
2345.42976562,0.00479673
2347.35857300,0.00505253
2349.28738037,0.00517999
2351.21618774,0.00489008
2353.14499512,0.00477907
2355.07380249,0.00462786
2357.00260986,0.00439715
2358.93141724,0.00438099
2360.86022461,0.00434489
2362.78903198,0.00425814
2364.71783936,0.00425458
2366.64664673,0.00435145
2368.57545410,0.00446214
2370.50426147,0.00460098
2372.43306885,0.00463879
2374.36187622,0.00475228
2376.29068359,0.00488388
2378.21949097,0.00495641
2380.14829834,0.00508340
2382.07710571,0.00505328
2384.00591309,0.00511963
2385.93472046,0.00508774
2387.86352783,0.00497546
2389.79233521,0.00505815
2391.72114258,0.00514352
2393.64994995,0.00516764
2395.57875732,0.00505918
2397.50756470,0.00508963
2399.43637207,0.00502133
2401.36517944,0.00500143
2403.29398682,0.00511851
2405.22279419,0.00493295
2407.15160156,0.00498480
2409.08040894,0.00505026
2411.00921631,0.00495735
2412.93802368,0.00491651
2414.86683105,0.00490503
2416.79563843,0.00505055
2418.72444580,0.00491661
2420.65325317,0.00487820
2422.58206055,0.00499645
2424.51086792,0.00489198
2426.43967529,0.00496165
2428.36848267,0.00495346
2430.29729004,0.00485830
2432.22609741,0.00478842
2434.15490479,0.00473644
2436.08371216,0.00489534
2438.01251953,0.00489448
2439.94132690,0.00483316
2441.87013428,0.00475677
2443.79894165,0.00463210
2445.72774902,0.00475286
2447.65655640,0.00477105
2449.58536377,0.00475834
2451.51417114,0.00482395
2453.44297852,0.00473357
2455.37178589,0.00468283
2457.30059326,0.00469833
2459.22940063,0.00472405
2461.15820801,0.00476157
2463.08701538,0.00477984
2465.01582275,0.00481071
2466.94463013,0.00482470
2468.87343750,0.00475666
2470.80224487,0.00478201
2472.73105225,0.00473616
2474.65985962,0.00460110
2476.58866699,0.00473761
2478.51747437,0.00459664
2480.44628174,0.00449391
2482.37508911,0.00473314
2484.30389648,0.00462886
2486.23270386,0.00456409
2488.16151123,0.00459249
2490.09031860,0.00457289
2492.01912598,0.00463839
2493.94793335,0.00461748
2495.87674072,0.00452778
2497.80554810,0.00456663
2499.73435547,0.00466399
2501.66316284,0.00455506
2503.59197021,0.00459664
2505.52077759,0.00459163
2507.44958496,0.00449344
2509.37839233,0.00454224
2511.30719971,0.00442457
2513.23600708,0.00445533
2515.16481445,0.00447650
2517.09362183,0.00445390
2519.02242920,0.00449898
2520.95123657,0.00445068
2522.88004395,0.00445798
2524.80885132,0.00433262
2526.73765869,0.00439409
2528.66646606,0.00452063
2530.59527344,0.00439664
2532.52408081,0.00435263
2534.45288818,0.00436441
2536.38169556,0.00438281
2538.31050293,0.00435116
2540.23931030,0.00444639
2542.16811768,0.00451435
2544.09692505,0.00439868
2546.02573242,0.00446767
2547.95453979,0.00439120
2549.88334717,0.00426366
2551.81215454,0.00441475
2553.74096191,0.00435290
2555.66976929,0.00427439
2557.59857666,0.00436259
2559.52738403,0.00433354
2561.45619141,0.00431998
2563.38499878,0.00426157
2565.31380615,0.00423966
2567.24261353,0.00426378
2569.17142090,0.00426021
2571.10022827,0.00428173
2573.02903564,0.00421596
2574.95784302,0.00424294
2576.88665039,0.00424298
2578.81545776,0.00417496
2580.74426514,0.00412459
2582.67307251,0.00416181
2584.60187988,0.00432842
2586.53068726,0.00428159
2588.45949463,0.00419975
2590.38830200,0.00418563
2592.31710937,0.00423642
2594.24591675,0.00422135
2596.17472412,0.00413658
2598.10353149,0.00420493
2600.03233887,0.00413498
2601.96114624,0.00414672
2603.88995361,0.00417010
2605.81876099,0.00412827
2607.74756836,0.00415409
2609.67637573,0.00405986
2611.60518311,0.00403007
2613.53399048,0.00405953
2615.46279785,0.00410451
2617.39160522,0.00403211
2619.32041260,0.00405876
2621.24921997,0.00410824
2623.17802734,0.00402720
2625.10683472,0.00407782
2627.03564209,0.00392899
2628.96444946,0.00393489
2630.89325684,0.00401691
2632.82206421,0.00397526
2634.75087158,0.00408696
2636.67967895,0.00408027
2638.60848633,0.00409006
2640.53729370,0.00400987
2642.46610107,0.00397449
2644.39490845,0.00405917
2646.32371582,0.00404358
2648.25252319,0.00406603
2650.18133057,0.00401342
2652.11013794,0.00397645
2654.03894531,0.00394460
2655.96775269,0.00386641
2657.89656006,0.00393628
2659.82536743,0.00406037
2661.75417480,0.00388896
2663.68298218,0.00378207
2665.61178955,0.00393929
2667.54059692,0.00391818
2669.46940430,0.00395630
2671.39821167,0.00392592
2673.32701904,0.00384013
2675.25582642,0.00387285
2677.18463379,0.00386486
2679.11344116,0.00393527
2681.04224854,0.00391857
2682.97105591,0.00388471
2684.89986328,0.00379766
2686.82867065,0.00377318
2688.75747803,0.00382541
2690.68628540,0.00379704
2692.61509277,0.00385280
2694.54390015,0.00377452
2696.47270752,0.00381322
2698.40151489,0.00380820
2700.33032227,0.00369401
2702.25912964,0.00379438
2704.18793701,0.00374852
2706.11674438,0.00375556
2708.04555176,0.00380006
2709.97435913,0.00377286
2711.90316650,0.00374070
2713.83197388,0.00366231
2715.76078125,0.00377055
2717.68958862,0.00380922
2719.61839600,0.00366822
2721.54720337,0.00364901
2723.47601074,0.00379927
2725.40481812,0.00378740
2727.33362549,0.00361676
2729.26243286,0.00367447
2731.19124023,0.00371107
2733.12004761,0.00360124
2735.04885498,0.00359788
2736.97766235,0.00364721
2738.90646973,0.00366067
2740.83527710,0.00362579
2742.76408447,0.00357236
2744.69289185,0.00356123
2746.62169922,0.00359032
2748.55050659,0.00360576
2750.47931396,0.00355538
2752.40812134,0.00352149
2754.33692871,0.00356396
2756.26573608,0.00360576
2758.19454346,0.00357739
2760.12335083,0.00348843
2762.05215820,0.00352326
2763.98096558,0.00357584
2765.90977295,0.00354144
2767.83858032,0.00355932
2769.76738770,0.00350259
2771.69619507,0.00348772
2773.62500244,0.00348798
2775.55380981,0.00343505
2777.48261719,0.00350803
2779.41142456,0.00349850
2781.34023193,0.00341859
2783.26903931,0.00339032
2785.19784668,0.00341209
2787.12665405,0.00342647
2789.05546143,0.00338413
2790.98426880,0.00340941
2792.91307617,0.00342253
2794.84188354,0.00340277
2796.77069092,0.00333411
2798.69949829,0.00333593
2800.62830566,0.00345547
2802.55711304,0.00342633
2804.48592041,0.00337830
2806.41472778,0.00334843
2808.34353516,0.00331632
2810.27234253,0.00334545
2812.20114990,0.00329011
2814.12995728,0.00327056
2816.05876465,0.00334586
2817.98757202,0.00336166
2819.91637939,0.00333592
2821.84518677,0.00332405
2823.77399414,0.00329774
2825.70280151,0.00328900
2827.63160889,0.00326528
2829.56041626,0.00323247
2831.48922363,0.00330837
2833.41803101,0.00327594
2835.34683838,0.00316067
2837.27564575,0.00328471
2839.20445312,0.00334819
2841.13326050,0.00315715
2843.06206787,0.00311570
2844.99087524,0.00319407
2846.91968262,0.00322129
2848.84848999,0.00327043
2850.77729736,0.00315481
2852.70610474,0.00304050
2854.63491211,0.00306769
2856.56371948,0.00309686
2858.49252686,0.00313184
2860.42133423,0.00308439
2862.35014160,0.00306739
2864.27894897,0.00299426
2866.20775635,0.00296924
2868.13656372,0.00311517
2870.06537109,0.00312661
2871.99417847,0.00305701
2873.92298584,0.00304527
2875.85179321,0.00314806
2877.78060059,0.00302032
2879.70940796,0.00293035
2881.63821533,0.00310664
2883.56702270,0.00303941
2885.49583008,0.00301484
2887.42463745,0.00296056
2889.35344482,0.00301176
2891.28225220,0.00310228
2893.21105957,0.00293158
2895.13986694,0.00292909
2897.06867432,0.00293250
2898.99748169,0.00302304
2900.92628906,0.00294401
2902.85509644,0.00289286
2904.78390381,0.00306330
2906.71271118,0.00294548
2908.64151855,0.00295750
2910.57032593,0.00290111
2912.49913330,0.00283642
2914.42794067,0.00281769
2916.35674805,0.00287859
2918.28555542,0.00301026
2920.21436279,0.00282574
2922.14317017,0.00294382
2924.07197754,0.00289496
2926.00078491,0.00280763
2927.92959229,0.00285922
2929.85839966,0.00269407
2931.78720703,0.00291337
2933.71601440,0.00290219
2935.64482178,0.00287594
2937.57362915,0.00295276
2939.50243652,0.00280646
2941.43124390,0.00282976
2943.36005127,0.00278774
2945.28885864,0.00284985
2947.21766602,0.00283176
2949.14647339,0.00275228
2951.07528076,0.00279985
2953.00408813,0.00283157
2954.93289551,0.00288170
2956.86170288,0.00278051
2958.79051025,0.00275239
2960.71931763,0.00272878
2962.64812500,0.00275314
2964.57693237,0.00283123
2966.50573975,0.00274315
2968.43454712,0.00272092
2970.36335449,0.00267208
2972.29216187,0.00268877
2974.22096924,0.00274684
2976.14977661,0.00268004
2978.07858398,0.00273830
2980.00739136,0.00279557
2981.93619873,0.00276128
2983.86500610,0.00275789
2985.79381348,0.00273057
2987.72262085,0.00277719
2989.65142822,0.00275197
2991.58023560,0.00264786
2993.50904297,0.00268104
2995.43785034,0.00267479
2997.36665771,0.00274409
2999.29546509,0.00272801
3001.22427246,0.00261596
3003.15307983,0.00268260
3005.08188721,0.00269976
3007.01069458,0.00270340
3008.93950195,0.00267147
3010.86830933,0.00271211
3012.79711670,0.00266561
3014.72592407,0.00256863
3016.65473145,0.00268617
3018.58353882,0.00257406
3020.51234619,0.00253514
3022.44115356,0.00262374
3024.36996094,0.00259664
3026.29876831,0.00258817
3028.22757568,0.00254575
3030.15638306,0.00254093
3032.08519043,0.00252433
3034.01399780,0.00258418
3035.94280518,0.00254231
3037.87161255,0.00250908
3039.80041992,0.00260413
3041.72922729,0.00250388
3043.65803467,0.00248854
3045.58684204,0.00250793
3047.51564941,0.00241671
3049.44445679,0.00243011
3051.37326416,0.00257569
3053.30207153,0.00262409
3055.23087891,0.00247441
3057.15968628,0.00244920
3059.08849365,0.00253257
3061.01730103,0.00253305
3062.94610840,0.00251663
3064.87491577,0.00245886
3066.80372314,0.00241353
3068.73253052,0.00247906
3070.66133789,0.00243476
3072.59014526,0.00240688
3074.51895264,0.00243279
3076.44776001,0.00234435
3078.37656738,0.00240865
3080.30537476,0.00246356
3082.23418213,0.00242846
3084.16298950,0.00240351
3086.09179687,0.00242269
3088.02060425,0.00246280
3089.94941162,0.00240504
3091.87821899,0.00240701
3093.80702637,0.00240751
3095.73583374,0.00235625
3097.66464111,0.00221359
3099.59344849,0.00230028
3101.52225586,0.00240991
3103.45106323,0.00226834
3105.37987061,0.00238262
3107.30867798,0.00226196
3109.23748535,0.00223260
3111.16629272,0.00241327
3113.09510010,0.00228965
3115.02390747,0.00237282
3116.95271484,0.00233196
3118.88152222,0.00227576
3120.81032959,0.00237474
3122.73913696,0.00228497
3124.66794434,0.00224225
3126.59675171,0.00224256
3128.52555908,0.00227350
3130.45436645,0.00229390
3132.38317383,0.00225403
3134.31198120,0.00226463
3136.24078857,0.00227818
3138.16959595,0.00216023
3140.09840332,0.00213151
3142.02721069,0.00219187
3143.95601807,0.00218863
3145.88482544,0.00218954
3147.81363281,0.00215901
3149.74244019,0.00228972
3151.67124756,0.00220153
3153.60005493,0.00205267
3155.52886230,0.00219869
3157.45766968,0.00210463
3159.38647705,0.00206157
3161.31528442,0.00208503
3163.24409180,0.00208590
3165.17289917,0.00217575
3167.10170654,0.00206474
3169.03051392,0.00203596
3170.95932129,0.00211906
3172.88812866,0.00212204
3174.81693604,0.00212748
3176.74574341,0.00202670
3178.67455078,0.00191108
3180.60335815,0.00194025
3182.53216553,0.00195494
3184.46097290,0.00206433
3186.38978027,0.00212936
3188.31858765,0.00195439
3190.24739502,0.00199551
3192.17620239,0.00207575
3194.10500977,0.00199297
3196.03381714,0.00197720
3197.96262451,0.00198186
3199.89143188,0.00198170
3201.82023926,0.00196908
3203.74904663,0.00200490
3205.67785400,0.00200090
3207.60666138,0.00198410
3209.53546875,0.00199710
3211.46427612,0.00189689
3213.39308350,0.00189473
3215.32189087,0.00198815
3217.25069824,0.00199483
3219.17950562,0.00199341
3221.10831299,0.00191360
3223.03712036,0.00192332
3224.96592773,0.00202709
3226.89473511,0.00193352
3228.82354248,0.00195914
3230.75234985,0.00195603
3232.68115723,0.00186557
3234.60996460,0.00200220
3236.53877197,0.00201767
3238.46757935,0.00194394
3240.39638672,0.00191850
3242.32519409,0.00196625
3244.25400146,0.00195271
3246.18280884,0.00185685
3248.11161621,0.00185512
3250.04042358,0.00180970
3251.96923096,0.00185700
3253.89803833,0.00183633
3255.82684570,0.00183296
3257.75565308,0.00191158
3259.68446045,0.00185508
3261.61326782,0.00180697
3263.54207520,0.00182422
3265.47088257,0.00198014
3267.39968994,0.00190265
3269.32849731,0.00185582
3271.25730469,0.00197628
3273.18611206,0.00190441
3275.11491943,0.00185093
3277.04372681,0.00176465
3278.97253418,0.00185678
3280.90134155,0.00189679
3282.83014893,0.00185075
3284.75895630,0.00190132
3286.68776367,0.00186330
3288.61657104,0.00186506
3290.54537842,0.00178404
3292.47418579,0.00185363
3294.40299316,0.00185548
3296.33180054,0.00179819
3298.26060791,0.00190279
3300.18941528,0.00184297
3302.11822266,0.00183729
3304.04703003,0.00181013
3305.97583740,0.00178591
3307.90464478,0.00180549
3309.83345215,0.00189973
3311.76225952,0.00190443
3313.69106689,0.00178405
3315.61987427,0.00190208
3317.54868164,0.00179894
3319.47748901,0.00176275
3321.40629639,0.00190324
3323.33510376,0.00185847
3325.26391113,0.00181363
3327.19271851,0.00173630
3329.12152588,0.00180794
3331.05033325,0.00182384
3332.97914062,0.00177731
3334.90794800,0.00180591
3336.83675537,0.00176007
3338.76556274,0.00175751
3340.69437012,0.00179753
3342.62317749,0.00182539
3344.55198486,0.00179993
3346.48079224,0.00182130
3348.40959961,0.00178985
3350.33840698,0.00174049
3352.26721436,0.00175552
3354.19602173,0.00172207
3356.12482910,0.00176646
3358.05363647,0.00177732
3359.98244385,0.00173447
3361.91125122,0.00171927
3363.84005859,0.00170124
3365.76886597,0.00167134
3367.69767334,0.00176081
3369.62648071,0.00178330
3371.55528809,0.00160162
3373.48409546,0.00169510
3375.41290283,0.00172536
3377.34171020,0.00168761
3379.27051758,0.00178760
3381.19932495,0.00165565
3383.12813232,0.00169886
3385.05693970,0.00171196
3386.98574707,0.00159202
3388.91455444,0.00168919
3390.84336182,0.00165962
3392.77216919,0.00164902
3394.70097656,0.00165787
3396.62978394,0.00159014
3398.55859131,0.00167508
3400.48739868,0.00168858
3402.41620605,0.00163423
3404.34501343,0.00163948
3406.27382080,0.00162148
3408.20262817,0.00164328
3410.13143555,0.00167734
3412.06024292,0.00165542
3413.98905029,0.00158559
3415.91785767,0.00157379
3417.84666504,0.00163931
3419.77547241,0.00160684
3421.70427979,0.00163714
3423.63308716,0.00173024
3425.56189453,0.00164266
3427.49070190,0.00164206
3429.41950928,0.00166621
3431.34831665,0.00164219
3433.27712402,0.00179533
3435.20593140,0.00170642
3437.13473877,0.00152121
3439.06354614,0.00163748
3440.99235352,0.00164786
3442.92116089,0.00155843
3444.84996826,0.00161478
3446.77877563,0.00162278
3448.70758301,0.00156631
3450.63639038,0.00160970
3452.56519775,0.00157458
3454.49400513,0.00160690
3456.42281250,0.00166563
3458.35161987,0.00152905
3460.28042725,0.00159711
3462.20923462,0.00161060
3464.13804199,0.00158772
3466.06684937,0.00157745
3467.99565674,0.00146136
3469.92446411,0.00161119
3471.85327148,0.00154911
3473.78207886,0.00153608
3475.71088623,0.00160952
3477.63969360,0.00148204
3479.56850098,0.00156176
3481.49730835,0.00152703
3483.42611572,0.00158405
3485.35492310,0.00157186
3487.28373047,0.00148848
3489.21253784,0.00161527
3491.14134521,0.00150401
3493.07015259,0.00150175
3494.99895996,0.00156318
3496.92776733,0.00157517
3498.85657471,0.00159294
3500.78538208,0.00154291
3502.71418945,0.00155153
3504.64299683,0.00147167
3506.57180420,0.00151072
3508.50061157,0.00152085
3510.42941895,0.00145628
3512.35822632,0.00154327
3514.28703369,0.00153170
3516.21584106,0.00147206
3518.14464844,0.00147692
3520.07345581,0.00146792
3522.00226318,0.00148160
3523.93107056,0.00155332
3525.85987793,0.00150757
3527.78868530,0.00150357
3529.71749268,0.00157241
3531.64630005,0.00147043
3533.57510742,0.00148201
3535.50391479,0.00148852
3537.43272217,0.00143616
3539.36152954,0.00153137
3541.29033691,0.00149266
3543.21914429,0.00149407
3545.14795166,0.00152603
3547.07675903,0.00141166
3549.00556641,0.00149049
3550.93437378,0.00150516
3552.86318115,0.00143597
3554.79198853,0.00149516
3556.72079590,0.00151185
3558.64960327,0.00156430
3560.57841064,0.00151829
3562.50721802,0.00157685
3564.43602539,0.00156417
3566.36483276,0.00130132
3568.29364014,0.00140691
3570.22244751,0.00152575
3572.15125488,0.00142225
3574.08006226,0.00140078
3576.00886963,0.00149019
3577.93767700,0.00149389
3579.86648437,0.00141375
3581.79529175,0.00149558
3583.72409912,0.00145791
3585.65290649,0.00137341
3587.58171387,0.00135480
3589.51052124,0.00141730
3591.43932861,0.00152382
3593.36813599,0.00142147
3595.29694336,0.00141105
3597.22575073,0.00149201
3599.15455811,0.00145850
3601.08336548,0.00142428
3603.01217285,0.00144948
3604.94098022,0.00144753
3606.86978760,0.00140733
3608.79859497,0.00129338
3610.72740234,0.00128579
3612.65620972,0.00138970
3614.58501709,0.00137818
3616.51382446,0.00144862
3618.44263184,0.00124814
3620.37143921,0.00133285
3622.30024658,0.00158013
3624.22905395,0.00131880
3626.15786133,0.00145986
3628.08666870,0.00128344
3630.01547607,0.00114751
3631.94428345,0.00151486
3633.87309082,0.00141193
3635.80189819,0.00137322
3637.73070557,0.00145959
3639.65951294,0.00157446
3641.58832031,0.00146489
3643.51712769,0.00140033
3645.44593506,0.00149601
3647.37474243,0.00128617
3649.30354980,0.00119291
3651.23235718,0.00112789
3653.16116455,0.00131116
3655.08997192,0.00137140
3657.01877930,0.00132441
3658.94758667,0.00149561
3660.87639404,0.00144539
3662.80520142,0.00146391
3664.73400879,0.00139956
3666.66281616,0.00153337
3668.59162354,0.00138183
3670.52043091,0.00110347
3672.44923828,0.00140562
3674.37804565,0.00119190
3676.30685303,0.00110857
3678.23566040,0.00137881
3680.16446777,0.00144964
3682.09327515,0.00148099
3684.02208252,0.00141570
3685.95088989,0.00142591
3687.87969727,0.00127643
3689.80850464,0.00128656
3691.73731201,0.00131280
3693.66611938,0.00133574
3695.59492676,0.00150455
3697.52373413,0.00134209
3699.45254150,0.00135653
3701.38134888,0.00136396
3703.31015625,0.00136347
3705.23896362,0.00145194
3707.16777100,0.00135073
3709.09657837,0.00142799
3711.02538574,0.00121481
3712.95419312,0.00114615
3714.88300049,0.00144343
3716.81180786,0.00138402
3718.74061523,0.00136841
3720.66942261,0.00133821
3722.59822998,0.00132008
3724.52703735,0.00137961
3726.45584473,0.00132574
3728.38465210,0.00132078
3730.31345947,0.00123162
3732.24226685,0.00122643
3734.17107422,0.00118338
3736.09988159,0.00107979
3738.02868896,0.00117942
3739.95749634,0.00130206
3741.88630371,0.00131650
3743.81511108,0.00103496
3745.74391846,0.00101866
3747.67272583,0.00129177
3749.60153320,0.00106472
3751.53034058,0.00096475
3753.45914795,0.00124075
3755.38795532,0.00131210
3757.31676270,0.00126281
3759.24557007,0.00114382
3761.17437744,0.00121754
3763.10318481,0.00137064
3765.03199219,0.00121264
3766.96079956,0.00127734
3768.88960693,0.00127436
3770.81841431,0.00114230
3772.74722168,0.00130616
3774.67602905,0.00130574
3776.60483643,0.00134645
3778.53364380,0.00127007
3780.46245117,0.00118151
3782.39125854,0.00128016
3784.32006592,0.00117654
3786.24887329,0.00124701
3788.17768066,0.00130152
3790.10648804,0.00125965
3792.03529541,0.00123090
3793.96410278,0.00126072
3795.89291016,0.00123592
3797.82171753,0.00118314
3799.75052490,0.00125826
3801.67933228,0.00101635
3803.60813965,0.00121140
3805.53694702,0.00126869
3807.46575439,0.00098716
3809.39456177,0.00125523
3811.32336914,0.00125920
3813.25217651,0.00128798
3815.18098389,0.00113020
3817.10979126,0.00109426
3819.03859863,0.00128990
3820.96740601,0.00099809
3822.89621338,0.00114442
3824.82502075,0.00115854
3826.75382812,0.00105778
3828.68263550,0.00122832
3830.61144287,0.00115139
3832.54025024,0.00112807
3834.46905762,0.00115759
3836.39786499,0.00113984
3838.32667236,0.00100223
3840.25547974,0.00111096
3842.18428711,0.00120742
3844.11309448,0.00113409
3846.04190186,0.00122434
3847.97070923,0.00117326
3849.89951660,0.00118083
3851.82832397,0.00103718
3853.75713135,0.00081539
3855.68593872,0.00099389
3857.61474609,0.00117490
3859.54355347,0.00111212
3861.47236084,0.00110244
3863.40116821,0.00107634
3865.32997559,0.00105557
3867.25878296,0.00123149
3869.18759033,0.00104253
3871.11639770,0.00100831
3873.04520508,0.00121511
3874.97401245,0.00108004
3876.90281982,0.00114242
3878.83162720,0.00107817
3880.76043457,0.00102245
3882.68924194,0.00116612
3884.61804932,0.00107549
3886.54685669,0.00110483
3888.47566406,0.00119931
3890.40447144,0.00111040
3892.33327881,0.00102848
3894.26208618,0.00110531
3896.19089355,0.00114070
3898.11970093,0.00108433
3900.04850830,0.00103728
3901.97731567,0.00098695
3903.90612305,0.00101234
3905.83493042,0.00111255
3907.76373779,0.00118577
3909.69254517,0.00112797
3911.62135254,0.00109983
3913.55015991,0.00108397
3915.47896728,0.00106906
3917.40777466,0.00107810
3919.33658203,0.00105713
3921.26538940,0.00116599
3923.19419678,0.00113349
3925.12300415,0.00104494
3927.05181152,0.00110521
3928.98061890,0.00109378
3930.90942627,0.00105550
3932.83823364,0.00102975
3934.76704102,0.00110482
3936.69584839,0.00114870
3938.62465576,0.00113577
3940.55346313,0.00116235
3942.48227051,0.00104117
3944.41107788,0.00103561
3946.33988525,0.00112572
3948.26869263,0.00106614
3950.19750000,0.00108162
3952.12630737,0.00107799
3954.05511475,0.00107217
3955.98392212,0.00112644
3957.91272949,0.00110235
3959.84153687,0.00109825
3961.77034424,0.00108948
3963.69915161,0.00112523
3965.62795898,0.00108706
3967.55676636,0.00100459
3969.48557373,0.00102204
3971.41438110,0.00097672
3973.34318848,0.00102069
3975.27199585,0.00106903
3977.20080322,0.00112016
3979.12961060,0.00105422
3981.05841797,0.00091039
3982.98722534,0.00104779
3984.91603271,0.00097394
3986.84484009,0.00090467
3988.77364746,0.00106300
3990.70245483,0.00106925
3992.63126221,0.00106191
3994.56006958,0.00105206
3996.48887695,0.00105089
3998.41768433,0.00103517
4000.34649170,0.00102517
4002.27529907,0.00098975
4004.20410645,0.00100825
4006.13291382,0.00104240
4008.06172119,0.00094471
4009.99052856,0.00104937
4011.91933594,0.00103227
4013.84814331,0.00088022
4015.77695068,0.00097569
4017.70575806,0.00096054
4019.63456543,0.00091419
4021.56337280,0.00097752
4023.49218018,0.00100667
4025.42098755,0.00103505
4027.34979492,0.00098425
4029.27860229,0.00096339
4031.20740967,0.00102428
4033.13621704,0.00096209
4035.06502441,0.00093559
4036.99383179,0.00096260
4038.92263916,0.00098384
4040.85144653,0.00100542
4042.78025391,0.00092716
4044.70906128,0.00093422
4046.63786865,0.00090407
4048.56667603,0.00089794
4050.49548340,0.00096491
4052.42429077,0.00090077
4054.35309814,0.00095143
4056.28190552,0.00093810
4058.21071289,0.00084316
4060.13952026,0.00090981
4062.06832764,0.00097819
4063.99713501,0.00097796
4065.92594238,0.00088792
4067.85474976,0.00084712
4069.78355713,0.00094608
4071.71236450,0.00094759
4073.64117187,0.00088194
4075.56997925,0.00093864
4077.49878662,0.00089830
4079.42759399,0.00086711
4081.35640137,0.00092190
4083.28520874,0.00086830
4085.21401611,0.00089785
4087.14282349,0.00092036
4089.07163086,0.00090356
4091.00043823,0.00090579
4092.92924561,0.00088027
4094.85805298,0.00085844
4096.78686035,0.00083248
4098.71566772,0.00091006
4100.64447510,0.00093121
4102.57328247,0.00085840
4104.50208984,0.00086793
4106.43089722,0.00091825
4108.35970459,0.00087815
4110.28851196,0.00085837
4112.21731934,0.00088944
4114.14612671,0.00085388
4116.07493408,0.00091580
4118.00374145,0.00091121
4119.93254883,0.00088748
4121.86135620,0.00091672
4123.79016357,0.00086421
4125.71897095,0.00087380
4127.64777832,0.00087211
4129.57658569,0.00088026
4131.50539307,0.00086151
4133.43420044,0.00091309
4135.36300781,0.00093344
4137.29181519,0.00080876
4139.22062256,0.00082566
4141.14942993,0.00086121
4143.07823730,0.00090843
4145.00704468,0.00088745
4146.93585205,0.00087876
4148.86465942,0.00087936
4150.79346680,0.00080373
4152.72227417,0.00089857
4154.65108154,0.00084738
4156.57988892,0.00075495
4158.50869629,0.00081887
4160.43750366,0.00083907
4162.36631103,0.00081190
4164.29511841,0.00083337
4166.22392578,0.00088648
4168.15273315,0.00081671
4170.08154053,0.00085012
4172.01034790,0.00085312
4173.93915527,0.00080984
4175.86796265,0.00087041
4177.79677002,0.00083544
4179.72557739,0.00081308
4181.65438477,0.00077335
4183.58319214,0.00078521
4185.51199951,0.00079153
4187.44080688,0.00075751
4189.36961426,0.00081048
4191.29842163,0.00080549
4193.22722900,0.00083341
4195.15603638,0.00081382
4197.08484375,0.00079414
4199.01365112,0.00082616
4200.94245850,0.00073398
4202.87126587,0.00074470
4204.80007324,0.00076975
4206.72888062,0.00076781
4208.65768799,0.00087937
4210.58649536,0.00079947
4212.51530273,0.00073658
4214.44411011,0.00078635
4216.37291748,0.00071583
4218.30172485,0.00075483
4220.23053223,0.00075003
4222.15933960,0.00079726
4224.08814697,0.00085818
4226.01695435,0.00070959
4227.94576172,0.00077927
4229.87456909,0.00082028
4231.80337646,0.00077638
4233.73218384,0.00081850
4235.66099121,0.00083096
4237.58979858,0.00088370
4239.51860596,0.00083545
4241.44741333,0.00079726
4243.37622070,0.00071817
4245.30502808,0.00070766
4247.23383545,0.00081771
4249.16264282,0.00075290
4251.09145020,0.00075115
4253.02025757,0.00075622
4254.94906494,0.00068194
4256.87787231,0.00068014
4258.80667969,0.00073545
4260.73548706,0.00077644
4262.66429443,0.00073409
4264.59310181,0.00072290
4266.52190918,0.00072190
4268.45071655,0.00070389
4270.37952393,0.00070019
4272.30833130,0.00070205
4274.23713867,0.00073373
4276.16594604,0.00071856
4278.09475342,0.00069047
4280.02356079,0.00071447
4281.95236816,0.00069084
4283.88117554,0.00072217
4285.80998291,0.00075075
4287.73879028,0.00066473
4289.66759766,0.00073787
4291.59640503,0.00074982
4293.52521240,0.00072372
4295.45401978,0.00080815
4297.38282715,0.00074724
4299.31163452,0.00074145
4301.24044189,0.00068751
4303.16924927,0.00067747
4305.09805664,0.00073876
4307.02686401,0.00068475
4308.95567139,0.00074904
4310.88447876,0.00072038
4312.81328613,0.00073181
4314.74209351,0.00077002
4316.67090088,0.00067432
4318.59970825,0.00065935
4320.52851562,0.00061088
4322.45732300,0.00066039
4324.38613037,0.00070253
4326.31493774,0.00064268
4328.24374512,0.00065124
4330.17255249,0.00067089
4332.10135986,0.00066607
4334.03016724,0.00063372
4335.95897461,0.00067501
4337.88778198,0.00066959
4339.81658936,0.00068156
4341.74539673,0.00070472
4343.67420410,0.00060239
4345.60301147,0.00066802
4347.53181885,0.00069582
4349.46062622,0.00063377
4351.38943359,0.00068006
4353.31824097,0.00063161
4355.24704834,0.00061739
4357.17585571,0.00065416
4359.10466309,0.00064610
4361.03347046,0.00060769
4362.96227783,0.00056150
4364.89108520,0.00064806
4366.81989258,0.00064617
4368.74869995,0.00062504
4370.67750732,0.00069333
4372.60631470,0.00063366
4374.53512207,0.00066458
4376.46392944,0.00068354
4378.39273682,0.00062542
4380.32154419,0.00067122
4382.25035156,0.00069209
4384.17915894,0.00067403
4386.10796631,0.00063455
4388.03677368,0.00065762
4389.96558105,0.00066769
4391.89438843,0.00067487
4393.82319580,0.00067321
4395.75200317,0.00063042
4397.68081055,0.00068679
4399.60961792,0.00060518
4401.53842529,0.00062003
4403.46723267,0.00068410
4405.39604004,0.00059802
4407.32484741,0.00065621
4409.25365478,0.00059148
4411.18246216,0.00059396
4413.11126953,0.00064699
4415.04007690,0.00058332
4416.96888428,0.00061030
4418.89769165,0.00056916
4420.82649902,0.00065677
4422.75530640,0.00066304
4424.68411377,0.00054260
4426.61292114,0.00061876
4428.54172852,0.00065664
4430.47053589,0.00062811
4432.39934326,0.00058868
4434.32815063,0.00062744
4436.25695801,0.00065778
4438.18576538,0.00059672
4440.11457275,0.00056595
4442.04338013,0.00054395
4443.97218750,0.00057019
4445.90099487,0.00057180
4447.82980225,0.00056957
4449.75860962,0.00058988
4451.68741699,0.00056899
4453.61622437,0.00059646
4455.54503174,0.00063089
4457.47383911,0.00055345
4459.40264648,0.00053442
4461.33145386,0.00062594
4463.26026123,0.00058290
4465.18906860,0.00058161
4467.11787598,0.00063102
4469.04668335,0.00059988
4470.97549072,0.00063334
4472.90429810,0.00061461
4474.83310547,0.00060781
4476.76191284,0.00060314
4478.69072021,0.00052919
4480.61952759,0.00054923
4482.54833496,0.00056787
4484.47714233,0.00053210
4486.40594971,0.00053842
4488.33475708,0.00058977
4490.26356445,0.00059801
4492.19237183,0.00054040
4494.12117920,0.00053928
4496.04998657,0.00057392
4497.97879395,0.00052597
4499.90760132,0.00052990
4501.83640869,0.00057419
4503.76521606,0.00055648
4505.69402344,0.00060183
4507.62283081,0.00058514
4509.55163818,0.00051478
4511.48044556,0.00054943
4513.40925293,0.00057317
4515.33806030,0.00053085
4517.26686768,0.00054423
4519.19567505,0.00052686
4521.12448242,0.00045292
4523.05328979,0.00055399
4524.98209717,0.00056360
4526.91090454,0.00053084
4528.83971191,0.00051337
4530.76851929,0.00040404
4532.69732666,0.00053744
4534.62613403,0.00053686
4536.55494141,0.00049723
4538.48374878,0.00058586
4540.41255615,0.00050298
4542.34136353,0.00050585
4544.27017090,0.00047849
4546.19897827,0.00042694
4548.12778564,0.00046272
4550.05659302,0.00048800
4551.98540039,0.00046853
4553.91420776,0.00052745
4555.84301514,0.00058406
4557.77182251,0.00045714
4559.70062988,0.00049196
4561.62943726,0.00047380
4563.55824463,0.00043254
4565.48705200,0.00051697
4567.41585937,0.00052528
4569.34466675,0.00051366
4571.27347412,0.00041655
4573.20228149,0.00053442
4575.13108887,0.00051047
4577.05989624,0.00041654
4578.98870361,0.00057109
4580.91751099,0.00048630
4582.84631836,0.00053120
4584.77512573,0.00051932
4586.70393311,0.00046674
4588.63274048,0.00062030
4590.56154785,0.00048502
4592.49035522,0.00041479
4594.41916260,0.00046675
4596.34796997,0.00043129
4598.27677734,0.00043174
4600.20558472,0.00041499
4602.13439209,0.00046053
4604.06319946,0.00052914
4605.99200684,0.00048164
4607.92081421,0.00042747
4609.84962158,0.00046363
4611.77842895,0.00043299
4613.70723633,0.00044521
4615.63604370,0.00053627
4617.56485107,0.00046872
4619.49365845,0.00045442
4621.42246582,0.00048142
4623.35127319,0.00043769
4625.28008057,0.00050361
4627.20888794,0.00044944
4629.13769531,0.00046177
4631.06650269,0.00057434
4632.99531006,0.00043423
4634.92411743,0.00044966
4636.85292480,0.00045586
4638.78173218,0.00035347
4640.71053955,0.00042154
4642.63934692,0.00043943
4644.56815430,0.00046272
4646.49696167,0.00046114
4648.42576904,0.00042892
4650.35457642,0.00041364
4652.28338379,0.00047431
4654.21219116,0.00047616
4656.14099853,0.00041304
4658.06980591,0.00049101
4659.99861328,0.00044244
4661.92742065,0.00048741
4663.85622803,0.00045709
4665.78503540,0.00037670
4667.71384277,0.00043571
4669.64265015,0.00031272
4671.57145752,0.00044748
4673.50026489,0.00044989
4675.42907227,0.00034255
4677.35787964,0.00045679
4679.28668701,0.00044472
4681.21549438,0.00049002
4683.14430176,0.00040510
4685.07310913,0.00041257
4687.00191650,0.00041906
4688.93072388,0.00034683
4690.85953125,0.00046711
4692.78833862,0.00039611
4694.71714600,0.00040498
4696.64595337,0.00045078
4698.57476074,0.00036648
4700.50356812,0.00037021
4702.43237549,0.00042835
4704.36118286,0.00049080
4706.28999023,0.00047794
4708.21879761,0.00047284
4710.14760498,0.00042086
4712.07641235,0.00035556
4714.00521973,0.00035227
4715.93402710,0.00042853
4717.86283447,0.00043342
4719.79164185,0.00034853
4721.72044922,0.00043433
4723.64925659,0.00040927
4725.57806396,0.00036566
4727.50687134,0.00044133
4729.43567871,0.00039158
4731.36448608,0.00037804
4733.29329346,0.00040917
4735.22210083,0.00040547
4737.15090820,0.00046060
4739.07971558,0.00046896
4741.00852295,0.00035827
4742.93733032,0.00038047
4744.86613770,0.00042300
4746.79494507,0.00037192
4748.72375244,0.00042430
4750.65255981,0.00043166
4752.58136719,0.00035420
4754.51017456,0.00032118
4756.43898193,0.00036507
4758.36778931,0.00038308
4760.29659668,0.00043675
4762.22540405,0.00047142
4764.15421143,0.00036393
4766.08301880,0.00039850
4768.01182617,0.00034173
4769.94063354,0.00028535
4771.86944092,0.00041302
4773.79824829,0.00036009
4775.72705566,0.00038263
4777.65586304,0.00041694
4779.58467041,0.00035735
4781.51347778,0.00037260
4783.44228516,0.00036000
4785.37109253,0.00038841
4787.29989990,0.00037833
4789.22870728,0.00036630
4791.15751465,0.00038945
4793.08632202,0.00042631
4795.01512939,0.00041490
4796.94393677,0.00030796
4798.87274414,0.00037503
4800.80155151,0.00039915
4802.73035889,0.00039267
4804.65916626,0.00041058
4806.58797363,0.00031077
4808.51678101,0.00040091
4810.44558838,0.00041927
4812.37439575,0.00037002
4814.30320312,0.00039257
4816.23201050,0.00034864
4818.16081787,0.00040458
4820.08962524,0.00040443
4822.01843262,0.00038224
4823.94723999,0.00037449
4825.87604736,0.00037581
4827.80485474,0.00041538
4829.73366211,0.00037628
4831.66246948,0.00035692
4833.59127686,0.00036206
4835.52008423,0.00034110
4837.44889160,0.00026514
4839.37769897,0.00030754
4841.30650635,0.00034306
4843.23531372,0.00033455
4845.16412109,0.00040100
4847.09292847,0.00034440
4849.02173584,0.00036709
4850.95054321,0.00033216
4852.87935059,0.00031759
4854.80815796,0.00040007
4856.73696533,0.00036978
4858.66577270,0.00037703
4860.59458008,0.00031385
4862.52338745,0.00034916
4864.45219482,0.00035006
4866.38100220,0.00032719
4868.30980957,0.00033671
4870.23861694,0.00026422
4872.16742432,0.00037426
4874.09623169,0.00035973
4876.02503906,0.00037032
4877.95384644,0.00037586
4879.88265381,0.00030010
4881.81146118,0.00035724
4883.74026855,0.00034006
4885.66907593,0.00042995
4887.59788330,0.00038356
4889.52669067,0.00032165
4891.45549805,0.00038471
4893.38430542,0.00031226
4895.31311279,0.00031388
4897.24192017,0.00032743
4899.17072754,0.00035536
4901.09953491,0.00034797
4903.02834228,0.00031246
4904.95714966,0.00028652
4906.88595703,0.00033708
4908.81476440,0.00041209
4910.74357178,0.00031389
4912.67237915,0.00033684
4914.60118652,0.00035691
4916.52999390,0.00030230
4918.45880127,0.00029979
4920.38760864,0.00032431
4922.31641602,0.00035865
4924.24522339,0.00028708
4926.17403076,0.00026737
4928.10283813,0.00032418
4930.03164551,0.00039730
4931.96045288,0.00032075
4933.88926025,0.00029186
4935.81806763,0.00038560
4937.74687500,0.00031652
4939.67568237,0.00037688
4941.60448975,0.00037404
4943.53329712,0.00030063
4945.46210449,0.00035877
4947.39091187,0.00036156
4949.31971924,0.00032618
4951.24852661,0.00025194
4953.17733398,0.00029964
4955.10614136,0.00026702
4957.03494873,0.00021521
4958.96375610,0.00028364
4960.89256348,0.00023353
4962.82137085,0.00026762
4964.75017822,0.00030882
4966.67898560,0.00031456
4968.60779297,0.00025312
4970.53660034,0.00023338
4972.46540771,0.00036554
4974.39421509,0.00027635
4976.32302246,0.00027293
4978.25182983,0.00034122
4980.18063721,0.00028122
4982.10944458,0.00029881
4984.03825195,0.00026067
4985.96705933,0.00029593
4987.89586670,0.00030816
4989.82467407,0.00026208
4991.75348145,0.00033330
4993.68228882,0.00034125
4995.61109619,0.00031007
4997.53990356,0.00030348
4999.46871094,0.00030017
5001.39751831,0.00027828
5003.32632568,0.00033289
5005.25513306,0.00036702
5007.18394043,0.00028834
5009.11274780,0.00029380
5011.04155518,0.00029015
5012.97036255,0.00026936
5014.89916992,0.00022585
5016.82797729,0.00025990
5018.75678467,0.00037975
5020.68559204,0.00031781
5022.61439941,0.00025475
5024.54320679,0.00023420
5026.47201416,0.00024418
5028.40082153,0.00029275
5030.32962891,0.00028333
5032.25843628,0.00026656
5034.18724365,0.00028993
5036.11605103,0.00032815
5038.04485840,0.00026272
5039.97366577,0.00028069
5041.90247314,0.00028222
5043.83128052,0.00024955
5045.76008789,0.00036343
5047.68889526,0.00028674
5049.61770264,0.00021691
5051.54651001,0.00027258
5053.47531738,0.00023613
5055.40412476,0.00023997
5057.33293213,0.00024993
5059.26173950,0.00024145
5061.19054687,0.00029284
5063.11935425,0.00029883
5065.04816162,0.00027023
5066.97696899,0.00031565
5068.90577637,0.00028846
5070.83458374,0.00026787
5072.76339111,0.00028242
5074.69219849,0.00025783
5076.62100586,0.00025821
5078.54981323,0.00022720
5080.47862061,0.00025082
5082.40742798,0.00026002
5084.33623535,0.00031039
5086.26504272,0.00029616
5088.19385010,0.00023149
5090.12265747,0.00027419
5092.05146484,0.00017973
5093.98027222,0.00027021
5095.90907959,0.00029434
5097.83788696,0.00019889
5099.76669434,0.00029772
5101.69550171,0.00019547
5103.62430908,0.00019217
5105.55311645,0.00021915
5107.48192383,0.00020164
5109.41073120,0.00028350
5111.33953857,0.00027004
5113.26834595,0.00033279
5115.19715332,0.00027700
5117.12596069,0.00018217
5119.05476807,0.00026118
5120.98357544,0.00031182
5122.91238281,0.00024303
5124.84119019,0.00016797
5126.76999756,0.00022967
5128.69880493,0.00025408
5130.62761230,0.00023561
5132.55641968,0.00027574
5134.48522705,0.00026550
5136.41403442,0.00018953
5138.34284180,0.00023379
5140.27164917,0.00027189
5142.20045654,0.00021361
5144.12926392,0.00028120
5146.05807129,0.00028129
5147.98687866,0.00022922
5149.91568603,0.00022452
5151.84449341,0.00022198
5153.77330078,0.00026122
5155.70210815,0.00024154
5157.63091553,0.00024630
5159.55972290,0.00023550
5161.48853027,0.00022335
5163.41733765,0.00025064
5165.34614502,0.00023896
5167.27495239,0.00024823
5169.20375977,0.00022369
5171.13256714,0.00024286
5173.06137451,0.00022253
5174.99018188,0.00016557
5176.91898926,0.00026452
5178.84779663,0.00027916
5180.77660400,0.00027322
5182.70541138,0.00029962
5184.63421875,0.00020272
5186.56302612,0.00018725
5188.49183350,0.00019737
5190.42064087,0.00016754
5192.34944824,0.00018378
5194.27825562,0.00022226
5196.20706299,0.00025451
5198.13587036,0.00020601
5200.06467773,0.00016819
5201.99348511,0.00019412
5203.92229248,0.00025666
5205.85109985,0.00024999
5207.77990723,0.00021476
5209.70871460,0.00025363
5211.63752197,0.00023176
5213.56632935,0.00027391
5215.49513672,0.00028578
5217.42394409,0.00020396
5219.35275146,0.00020684
5221.28155884,0.00022657
5223.21036621,0.00022180
5225.13917358,0.00021361
5227.06798096,0.00023847
5228.99678833,0.00014684
5230.92559570,0.00016959
5232.85440308,0.00024397
5234.78321045,0.00013342
5236.71201782,0.00020741
5238.64082520,0.00023116
5240.56963257,0.00024966
5242.49843994,0.00024842
5244.42724731,0.00010403
5246.35605469,0.00021693
5248.28486206,0.00027191
5250.21366943,0.00021594
5252.14247681,0.00022467
5254.07128418,0.00021303
5256.00009155,0.00020424
5257.92889893,0.00023002
5259.85770630,0.00027358
5261.78651367,0.00018681
5263.71532104,0.00018207
5265.64412842,0.00026366
5267.57293579,0.00023514
5269.50174316,0.00016429
5271.43055054,0.00015653
5273.35935791,0.00020767
5275.28816528,0.00022306
5277.21697266,0.00025811
5279.14578003,0.00021276
5281.07458740,0.00015459
5283.00339478,0.00019375
5284.93220215,0.00019247
5286.86100952,0.00018464
5288.78981689,0.00018912
5290.71862427,0.00016477
5292.64743164,0.00018627
5294.57623901,0.00025600
5296.50504639,0.00024052
5298.43385376,0.00023203
5300.36266113,0.00021992
5302.29146851,0.00022006
5304.22027588,0.00023362
5306.14908325,0.00015982
5308.07789062,0.00022281
5310.00669800,0.00024837
5311.93550537,0.00020870
5313.86431274,0.00020629
5315.79312012,0.00017832
5317.72192749,0.00019824
5319.65073486,0.00016905
5321.57954224,0.00020483
5323.50834961,0.00017628
5325.43715698,0.00016589
5327.36596436,0.00023651
5329.29477173,0.00019927
5331.22357910,0.00026887
5333.15238647,0.00027051
5335.08119385,0.00025250
5337.01000122,0.00023953
5338.93880859,0.00017006
5340.86761597,0.00024540
5342.79642334,0.00025736
5344.72523071,0.00022303
5346.65403809,0.00021416
5348.58284546,0.00019914
5350.51165283,0.00019041
5352.44046020,0.00021733
5354.36926758,0.00022368
5356.29807495,0.00009933
5358.22688232,0.00012038
5360.15568970,0.00022569
5362.08449707,0.00024140
5364.01330444,0.00020366
5365.94211182,0.00014053
5367.87091919,0.00016090
5369.79972656,0.00019560
5371.72853394,0.00023652
5373.65734131,0.00020398
5375.58614868,0.00014154
5377.51495605,0.00015251
5379.44376343,0.00018424
5381.37257080,0.00017753
5383.30137817,0.00008710
5385.23018555,0.00017086
5387.15899292,0.00023022
5389.08780029,0.00014105
5391.01660767,0.00019873
5392.94541504,0.00019972
5394.87422241,0.00013799
5396.80302978,0.00014064
5398.73183716,0.00015340
5400.66064453,0.00019223
5402.58945190,0.00021114
5404.51825928,0.00018463
5406.44706665,0.00015061
5408.37587402,0.00023323
5410.30468140,0.00028019
5412.23348877,0.00016998
5414.16229614,0.00017999
5416.09110352,0.00020520
5418.01991089,0.00015284
5419.94871826,0.00014918
5421.87752563,0.00014895
5423.80633301,0.00021065
5425.73514038,0.00020798
5427.66394775,0.00013910
5429.59275513,0.00015345
5431.52156250,0.00014404
5433.45036987,0.00014016
5435.37917725,0.00017580
5437.30798462,0.00021927
5439.23679199,0.00019952
5441.16559936,0.00013364
5443.09440674,0.00017659
5445.02321411,0.00019218
5446.95202148,0.00016802
5448.88082886,0.00020504
5450.80963623,0.00022095
5452.73844360,0.00018487
5454.66725098,0.00013968
5456.59605835,0.00020733
5458.52486572,0.00021132
5460.45367310,0.00012977
5462.38248047,0.00014908
5464.31128784,0.00015976
5466.24009521,0.00017303
5468.16890259,0.00016602
5470.09770996,0.00015887
5472.02651733,0.00016052
5473.95532471,0.00015543
5475.88413208,0.00014752
5477.81293945,0.00008309
5479.74174683,0.00017402
5481.67055420,0.00019843
5483.59936157,0.00009765
5485.52816895,0.00016885
5487.45697632,0.00017489
5489.38578369,0.00015736
5491.31459106,0.00018648
5493.24339844,0.00013769
5495.17220581,0.00014538
5497.10101318,0.00016520
5499.02982056,0.00006973
5500.95862793,0.00006049
5502.88743530,0.00016351
5504.81624268,0.00016815
5506.74505005,0.00020307
5508.67385742,0.00020216
5510.60266479,0.00013174
5512.53147217,0.00013624
5514.46027954,0.00013342
5516.38908691,0.00016210
5518.31789429,0.00018787
5520.24670166,0.00014745
5522.17550903,0.00012378
5524.10431641,0.00018132
5526.03312378,0.00017577
5527.96193115,0.00014011
5529.89073853,0.00016577
5531.81954590,0.00016605
5533.74835327,0.00019808
5535.67716064,0.00013053
5537.60596802,0.00013597
5539.53477539,0.00014912
5541.46358276,0.00003091
5543.39239014,0.00009386
5545.32119751,0.00014616
5547.25000488,0.00015267
5549.17881226,0.00008987
5551.10761963,0.00010415
5553.03642700,0.00016596
5554.96523437,0.00006170
5556.89404175,0.00011088
5558.82284912,0.00013352
5560.75165649,0.00015683
5562.68046387,0.00011603
5564.60927124,0.00005823
5566.53807861,0.00015190
5568.46688599,0.00011235
5570.39569336,0.00018015
5572.32450073,0.00013409
5574.25330811,0.00011278
5576.18211548,0.00026565
5578.11092285,0.00016621
5580.03973022,0.00017209
5581.96853760,0.00020650
5583.89734497,0.00011111
5585.82615234,0.00010444
5587.75495972,0.00014777
5589.68376709,0.00013613
5591.61257446,0.00007661
5593.54138184,0.00013614
5595.47018921,0.00019960
5597.39899658,0.00015741
5599.32780395,0.00013486
5601.25661133,0.00019422
5603.18541870,0.00019356
5605.11422607,0.00010257
5607.04303345,0.00012711
5608.97184082,0.00018478
5610.90064819,0.00015480
5612.82945557,0.00012803
5614.75826294,0.00012628
5616.68707031,0.00014403
5618.61587769,0.00014027
5620.54468506,0.00008922
5622.47349243,0.00012325
5624.40229980,0.00016518
5626.33110718,0.00014863
5628.25991455,0.00017468
5630.18872192,0.00016652
5632.11752930,0.00014592
5634.04633667,0.00008342
5635.97514404,0.00008346
5637.90395142,0.00017257
5639.83275879,0.00014169
5641.76156616,0.00010958
5643.69037353,0.00008894
5645.61918091,0.00011540
5647.54798828,0.00013127
5649.47679565,0.00008977
5651.40560303,0.00016702
5653.33441040,0.00016554
5655.26321777,0.00012155
5657.19202515,0.00016370
5659.12083252,0.00015012
5661.04963989,0.00013796
5662.97844727,0.00015555
5664.90725464,0.00012847
5666.83606201,0.00009945
5668.76486938,0.00012444
5670.69367676,0.00015316
5672.62248413,0.00016316
5674.55129150,0.00014616
5676.48009888,0.00012721
5678.40890625,0.00014955
5680.33771362,0.00016480
5682.26652100,0.00017852
5684.19532837,0.00015950
5686.12413574,0.00010115
5688.05294311,0.00013183
5689.98175049,0.00013030
5691.91055786,0.00006780
5693.83936523,0.00012542
5695.76817261,0.00011836
5697.69697998,0.00010683
5699.62578735,0.00018206
5701.55459473,0.00011972
5703.48340210,0.00011088
5705.41220947,0.00013964
5707.34101685,0.00011897
5709.26982422,0.00017040
5711.19863159,0.00012081
5713.12743896,0.00007923
5715.05624634,0.00014197
5716.98505371,0.00011988
5718.91386108,0.00011050
5720.84266846,0.00017954
5722.77147583,0.00015277
5724.70028320,0.00012080
5726.62909058,0.00018467
5728.55789795,0.00013888
5730.48670532,0.00008256
5732.41551270,0.00011585
5734.34432007,0.00008572
5736.27312744,0.00009403
5738.20193481,0.00012968
5740.13074219,0.00011435
5742.05954956,0.00008648
5743.98835693,0.00004617
5745.91716431,0.00007623
5747.84597168,0.00006081
5749.77477905,0.00007907
5751.70358643,0.00017182
5753.63239380,0.00010184
5755.56120117,0.00007232
5757.49000854,0.00011094
5759.41881592,0.00013830
5761.34762329,0.00011437
5763.27643066,0.00012734
5765.20523804,0.00018862
5767.13404541,0.00010198
5769.06285278,0.00018578
5770.99166016,0.00014105
5772.92046753,0.00003522
5774.84927490,0.00015418
5776.77808228,0.00007620
5778.70688965,0.00008905
5780.63569702,0.00009214
5782.56450439,0.00004710
5784.49331177,0.00007066
5786.42211914,0.00007079
5788.35092651,0.00015004
5790.27973389,0.00008602
5792.20854126,0.00009588
5794.13734863,0.00013295
5796.06615601,0.00010541
5797.99496338,0.00009859
5799.92377075,0.00004892
5801.85257812,0.00008759
5803.78138550,0.00009787
5805.71019287,0.00016690
5807.63900024,0.00017113
5809.56780762,0.00014544
5811.49661499,0.00017927
5813.42542236,0.00008265
5815.35422974,0.00008565
5817.28303711,0.00012783
5819.21184448,0.00012162
5821.14065186,0.00009982
5823.06945923,0.00010734
5824.99826660,0.00008024
5826.92707397,0.00004366
5828.85588135,0.00012716
5830.78468872,0.00007831
5832.71349609,0.00009057
5834.64230347,0.00018495
5836.57111084,0.00012031
5838.49991821,0.00009110
5840.42872559,0.00012311
5842.35753296,0.00010028
5844.28634033,0.00009403
5846.21514770,0.00010095
5848.14395508,0.00010466
5850.07276245,0.00014895
5852.00156982,0.00007728
5853.93037720,0.00008699
5855.85918457,0.00015885
5857.78799194,0.00013713
5859.71679932,0.00008805
5861.64560669,0.00001874
5863.57441406,0.00014146
5865.50322144,0.00011424
5867.43202881,0.00003198
5869.36083618,0.00013322
5871.28964355,0.00011315
5873.21845093,0.00006509
5875.14725830,0.00005708
5877.07606567,0.00014049
5879.00487305,0.00007472
5880.93368042,0.00001720
5882.86248779,0.00013316
5884.79129517,0.00011166
5886.72010254,0.00006134
5888.64890991,0.00003798
5890.57771728,0.00012616
5892.50652466,0.00013716
5894.43533203,0.00012393
5896.36413940,0.00012499
5898.29294678,0.00003853
5900.22175415,0.00009203
5902.15056152,0.00006084
5904.07936890,0.00011539
5906.00817627,0.00013813
5907.93698364,0.00002639
5909.86579102,0.00007804
5911.79459839,0.00004781
5913.72340576,0.00007514
5915.65221313,0.00012511
5917.58102051,0.00006293
5919.50982788,0.00003623
5921.43863525,0.00005109
5923.36744263,0.00007694
5925.29625000,0.00011396
5927.22505737,0.00015787
5929.15386475,0.00008093
5931.08267212,0.00006010
5933.01147949,0.00015653
5934.94028686,0.00013807
5936.86909424,0.00004425
5938.79790161,0.00008101
5940.72670898,0.00012595
5942.65551636,0.00005928
5944.58432373,0.00012189
5946.51313110,0.00015390
5948.44193848,0.00005344
5950.37074585,0.00007423
5952.29955322,0.00014197
5954.22836060,0.00010021
5956.15716797,0.00008049
5958.08597534,0.00010330
5960.01478271,0.00009816
5961.94359009,0.00011632
5963.87239746,0.00008607
5965.80120483,0.00008242
5967.73001221,0.00006173
5969.65881958,0.00006410
5971.58762695,0.00014402
5973.51643433,0.00011773
5975.44524170,0.00008468
5977.37404907,0.00007480
5979.30285645,0.00012784
5981.23166382,0.00009114
5983.16047119,0.00005004
5985.08927856,0.00011165
5987.01808594,0.00000965
5988.94689331,0.00001504
5990.87570068,0.00007478
5992.80450806,0.00008357
5994.73331543,0.00011319
5996.66212280,0.00008513
5998.59093018,0.00007134
6000.51973755,0.00007512
