399.26312622,0.00063412
401.19193359,0.00077037
403.12074097,0.00060134
405.04954834,0.00091554
406.97835571,0.00088892
408.90716309,0.00119367
410.83597046,0.00121093
412.76477783,0.00039382
414.69358521,0.00083676
416.62239258,0.00120232
418.55119995,0.00075970
420.48000732,0.00084265
422.40881470,0.00116939
424.33762207,0.00132755
426.26642944,0.00101544
428.19523682,0.00100516
430.12404419,0.00105840
432.05285156,0.00096866
433.98165894,0.00136020
435.91046631,0.00070740
437.83927368,0.00059253
439.76808105,0.00126159
441.69688843,0.00094861
443.62569580,0.00119287
445.55450317,0.00106399
447.48331055,0.00098645
449.41211792,0.00119117
451.34092529,0.00096972
453.26973267,0.00142780
455.19854004,0.00092880
457.12734741,0.00057826
459.05615479,0.00089568
460.98496216,0.00061168
462.91376953,0.00065895
464.84257690,0.00041885
466.77138428,0.00029183
468.70019165,0.00068373
470.62899902,0.00058994
472.55780640,-0.00003749
474.48661377,0.00000726
476.41542114,0.00048829
478.34422852,0.00035991
480.27303589,0.00049890
482.20184326,0.00054326
484.13065063,0.00048992
486.05945801,0.00049877
487.98826538,0.00040032
489.91707275,0.00053724
491.84588013,0.00036048
493.77468750,0.00030073
495.70349487,0.00009217
497.63230225,-0.00026563
499.56110962,0.00016447
501.48991699,0.00041914
503.41872437,0.00047258
505.34753174,0.00028476
507.27633911,0.00035134
509.20514648,0.00079934
511.13395386,0.00034375
513.06276123,0.00027436
514.99156860,0.00024504
516.92037598,0.00000960
518.84918335,-0.00004132
520.77799072,0.00004063
522.70679810,0.00066771
524.63560547,0.00042867
526.56441284,0.00032654
528.49322021,0.00024463
530.42202759,0.00011129
532.35083496,0.00029582
534.27964233,0.00000464
536.20844971,0.00058474
538.13725708,0.00057068
540.06606445,0.00034309
541.99487183,0.00056054
543.92367920,0.00045219
545.85248657,0.00078739
547.78129395,0.00038395
549.71010132,0.00019649
551.63890869,0.00033494
553.56771606,0.00012127
555.49652344,0.00021422
557.42533081,0.00028574
559.35413818,0.00032106
561.28294556,0.00008277
563.21175293,0.00000274
565.14056030,0.00023256
567.06936768,0.00051444
568.99817505,0.00024399
570.92698242,0.00009981
572.85578979,0.00047187
574.78459717,0.00028023
576.71340454,0.00036142
578.64221191,0.00017190
580.57101929,0.00008822
582.49982666,0.00034108
584.42863403,0.00002417
586.35744141,0.00037807
588.28624878,0.00058543
590.21505615,0.00030500
592.14386353,0.00033536
594.07267090,0.00049286
596.00147827,0.00052448
597.93028564,0.00022151
599.85909302,0.00018025
601.78790039,0.00006804
603.71670776,0.00002050
605.64551514,0.00025340
607.57432251,0.00038975
609.50312988,0.00052997
611.43193726,0.00020754
613.36074463,0.00045741
615.28955200,0.00085036
617.21835938,0.00029329
619.14716675,0.00056428
621.07597412,0.00035002
623.00478149,-0.00038793
624.93358887,0.00030639
626.86239624,0.00017660
628.79120361,-0.00017642
630.72001099,-0.00003656
632.64881836,0.00077584
634.57762573,0.00095248
636.50643311,0.00053868
638.43524048,0.00085539
640.36404785,0.00095197
642.29285522,0.00084015
644.22166260,0.00108326
646.15046997,0.00110591
648.07927734,0.00119156
650.00808472,0.00135730
651.93689209,0.00114231
653.86569946,0.00129905
655.79450684,0.00168755
657.72331421,0.00119340
659.65212158,0.00142829
661.58092896,0.00199625
663.50973633,0.00168543
665.43854370,0.00181314
667.36735107,0.00156585
669.29615845,0.00157405
671.22496582,0.00232039
673.15377319,0.00215990
675.08258057,0.00185163
677.01138794,0.00216721
678.94019531,0.00233381
680.86900269,0.00212105
682.79781006,0.00235117
684.72661743,0.00250562
686.65542480,0.00217296
688.58423218,0.00217517
690.51303955,0.00233996
692.44184692,0.00224508
694.37065430,0.00212843
696.29946167,0.00263550
698.22826904,0.00330200
700.15707642,0.00359796
702.08588379,0.00354937
704.01469116,0.00312822
705.94349854,0.00262752
707.87230591,0.00227020
709.80111328,0.00191181
711.72992065,0.00125754
713.65872803,0.00082661
715.58753540,0.00049313
717.51634277,0.00045106
719.44515015,0.00036738
721.37395752,0.00000115
723.30276489,0.00045730
725.23157227,0.00045372
727.16037964,0.00016508
729.08918701,0.00016674
731.01799438,0.00025135
732.94680176,0.00045440
734.87560913,0.00007400
736.80441650,0.00002788
738.73322388,0.00028523
740.66203125,0.00036107
742.59083862,0.00018900
744.51964600,0.00039753
746.44845337,0.00055698
748.37726074,0.00013660
750.30606812,0.00025980
752.23487549,0.00018426
754.16368286,0.00028709
756.09249023,0.00041468
758.02129761,0.00012890
759.95010498,0.00049712
761.87891235,0.00060819
763.80771973,0.00024002
765.73652710,0.00008660
767.66533447,0.00038138
769.59414185,0.00030404
771.52294922,-0.00003932
773.45175659,0.00049550
775.38056396,0.00044129
777.30937134,0.00008914
779.23817871,0.00033028
781.16698608,0.00048831
783.09579346,0.00021142
785.02460083,0.00027776
786.95340820,0.00063011
788.88221558,0.00020336
790.81102295,0.00025416
792.73983032,0.00035759
794.66863770,0.00025972
796.59744507,0.00050839
798.52625244,0.00037342
800.45505981,0.00038338
802.38386719,0.00041607
804.31267456,0.00045939
806.24148193,0.00051838
808.17028931,0.00035806
810.09909668,0.00026633
812.02790405,0.00034302
813.95671143,0.00047076
815.88551880,0.00029301
817.81432617,0.00022469
819.74313354,0.00037411
821.67194092,0.00025909
823.60074829,0.00019686
825.52955566,0.00033138
827.45836304,0.00033385
829.38717041,0.00048871
831.31597778,0.00035698
833.24478516,0.00034677
835.17359253,0.00110255
837.10239990,0.00090997
839.03120728,0.00067747
840.96001465,0.00099130
842.88882202,0.00085823
844.81762939,0.00079634
846.74643677,0.00057921
848.67524414,0.00061514
850.60405151,0.00042842
852.53285889,0.00030653
854.46166626,0.00070981
856.39047363,0.00049410
858.31928101,0.00031488
860.24808838,0.00041543
862.17689575,0.00058786
864.10570313,0.00045839
866.03451050,0.00021388
867.96331787,0.00049983
869.89212524,0.00025267
871.82093262,0.00020792
873.74973999,0.00074070
875.67854736,0.00053049
877.60735474,0.00045684
879.53616211,0.00051425
881.46496948,0.00033445
883.39377686,0.00057166
885.32258423,0.00042696
887.25139160,0.00030268
889.18019897,0.00060648
891.10900635,0.00048793
893.03781372,0.00055977
894.96662109,0.00062602
896.89542847,0.00046819
898.82423584,0.00050382
900.75304321,0.00037001
902.68185059,0.00050653
904.61065796,0.00057417
906.53946533,0.00038497
908.46827271,0.00029042
910.39708008,0.00031782
912.32588745,0.00042916
914.25469482,0.00042362
916.18350220,0.00062966
918.11230957,0.00077011
920.04111694,0.00094076
921.96992432,0.00092792
923.89873169,0.00063105
925.82753906,0.00075172
927.75634644,0.00084939
929.68515381,0.00087902
931.61396118,0.00094523
933.54276855,0.00102471
935.47157593,0.00119041
937.40038330,0.00101852
939.32919067,0.00096496
941.25799805,0.00126899
943.18680542,0.00111598
945.11561279,0.00109853
947.04442017,0.00131106
948.97322754,0.00118298
950.90203491,0.00147156
952.83084229,0.00138122
954.75964966,0.00105116
956.68845703,0.00112223
958.61726440,0.00109279
960.54607178,0.00146287
962.47487915,0.00140800
964.40368652,0.00123088
966.33249390,0.00143727
968.26130127,0.00135089
970.19010864,0.00145730
972.11891602,0.00152980
974.04772339,0.00153813
975.97653076,0.00155666
977.90533813,0.00180459
979.83414551,0.00206603
981.76295288,0.00192326
983.69176025,0.00228626
985.62056763,0.00249330
987.54937500,0.00244043
989.47818237,0.00301943
991.40698975,0.00355522
993.33579712,0.00386674
995.26460449,0.00411709
997.19341187,0.00431514
999.12221924,0.00461961
1001.05102661,0.00506331
1002.97983398,0.00545049
1004.90864136,0.00578571
1006.83744873,0.00617828
1008.76625610,0.00635369
1010.69506348,0.00665598
1012.62387085,0.00713834
1014.55267822,0.00757268
1016.48148560,0.00801629
1018.41029297,0.00856094
1020.33910034,0.00917254
1022.26790771,0.00919802
1024.19671509,0.00949616
1026.12552246,0.01001954
1028.05432983,0.00993264
1029.98313721,0.01037879
1031.91194458,0.01091762
1033.84075195,0.01108309
1035.76955933,0.01111097
1037.69836670,0.01096747
1039.62717407,0.01117487
1041.55598145,0.01139255
1043.48478882,0.01122016
1045.41359619,0.01094552
1047.34240356,0.01090807
1049.27121094,0.01068019
1051.20001831,0.01056034
1053.12882568,0.01047690
1055.05763306,0.00995557
1056.98644043,0.00991356
1058.91524780,0.00969792
1060.84405518,0.00937298
1062.77286255,0.00946055
1064.70166992,0.00923032
1066.63047729,0.00874903
1068.55928467,0.00818664
1070.48809204,0.00787761
1072.41689941,0.00759540
1074.34570679,0.00723283
1076.27451416,0.00678455
1078.20332153,0.00647423
1080.13212891,0.00646000
1082.06093628,0.00618612
1083.98974365,0.00580723
1085.91855103,0.00537925
1087.84735840,0.00528341
1089.77616577,0.00500546
1091.70497314,0.00467832
1093.63378052,0.00471753
1095.56258789,0.00433158
1097.49139526,0.00441165
1099.42020264,0.00433486
1101.34901001,0.00401530
1103.27781738,0.00408166
1105.20662476,0.00394927
1107.13543213,0.00407630
1109.06423950,0.00387466
1110.99304687,0.00373951
1112.92185425,0.00386992
1114.85066162,0.00376495
1116.77946899,0.00391908
1118.70827637,0.00389904
1120.63708374,0.00387346
1122.56589111,0.00389667
1124.49469849,0.00379168
1126.42350586,0.00386421
1128.35231323,0.00403456
1130.28112061,0.00407050
1132.20992798,0.00417089
1134.13873535,0.00450173
1136.06754272,0.00449545
1137.99635010,0.00455487
1139.92515747,0.00494409
1141.85396484,0.00529941
1143.78277222,0.00574751
1145.71157959,0.00611013
1147.64038696,0.00634764
1149.56919434,0.00665274
1151.49800171,0.00710321
1153.42680908,0.00742023
1155.35561646,0.00764158
1157.28442383,0.00790489
1159.21323120,0.00811806
1161.14203857,0.00856268
1163.07084595,0.00896723
1164.99965332,0.00915495
1166.92846069,0.00948714
1168.85726807,0.00994464
1170.78607544,0.01026820
1172.71488281,0.01059381
1174.64369019,0.01108927
1176.57249756,0.01153960
1178.50130493,0.01192005
1180.43011230,0.01225330
1182.35891968,0.01281468
1184.28772705,0.01344848
1186.21653442,0.01396842
1188.14534180,0.01459068
1190.07414917,0.01505654
1192.00295654,0.01599119
1193.93176392,0.01698014
1195.86057129,0.01741194
1197.78937866,0.01836207
1199.71818604,0.01932981
1201.64699341,0.02003057
1203.57580078,0.02087653
1205.50460815,0.02162024
1207.43341553,0.02230737
1209.36222290,0.02299758
1211.29103027,0.02378952
1213.21983765,0.02439684
1215.14864502,0.02493248
1217.07745239,0.02551064
1219.00625977,0.02606940
1220.93506714,0.02649046
1222.86387451,0.02661515
1224.79268188,0.02691839
1226.72148926,0.02708822
1228.65029663,0.02727227
1230.57910400,0.02746212
1232.50791138,0.02743763
1234.43671875,0.02756424
1236.36552612,0.02751030
1238.29433350,0.02753801
1240.22314087,0.02757138
1242.15194824,0.02746505
1244.08075562,0.02714636
1246.00956299,0.02696146
1247.93837036,0.02695107
1249.86717773,0.02659739
1251.79598511,0.02662206
1253.72479248,0.02623705
1255.65359985,0.02586340
1257.58240723,0.02578904
1259.51121460,0.02518345
1261.44002197,0.02488385
1263.36882935,0.02441770
1265.29763672,0.02419632
1267.22644409,0.02412463
1269.15525146,0.02379711
1271.08405884,0.02346479
1273.01286621,0.02291127
1274.94167358,0.02258466
1276.87048096,0.02208775
1278.79928833,0.02178273
1280.72809570,0.02127968
1282.65690308,0.02089858
1284.58571045,0.02084677
1286.51451782,0.02000210
1288.44332520,0.01968858
1290.37213257,0.01967686
1292.30093994,0.01934815
1294.22974731,0.01911231
1296.15855469,0.01914268
1298.08736206,0.01910770
1300.01616943,0.01901975
1301.94497681,0.01943170
1303.87378418,0.01947685
1305.80259155,0.01968604
1307.73139893,0.01984573
1309.66020630,0.02014458
1311.58901367,0.02062390
1313.51782104,0.02070324
1315.44662842,0.02165516
1317.37543579,0.02195224
1319.30424316,0.02236213
1321.23305054,0.02348276
1323.16185791,0.02387517
1325.09066528,0.02474166
1327.01947266,0.02536949
1328.94828003,0.02585555
1330.87708740,0.02665490
1332.80589478,0.02717964
1334.73470215,0.02769653
1336.66350952,0.02796904
1338.59231689,0.02751303
1340.52112427,0.02769520
1342.44993164,0.02913580
1344.37873901,0.02927387
1346.30754639,0.02931874
1348.23635376,0.02950034
1350.16516113,0.02893006
1352.09396851,0.02919354
1354.02277588,0.02877833
1355.95158325,0.02839105
1357.88039062,0.02836660
1359.80919800,0.02789180
1361.73800537,0.02653059
1363.66681274,0.02579197
1365.59562012,0.02763091
1367.52442749,0.02703711
1369.45323486,0.02656062
1371.38204224,0.02731987
1373.31084961,0.02541871
1375.23965698,0.02573999
1377.16846436,0.02669965
1379.09727173,0.02635755
1381.02607910,0.02641801
1382.95488647,0.02666295
1384.88369385,0.02671309
1386.81250122,0.02515925
1388.74130859,0.02554355
1390.67011597,0.02781706
1392.59892334,0.02703670
1394.52773071,0.02506068
1396.45653809,0.02646725
1398.38534546,0.02640648
1400.31415283,0.02605893
1402.24296021,0.02878407
1404.17176758,0.02694941
1406.10057495,0.02700681
1408.02938232,0.02841601
1409.95818970,0.02721105
1411.88699707,0.02810496
1413.81580444,0.02697418
1415.74461182,0.02743550
1417.67341919,0.02434379
1419.60222656,0.02131090
1421.53103394,0.02543701
1423.45984131,0.02462928
1425.38864868,0.02394617
1427.31745605,0.02451266
1429.24626343,0.02255160
1431.17507080,0.02176776
1433.10387817,0.02204832
1435.03268555,0.02009512
1436.96149292,0.01656834
1438.89030029,0.01942035
1440.81910767,0.02009924
1442.74791504,0.01848300
1444.67672241,0.01975456
1446.60552979,0.01781748
1448.53433716,0.01818404
1450.46314453,0.01874851
1452.39195190,0.01911544
1454.32075928,0.01998760
1456.24956665,0.01572607
1458.17837402,0.01646481
1460.10718140,0.02284047
1462.03598877,0.02437993
1463.96479614,0.02391222
1465.89360352,0.02481252
1467.82241089,0.02870983
1469.75121826,0.03081158
1471.68002563,0.02654279
1473.60883301,0.02783407
1475.53764038,0.03219775
1477.46644775,0.03490727
1479.39525513,0.03869849
1481.32406250,0.03890605
1483.25286987,0.04155190
1485.18167725,0.04300091
1487.11048462,0.04160855
1489.03929199,0.04073007
1490.96809937,0.04098499
1492.89690674,0.04904301
1494.82571411,0.04747366
1496.75452148,0.04167877
1498.68332886,0.04780058
1500.61213623,0.04953649
1502.54094360,0.05371993
1504.46975098,0.04987403
1506.39855835,0.03408781
1508.32736572,0.04318534
1510.25617310,0.05213238
1512.18498047,0.05058032
1514.11378784,0.05509914
1516.04259521,0.04856611
1517.97140259,0.05120725
1519.90020996,0.04926304
1521.82901733,0.04125898
1523.75782471,0.05244554
1525.68663208,0.05150479
1527.61543945,0.05128089
1529.54424683,0.05792529
1531.47305420,0.05503801
1533.40186157,0.04937728
1535.33066895,0.05352043
1537.25947632,0.05798459
1539.18828369,0.03859788
1541.11709106,0.04094184
1543.04589844,0.05077237
1544.97470581,0.04805446
1546.90351318,0.05903642
1548.83232056,0.05434514
1550.76112793,0.05618881
1552.68993530,0.05615218
1554.61874268,0.05001196
1556.54755005,0.05406503
1558.47635742,0.03546260
1560.40516479,0.03939527
1562.33397217,0.05994581
1564.26277954,0.05564346
1566.19158691,0.05760838
1568.12039429,0.05699664
1570.04920166,0.04914058
1571.97800903,0.05863908
1573.90681641,0.05954923
1575.83562378,0.04526444
1577.76443115,0.05254842
1579.69323853,0.06020021
1581.62204590,0.05735812
1583.55085327,0.05931469
1585.47966064,0.05820417
1587.40846802,0.05882890
1589.33727539,0.05820813
1591.26608276,0.05824601
1593.19489014,0.05823489
1595.12369751,0.05731512
1597.05250488,0.05855452
1598.98131226,0.05813708
1600.91011963,0.05848806
1602.83892700,0.05731328
1604.76773437,0.05833021
1606.69654175,0.05737277
1608.62534912,0.05726799
1610.55415649,0.05719835
1612.48296387,0.05770030
1614.41177124,0.05866596
1616.34057861,0.04633468
1618.26938599,0.05108022
1620.19819336,0.06090858
1622.12700073,0.05275593
1624.05580811,0.05298198
1625.98461548,0.05616665
1627.91342285,0.05579962
1629.84223022,0.05553929
1631.77103760,0.05996463
1633.69984497,0.05441365
1635.62865234,0.04316615
1637.55745972,0.05187786
1639.48626709,0.05827936
1641.41507446,0.05669823
1643.34388184,0.05853697
1645.27268921,0.05151548
1647.20149658,0.04391028
1649.13030396,0.05737206
1651.05911133,0.05394019
1652.98791870,0.03154825
1654.91672607,0.04596958
1656.84553345,0.05993773
1658.77434082,0.05724047
1660.70314819,0.05883397
1662.63195557,0.05247887
1664.56076294,0.05615211
1666.48957031,0.06104063
1668.41837769,0.05177385
1670.34718506,0.05007174
1672.27599243,0.05826247
1674.20479980,0.05283501
1676.13360718,0.05036079
1678.06241455,0.05966720
1679.99122192,0.05708160
1681.92002930,0.05605587
1683.84883667,0.04394984
1685.77764404,0.04374161
1687.70645142,0.06302087
1689.63525879,0.05362634
1691.56406616,0.05999752
1693.49287354,0.06095424
1695.42168091,0.04224658
1697.35048828,0.05423079
1699.27929565,0.04621693
1701.20810303,0.04095344
1703.13691040,0.05911887
1705.06571777,0.05314904
1706.99452515,0.05406803
1708.92333252,0.05974959
1710.85213989,0.05699433
1712.78094727,0.05808610
1714.70975464,0.05294112
1716.63856201,0.04691759
1718.56736938,0.04606426
1720.49617676,0.05633164
1722.42498413,0.05915916
1724.35379150,0.05397975
1726.28259888,0.05977073
1728.21140625,0.05455701
1730.14021362,0.05487426
1732.06902100,0.05349340
1733.99782837,0.03864986
1735.92663574,0.05037207
1737.85544312,0.05643418
1739.78425049,0.04922038
1741.71305786,0.05457270
1743.64186523,0.05509628
1745.57067261,0.05506678
1747.49947998,0.05537554
1749.42828735,0.05249085
1751.35709473,0.05006555
1753.28590210,0.05655853
1755.21470947,0.05937413
1757.14351685,0.05327385
1759.07232422,0.05969527
1761.00113159,0.05527127
1762.92993896,0.05324850
1764.85874634,0.06243668
1766.78755371,0.05504027
1768.71636108,0.05572999
1770.64516846,0.05509131
1772.57397583,0.04864602
1774.50278320,0.05556532
1776.43159058,0.05917078
1778.36039795,0.05825491
1780.28920532,0.05730125
1782.21801270,0.05794171
1784.14682007,0.05779374
1786.07562744,0.05646057
1788.00443481,0.06004567
1789.93324219,0.05794958
1791.86204956,0.05136879
1793.79085693,0.05422393
1795.71966431,0.05893680
1797.64847168,0.05807870
1799.57727905,0.05690164
1801.50608643,0.05575302
1803.43489380,0.05817240
1805.36370117,0.05951276
1807.29250854,0.05852616
1809.22131592,0.05873344
1811.15012329,0.05675346
1813.07893066,0.05909759
1815.00773804,0.05948173
1816.93654541,0.05861180
1818.86535278,0.05922379
1820.79416016,0.05908118
1822.72296753,0.05998336
1824.65177490,0.05523597
1826.58058228,0.05788074
1828.50938965,0.05783631
1830.43819702,0.05354423
1832.36700439,0.05935701
1834.29581177,0.05885892
1836.22461914,0.05883044
1838.15342651,0.05851434
1840.08223389,0.05910385
1842.01104126,0.05916734
1843.93984863,0.05117498
1845.86865601,0.05527515
1847.79746338,0.05889704
1849.72627075,0.05759798
1851.65507812,0.05956060
1853.58388550,0.05826142
1855.51269287,0.05904150
1857.44150024,0.05845108
1859.37030762,0.05807134
1861.29911499,0.05843655
1863.22792236,0.05786514
1865.15672974,0.05855702
1867.08553711,0.05586895
1869.01434448,0.05328389
1870.94315186,0.05595139
1872.87195923,0.05852639
1874.80076660,0.05746815
1876.72957397,0.05791209
1878.65838135,0.05765317
1880.58718872,0.05735322
1882.51599609,0.05805112
1884.44480347,0.05671345
1886.37361084,0.05788490
1888.30241821,0.05627847
1890.23122559,0.05481472
1892.16003296,0.05751380
1894.08884033,0.05651663
1896.01764771,0.05627436
1897.94645508,0.05704483
1899.87526245,0.05675607
1901.80406982,0.05686389
1903.73287720,0.05637150
1905.66168457,0.05681781
1907.59049194,0.05614701
1909.51929932,0.05575600
1911.44810669,0.05603208
1913.37691406,0.05609838
1915.30572144,0.05681880
1917.23452881,0.05388927
1919.16333618,0.05401440
1921.09214355,0.05635783
1923.02095093,0.05437772
1924.94975830,0.05579448
1926.87856567,0.05621399
1928.80737305,0.05550057
1930.73618042,0.05644911
1932.66498779,0.05534092
1934.59379517,0.05605399
1936.52260254,0.05566192
1938.45140991,0.05577830
1940.38021729,0.05574310
1942.30902466,0.05361025
1944.23783203,0.05488000
1946.16663940,0.05539959
1948.09544678,0.05533994
1950.02425415,0.05578268
1951.95306152,0.05541782
1953.88186890,0.05553584
1955.81067627,0.05527821
1957.73948364,0.05548902
1959.66829102,0.05535842
1961.59709839,0.05510401
1963.52590576,0.05546964
1965.45471313,0.05517320
1967.38352051,0.05434829
1969.31232788,0.05493746
1971.24113525,0.05539976
1973.16994263,0.05480358
1975.09875000,0.05526035
1977.02755737,0.05498276
1978.95636475,0.05495621
1980.88517212,0.05491664
1982.81397949,0.05459917
1984.74278687,0.05506320
1986.67159424,0.05441279
1988.60040161,0.05455539
1990.52920898,0.05405809
1992.45801636,0.05322585
1994.38682373,0.05424351
1996.31563110,0.05429930
1998.24443848,0.05399938
2000.17324585,0.05401895
2002.10205322,0.05396315
2004.03086060,0.05406435
2005.95966797,0.05382214
2007.88847534,0.05362248
2009.81728271,0.05360163
2011.74609009,0.05341784
2013.67489746,0.05337306
2015.60370483,0.05295172
2017.53251221,0.05249071
2019.46131958,0.05292013
2021.39012695,0.05286404
2023.31893433,0.05276622
2025.24774170,0.05292325
2027.17654907,0.05270778
2029.10535645,0.05247853
2031.03416382,0.05220502
2032.96297119,0.05237698
2034.89177856,0.05224780
2036.82058594,0.05200251
2038.74939331,0.05197833
2040.67820068,0.05164943
2042.60700806,0.05160411
2044.53581543,0.05161135
2046.46462280,0.05148924
2048.39343018,0.05146617
2050.32223755,0.05136442
2052.25104492,0.05114309
2054.17985229,0.05123432
2056.10865967,0.05115280
2058.03746704,0.05085407
2059.96627441,0.05094184
2061.89508179,0.05090854
2063.82388916,0.05058961
2065.75269653,0.05029795
2067.68150391,0.05050378
2069.61031128,0.05058097
2071.53911865,0.05039378
2073.46792603,0.05024142
2075.39673340,0.05007798
2077.32554077,0.05010747
2079.25434814,0.04985094
2081.18315552,0.04989075
2083.11196289,0.04983054
2085.04077026,0.04965479
2086.96957764,0.04970207
2088.89838501,0.04939377
2090.82719238,0.04947712
2092.75599976,0.04947675
2094.68480713,0.04929386
2096.61361450,0.04918203
2098.54242187,0.04905851
2100.47122925,0.04903313
2102.40003662,0.04888742
2104.32884399,0.04888037
2106.25765137,0.04878268
2108.18645874,0.04878751
2110.11526611,0.04880796
2112.04407349,0.04861476
2113.97288086,0.04836973
2115.90168823,0.04831156
2117.83049561,0.04833741
2119.75930298,0.04820420
2121.68811035,0.04834542
2123.61691772,0.04814658
2125.54572510,0.04797372
2127.47453247,0.04810887
2129.40333984,0.04798595
2131.33214722,0.04794613
2133.26095459,0.04787937
2135.18976196,0.04779369
2137.11856934,0.04761935
2139.04737671,0.04761159
2140.97618408,0.04766442
2142.90499146,0.04760416
2144.83379883,0.04757423
2146.76260620,0.04738604
2148.69141357,0.04734500
2150.62022095,0.04733418
2152.54902832,0.04728919
2154.47783569,0.04713261
2156.40664307,0.04710955
2158.33545044,0.04712707
2160.26425781,0.04692282
2162.19306519,0.04699756
2164.12187256,0.04690770
2166.05067993,0.04676368
2167.97948730,0.04680762
2169.90829468,0.04681810
2171.83710205,0.04679468
2173.76590942,0.04669508
2175.69471680,0.04665966
2177.62352417,0.04659112
2179.55233154,0.04660649
2181.48113892,0.04653377
2183.40994629,0.04634037
2185.33875366,0.04630490
2187.26756104,0.04630192
2189.19636841,0.04624391
2191.12517578,0.04618717
2193.05398315,0.04616048
2194.98279053,0.04609593
2196.91159790,0.04605329
2198.84040527,0.04599351
2200.76921265,0.04594328
2202.69802002,0.04585525
2204.62682739,0.04583386
2206.55563477,0.04583671
2208.48444214,0.04563963
2210.41324951,0.04565754
2212.34205688,0.04573518
2214.27086426,0.04556283
2216.19967163,0.04549716
2218.12847900,0.04552417
2220.05728638,0.04539345
2221.98609375,0.04535676
2223.91490112,0.04528986
2225.84370850,0.04520653
2227.77251587,0.04521919
2229.70132324,0.04509206
2231.63013062,0.04509339
2233.55893799,0.04496978
2235.48774536,0.04505938
2237.41655273,0.04499163
2239.34536011,0.04464495
2241.27416748,0.04480746
2243.20297485,0.04465030
2245.13178223,0.04464640
2247.06058960,0.04458411
2248.98939697,0.04445723
2250.91820435,0.04452815
2252.84701172,0.04418458
2254.77581909,0.04429198
2256.70462646,0.04422170
2258.63343384,0.04410288
2260.56224121,0.04410842
2262.49104858,0.04398439
2264.41985596,0.04396068
2266.34866333,0.04370423
2268.27747070,0.04384112
2270.20627808,0.04376180
2272.13508545,0.04367770
2274.06389282,0.04373574
2275.99270020,0.04361892
2277.92150757,0.04365679
2279.85031494,0.04345525
2281.77912231,0.04353082
2283.70792969,0.04350902
2285.63673706,0.04337960
2287.56554443,0.04331007
2289.49435181,0.04321209
2291.42315918,0.04326350
2293.35196655,0.04296511
2295.28077393,0.04279980
2297.20958130,0.04274061
2299.13838867,0.04260006
2301.06719604,0.04244062
2302.99600342,0.04228048
2304.92481079,0.04207516
2306.85361816,0.04183773
2308.78242554,0.04166825
2310.71123291,0.04118275
2312.64004028,0.04086979
2314.56884766,0.04056436
2316.49765503,0.04008827
2318.42646240,0.03963787
2320.35526978,0.03915803
2322.28407715,0.03864800
2324.21288452,0.03806411
2326.14169189,0.03784949
2328.07049927,0.03731764
2329.99930664,0.03668485
2331.92811401,0.03656583
2333.85692139,0.03646863
2335.78572876,0.03633061
2337.71453613,0.03628224
2339.64334351,0.03628198
2341.57215088,0.03627292
2343.50095825,0.03685710
2345.42976562,0.03758875
2347.35857300,0.03891585
2349.28738037,0.04010458
2351.21618774,0.03888912
2353.14499512,0.03717574
2355.07380249,0.03593824
2357.00260986,0.03468351
2358.93141724,0.03392604
2360.86022461,0.03364446
2362.78903198,0.03371625
2364.71783936,0.03383937
2366.64664673,0.03427356
2368.57545410,0.03489923
2370.50426147,0.03565893
2372.43306885,0.03662263
2374.36187622,0.03746685
2376.29068359,0.03833443
2378.21949097,0.03919167
2380.14829834,0.03972235
2382.07710571,0.04009764
2384.00591309,0.04042091
2385.93472046,0.04045805
2387.86352783,0.04058717
2389.79233521,0.04057021
2391.72114258,0.04046492
2393.64994995,0.04052623
2395.57875732,0.04042597
2397.50756470,0.04042801
2399.43637207,0.04028072
2401.36517944,0.04025197
2403.29398682,0.04031345
2405.22279419,0.04012028
2407.15160156,0.04004758
2409.08040894,0.04005356
2411.00921631,0.04009507
2412.93802368,0.03994992
2414.86683105,0.03986910
2416.79563843,0.03985183
2418.72444580,0.03972638
2420.65325317,0.03972802
2422.58206055,0.03973498
2424.51086792,0.03966654
2426.43967529,0.03950901
2428.36848267,0.03951676
2430.29729004,0.03957836
2432.22609741,0.03949249
2434.15490479,0.03930981
2436.08371216,0.03926431
2438.01251953,0.03933897
2439.94132690,0.03928600
2441.87013428,0.03919988
2443.79894165,0.03904476
2445.72774902,0.03913154
2447.65655640,0.03907034
2449.58536377,0.03886028
2451.51417114,0.03896863
2453.44297852,0.03889997
2455.37178589,0.03871620
2457.30059326,0.03870025
2459.22940063,0.03891068
2461.15820801,0.03876387
2463.08701538,0.03847221
2465.01582275,0.03855138
2466.94463013,0.03851917
2468.87343750,0.03848956
2470.80224487,0.03839316
2472.73105225,0.03827769
2474.65985962,0.03826567
2476.58866699,0.03832421
2478.51747437,0.03828321
2480.44628174,0.03804965
2482.37508911,0.03808103
2484.30389648,0.03808950
2486.23270386,0.03797095
2488.16151123,0.03801290
2490.09031860,0.03799712
2492.01912598,0.03786549
2493.94793335,0.03791718
2495.87674072,0.03787531
2497.80554810,0.03768174
2499.73435547,0.03771089
2501.66316284,0.03765455
2503.59197021,0.03760666
2505.52077759,0.03755783
2507.44958496,0.03749964
2509.37839233,0.03746623
2511.30719971,0.03734131
2513.23600708,0.03734501
2515.16481445,0.03731392
2517.09362183,0.03730151
2519.02242920,0.03726526
2520.95123657,0.03720012
2522.88004395,0.03711118
2524.80885132,0.03700130
2526.73765869,0.03694569
2528.66646606,0.03688329
2530.59527344,0.03696778
2532.52408081,0.03692435
2534.45288818,0.03684556
2536.38169556,0.03674494
2538.31050293,0.03666787
2540.23931030,0.03666371
2542.16811768,0.03664712
2544.09692505,0.03676106
2546.02573242,0.03662708
2547.95453979,0.03657113
2549.88334717,0.03649455
2551.81215454,0.03632706
2553.74096191,0.03626061
2555.66976929,0.03626086
2557.59857666,0.03637238
2559.52738403,0.03614384
2561.45619141,0.03615255
2563.38499878,0.03612249
2565.31380615,0.03600759
2567.24261353,0.03608479
2569.17142090,0.03597076
2571.10022827,0.03599302
2573.02903564,0.03578383
2574.95784302,0.03579331
2576.88665039,0.03584976
2578.81545776,0.03573116
2580.74426514,0.03578457
2582.67307251,0.03565883
2584.60187988,0.03560848
2586.53068726,0.03539740
2588.45949463,0.03539707
2590.38830200,0.03539547
2592.31710937,0.03524241
2594.24591675,0.03532227
2596.17472412,0.03521238
2598.10353149,0.03518787
2600.03233887,0.03514602
2601.96114624,0.03517368
2603.88995361,0.03508389
2605.81876099,0.03496158
2607.74756836,0.03502015
2609.67637573,0.03485753
2611.60518311,0.03486510
2613.53399048,0.03491265
2615.46279785,0.03494465
2617.39160522,0.03480864
2619.32041260,0.03465869
2621.24921997,0.03466330
2623.17802734,0.03456142
2625.10683472,0.03462020
2627.03564209,0.03446821
2628.96444946,0.03436650
2630.89325684,0.03446374
2632.82206421,0.03442334
2634.75087158,0.03432829
2636.67967895,0.03421073
2638.60848633,0.03425615
2640.53729370,0.03426908
2642.46610107,0.03415566
2644.39490845,0.03404433
2646.32371582,0.03403188
2648.25252319,0.03397189
2650.18133057,0.03393872
2652.11013794,0.03391005
2654.03894531,0.03376751
2655.96775269,0.03378949
2657.89656006,0.03376652
2659.82536743,0.03377077
2661.75417480,0.03365306
2663.68298218,0.03352325
2665.61178955,0.03357806
2667.54059692,0.03347824
2669.46940430,0.03348474
2671.39821167,0.03340776
2673.32701904,0.03334342
2675.25582642,0.03341030
2677.18463379,0.03329862
2679.11344116,0.03314570
2681.04224854,0.03312352
2682.97105591,0.03312045
2684.89986328,0.03299004
2686.82867065,0.03308269
2688.75747803,0.03308544
2690.68628540,0.03289542
2692.61509277,0.03285993
2694.54390015,0.03276952
2696.47270752,0.03271227
2698.40151489,0.03275441
2700.33032227,0.03278172
2702.25912964,0.03267918
2704.18793701,0.03259362
2706.11674438,0.03250492
2708.04555176,0.03247388
2709.97435913,0.03250106
2711.90316650,0.03231312
2713.83197388,0.03227569
2715.76078125,0.03233165
2717.68958862,0.03229918
2719.61839600,0.03214008
2721.54720337,0.03210311
2723.47601074,0.03223061
2725.40481812,0.03202077
2727.33362549,0.03200264
2729.26243286,0.03200797
2731.19124023,0.03182930
2733.12004761,0.03186164
2735.04885498,0.03172966
2736.97766235,0.03162895
2738.90646973,0.03161152
2740.83527710,0.03165872
2742.76408447,0.03176855
2744.69289185,0.03151165
2746.62169922,0.03138210
2748.55050659,0.03145420
2750.47931396,0.03134263
2752.40812134,0.03132605
2754.33692871,0.03128742
2756.26573608,0.03125316
2758.19454346,0.03128988
2760.12335083,0.03117645
2762.05215820,0.03107732
2763.98096558,0.03105979
2765.90977295,0.03105098
2767.83858032,0.03090075
2769.76738770,0.03078882
2771.69619507,0.03086027
2773.62500244,0.03084297
2775.55380981,0.03075430
2777.48261719,0.03063359
2779.41142456,0.03059680
2781.34023193,0.03057830
2783.26903931,0.03050654
2785.19784668,0.03042620
2787.12665405,0.03029094
2789.05546143,0.03027860
2790.98426880,0.03026270
2792.91307617,0.03023963
2794.84188354,0.03020864
2796.77069092,0.03005942
2798.69949829,0.03005235
2800.62830566,0.03012170
2802.55711304,0.02999190
2804.48592041,0.02980240
2806.41472778,0.02984324
2808.34353516,0.02983072
2810.27234253,0.02966905
2812.20114990,0.02976524
2814.12995728,0.02975177
2816.05876465,0.02947775
2817.98757202,0.02949625
2819.91637939,0.02942112
2821.84518677,0.02927220
2823.77399414,0.02935949
2825.70280151,0.02914497
2827.63160889,0.02914127
2829.56041626,0.02923545
2831.48922363,0.02903884
2833.41803101,0.02903832
2835.34683838,0.02892476
2837.27564575,0.02885514
2839.20445312,0.02879897
2841.13326050,0.02859981
2843.06206787,0.02849275
2844.99087524,0.02843451
2846.91968262,0.02826988
2848.84848999,0.02799926
2850.77729736,0.02811156
2852.70610474,0.02813548
2854.63491211,0.02805422
2856.56371948,0.02807261
2858.49252686,0.02791988
2860.42133423,0.02798062
2862.35014160,0.02793666
2864.27894897,0.02790863
2866.20775635,0.02788034
2868.13656372,0.02769396
2870.06537109,0.02775389
2871.99417847,0.02778665
2873.92298584,0.02768038
2875.85179321,0.02755029
2877.78060059,0.02758659
2879.70940796,0.02751113
2881.63821533,0.02738864
2883.56702270,0.02754580
2885.49583008,0.02750366
2887.42463745,0.02732270
2889.35344482,0.02728150
2891.28225220,0.02726926
2893.21105957,0.02714686
2895.13986694,0.02704382
2897.06867432,0.02698134
2898.99748169,0.02701194
2900.92628906,0.02701631
2902.85509644,0.02683355
2904.78390381,0.02678969
2906.71271118,0.02670067
2908.64151855,0.02663705
2910.57032593,0.02655095
2912.49913330,0.02646346
2914.42794067,0.02649384
2916.35674805,0.02634615
2918.28555542,0.02633642
2920.21436279,0.02625399
2922.14317017,0.02617249
2924.07197754,0.02616614
2926.00078491,0.02612945
2927.92959229,0.02620169
2929.85839966,0.02612559
2931.78720703,0.02626781
2933.71601440,0.02624495
2935.64482178,0.02608789
2937.57362915,0.02622393
2939.50243652,0.02616700
2941.43124390,0.02602998
2943.36005127,0.02595854
2945.28885864,0.02605227
2947.21766602,0.02604593
2949.14647339,0.02593284
2951.07528076,0.02588321
2953.00408813,0.02579310
2954.93289551,0.02582830
2956.86170288,0.02573171
2958.79051025,0.02560617
2960.71931763,0.02554400
2962.64812500,0.02554890
2964.57693237,0.02554714
2966.50573975,0.02543105
2968.43454712,0.02547398
2970.36335449,0.02542672
2972.29216187,0.02548518
2974.22096924,0.02559002
2976.14977661,0.02543573
2978.07858398,0.02537371
2980.00739136,0.02537019
2981.93619873,0.02539257
2983.86500610,0.02537131
2985.79381348,0.02534628
2987.72262085,0.02533692
2989.65142822,0.02529812
2991.58023560,0.02531156
2993.50904297,0.02520723
2995.43785034,0.02520969
2997.36665771,0.02523637
2999.29546509,0.02509871
3001.22427246,0.02502562
3003.15307983,0.02493249
3005.08188721,0.02488249
3007.01069458,0.02483839
3008.93950195,0.02479294
3010.86830933,0.02474245
3012.79711670,0.02463539
3014.72592407,0.02464625
3016.65473145,0.02450507
3018.58353882,0.02442997
3020.51234619,0.02452510
3022.44115356,0.02445892
3024.36996094,0.02444837
3026.29876831,0.02436157
3028.22757568,0.02427391
3030.15638306,0.02421482
3032.08519043,0.02410284
3034.01399780,0.02407236
3035.94280518,0.02397676
3037.87161255,0.02397035
3039.80041992,0.02392907
3041.72922729,0.02390033
3043.65803467,0.02390486
3045.58684204,0.02373943
3047.51564941,0.02374831
3049.44445679,0.02377356
3051.37326416,0.02371135
3053.30207153,0.02366378
3055.23087891,0.02353173
3057.15968628,0.02345450
3059.08849365,0.02348934
3061.01730103,0.02346489
3062.94610840,0.02335232
3064.87491577,0.02330020
3066.80372314,0.02322117
3068.73253052,0.02319044
3070.66133789,0.02317322
3072.59014526,0.02312695
3074.51895264,0.02318360
3076.44776001,0.02314742
3078.37656738,0.02303015
3080.30537476,0.02290970
3082.23418213,0.02288694
3084.16298950,0.02293469
3086.09179687,0.02284263
3088.02060425,0.02276209
3089.94941162,0.02279524
3091.87821899,0.02272082
3093.80702637,0.02260176
3095.73583374,0.02259039
3097.66464111,0.02253143
3099.59344849,0.02251953
3101.52225586,0.02244087
3103.45106323,0.02238036
3105.37987061,0.02240416
3107.30867798,0.02226569
3109.23748535,0.02225192
3111.16629272,0.02221790
3113.09510010,0.02216377
3115.02390747,0.02204535
3116.95271484,0.02187682
3118.88152222,0.02197143
3120.81032959,0.02188846
3122.73913696,0.02177045
3124.66794434,0.02179225
3126.59675171,0.02176123
3128.52555908,0.02167359
3130.45436645,0.02157643
3132.38317383,0.02153463
3134.31198120,0.02150970
3136.24078857,0.02142616
3138.16959595,0.02125742
3140.09840332,0.02143044
3142.02721069,0.02145388
3143.95601807,0.02123775
3145.88482544,0.02126753
3147.81363281,0.02117013
3149.74244019,0.02110279
3151.67124756,0.02097638
3153.60005493,0.02093784
3155.52886230,0.02087621
3157.45766968,0.02076655
3159.38647705,0.02092515
3161.31528442,0.02071714
3163.24409180,0.02060538
3165.17289917,0.02066451
3167.10170654,0.02048568
3169.03051392,0.02045751
3170.95932129,0.02052466
3172.88812866,0.02045535
3174.81693604,0.02036183
3176.74574341,0.02030744
3178.67455078,0.02012443
3180.60335815,0.02024337
3182.53216553,0.02016121
3184.46097290,0.01992453
3186.38978027,0.02015258
3188.31858765,0.02004471
3190.24739502,0.01996013
3192.17620239,0.01990934
3194.10500977,0.01978089
3196.03381714,0.01984294
3197.96262451,0.01969372
3199.89143188,0.01966598
3201.82023926,0.01962027
3203.74904663,0.01950472
3205.67785400,0.01952259
3207.60666138,0.01954749
3209.53546875,0.01953924
3211.46427612,0.01941440
3213.39308350,0.01931346
3215.32189087,0.01926060
3217.25069824,0.01929190
3219.17950562,0.01927074
3221.10831299,0.01922389
3223.03712036,0.01920243
3224.96592773,0.01912985
3226.89473511,0.01913344
3228.82354248,0.01902704
3230.75234985,0.01900721
3232.68115723,0.01902753
3234.60996460,0.01886742
3236.53877197,0.01891663
3238.46757935,0.01890051
3240.39638672,0.01880068
3242.32519409,0.01896032
3244.25400146,0.01888439
3246.18280884,0.01874227
3248.11161621,0.01882019
3250.04042358,0.01873868
3251.96923096,0.01871422
3253.89803833,0.01878503
3255.82684570,0.01870113
3257.75565308,0.01858931
3259.68446045,0.01859588
3261.61326782,0.01852544
3263.54207520,0.01843866
3265.47088257,0.01856641
3267.39968994,0.01849963
3269.32849731,0.01840813
3271.25730469,0.01846347
3273.18611206,0.01842806
3275.11491943,0.01837897
3277.04372681,0.01830011
3278.97253418,0.01838032
3280.90134155,0.01841019
3282.83014893,0.01833513
3284.75895630,0.01837593
3286.68776367,0.01825660
3288.61657104,0.01814796
3290.54537842,0.01825669
3292.47418579,0.01824195
3294.40299316,0.01814111
3296.33180054,0.01817463
3298.26060791,0.01811861
3300.18941528,0.01805235
3302.11822266,0.01803904
3304.04703003,0.01804403
3305.97583740,0.01804601
3307.90464478,0.01789579
3309.83345215,0.01787225
3311.76225952,0.01795938
3313.69106689,0.01795787
3315.61987427,0.01787831
3317.54868164,0.01786143
3319.47748901,0.01784399
3321.40629639,0.01785581
3323.33510376,0.01792170
3325.26391113,0.01770851
3327.19271851,0.01768548
3329.12152588,0.01770841
3331.05033325,0.01764610
3332.97914062,0.01772394
3334.90794800,0.01755485
3336.83675537,0.01753800
3338.76556274,0.01760234
3340.69437012,0.01757504
3342.62317749,0.01752846
3344.55198486,0.01743069
3346.48079224,0.01750173
3348.40959961,0.01751348
3350.33840698,0.01744519
3352.26721436,0.01737563
3354.19602173,0.01729206
3356.12482910,0.01721554
3358.05363647,0.01722923
3359.98244385,0.01720234
3361.91125122,0.01709167
3363.84005859,0.01712842
3365.76886597,0.01718429
3367.69767334,0.01704971
3369.62648071,0.01687991
3371.55528809,0.01705771
3373.48409546,0.01704289
3375.41290283,0.01693844
3377.34171020,0.01701696
3379.27051758,0.01693762
3381.19932495,0.01702139
3383.12813232,0.01688801
3385.05693970,0.01679865
3386.98574707,0.01682831
3388.91455444,0.01672266
3390.84336182,0.01670859
3392.77216919,0.01657731
3394.70097656,0.01662863
3396.62978394,0.01658348
3398.55859131,0.01652047
3400.48739868,0.01651215
3402.41620605,0.01641203
3404.34501343,0.01643407
3406.27382080,0.01640884
3408.20262817,0.01642961
3410.13143555,0.01634284
3412.06024292,0.01642422
3413.98905029,0.01640812
3415.91785767,0.01628386
3417.84666504,0.01634821
3419.77547241,0.01614075
3421.70427979,0.01610575
3423.63308716,0.01617168
3425.56189453,0.01615022
3427.49070190,0.01609672
3429.41950928,0.01603887
3431.34831665,0.01597004
3433.27712402,0.01596080
3435.20593140,0.01601107
3437.13473877,0.01589012
3439.06354614,0.01603315
3440.99235352,0.01582749
3442.92116089,0.01568286
3444.84996826,0.01584607
3446.77877563,0.01554367
3448.70758301,0.01565947
3450.63639038,0.01582829
3452.56519775,0.01571861
3454.49400513,0.01566119
3456.42281250,0.01563152
3458.35161987,0.01570855
3460.28042725,0.01564110
3462.20923462,0.01549536
3464.13804199,0.01550822
3466.06684937,0.01559449
3467.99565674,0.01545265
3469.92446411,0.01549351
3471.85327148,0.01557310
3473.78207886,0.01548671
3475.71088623,0.01543349
3477.63969360,0.01541189
3479.56850098,0.01543875
3481.49730835,0.01513673
3483.42611572,0.01520028
3485.35492310,0.01538983
3487.28373047,0.01524484
3489.21253784,0.01534320
3491.14134521,0.01540567
3493.07015259,0.01531795
3494.99895996,0.01520218
3496.92776733,0.01520434
3498.85657471,0.01522882
3500.78538208,0.01526367
3502.71418945,0.01490469
3504.64299683,0.01482179
3506.57180420,0.01530761
3508.50061157,0.01500610
3510.42941895,0.01488825
3512.35822632,0.01513387
3514.28703369,0.01523245
3516.21584106,0.01517429
3518.14464844,0.01503603
3520.07345581,0.01528988
3522.00226318,0.01495429
3523.93107056,0.01474280
3525.85987793,0.01495318
3527.78868530,0.01473559
3529.71749268,0.01480069
3531.64630005,0.01506990
3533.57510742,0.01512290
3535.50391479,0.01501615
3537.43272217,0.01493331
3539.36152954,0.01499686
3541.29033691,0.01506986
3543.21914429,0.01495934
3545.14795166,0.01446808
3547.07675903,0.01424906
3549.00556641,0.01492513
3550.93437378,0.01484004
3552.86318115,0.01441941
3554.79198853,0.01492538
3556.72079590,0.01486355
3558.64960327,0.01488925
3560.57841064,0.01474234
3562.50721802,0.01462634
3564.43602539,0.01487456
3566.36483276,0.01354209
3568.29364014,0.01313272
3570.22244751,0.01438435
3572.15125488,0.01483721
3574.08006226,0.01474951
3576.00886963,0.01471786
3577.93767700,0.01464782
3579.86648437,0.01473183
3581.79529175,0.01474899
3583.72409912,0.01470777
3585.65290649,0.01429585
3587.58171387,0.01288775
3589.51052124,0.01338092
3591.43932861,0.01475867
3593.36813599,0.01432386
3595.29694336,0.01403811
3597.22575073,0.01420303
3599.15455811,0.01453109
3601.08336548,0.01431153
3603.01217285,0.01438964
3604.94098022,0.01488050
3606.86978760,0.01417105
3608.79859497,0.01322575
3610.72740234,0.01356811
3612.65620972,0.01387741
3614.58501709,0.01343771
3616.51382446,0.01450636
3618.44263184,0.01324493
3620.37143921,0.01268983
3622.30024658,0.01469355
3624.22905395,0.01421928
3626.15786133,0.01486714
3628.08666870,0.01228138
3630.01547607,0.01104183
3631.94428345,0.01448654
3633.87309082,0.01397902
3635.80189819,0.01428837
3637.73070557,0.01466940
3639.65951294,0.01440509
3641.58832031,0.01458232
3643.51712769,0.01432198
3645.44593506,0.01439562
3647.37474243,0.01264632
3649.30354980,0.01145737
3651.23235718,0.01162647
3653.16116455,0.01435948
3655.08997192,0.01409790
3657.01877930,0.01224602
3658.94758667,0.01456858
3660.87639404,0.01418068
3662.80520142,0.01445890
3664.73400879,0.01446570
3666.66281616,0.01421562
3668.59162354,0.01366309
3670.52043091,0.01076224
3672.44923828,0.01356736
3674.37804565,0.01271858
3676.30685303,0.01018934
3678.23566040,0.01336215
3680.16446777,0.01373642
3682.09327515,0.01379981
3684.02208252,0.01420139
3685.95088989,0.01407686
3687.87969727,0.01244660
3689.80850464,0.01117264
3691.73731201,0.01303499
3693.66611938,0.01349829
3695.59492676,0.01388349
3697.52373413,0.01383477
3699.45254150,0.01373131
3701.38134888,0.01324460
3703.31015625,0.01272743
3705.23896362,0.01426826
3707.16777100,0.01337653
3709.09657837,0.01304373
3711.02538574,0.01215868
3712.95419312,0.01126423
3714.88300049,0.01357068
3716.81180786,0.01337909
3718.74061523,0.01348935
3720.66942261,0.01316476
3722.59822998,0.01266445
3724.52703735,0.01312140
3726.45584473,0.01204778
3728.38465210,0.01325774
3730.31345947,0.01304042
3732.24226685,0.01180228
3734.17107422,0.01146619
3736.09988159,0.01076262
3738.02868896,0.01156510
3739.95749634,0.01271635
3741.88630371,0.01338551
3743.81511108,0.01008591
3745.74391846,0.00935599
3747.67272583,0.01264616
3749.60153320,0.01071085
3751.53034058,0.00965972
3753.45914795,0.01133540
3755.38795532,0.01243919
3757.31676270,0.01302588
3759.24557007,0.01179680
3761.17437744,0.01230231
3763.10318481,0.01320382
3765.03199219,0.01209724
3766.96079956,0.01244804
3768.88960693,0.01229538
3770.81841431,0.01159419
3772.74722168,0.01283788
3774.67602905,0.01290105
3776.60483643,0.01279166
3778.53364380,0.01238666
3780.46245117,0.01187289
3782.39125854,0.01284226
3784.32006592,0.01240732
3786.24887329,0.01226786
3788.17768066,0.01268839
3790.10648804,0.01254596
3792.03529541,0.01250281
3793.96410278,0.01282184
3795.89291016,0.01186390
3797.82171753,0.01165497
3799.75052490,0.01249113
3801.67933228,0.00953321
3803.60813965,0.01133701
3805.53694702,0.01258534
3807.46575439,0.00997070
3809.39456177,0.01239764
3811.32336914,0.01209851
3813.25217651,0.01259045
3815.18098389,0.01125779
3817.10979126,0.00958668
3819.03859863,0.01256704
3820.96740601,0.00975945
3822.89621338,0.01042827
3824.82502075,0.01251579
3826.75382812,0.01113124
3828.68263550,0.01224374
3830.61144287,0.01160919
3832.54025024,0.01116702
3834.46905762,0.01138580
3836.39786499,0.01064081
3838.32667236,0.00949679
3840.25547974,0.01040807
3842.18428711,0.01140094
3844.11309448,0.01084747
3846.04190186,0.01193269
3847.97070923,0.01167320
3849.89951660,0.01171778
3851.82832397,0.01042516
3853.75713135,0.00737625
3855.68593872,0.00908982
3857.61474609,0.01174816
3859.54355347,0.01136003
3861.47236084,0.01118203
3863.40116821,0.01091649
3865.32997559,0.01001835
3867.25878296,0.01140069
3869.18759033,0.01026031
3871.11639770,0.00934760
3873.04520508,0.01143591
3874.97401245,0.01025963
3876.90281982,0.01136626
3878.83162720,0.01159505
3880.76043457,0.00965274
3882.68924194,0.01146433
3884.61804932,0.01043829
3886.54685669,0.00955621
3888.47566406,0.01143650
3890.40447144,0.01067985
3892.33327881,0.01005401
3894.26208618,0.01095759
3896.19089355,0.01120791
3898.11970093,0.01073076
3900.04850830,0.00999819
3901.97731567,0.00993152
3903.90612305,0.00978229
3905.83493042,0.00988876
3907.76373779,0.01114296
3909.69254517,0.01113240
3911.62135254,0.01093221
3913.55015991,0.01115604
3915.47896728,0.01072378
3917.40777466,0.01048335
3919.33658203,0.01034985
3921.26538940,0.01075737
3923.19419678,0.01066602
3925.12300415,0.01037480
3927.05181152,0.01060917
3928.98061890,0.01075871
3930.90942627,0.01053648
3932.83823364,0.01003474
3934.76704102,0.01060324
3936.69584839,0.01076737
3938.62465576,0.01065336
3940.55346313,0.01072139
3942.48227051,0.01013231
3944.41107788,0.01035629
3946.33988525,0.01055480
3948.26869263,0.01023615
3950.19750000,0.01019511
3952.12630737,0.01041450
3954.05511475,0.01053425
3955.98392212,0.01040260
3957.91272949,0.01038109
3959.84153687,0.01039851
3961.77034424,0.01032803
3963.69915161,0.01020118
3965.62795898,0.01033829
3967.55676636,0.01033384
3969.48557373,0.01025638
3971.41438110,0.01028523
3973.34318848,0.01021782
3975.27199585,0.01016201
3977.20080322,0.01013457
3979.12961060,0.01023046
3981.05841797,0.01007264
3982.98722534,0.01013196
3984.91603271,0.01013332
3986.84484009,0.01006333
3988.77364746,0.01018595
3990.70245483,0.00997101
3992.63126221,0.01005395
3994.56006958,0.01000485
3996.48887695,0.00990131
3998.41768433,0.00991062
4000.34649170,0.00990864
4002.27529907,0.00995974
4004.20410645,0.00980312
4006.13291382,0.00994505
4008.06172119,0.00983208
4009.99052856,0.00981180
4011.91933594,0.00991129
4013.84814331,0.00972130
4015.77695068,0.00974361
4017.70575806,0.00969377
4019.63456543,0.00975384
4021.56337280,0.00971084
4023.49218018,0.00964069
4025.42098755,0.00971207
4027.34979492,0.00968430
4029.27860229,0.00956969
4031.20740967,0.00949666
4033.13621704,0.00962725
4035.06502441,0.00955167
4036.99383179,0.00944028
4038.92263916,0.00945817
4040.85144653,0.00954356
4042.78025391,0.00949199
4044.70906128,0.00939381
4046.63786865,0.00945113
4048.56667603,0.00937675
4050.49548340,0.00939646
4052.42429077,0.00935834
4054.35309814,0.00933651
4056.28190552,0.00934250
4058.21071289,0.00928245
4060.13952026,0.00928765
4062.06832764,0.00922523
4063.99713501,0.00922090
4065.92594238,0.00918236
4067.85474976,0.00922664
4069.78355713,0.00922124
4071.71236450,0.00912315
4073.64117187,0.00906227
4075.56997925,0.00907678
4077.49878662,0.00911264
4079.42759399,0.00897161
4081.35640137,0.00904688
4083.28520874,0.00909396
4085.21401611,0.00902564
4087.14282349,0.00899004
4089.07163086,0.00898589
4091.00043823,0.00897899
4092.92924561,0.00885100
4094.85805298,0.00890047
4096.78686035,0.00885773
4098.71566772,0.00884753
4100.64447510,0.00884197
4102.57328247,0.00877490
4104.50208984,0.00882976
4106.43089722,0.00877107
4108.35970459,0.00876627
4110.28851196,0.00875923
4112.21731934,0.00873592
4114.14612671,0.00863851
4116.07493408,0.00865625
4118.00374145,0.00867811
4119.93254883,0.00863798
4121.86135620,0.00872670
4123.79016357,0.00861062
4125.71897095,0.00864945
4127.64777832,0.00861493
4129.57658569,0.00854211
4131.50539307,0.00855053
4133.43420044,0.00845589
4135.36300781,0.00853012
4137.29181519,0.00844327
4139.22062256,0.00843403
4141.14942993,0.00843686
4143.07823730,0.00838541
4145.00704468,0.00839394
4146.93585205,0.00838487
4148.86465942,0.00839048
4150.79346680,0.00825158
4152.72227417,0.00832547
4154.65108154,0.00831151
4156.57988892,0.00823870
4158.50869629,0.00827282
4160.43750366,0.00820321
4162.36631103,0.00826087
4164.29511841,0.00826465
4166.22392578,0.00818455
4168.15273315,0.00810017
4170.08154053,0.00811769
4172.01034790,0.00809242
4173.93915527,0.00805391
4175.86796265,0.00805201
4177.79677002,0.00798657
4179.72557739,0.00804854
4181.65438477,0.00801256
4183.58319214,0.00797193
4185.51199951,0.00794227
4187.44080688,0.00797687
4189.36961426,0.00803135
4191.29842163,0.00790256
4193.22722900,0.00788086
4195.15603638,0.00789393
4197.08484375,0.00785778
4199.01365112,0.00780877
4200.94245850,0.00787528
4202.87126587,0.00785481
4204.80007324,0.00775962
4206.72888062,0.00777979
4208.65768799,0.00769625
4210.58649536,0.00768027
4212.51530273,0.00771288
4214.44411011,0.00771798
4216.37291748,0.00763964
4218.30172485,0.00765839
4220.23053223,0.00769835
4222.15933960,0.00758355
4224.08814697,0.00754218
4226.01695435,0.00747095
4227.94576172,0.00755075
4229.87456909,0.00755645
4231.80337646,0.00754513
4233.73218384,0.00757018
4235.66099121,0.00744540
4237.58979858,0.00750291
4239.51860596,0.00744083
4241.44741333,0.00739456
4243.37622070,0.00740381
4245.30502808,0.00739194
4247.23383545,0.00742562
4249.16264282,0.00730911
4251.09145020,0.00726870
4253.02025757,0.00725943
4254.94906494,0.00730334
4256.87787231,0.00729017
4258.80667969,0.00726198
4260.73548706,0.00729254
4262.66429443,0.00720200
4264.59310181,0.00726064
4266.52190918,0.00723989
4268.45071655,0.00708495
4270.37952393,0.00716437
4272.30833130,0.00715465
4274.23713867,0.00704042
4276.16594604,0.00715351
4278.09475342,0.00715609
4280.02356079,0.00713570
4281.95236816,0.00709813
4283.88117554,0.00695140
4285.80998291,0.00706945
4287.73879028,0.00703129
4289.66759766,0.00695088
4291.59640503,0.00698136
4293.52521240,0.00696651
4295.45401978,0.00699756
4297.38282715,0.00693395
4299.31163452,0.00698305
4301.24044189,0.00691492
4303.16924927,0.00685838
4305.09805664,0.00688323
4307.02686401,0.00681700
4308.95567139,0.00687789
4310.88447876,0.00682917
4312.81328613,0.00682396
4314.74209351,0.00682657
4316.67090088,0.00672628
4318.59970825,0.00666668
4320.52851562,0.00667358
4322.45732300,0.00671752
4324.38613037,0.00673497
4326.31493774,0.00680313
4328.24374512,0.00669274
4330.17255249,0.00662170
4332.10135986,0.00663333
4334.03016724,0.00657186
4335.95897461,0.00661388
4337.88778198,0.00658700
4339.81658936,0.00654223
4341.74539673,0.00650986
4343.67420410,0.00652118
4345.60301147,0.00652736
4347.53181885,0.00647335
4349.46062622,0.00649898
4351.38943359,0.00646519
4353.31824097,0.00642929
4355.24704834,0.00643774
4357.17585571,0.00640975
4359.10466309,0.00640952
4361.03347046,0.00636415
4362.96227783,0.00631148
4364.89108520,0.00635888
4366.81989258,0.00634202
4368.74869995,0.00630296
4370.67750732,0.00628033
4372.60631470,0.00625174
4374.53512207,0.00628797
4376.46392944,0.00628484
4378.39273682,0.00629367
4380.32154419,0.00624010
4382.25035156,0.00619359
4384.17915894,0.00619525
4386.10796631,0.00617763
4388.03677368,0.00616128
4389.96558105,0.00607416
4391.89438843,0.00612069
4393.82319580,0.00613676
4395.75200317,0.00615570
4397.68081055,0.00614951
4399.60961792,0.00608626
4401.53842529,0.00611928
4403.46723267,0.00598407
4405.39604004,0.00602518
4407.32484741,0.00604333
4409.25365478,0.00599639
4411.18246216,0.00603789
4413.11126953,0.00592086
4415.04007690,0.00595658
4416.96888428,0.00592944
4418.89769165,0.00596271
4420.82649902,0.00596855
4422.75530640,0.00581552
4424.68411377,0.00590443
4426.61292114,0.00593804
4428.54172852,0.00590147
4430.47053589,0.00590765
4432.39934326,0.00589457
4434.32815063,0.00582590
4436.25695801,0.00576369
4438.18576538,0.00575073
4440.11457275,0.00573585
4442.04338013,0.00569785
4443.97218750,0.00563579
4445.90099487,0.00569037
4447.82980225,0.00569240
4449.75860962,0.00564217
4451.68741699,0.00563738
4453.61622437,0.00565969
4455.54503174,0.00565511
4457.47383911,0.00566208
4459.40264648,0.00570756
4461.33145386,0.00559364
4463.26026123,0.00554416
4465.18906860,0.00557647
4467.11787598,0.00561474
4469.04668335,0.00554332
4470.97549072,0.00548801
4472.90429810,0.00554705
4474.83310547,0.00545336
4476.76191284,0.00553595
4478.69072021,0.00553360
4480.61952759,0.00545020
4482.54833496,0.00547121
4484.47714233,0.00540162
4486.40594971,0.00539940
4488.33475708,0.00536599
4490.26356445,0.00539520
4492.19237183,0.00535764
4494.12117920,0.00537393
4496.04998657,0.00538450
4497.97879395,0.00526603
4499.90760132,0.00535139
4501.83640869,0.00536295
4503.76521606,0.00530014
4505.69402344,0.00526092
4507.62283081,0.00528890
4509.55163818,0.00529607
4511.48044556,0.00530298
4513.40925293,0.00524344
4515.33806030,0.00509902
4517.26686768,0.00517481
4519.19567505,0.00513126
4521.12448242,0.00517565
4523.05328979,0.00513895
4524.98209717,0.00505268
4526.91090454,0.00517696
4528.83971191,0.00511207
4530.76851929,0.00518558
4532.69732666,0.00514308
4534.62613403,0.00511651
4536.55494141,0.00511845
4538.48374878,0.00500608
4540.41255615,0.00512809
4542.34136353,0.00506328
4544.27017090,0.00498727
4546.19897827,0.00496881
4548.12778564,0.00500930
4550.05659302,0.00503138
4551.98540039,0.00493603
4553.91420776,0.00493434
4555.84301514,0.00487975
4557.77182251,0.00494216
4559.70062988,0.00491135
4561.62943726,0.00487229
4563.55824463,0.00492112
4565.48705200,0.00486007
4567.41585937,0.00484585
4569.34466675,0.00482402
4571.27347412,0.00484090
4573.20228149,0.00479646
4575.13108887,0.00483986
4577.05989624,0.00485509
4578.98870361,0.00477975
4580.91751099,0.00483337
4582.84631836,0.00474751
4584.77512573,0.00471636
4586.70393311,0.00470446
4588.63274048,0.00469483
4590.56154785,0.00478911
4592.49035522,0.00467536
4594.41916260,0.00458111
4596.34796997,0.00466940
4598.27677734,0.00468458
4600.20558472,0.00468606
4602.13439209,0.00469835
4604.06319946,0.00460459
4605.99200684,0.00460974
4607.92081421,0.00460139
4609.84962158,0.00450373
4611.77842895,0.00446955
4613.70723633,0.00449122
4615.63604370,0.00457695
4617.56485107,0.00452028
4619.49365845,0.00449964
4621.42246582,0.00451261
4623.35127319,0.00443329
4625.28008057,0.00448785
4627.20888794,0.00449720
4629.13769531,0.00444591
4631.06650269,0.00442475
4632.99531006,0.00444281
4634.92411743,0.00445293
4636.85292480,0.00440488
4638.78173218,0.00441677
4640.71053955,0.00443606
4642.63934692,0.00441459
4644.56815430,0.00438923
4646.49696167,0.00440283
4648.42576904,0.00436650
4650.35457642,0.00436642
4652.28338379,0.00441808
4654.21219116,0.00433199
4656.14099853,0.00431054
4658.06980591,0.00432052
4659.99861328,0.00430237
4661.92742065,0.00427757
4663.85622803,0.00418306
4665.78503540,0.00423238
4667.71384277,0.00423508
4669.64265015,0.00417431
4671.57145752,0.00422040
4673.50026489,0.00418805
4675.42907227,0.00419094
4677.35787964,0.00415146
4679.28668701,0.00413551
4681.21549438,0.00420103
4683.14430176,0.00408369
4685.07310913,0.00407389
4687.00191650,0.00412479
4688.93072388,0.00412607
4690.85953125,0.00412305
4692.78833862,0.00403825
4694.71714600,0.00408831
4696.64595337,0.00408725
4698.57476074,0.00410367
4700.50356812,0.00413510
4702.43237549,0.00398305
4704.36118286,0.00399212
4706.28999023,0.00403508
4708.21879761,0.00402771
4710.14760498,0.00401274
4712.07641235,0.00395098
4714.00521973,0.00397794
4715.93402710,0.00394988
4717.86283447,0.00399831
4719.79164185,0.00408384
4721.72044922,0.00400317
4723.64925659,0.00398090
4725.57806396,0.00390475
4727.50687134,0.00385299
4729.43567871,0.00393134
4731.36448608,0.00390107
4733.29329346,0.00391584
4735.22210083,0.00391424
4737.15090820,0.00387000
4739.07971558,0.00383986
4741.00852295,0.00375812
4742.93733032,0.00381139
4744.86613770,0.00384953
4746.79494507,0.00380182
4748.72375244,0.00377402
4750.65255981,0.00383402
4752.58136719,0.00387374
4754.51017456,0.00375352
4756.43898193,0.00370046
4758.36778931,0.00372713
4760.29659668,0.00380848
4762.22540405,0.00376911
4764.15421143,0.00371143
4766.08301880,0.00377078
4768.01182617,0.00372548
4769.94063354,0.00373110
4771.86944092,0.00369274
4773.79824829,0.00367096
4775.72705566,0.00362811
4777.65586304,0.00355079
4779.58467041,0.00368803
4781.51347778,0.00369532
4783.44228516,0.00362474
4785.37109253,0.00367248
4787.29989990,0.00366198
4789.22870728,0.00354966
4791.15751465,0.00356492
4793.08632202,0.00363774
4795.01512939,0.00358937
4796.94393677,0.00354525
4798.87274414,0.00350465
4800.80155151,0.00361135
4802.73035889,0.00361275
4804.65916626,0.00346993
4806.58797363,0.00344315
4808.51678101,0.00344187
4810.44558838,0.00343274
4812.37439575,0.00342701
4814.30320312,0.00350565
4816.23201050,0.00339290
4818.16081787,0.00337883
4820.08962524,0.00347084
4822.01843262,0.00342256
4823.94723999,0.00352764
4825.87604736,0.00339172
4827.80485474,0.00332886
4829.73366211,0.00343098
4831.66246948,0.00338607
4833.59127686,0.00341860
4835.52008423,0.00344026
4837.44889160,0.00344045
4839.37769897,0.00336272
4841.30650635,0.00335699
4843.23531372,0.00331711
4845.16412109,0.00324237
4847.09292847,0.00325053
4849.02173584,0.00328007
4850.95054321,0.00333862
4852.87935059,0.00322949
4854.80815796,0.00327133
4856.73696533,0.00327728
4858.66577270,0.00323145
4860.59458008,0.00325819
4862.52338745,0.00319364
4864.45219482,0.00331916
4866.38100220,0.00320233
4868.30980957,0.00314463
4870.23861694,0.00328119
4872.16742432,0.00318301
4874.09623169,0.00318393
4876.02503906,0.00316617
4877.95384644,0.00315309
4879.88265381,0.00311740
4881.81146118,0.00308006
4883.74026855,0.00311774
4885.66907593,0.00305221
4887.59788330,0.00312537
4889.52669067,0.00321394
4891.45549805,0.00313322
4893.38430542,0.00305273
4895.31311279,0.00304300
4897.24192017,0.00307930
4899.17072754,0.00310593
4901.09953491,0.00309395
4903.02834228,0.00306019
4904.95714966,0.00306279
4906.88595703,0.00305030
4908.81476440,0.00305531
4910.74357178,0.00304962
4912.67237915,0.00296863
4914.60118652,0.00298051
4916.52999390,0.00297066
4918.45880127,0.00296848
4920.38760864,0.00306088
4922.31641602,0.00298016
4924.24522339,0.00293805
4926.17403076,0.00294051
4928.10283813,0.00292550
4930.03164551,0.00296798
4931.96045288,0.00286521
4933.88926025,0.00288094
4935.81806763,0.00291836
4937.74687500,0.00292428
4939.67568237,0.00293683
4941.60448975,0.00289807
4943.53329712,0.00295435
4945.46210449,0.00282842
4947.39091187,0.00284981
4949.31971924,0.00287967
4951.24852661,0.00281031
4953.17733398,0.00290465
4955.10614136,0.00281758
4957.03494873,0.00283400
4958.96375610,0.00281474
4960.89256348,0.00280772
4962.82137085,0.00281691
4964.75017822,0.00275069
4966.67898560,0.00292225
4968.60779297,0.00284868
4970.53660034,0.00275678
4972.46540771,0.00277281
4974.39421509,0.00276486
4976.32302246,0.00276779
4978.25182983,0.00266741
4980.18063721,0.00270132
4982.10944458,0.00271173
4984.03825195,0.00271297
4985.96705933,0.00268420
4987.89586670,0.00268664
4989.82467407,0.00266707
4991.75348145,0.00264965
4993.68228882,0.00276054
4995.61109619,0.00260425
4997.53990356,0.00261133
4999.46871094,0.00263980
5001.39751831,0.00257525
5003.32632568,0.00267962
5005.25513306,0.00256772
5007.18394043,0.00256586
5009.11274780,0.00259534
5011.04155518,0.00257606
5012.97036255,0.00263908
5014.89916992,0.00259846
5016.82797729,0.00258819
5018.75678467,0.00261442
5020.68559204,0.00257135
5022.61439941,0.00244648
5024.54320679,0.00252650
5026.47201416,0.00260304
5028.40082153,0.00250300
5030.32962891,0.00254498
5032.25843628,0.00251156
5034.18724365,0.00245155
5036.11605103,0.00252040
5038.04485840,0.00250107
5039.97366577,0.00244745
5041.90247314,0.00250418
5043.83128052,0.00253304
5045.76008789,0.00249129
5047.68889526,0.00249430
5049.61770264,0.00246742
5051.54651001,0.00239738
5053.47531738,0.00242284
5055.40412476,0.00248581
5057.33293213,0.00240288
5059.26173950,0.00240619
5061.19054687,0.00248518
5063.11935425,0.00241910
5065.04816162,0.00242501
5066.97696899,0.00239017
5068.90577637,0.00234814
5070.83458374,0.00241968
5072.76339111,0.00239228
5074.69219849,0.00236050
5076.62100586,0.00236699
5078.54981323,0.00236225
5080.47862061,0.00230935
5082.40742798,0.00226272
5084.33623535,0.00234740
5086.26504272,0.00237497
5088.19385010,0.00228120
5090.12265747,0.00224657
5092.05146484,0.00231634
5093.98027222,0.00232789
5095.90907959,0.00231645
5097.83788696,0.00237677
5099.76669434,0.00227524
5101.69550171,0.00223461
5103.62430908,0.00230123
5105.55311645,0.00221016
5107.48192383,0.00227880
5109.41073120,0.00226283
5111.33953857,0.00212702
5113.26834595,0.00228377
5115.19715332,0.00230346
5117.12596069,0.00218293
5119.05476807,0.00220916
5120.98357544,0.00220797
5122.91238281,0.00221434
5124.84119019,0.00224452
5126.76999756,0.00219002
5128.69880493,0.00216219
5130.62761230,0.00216655
5132.55641968,0.00218858
5134.48522705,0.00223814
5136.41403442,0.00213649
5138.34284180,0.00210136
5140.27164917,0.00212592
5142.20045654,0.00207189
5144.12926392,0.00212584
5146.05807129,0.00214725
5147.98687866,0.00212024
5149.91568603,0.00204352
5151.84449341,0.00208496
5153.77330078,0.00218935
5155.70210815,0.00208005
5157.63091553,0.00205981
5159.55972290,0.00208006
5161.48853027,0.00208611
5163.41733765,0.00206006
5165.34614502,0.00202740
5167.27495239,0.00212879
5169.20375977,0.00206994
5171.13256714,0.00196378
5173.06137451,0.00198563
5174.99018188,0.00205746
5176.91898926,0.00205432
5178.84779663,0.00201016
5180.77660400,0.00208348
5182.70541138,0.00207763
5184.63421875,0.00201276
5186.56302612,0.00198128
5188.49183350,0.00200097
5190.42064087,0.00202740
5192.34944824,0.00197987
5194.27825562,0.00199309
5196.20706299,0.00198696
5198.13587036,0.00190555
5200.06467773,0.00191034
5201.99348511,0.00201713
5203.92229248,0.00199831
5205.85109985,0.00188420
5207.77990723,0.00190507
5209.70871460,0.00188543
5211.63752197,0.00186015
5213.56632935,0.00197499
5215.49513672,0.00193306
5217.42394409,0.00184662
5219.35275146,0.00189562
5221.28155884,0.00186666
5223.21036621,0.00191464
5225.13917358,0.00189857
5227.06798096,0.00177247
5228.99678833,0.00184120
5230.92559570,0.00182810
5232.85440308,0.00179333
5234.78321045,0.00178664
5236.71201782,0.00175864
5238.64082520,0.00186453
5240.56963257,0.00192608
5242.49843994,0.00189439
5244.42724731,0.00176732
5246.35605469,0.00180013
5248.28486206,0.00183800
5250.21366943,0.00173148
5252.14247681,0.00184954
5254.07128418,0.00180256
5256.00009155,0.00177021
5257.92889893,0.00191403
5259.85770630,0.00181604
5261.78651367,0.00178967
5263.71532104,0.00178978
5265.64412842,0.00172004
5267.57293579,0.00176399
5269.50174316,0.00180827
5271.43055054,0.00179137
5273.35935791,0.00178160
5275.28816528,0.00178687
5277.21697266,0.00176608
5279.14578003,0.00181504
5281.07458740,0.00177914
5283.00339478,0.00173921
5284.93220215,0.00185303
5286.86100952,0.00174962
5288.78981689,0.00165883
5290.71862427,0.00173879
5292.64743164,0.00174371
5294.57623901,0.00180881
5296.50504639,0.00176722
5298.43385376,0.00169625
5300.36266113,0.00172810
5302.29146851,0.00163945
5304.22027588,0.00167357
5306.14908325,0.00170954
5308.07789062,0.00161740
5310.00669800,0.00161947
5311.93550537,0.00160632
5313.86431274,0.00164262
5315.79312012,0.00165727
5317.72192749,0.00164324
5319.65073486,0.00165433
5321.57954224,0.00163307
5323.50834961,0.00167753
5325.43715698,0.00164754
5327.36596436,0.00164166
5329.29477173,0.00160419
5331.22357910,0.00158866
5333.15238647,0.00166212
5335.08119385,0.00158532
5337.01000122,0.00162108
5338.93880859,0.00152313
5340.86761597,0.00154031
5342.79642334,0.00172548
5344.72523071,0.00150706
5346.65403809,0.00151692
5348.58284546,0.00156918
5350.51165283,0.00148239
5352.44046020,0.00153676
5354.36926758,0.00154844
5356.29807495,0.00160086
5358.22688232,0.00151467
5360.15568970,0.00149011
5362.08449707,0.00153001
5364.01330444,0.00152824
5365.94211182,0.00154796
5367.87091919,0.00149274
5369.79972656,0.00156866
5371.72853394,0.00157346
5373.65734131,0.00150945
5375.58614868,0.00142791
5377.51495605,0.00141389
5379.44376343,0.00155838
5381.37257080,0.00155422
5383.30137817,0.00154054
5385.23018555,0.00148127
5387.15899292,0.00143531
5389.08780029,0.00149711
5391.01660767,0.00148434
5392.94541504,0.00141912
5394.87422241,0.00138175
5396.80302978,0.00146748
5398.73183716,0.00147655
5400.66064453,0.00145591
5402.58945190,0.00147498
5404.51825928,0.00141793
5406.44706665,0.00140089
5408.37587402,0.00143094
5410.30468140,0.00143721
5412.23348877,0.00140774
5414.16229614,0.00140954
5416.09110352,0.00137887
5418.01991089,0.00139267
5419.94871826,0.00141677
5421.87752563,0.00137257
5423.80633301,0.00138368
5425.73514038,0.00138497
5427.66394775,0.00139281
5429.59275513,0.00130526
5431.52156250,0.00133862
5433.45036987,0.00143714
5435.37917725,0.00129704
5437.30798462,0.00134162
5439.23679199,0.00142577
5441.16559936,0.00136337
5443.09440674,0.00139823
5445.02321411,0.00137222
5446.95202148,0.00125933
5448.88082886,0.00130975
5450.80963623,0.00136286
5452.73844360,0.00131895
5454.66725098,0.00137461
5456.59605835,0.00130179
5458.52486572,0.00126770
5460.45367310,0.00134628
5462.38248047,0.00127553
5464.31128784,0.00128339
5466.24009521,0.00134747
5468.16890259,0.00134607
5470.09770996,0.00130668
5472.02651733,0.00132037
5473.95532471,0.00130752
5475.88413208,0.00123434
5477.81293945,0.00123049
5479.74174683,0.00126011
5481.67055420,0.00131496
5483.59936157,0.00124533
5485.52816895,0.00126281
5487.45697632,0.00132664
5489.38578369,0.00124201
5491.31459106,0.00124996
5493.24339844,0.00118471
5495.17220581,0.00122060
5497.10101318,0.00130441
5499.02982056,0.00121855
5500.95862793,0.00126004
5502.88743530,0.00121567
5504.81624268,0.00116127
5506.74505005,0.00123228
5508.67385742,0.00118912
5510.60266479,0.00120044
5512.53147217,0.00121180
5514.46027954,0.00118249
5516.38908691,0.00125708
5518.31789429,0.00123704
5520.24670166,0.00118920
5522.17550903,0.00121153
5524.10431641,0.00119479
5526.03312378,0.00117502
5527.96193115,0.00117065
5529.89073853,0.00122568
5531.81954590,0.00124111
5533.74835327,0.00119516
5535.67716064,0.00116207
5537.60596802,0.00115091
5539.53477539,0.00122611
5541.46358276,0.00122597
5543.39239014,0.00117254
5545.32119751,0.00118783
5547.25000488,0.00117923
5549.17881226,0.00117752
5551.10761963,0.00116698
5553.03642700,0.00112397
5554.96523437,0.00114149
5556.89404175,0.00115697
5558.82284912,0.00115161
5560.75165649,0.00114396
5562.68046387,0.00105056
5564.60927124,0.00106685
5566.53807861,0.00110982
5568.46688599,0.00107898
5570.39569336,0.00116268
5572.32450073,0.00116189
5574.25330811,0.00112436
5576.18211548,0.00114833
5578.11092285,0.00114704
5580.03973022,0.00110867
5581.96853760,0.00107491
5583.89734497,0.00106964
5585.82615234,0.00103682
5587.75495972,0.00113155
5589.68376709,0.00110981
5591.61257446,0.00102821
5593.54138184,0.00112018
5595.47018921,0.00109612
5597.39899658,0.00107199
5599.32780395,0.00108115
5601.25661133,0.00110527
5603.18541870,0.00111459
5605.11422607,0.00108666
5607.04303345,0.00108595
5608.97184082,0.00103592
5610.90064819,0.00107693
5612.82945557,0.00107674
5614.75826294,0.00101567
5616.68707031,0.00101476
5618.61587769,0.00105390
5620.54468506,0.00112081
5622.47349243,0.00108760
5624.40229980,0.00104652
5626.33110718,0.00103804
5628.25991455,0.00103365
5630.18872192,0.00098779
5632.11752930,0.00101393
5634.04633667,0.00106224
5635.97514404,0.00099170
5637.90395142,0.00101988
5639.83275879,0.00099527
5641.76156616,0.00101420
5643.69037353,0.00107448
5645.61918091,0.00099040
5647.54798828,0.00099598
5649.47679565,0.00099787
5651.40560303,0.00102028
5653.33441040,0.00104075
5655.26321777,0.00102439
5657.19202515,0.00104190
5659.12083252,0.00098922
5661.04963989,0.00092411
5662.97844727,0.00091139
5664.90725464,0.00100884
5666.83606201,0.00099426
5668.76486938,0.00090523
5670.69367676,0.00095487
5672.62248413,0.00096747
5674.55129150,0.00096448
5676.48009888,0.00096342
5678.40890625,0.00097717
5680.33771362,0.00097710
5682.26652100,0.00094049
5684.19532837,0.00091376
5686.12413574,0.00090352
5688.05294311,0.00094778
5689.98175049,0.00090776
5691.91055786,0.00091422
5693.83936523,0.00097798
5695.76817261,0.00095177
5697.69697998,0.00093965
5699.62578735,0.00091767
5701.55459473,0.00094278
5703.48340210,0.00094713
5705.41220947,0.00090830
5707.34101685,0.00088639
5709.26982422,0.00083357
5711.19863159,0.00084342
5713.12743896,0.00088973
5715.05624634,0.00093227
5716.98505371,0.00091685
5718.91386108,0.00087617
5720.84266846,0.00089507
5722.77147583,0.00092761
5724.70028320,0.00091688
5726.62909058,0.00087028
5728.55789795,0.00091685
5730.48670532,0.00089911
5732.41551270,0.00082703
5734.34432007,0.00087229
5736.27312744,0.00088837
5738.20193481,0.00088886
5740.13074219,0.00086610
5742.05954956,0.00081188
5743.98835693,0.00083889
5745.91716431,0.00087676
5747.84597168,0.00082307
5749.77477905,0.00078232
5751.70358643,0.00078997
5753.63239380,0.00079472
5755.56120117,0.00082665
5757.49000854,0.00083000
5759.41881592,0.00085707
5761.34762329,0.00085933
5763.27643066,0.00083172
5765.20523804,0.00085454
5767.13404541,0.00085769
5769.06285278,0.00085403
5770.99166016,0.00080598
5772.92046753,0.00082368
5774.84927490,0.00083405
5776.77808228,0.00081752
5778.70688965,0.00082895
5780.63569702,0.00077056
5782.56450439,0.00083457
5784.49331177,0.00081464
5786.42211914,0.00075132
5788.35092651,0.00079273
5790.27973389,0.00078518
5792.20854126,0.00079668
5794.13734863,0.00073413
5796.06615601,0.00074902
5797.99496338,0.00076411
5799.92377075,0.00074654
5801.85257812,0.00081595
5803.78138550,0.00077217
5805.71019287,0.00076462
5807.63900024,0.00077108
5809.56780762,0.00075198
5811.49661499,0.00077605
5813.42542236,0.00077215
5815.35422974,0.00078575
5817.28303711,0.00075145
5819.21184448,0.00066098
5821.14065186,0.00071757
5823.06945923,0.00081176
5824.99826660,0.00072831
5826.92707397,0.00075230
5828.85588135,0.00078127
5830.78468872,0.00070589
5832.71349609,0.00076424
5834.64230347,0.00077488
5836.57111084,0.00070132
5838.49991821,0.00069286
5840.42872559,0.00078608
5842.35753296,0.00076644
5844.28634033,0.00072562
5846.21514770,0.00074200
5848.14395508,0.00069062
5850.07276245,0.00077203
5852.00156982,0.00073275
5853.93037720,0.00068357
5855.85918457,0.00071594
5857.78799194,0.00066655
5859.71679932,0.00071283
5861.64560669,0.00063879
5863.57441406,0.00064050
5865.50322144,0.00072153
5867.43202881,0.00064239
5869.36083618,0.00064758
5871.28964355,0.00068297
5873.21845093,0.00068959
5875.14725830,0.00067980
5877.07606567,0.00062004
5879.00487305,0.00062633
5880.93368042,0.00069506
5882.86248779,0.00068517
5884.79129517,0.00067151
5886.72010254,0.00067817
5888.64890991,0.00065091
5890.57771728,0.00064041
5892.50652466,0.00061414
5894.43533203,0.00058253
5896.36413940,0.00061622
5898.29294678,0.00071878
5900.22175415,0.00070429
5902.15056152,0.00067569
5904.07936890,0.00066145
5906.00817627,0.00058754
5907.93698364,0.00063298
5909.86579102,0.00062860
5911.79459839,0.00064364
5913.72340576,0.00065255
5915.65221313,0.00064854
5917.58102051,0.00068991
5919.50982788,0.00060721
5921.43863525,0.00065235
5923.36744263,0.00066735
5925.29625000,0.00061069
5927.22505737,0.00060033
5929.15386475,0.00064317
5931.08267212,0.00071078
5933.01147949,0.00059089
5934.94028686,0.00062978
5936.86909424,0.00064977
5938.79790161,0.00058956
5940.72670898,0.00066330
5942.65551636,0.00058623
5944.58432373,0.00060141
5946.51313110,0.00066718
5948.44193848,0.00057727
5950.37074585,0.00055736
5952.29955322,0.00061265
5954.22836060,0.00058652
5956.15716797,0.00059430
5958.08597534,0.00063077
5960.01478271,0.00058249
5961.94359009,0.00062959
5963.87239746,0.00058990
5965.80120483,0.00051995
5967.73001221,0.00058266
5969.65881958,0.00057554
5971.58762695,0.00059738
5973.51643433,0.00059498
5975.44524170,0.00053214
5977.37404907,0.00051307
5979.30285645,0.00052061
5981.23166382,0.00054578
5983.16047119,0.00053433
5985.08927856,0.00054909
5987.01808594,0.00058408
5988.94689331,0.00060557
5990.87570068,0.00066528
5992.80450806,0.00056919
5994.73331543,0.00047517
5996.66212280,0.00058372
5998.59093018,0.00054362
6000.51973755,0.00052773
