399.26312622,0.00046497
401.19193359,0.00088301
403.12074097,0.00092031
405.04954834,0.00055258
406.97835571,0.00122230
408.90716309,0.00106632
410.83597046,0.00058863
412.76477783,0.00094445
414.69358521,0.00121826
416.62239258,0.00101279
418.55119995,0.00075906
420.48000732,0.00107032
422.40881470,0.00132701
424.33762207,0.00116507
426.26642944,0.00096098
428.19523682,0.00095198
430.12404419,0.00100186
432.05285156,0.00105770
433.98165894,0.00099410
435.91046631,0.00087287
437.83927368,0.00100281
439.76808105,0.00088471
441.69688843,0.00107935
443.62569580,0.00141247
445.55450317,0.00100012
447.48331055,0.00082538
449.41211792,0.00096917
451.34092529,0.00073692
453.26973267,0.00046697
455.19854004,0.00037235
457.12734741,0.00034067
459.05615479,0.00074892
460.98496216,0.00048784
462.91376953,-0.00000303
464.84257690,0.00068419
466.77138428,0.00065850
468.70019165,0.00060502
470.62899902,0.00066915
472.55780640,-0.00000913
474.48661377,0.00011390
476.41542114,0.00039063
478.34422852,0.00053226
480.27303589,0.00054432
482.20184326,0.00045663
484.13065063,0.00038215
486.05945801,0.00021392
487.98826538,0.00049761
489.91707275,0.00011262
491.84588013,-0.00037206
493.77468750,-0.00010474
495.70349487,0.00013664
497.63230225,0.00016899
499.56110962,0.00008007
501.48991699,0.00012729
503.41872437,0.00005245
505.34753174,0.00005027
507.27633911,0.00016253
509.20514648,0.00026817
511.13395386,0.00029700
513.06276123,0.00008218
514.99156860,0.00015741
516.92037598,0.00039812
518.84918335,0.00024350
520.77799072,-0.00006527
522.70679810,0.00031812
524.63560547,0.00041085
526.56441284,0.00019374
528.49322021,0.00040593
530.42202759,0.00018973
532.35083496,-0.00001973
534.27964233,0.00002419
536.20844971,0.00014388
538.13725708,0.00062388
540.06606445,0.00043682
541.99487183,0.00004777
543.92367920,0.00024289
545.85248657,0.00000204
547.78129395,0.00007514
549.71010132,0.00019932
551.63890869,-0.00006988
553.56771606,0.00015629
555.49652344,0.00019013
557.42533081,0.00013023
559.35413818,0.00008706
561.28294556,0.00003224
563.21175293,0.00001337
565.14056030,-0.00037579
567.06936768,0.00000081
568.99817505,0.00043143
570.92698242,-0.00003631
572.85578979,0.00012706
574.78459717,0.00023948
576.71340454,0.00004691
578.64221191,0.00012418
580.57101929,-0.00001904
582.49982666,-0.00000942
584.42863403,-0.00027322
586.35744141,0.00009222
588.28624878,0.00035914
590.21505615,0.00016331
592.14386353,0.00049522
594.07267090,-0.00013303
596.00147827,0.00012726
597.93028564,0.00058224
599.85909302,0.00006551
601.78790039,0.00024419
603.71670776,-0.00004658
605.64551514,0.00001366
607.57432251,0.00008050
609.50312988,0.00012103
611.43193726,0.00060560
613.36074463,0.00008723
615.28955200,0.00000028
617.21835938,0.00057037
619.14716675,0.00039799
621.07597412,-0.00023299
623.00478149,-0.00008774
624.93358887,0.00026779
626.86239624,0.00012448
628.79120361,0.00010423
630.72001099,0.00032056
632.64881836,0.00065341
634.57762573,0.00060894
636.50643311,0.00063390
638.43524048,0.00080764
640.36404785,0.00079001
642.29285522,0.00089058
644.22166260,0.00120799
646.15046997,0.00142731
648.07927734,0.00141920
650.00808472,0.00158606
651.93689209,0.00153148
653.86569946,0.00137454
655.79450684,0.00150056
657.72331421,0.00156318
659.65212158,0.00172343
661.58092896,0.00164253
663.50973633,0.00166713
665.43854370,0.00178182
667.36735107,0.00166391
669.29615845,0.00175279
671.22496582,0.00191121
673.15377319,0.00222622
675.08258057,0.00213310
677.01138794,0.00213450
678.94019531,0.00228970
680.86900269,0.00202106
682.79781006,0.00231234
684.72661743,0.00226380
686.65542480,0.00215520
688.58423218,0.00248003
690.51303955,0.00239288
692.44184692,0.00264413
694.37065430,0.00281744
696.29946167,0.00288920
698.22826904,0.00328479
700.15707642,0.00335777
702.08588379,0.00338206
704.01469116,0.00325412
705.94349854,0.00268045
707.87230591,0.00238800
709.80111328,0.00223106
711.72992065,0.00145405
713.65872803,0.00061754
715.58753540,0.00039823
717.51634277,0.00042992
719.44515015,0.00029819
721.37395752,0.00020892
723.30276489,0.00016751
725.23157227,0.00003568
727.16037964,0.00000262
729.08918701,0.00009527
731.01799438,0.00013990
732.94680176,0.00006960
734.87560913,-0.00013668
736.80441650,-0.00014979
738.73322388,0.00035608
740.66203125,0.00015419
742.59083862,-0.00029937
744.51964600,0.00024281
746.44845337,0.00024413
748.37726074,0.00003337
750.30606812,0.00031249
752.23487549,0.00019672
754.16368286,0.00013882
756.09249023,0.00014284
758.02129761,-0.00002765
759.95010498,-0.00016798
761.87891235,0.00034708
763.80771973,0.00068114
765.73652710,0.00002381
767.66533447,0.00010079
769.59414185,0.00009518
771.52294922,-0.00017659
773.45175659,0.00001133
775.38056396,0.00004786
777.30937134,0.00051213
779.23817871,0.00033513
781.16698608,0.00016274
783.09579346,0.00054979
785.02460083,0.00010775
786.95340820,0.00014457
788.88221558,0.00052560
790.81102295,0.00042696
792.73983032,0.00037949
794.66863770,0.00022703
796.59744507,0.00023611
798.52625244,0.00046356
800.45505981,0.00051905
802.38386719,0.00041558
804.31267456,0.00045665
806.24148193,0.00050329
808.17028931,0.00026966
810.09909668,0.00022613
812.02790405,0.00021825
813.95671143,0.00020107
815.88551880,0.00033154
817.81432617,0.00017941
819.74313354,0.00046221
821.67194092,0.00068248
823.60074829,0.00010216
825.52955566,0.00002856
827.45836304,0.00029266
829.38717041,0.00032332
831.31597778,0.00056324
833.24478516,0.00089012
835.17359253,0.00075359
837.10239990,0.00061697
839.03120728,0.00091618
840.96001465,0.00058013
842.88882202,0.00041189
844.81762939,0.00090506
846.74643677,0.00060864
848.67524414,0.00030433
850.60405151,0.00057195
852.53285889,0.00058235
854.46166626,0.00056716
856.39047363,0.00064327
858.31928101,0.00042478
860.24808838,0.00033485
862.17689575,0.00044063
864.10570313,0.00026866
866.03451050,0.00019646
867.96331787,0.00033131
869.89212524,0.00042947
871.82093262,0.00031335
873.74973999,0.00017374
875.67854736,0.00033543
877.60735474,0.00025278
879.53616211,0.00001297
881.46496948,0.00022698
883.39377686,0.00042429
885.32258423,0.00045256
887.25139160,0.00058264
889.18019897,0.00053749
891.10900635,0.00051766
893.03781372,0.00038422
894.96662109,0.00033230
896.89542847,0.00049657
898.82423584,0.00035644
900.75304321,0.00030897
902.68185059,0.00014807
904.61065796,0.00005967
906.53946533,0.00021741
908.46827271,0.00027375
910.39708008,0.00044955
912.32588745,0.00052946
914.25469482,0.00065035
916.18350220,0.00061380
918.11230957,0.00063199
920.04111694,0.00071848
921.96992432,0.00053884
923.89873169,0.00076269
925.82753906,0.00095891
927.75634644,0.00081819
929.68515381,0.00079158
931.61396118,0.00099994
933.54276855,0.00102881
935.47157593,0.00101861
937.40038330,0.00121535
939.32919067,0.00113823
941.25799805,0.00125016
943.18680542,0.00123927
945.11561279,0.00125825
947.04442017,0.00149057
948.97322754,0.00114363
950.90203491,0.00129529
952.83084229,0.00149108
954.75964966,0.00100070
956.68845703,0.00107562
958.61726440,0.00122025
960.54607178,0.00101209
962.47487915,0.00109350
964.40368652,0.00126064
966.33249390,0.00141111
968.26130127,0.00136586
970.19010864,0.00125279
972.11891602,0.00148445
974.04772339,0.00157792
975.97653076,0.00182871
977.90533813,0.00212815
979.83414551,0.00198980
981.76295288,0.00207369
983.69176025,0.00225881
985.62056763,0.00237388
987.54937500,0.00261428
989.47818237,0.00306496
991.40698975,0.00349456
993.33579712,0.00377006
995.26460449,0.00406138
997.19341187,0.00424719
999.12221924,0.00460367
1001.05102661,0.00484844
1002.97983398,0.00525133
1004.90864136,0.00580535
1006.83744873,0.00589430
1008.76625610,0.00618249
1010.69506348,0.00644162
1012.62387085,0.00687512
1014.55267822,0.00742403
1016.48148560,0.00751847
1018.41029297,0.00787088
1020.33910034,0.00846012
1022.26790771,0.00892543
1024.19671509,0.00900988
1026.12552246,0.00930437
1028.05432983,0.00982392
1029.98313721,0.01004223
1031.91194458,0.01049993
1033.84075195,0.01067468
1035.76955933,0.01052667
1037.69836670,0.01064215
1039.62717407,0.01090916
1041.55598145,0.01092528
1043.48478882,0.01075878
1045.41359619,0.01071635
1047.34240356,0.01049094
1049.27121094,0.01046175
1051.20001831,0.01029045
1053.12882568,0.00996686
1055.05763306,0.00988138
1056.98644043,0.00964431
1058.91524780,0.00953566
1060.84405518,0.00907379
1062.77286255,0.00861301
1064.70166992,0.00841970
1066.63047729,0.00818110
1068.55928467,0.00807797
1070.48809204,0.00752604
1072.41689941,0.00718447
1074.34570679,0.00699026
1076.27451416,0.00662116
1078.20332153,0.00636948
1080.13212891,0.00602071
1082.06093628,0.00585232
1083.98974365,0.00545918
1085.91855103,0.00534082
1087.84735840,0.00529530
1089.77616577,0.00478489
1091.70497314,0.00451395
1093.63378052,0.00430244
1095.56258789,0.00436446
1097.49139526,0.00423295
1099.42020264,0.00392594
1101.34901001,0.00391449
1103.27781738,0.00387676
1105.20662476,0.00386020
1107.13543213,0.00368681
1109.06423950,0.00372500
1110.99304687,0.00351808
1112.92185425,0.00335303
1114.85066162,0.00357437
1116.77946899,0.00346101
1118.70827637,0.00354270
1120.63708374,0.00338733
1122.56589111,0.00336497
1124.49469849,0.00361882
1126.42350586,0.00352134
1128.35231323,0.00372557
1130.28112061,0.00393233
1132.20992798,0.00383830
1134.13873535,0.00375541
1136.06754272,0.00422972
1137.99635010,0.00458161
1139.92515747,0.00467633
1141.85396484,0.00500737
1143.78277222,0.00512064
1145.71157959,0.00560848
1147.64038696,0.00579999
1149.56919434,0.00604547
1151.49800171,0.00660784
1153.42680908,0.00664431
1155.35561646,0.00711293
1157.28442383,0.00737762
1159.21323120,0.00758469
1161.14203857,0.00796594
1163.07084595,0.00808477
1164.99965332,0.00849290
1166.92846069,0.00876008
1168.85726807,0.00918043
1170.78607544,0.00957706
1172.71488281,0.00970792
1174.64369019,0.01001573
1176.57249756,0.01037182
1178.50130493,0.01088951
1180.43011230,0.01137626
1182.35891968,0.01167984
1184.28772705,0.01218627
1186.21653442,0.01287285
1188.14534180,0.01325163
1190.07414917,0.01378151
1192.00295654,0.01444228
1193.93176392,0.01518233
1195.86057129,0.01622853
1197.78937866,0.01679455
1199.71818604,0.01736809
1201.64699341,0.01814731
1203.57580078,0.01903167
1205.50460815,0.01967007
1207.43341553,0.01991552
1209.36222290,0.02081411
1211.29103027,0.02157543
1213.21983765,0.02214508
1215.14864502,0.02264497
1217.07745239,0.02299051
1219.00625977,0.02365114
1220.93506714,0.02387078
1222.86387451,0.02395398
1224.79268188,0.02415675
1226.72148926,0.02451789
1228.65029663,0.02460492
1230.57910400,0.02444984
1232.50791138,0.02479014
1234.43671875,0.02483128
1236.36552612,0.02478567
1238.29433350,0.02461259
1240.22314087,0.02437793
1242.15194824,0.02431389
1244.08075562,0.02418302
1246.00956299,0.02419603
1247.93837036,0.02378937
1249.86717773,0.02374106
1251.79598511,0.02366051
1253.72479248,0.02324029
1255.65359985,0.02326296
1257.58240723,0.02269771
1259.51121460,0.02219768
1261.44002197,0.02203211
1263.36882935,0.02184681
1265.29763672,0.02160742
1267.22644409,0.02101734
1269.15525146,0.02091702
1271.08405884,0.02067633
1273.01286621,0.02000094
1274.94167358,0.01970793
1276.87048096,0.01951371
1278.79928833,0.01915448
1280.72809570,0.01877142
1282.65690308,0.01848857
1284.58571045,0.01818266
1286.51451782,0.01773833
1288.44332520,0.01736182
1290.37213257,0.01731813
1292.30093994,0.01713132
1294.22974731,0.01694099
1296.15855469,0.01699932
1298.08736206,0.01680754
1300.01616943,0.01683410
1301.94497681,0.01683395
1303.87378418,0.01678798
1305.80259155,0.01711780
1307.73139893,0.01728990
1309.66020630,0.01756762
1311.58901367,0.01777712
1313.51782104,0.01797086
1315.44662842,0.01853546
1317.37543579,0.01888764
1319.30424316,0.01939304
1321.23305054,0.02019081
1323.16185791,0.02069623
1325.09066528,0.02117717
1327.01947266,0.02183593
1328.94828003,0.02241246
1330.87708740,0.02297682
1332.80589478,0.02355002
1334.73470215,0.02384859
1336.66350952,0.02377890
1338.59231689,0.02345573
1340.52112427,0.02399174
1342.44993164,0.02503863
1344.37873901,0.02511662
1346.30754639,0.02525917
1348.23635376,0.02519016
1350.16516113,0.02485877
1352.09396851,0.02482945
1354.02277588,0.02429226
1355.95158325,0.02419558
1357.88039062,0.02402112
1359.80919800,0.02371080
1361.73800537,0.02278965
1363.66681274,0.02220146
1365.59562012,0.02359453
1367.52442749,0.02294340
1369.45323486,0.02272110
1371.38204224,0.02317502
1373.31084961,0.02149561
1375.23965698,0.02199970
1377.16846436,0.02269408
1379.09727173,0.02248405
1381.02607910,0.02255176
1382.95488647,0.02259964
1384.88369385,0.02259338
1386.81250122,0.02117789
1388.74130859,0.02156983
1390.67011597,0.02366789
1392.59892334,0.02289478
1394.52773071,0.02100253
1396.45653809,0.02224995
1398.38534546,0.02230141
1400.31415283,0.02214278
1402.24296021,0.02423720
1404.17176758,0.02263675
1406.10057495,0.02294016
1408.02938232,0.02381280
1409.95818970,0.02277969
1411.88699707,0.02348140
1413.81580444,0.02253340
1415.74461182,0.02296878
1417.67341919,0.02013207
1419.60222656,0.01793334
1421.53103394,0.02124083
1423.45984131,0.02043577
1425.38864868,0.02003320
1427.31745605,0.02031584
1429.24626343,0.01865070
1431.17507080,0.01813602
1433.10387817,0.01856739
1435.03268555,0.01664875
1436.96149292,0.01377908
1438.89030029,0.01637131
1440.81910767,0.01690082
1442.74791504,0.01558253
1444.67672241,0.01637076
1446.60552979,0.01477873
1448.53433716,0.01501775
1450.46314453,0.01562279
1452.39195190,0.01594653
1454.32075928,0.01653371
1456.24956665,0.01320680
1458.17837402,0.01361518
1460.10718140,0.01889945
1462.03598877,0.02009736
1463.96479614,0.01966345
1465.89360352,0.02054099
1467.82241089,0.02373139
1469.75121826,0.02545309
1471.68002563,0.02172245
1473.60883301,0.02301079
1475.53764038,0.02675986
1477.46644775,0.02875394
1479.39525513,0.03179577
1481.32406250,0.03215205
1483.25286987,0.03423702
1485.18167725,0.03506120
1487.11048462,0.03404474
1489.03929199,0.03336518
1490.96809937,0.03367895
1492.89690674,0.04011863
1494.82571411,0.03853527
1496.75452148,0.03413557
1498.68332886,0.03905617
1500.61213623,0.04040465
1502.54094360,0.04396253
1504.46975098,0.04054322
1506.39855835,0.02761844
1508.32736572,0.03515029
1510.25617310,0.04238752
1512.18498047,0.04116886
1514.11378784,0.04476608
1516.04259521,0.03941224
1517.97140259,0.04149516
1519.90020996,0.03969394
1521.82901733,0.03353156
1523.75782471,0.04262782
1525.68663208,0.04158219
1527.61543945,0.04146261
1529.54424683,0.04670520
1531.47305420,0.04438105
1533.40186157,0.04001795
1535.33066895,0.04318743
1537.25947632,0.04630614
1539.18828369,0.03115764
1541.11709106,0.03330055
1543.04589844,0.04067004
1544.97470581,0.03881349
1546.90351318,0.04750303
1548.83232056,0.04361545
1550.76112793,0.04529551
1552.68993530,0.04486898
1554.61874268,0.04017599
1556.54755005,0.04337086
1558.47635742,0.02820585
1560.40516479,0.03171935
1562.33397217,0.04796605
1564.26277954,0.04449333
1566.19158691,0.04640984
1568.12039429,0.04541714
1570.04920166,0.03913973
1571.97800903,0.04692676
1573.90681641,0.04715446
1575.83562378,0.03594450
1577.76443115,0.04203190
1579.69323853,0.04825325
1581.62204590,0.04579612
1583.55085327,0.04704389
1585.47966064,0.04624924
1587.40846802,0.04644901
1589.33727539,0.04608864
1591.26608276,0.04622586
1593.19489014,0.04608499
1595.12369751,0.04537800
1597.05250488,0.04615998
1598.98131226,0.04598497
1600.91011963,0.04617358
1602.83892700,0.04500330
1604.76773437,0.04591176
1606.69654175,0.04522780
1608.62534912,0.04502795
1610.55415649,0.04502225
1612.48296387,0.04543369
1614.41177124,0.04585340
1616.34057861,0.03632200
1618.26938599,0.04012347
1620.19819336,0.04778662
1622.12700073,0.04136675
1624.05580811,0.04133456
1625.98461548,0.04402866
1627.91342285,0.04358299
1629.84223022,0.04343949
1631.77103760,0.04699162
1633.69984497,0.04225597
1635.62865234,0.03380775
1637.55745972,0.04072843
1639.48626709,0.04535756
1641.41507446,0.04412262
1643.34388184,0.04562452
1645.27268921,0.04019958
1647.20149658,0.03443935
1649.13030396,0.04467206
1651.05911133,0.04152570
1652.98791870,0.02460084
1654.91672607,0.03614011
1656.84553345,0.04655207
1658.77434082,0.04438012
1660.70314819,0.04563040
1662.63195557,0.04075875
1664.56076294,0.04361512
1666.48957031,0.04721339
1668.41837769,0.03995544
1670.34718506,0.03866501
1672.27599243,0.04493620
1674.20479980,0.04065938
1676.13360718,0.03904363
1678.06241455,0.04607295
1679.99122192,0.04389812
1681.92002930,0.04315019
1683.84883667,0.03365055
1685.77764404,0.03397531
1687.70645142,0.04825460
1689.63525879,0.04059487
1691.56406616,0.04617545
1693.49287354,0.04653584
1695.42168091,0.03240702
1697.35048828,0.04150120
1699.27929565,0.03492175
1701.20810303,0.03153479
1703.13691040,0.04522441
1705.06571777,0.04047787
1706.99452515,0.04125758
1708.92333252,0.04545037
1710.85213989,0.04319806
1712.78094727,0.04399001
1714.70975464,0.04028039
1716.63856201,0.03542419
1718.56736938,0.03506586
1720.49617676,0.04286091
1722.42498413,0.04454269
1724.35379150,0.04099467
1726.28259888,0.04515181
1728.21140625,0.04114611
1730.14021362,0.04158431
1732.06902100,0.04009337
1733.99782837,0.02918577
1735.92663574,0.03828444
1737.85544312,0.04242142
1739.78425049,0.03700285
1741.71305786,0.04110127
1743.64186523,0.04144690
1745.57067261,0.04155874
1747.49947998,0.04162634
1749.42828735,0.03924473
1751.35709473,0.03756120
1753.28590210,0.04252703
1755.21470947,0.04439871
1757.14351685,0.03980044
1759.07232422,0.04476145
1761.00113159,0.04135650
1762.92993896,0.03989664
1764.85874634,0.04664594
1766.78755371,0.04103211
1768.71636108,0.04163311
1770.64516846,0.04094198
1772.57397583,0.03621525
1774.50278320,0.04151010
1776.43159058,0.04409880
1778.36039795,0.04317807
1780.28920532,0.04241758
1782.21801270,0.04317992
1784.14682007,0.04281293
1786.07562744,0.04177346
1788.00443481,0.04467382
1789.93324219,0.04292023
1791.86204956,0.03816339
1793.79085693,0.04033822
1795.71966431,0.04363330
1797.64847168,0.04295403
1799.57727905,0.04202678
1801.50608643,0.04119419
1803.43489380,0.04293076
1805.36370117,0.04388394
1807.29250854,0.04313836
1809.22131592,0.04329716
1811.15012329,0.04198407
1813.07893066,0.04348444
1815.00773804,0.04355711
1816.93654541,0.04317207
1818.86535278,0.04359270
1820.79416016,0.04327919
1822.72296753,0.04396334
1824.65177490,0.04045153
1826.58058228,0.04236842
1828.50938965,0.04228284
1830.43819702,0.03909039
1832.36700439,0.04341003
1834.29581177,0.04302489
1836.22461914,0.04302454
1838.15342651,0.04276656
1840.08223389,0.04307990
1842.01104126,0.04298940
1843.93984863,0.03718875
1845.86865601,0.04040721
1847.79746338,0.04284912
1849.72627075,0.04188636
1851.65507812,0.04337364
1853.58388550,0.04209689
1855.51269287,0.04288159
1857.44150024,0.04241759
1859.37030762,0.04193974
1861.29911499,0.04246385
1863.22792236,0.04186496
1865.15672974,0.04236674
1867.08553711,0.04063142
1869.01434448,0.03868649
1870.94315186,0.04057800
1872.87195923,0.04228916
1874.80076660,0.04151384
1876.72957397,0.04179426
1878.65838135,0.04152401
1880.58718872,0.04143908
1882.51599609,0.04176369
1884.44480347,0.04073855
1886.37361084,0.04167005
1888.30241821,0.04034522
1890.23122559,0.03942918
1892.16003296,0.04136461
1894.08884033,0.04043918
1896.01764771,0.04038053
1897.94645508,0.04095033
1899.87526245,0.04068215
1901.80406982,0.04074428
1903.73287720,0.04044154
1905.66168457,0.04078018
1907.59049194,0.04015228
1909.51929932,0.03981508
1911.44810669,0.04005952
1913.37691406,0.04014709
1915.30572144,0.04048884
1917.23452881,0.03835131
1919.16333618,0.03857349
1921.09214355,0.04008977
1923.02095093,0.03861572
1924.94975830,0.03964998
1926.87856567,0.03995479
1928.80737305,0.03936642
1930.73618042,0.03993979
1932.66498779,0.03932660
1934.59379517,0.03968081
1936.52260254,0.03936341
1938.45140991,0.03969403
1940.38021729,0.03941764
1942.30902466,0.03781935
1944.23783203,0.03889446
1946.16663940,0.03930367
1948.09544678,0.03920084
1950.02425415,0.03935162
1951.95306152,0.03913162
1953.88186890,0.03917339
1955.81067627,0.03887502
1957.73948364,0.03910240
1959.66829102,0.03909127
1961.59709839,0.03888758
1963.52590576,0.03886857
1965.45471313,0.03858541
1967.38352051,0.03817172
1969.31232788,0.03854796
1971.24113525,0.03892121
1973.16994263,0.03845783
1975.09875000,0.03863046
1977.02755737,0.03848340
1978.95636475,0.03849391
1980.88517212,0.03847303
1982.81397949,0.03814434
1984.74278687,0.03840976
1986.67159424,0.03796993
1988.60040161,0.03794730
1990.52920898,0.03763108
1992.45801636,0.03701850
1994.38682373,0.03770939
1996.31563110,0.03790447
1998.24443848,0.03767918
2000.17324585,0.03764080
2002.10205322,0.03744080
2004.03086060,0.03742740
2005.95966797,0.03736321
2007.88847534,0.03720376
2009.81728271,0.03720232
2011.74609009,0.03714743
2013.67489746,0.03721490
2015.60370483,0.03684393
2017.53251221,0.03628559
2019.46131958,0.03657998
2021.39012695,0.03662210
2023.31893433,0.03645276
2025.24774170,0.03644437
2027.17654907,0.03629618
2029.10535645,0.03612413
2031.03416382,0.03596155
2032.96297119,0.03604172
2034.89177856,0.03591691
2036.82058594,0.03578971
2038.74939331,0.03573871
2040.67820068,0.03553355
2042.60700806,0.03537419
2044.53581543,0.03534511
2046.46462280,0.03537748
2048.39343018,0.03526266
2050.32223755,0.03518512
2052.25104492,0.03510451
2054.17985229,0.03510021
2056.10865967,0.03500178
2058.03746704,0.03491344
2059.96627441,0.03482431
2061.89508179,0.03467514
2063.82388916,0.03463491
2065.75269653,0.03439710
2067.68150391,0.03442209
2069.61031128,0.03427052
2071.53911865,0.03423922
2073.46792603,0.03435028
2075.39673340,0.03402603
2077.32554077,0.03398489
2079.25434814,0.03381562
2081.18315552,0.03384342
2083.11196289,0.03386492
2085.04077026,0.03378070
2086.96957764,0.03375340
2088.89838501,0.03343184
2090.82719238,0.03351002
2092.75599976,0.03354565
2094.68480713,0.03344440
2096.61361450,0.03323758
2098.54242187,0.03318898
2100.47122925,0.03323991
2102.40003662,0.03304755
2104.32884399,0.03305620
2106.25765137,0.03288334
2108.18645874,0.03284246
2110.11526611,0.03275968
2112.04407349,0.03269196
2113.97288086,0.03267779
2115.90168823,0.03255098
2117.83049561,0.03259245
2119.75930298,0.03233873
2121.68811035,0.03242812
2123.61691772,0.03238195
2125.54572510,0.03211760
2127.47453247,0.03221431
2129.40333984,0.03209797
2131.33214722,0.03208067
2133.26095459,0.03202833
2135.18976196,0.03189319
2137.11856934,0.03187477
2139.04737671,0.03187434
2140.97618408,0.03180023
2142.90499146,0.03180623
2144.83379883,0.03175053
2146.76260620,0.03155613
2148.69141357,0.03160948
2150.62022095,0.03152851
2152.54902832,0.03149438
2154.47783569,0.03141035
2156.40664307,0.03130190
2158.33545044,0.03143565
2160.26425781,0.03131087
2162.19306519,0.03115933
2164.12187256,0.03110333
2166.05067993,0.03109376
2167.97948730,0.03110458
2169.90829468,0.03102560
2171.83710205,0.03087872
2173.76590942,0.03087826
2175.69471680,0.03085082
2177.62352417,0.03075912
2179.55233154,0.03085377
2181.48113892,0.03074904
2183.40994629,0.03073958
2185.33875366,0.03070009
2187.26756104,0.03047540
2189.19636841,0.03031812
2191.12517578,0.03034456
2193.05398315,0.03045624
2194.98279053,0.03025016
2196.91159790,0.03026134
2198.84040527,0.03027396
2200.76921265,0.03029422
2202.69802002,0.03016536
2204.62682739,0.02998969
2206.55563477,0.03024073
2208.48444214,0.02992530
2210.41324951,0.02986809
2212.34205688,0.02994583
2214.27086426,0.02969516
2216.19967163,0.02984165
2218.12847900,0.02975046
2220.05728638,0.02959304
2221.98609375,0.02959915
2223.91490112,0.02955198
2225.84370850,0.02935893
2227.77251587,0.02932974
2229.70132324,0.02936789
2231.63013062,0.02928113
2233.55893799,0.02931543
2235.48774536,0.02923178
2237.41655273,0.02924412
2239.34536011,0.02907356
2241.27416748,0.02893046
2243.20297485,0.02898372
2245.13178223,0.02889843
2247.06058960,0.02889854
2248.98939697,0.02884830
2250.91820435,0.02890520
2252.84701172,0.02880286
2254.77581909,0.02864286
2256.70462646,0.02853966
2258.63343384,0.02833102
2260.56224121,0.02840524
2262.49104858,0.02853194
2264.41985596,0.02849739
2266.34866333,0.02830269
2268.27747070,0.02821972
2270.20627808,0.02818573
2272.13508545,0.02815105
2274.06389282,0.02812485
2275.99270020,0.02803710
2277.92150757,0.02813148
2279.85031494,0.02798455
2281.77912231,0.02796553
2283.70792969,0.02808115
2285.63673706,0.02787275
2287.56554443,0.02780638
2289.49435181,0.02768501
2291.42315918,0.02752695
2293.35196655,0.02744512
2295.28077393,0.02730889
2297.20958130,0.02727918
2299.13838867,0.02720529
2301.06719604,0.02706215
2302.99600342,0.02695078
2304.92481079,0.02680177
2306.85361816,0.02661271
2308.78242554,0.02639972
2310.71123291,0.02627312
2312.64004028,0.02602538
2314.56884766,0.02569454
2316.49765503,0.02561321
2318.42646240,0.02531339
2320.35526978,0.02486875
2322.28407715,0.02453112
2324.21288452,0.02422207
2326.14169189,0.02395208
2328.07049927,0.02359896
2329.99930664,0.02330790
2331.92811401,0.02308839
2333.85692139,0.02310510
2335.78572876,0.02296089
2337.71453613,0.02284681
2339.64334351,0.02300417
2341.57215088,0.02304628
2343.50095825,0.02344630
2345.42976562,0.02379167
2347.35857300,0.02457019
2349.28738037,0.02525812
2351.21618774,0.02457150
2353.14499512,0.02343619
2355.07380249,0.02234957
2357.00260986,0.02186340
2358.93141724,0.02144183
2360.86022461,0.02117772
2362.78903198,0.02132166
2364.71783936,0.02119596
2366.64664673,0.02159946
2368.57545410,0.02203608
2370.50426147,0.02240078
2372.43306885,0.02301374
2374.36187622,0.02359084
2376.29068359,0.02411796
2378.21949097,0.02447588
2380.14829834,0.02500280
2382.07710571,0.02516188
2384.00591309,0.02516010
2385.93472046,0.02536123
2387.86352783,0.02535330
2389.79233521,0.02530750
2391.72114258,0.02525890
2393.64994995,0.02525968
2395.57875732,0.02517415
2397.50756470,0.02515686
2399.43637207,0.02520026
2401.36517944,0.02498414
2403.29398682,0.02486269
2405.22279419,0.02496148
2407.15160156,0.02493251
2409.08040894,0.02485495
2411.00921631,0.02481313
2412.93802368,0.02472729
2414.86683105,0.02480272
2416.79563843,0.02483921
2418.72444580,0.02484919
2420.65325317,0.02474144
2422.58206055,0.02454800
2424.51086792,0.02455320
2426.43967529,0.02442497
2428.36848267,0.02446149
2430.29729004,0.02451170
2432.22609741,0.02436846
2434.15490479,0.02429725
2436.08371216,0.02419622
2438.01251953,0.02420012
2439.94132690,0.02420173
2441.87013428,0.02415738
2443.79894165,0.02404846
2445.72774902,0.02402221
2447.65655640,0.02398168
2449.58536377,0.02384873
2451.51417114,0.02401725
2453.44297852,0.02400887
2455.37178589,0.02380886
2457.30059326,0.02377527
2459.22940063,0.02369871
2461.15820801,0.02367592
2463.08701538,0.02364084
2465.01582275,0.02355347
2466.94463013,0.02353959
2468.87343750,0.02340819
2470.80224487,0.02347495
2472.73105225,0.02367083
2474.65985962,0.02349338
2476.58866699,0.02342028
2478.51747437,0.02333786
2480.44628174,0.02320856
2482.37508911,0.02326053
2484.30389648,0.02317770
2486.23270386,0.02315703
2488.16151123,0.02308552
2490.09031860,0.02304916
2492.01912598,0.02309188
2493.94793335,0.02293910
2495.87674072,0.02286205
2497.80554810,0.02289695
2499.73435547,0.02285251
2501.66316284,0.02277910
2503.59197021,0.02275857
2505.52077759,0.02270228
2507.44958496,0.02271605
2509.37839233,0.02264272
2511.30719971,0.02252660
2513.23600708,0.02256005
2515.16481445,0.02255329
2517.09362183,0.02254735
2519.02242920,0.02245313
2520.95123657,0.02240629
2522.88004395,0.02239121
2524.80885132,0.02241451
2526.73765869,0.02235163
2528.66646606,0.02218177
2530.59527344,0.02228686
2532.52408081,0.02223839
2534.45288818,0.02212523
2536.38169556,0.02209358
2538.31050293,0.02208537
2540.23931030,0.02203453
2542.16811768,0.02200193
2544.09692505,0.02209780
2546.02573242,0.02188240
2547.95453979,0.02183061
2549.88334717,0.02180426
2551.81215454,0.02173277
2553.74096191,0.02172975
2555.66976929,0.02168817
2557.59857666,0.02181822
2559.52738403,0.02155485
2561.45619141,0.02155560
2563.38499878,0.02160034
2565.31380615,0.02140691
2567.24261353,0.02152826
2569.17142090,0.02139122
2571.10022827,0.02136066
2573.02903564,0.02134269
2574.95784302,0.02128278
2576.88665039,0.02130046
2578.81545776,0.02119135
2580.74426514,0.02122858
2582.67307251,0.02120069
2584.60187988,0.02112954
2586.53068726,0.02110121
2588.45949463,0.02105051
2590.38830200,0.02099256
2592.31710937,0.02102000
2594.24591675,0.02091232
2596.17472412,0.02087147
2598.10353149,0.02097751
2600.03233887,0.02083401
2601.96114624,0.02083924
2603.88995361,0.02071209
2605.81876099,0.02065160
2607.74756836,0.02071053
2609.67637573,0.02055250
2611.60518311,0.02060275
2613.53399048,0.02055493
2615.46279785,0.02056130
2617.39160522,0.02052973
2619.32041260,0.02037340
2621.24921997,0.02033882
2623.17802734,0.02029687
2625.10683472,0.02035337
2627.03564209,0.02031324
2628.96444946,0.02021786
2630.89325684,0.02015829
2632.82206421,0.02021947
2634.75087158,0.02015064
2636.67967895,0.01999678
2638.60848633,0.02004976
2640.53729370,0.01999805
2642.46610107,0.02000652
2644.39490845,0.01986437
2646.32371582,0.01981111
2648.25252319,0.01996257
2650.18133057,0.01979160
2652.11013794,0.01979560
2654.03894531,0.01985466
2655.96775269,0.01970975
2657.89656006,0.01965761
2659.82536743,0.01966615
2661.75417480,0.01969280
2663.68298218,0.01961023
2665.61178955,0.01950098
2667.54059692,0.01950345
2669.46940430,0.01944056
2671.39821167,0.01940032
2673.32701904,0.01943552
2675.25582642,0.01937394
2677.18463379,0.01931237
2679.11344116,0.01930402
2681.04224854,0.01929331
2682.97105591,0.01919385
2684.89986328,0.01907291
2686.82867065,0.01909426
2688.75747803,0.01918227
2690.68628540,0.01910315
2692.61509277,0.01901716
2694.54390015,0.01902070
2696.47270752,0.01888111
2698.40151489,0.01897616
2700.33032227,0.01890536
2702.25912964,0.01871051
2704.18793701,0.01883335
2706.11674438,0.01868753
2708.04555176,0.01870853
2709.97435913,0.01868900
2711.90316650,0.01856943
2713.83197388,0.01859737
2715.76078125,0.01845594
2717.68958862,0.01852365
2719.61839600,0.01852685
2721.54720337,0.01855082
2723.47601074,0.01846347
2725.40481812,0.01833298
2727.33362549,0.01838007
2729.26243286,0.01820681
2731.19124023,0.01828544
2733.12004761,0.01834457
2735.04885498,0.01828525
2736.97766235,0.01820171
2738.90646973,0.01808339
2740.83527710,0.01809345
2742.76408447,0.01799773
2744.69289185,0.01800787
2746.62169922,0.01792145
2748.55050659,0.01792421
2750.47931396,0.01797577
2752.40812134,0.01777372
2754.33692871,0.01774022
2756.26573608,0.01781717
2758.19454346,0.01781624
2760.12335083,0.01776262
2762.05215820,0.01777826
2763.98096558,0.01763175
2765.90977295,0.01753954
2767.83858032,0.01761721
2769.76738770,0.01754675
2771.69619507,0.01753811
2773.62500244,0.01747350
2775.55380981,0.01738153
2777.48261719,0.01732526
2779.41142456,0.01736718
2781.34023193,0.01739310
2783.26903931,0.01721486
2785.19784668,0.01722050
2787.12665405,0.01733204
2789.05546143,0.01722283
2790.98426880,0.01709285
2792.91307617,0.01712051
2794.84188354,0.01702780
2796.77069092,0.01702114
2798.69949829,0.01697177
2800.62830566,0.01680831
2802.55711304,0.01689779
2804.48592041,0.01684783
2806.41472778,0.01684903
2808.34353516,0.01676283
2810.27234253,0.01665790
2812.20114990,0.01677492
2814.12995728,0.01665729
2816.05876465,0.01662588
2817.98757202,0.01663683
2819.91637939,0.01658370
2821.84518677,0.01645461
2823.77399414,0.01633759
2825.70280151,0.01638120
2827.63160889,0.01640670
2829.56041626,0.01638458
2831.48922363,0.01624653
2833.41803101,0.01621487
2835.34683838,0.01614705
2837.27564575,0.01616986
2839.20445312,0.01610258
2841.13326050,0.01592267
2843.06206787,0.01613138
2844.99087524,0.01602089
2846.91968262,0.01582363
2848.84848999,0.01579316
2850.77729736,0.01575441
2852.70610474,0.01571085
2854.63491211,0.01555196
2856.56371948,0.01568876
2858.49252686,0.01570748
2860.42133423,0.01564902
2862.35014160,0.01559260
2864.27894897,0.01545122
2866.20775635,0.01553485
2868.13656372,0.01545242
2870.06537109,0.01539086
2871.99417847,0.01546425
2873.92298584,0.01544678
2875.85179321,0.01540472
2877.78060059,0.01540792
2879.70940796,0.01535929
2881.63821533,0.01521610
2883.56702270,0.01520089
2885.49583008,0.01514673
2887.42463745,0.01507934
2889.35344482,0.01503304
2891.28225220,0.01501623
2893.21105957,0.01507910
2895.13986694,0.01504224
2897.06867432,0.01499403
2898.99748169,0.01492822
2900.92628906,0.01488449
2902.85509644,0.01484516
2904.78390381,0.01483770
2906.71271118,0.01480707
2908.64151855,0.01468736
2910.57032593,0.01475000
2912.49913330,0.01473489
2914.42794067,0.01463033
2916.35674805,0.01461570
2918.28555542,0.01451793
2920.21436279,0.01447248
2922.14317017,0.01453167
2924.07197754,0.01451871
2926.00078491,0.01444297
2927.92959229,0.01446520
2929.85839966,0.01441679
2931.78720703,0.01431278
2933.71601440,0.01435369
2935.64482178,0.01435872
2937.57362915,0.01431817
2939.50243652,0.01435980
2941.43124390,0.01437232
2943.36005127,0.01425539
2945.28885864,0.01433835
2947.21766602,0.01433608
2949.14647339,0.01407079
2951.07528076,0.01420715
2953.00408813,0.01416975
2954.93289551,0.01396082
2956.86170288,0.01405571
2958.79051025,0.01392143
2960.71931763,0.01388222
2962.64812500,0.01387039
2964.57693237,0.01378513
2966.50573975,0.01385451
2968.43454712,0.01378748
2970.36335449,0.01384244
2972.29216187,0.01387260
2974.22096924,0.01380961
2976.14977661,0.01386360
2978.07858398,0.01377165
2980.00739136,0.01370138
2981.93619873,0.01378173
2983.86500610,0.01382252
2985.79381348,0.01374347
2987.72262085,0.01365603
2989.65142822,0.01370171
2991.58023560,0.01373506
2993.50904297,0.01358914
2995.43785034,0.01350239
2997.36665771,0.01355669
2999.29546509,0.01355520
3001.22427246,0.01348338
3003.15307983,0.01338012
3005.08188721,0.01348270
3007.01069458,0.01353700
3008.93950195,0.01332034
3010.86830933,0.01326653
3012.79711670,0.01332174
3014.72592407,0.01321683
3016.65473145,0.01311950
3018.58353882,0.01321188
3020.51234619,0.01315239
3022.44115356,0.01313500
3024.36996094,0.01317947
3026.29876831,0.01296346
3028.22757568,0.01302775
3030.15638306,0.01303843
3032.08519043,0.01287447
3034.01399780,0.01285676
3035.94280518,0.01287444
3037.87161255,0.01292674
3039.80041992,0.01274558
3041.72922729,0.01272448
3043.65803467,0.01279348
3045.58684204,0.01272924
3047.51564941,0.01269964
3049.44445679,0.01255558
3051.37326416,0.01256357
3053.30207153,0.01257202
3055.23087891,0.01249849
3057.15968628,0.01243408
3059.08849365,0.01244114
3061.01730103,0.01250871
3062.94610840,0.01243172
3064.87491577,0.01238753
3066.80372314,0.01229453
3068.73253052,0.01237045
3070.66133789,0.01247270
3072.59014526,0.01234425
3074.51895264,0.01233685
3076.44776001,0.01224896
3078.37656738,0.01219413
3080.30537476,0.01214708
3082.23418213,0.01207417
3084.16298950,0.01219146
3086.09179687,0.01213308
3088.02060425,0.01205272
3089.94941162,0.01201421
3091.87821899,0.01193923
3093.80702637,0.01194454
3095.73583374,0.01187041
3097.66464111,0.01190524
3099.59344849,0.01183921
3101.52225586,0.01180017
3103.45106323,0.01196001
3105.37987061,0.01177325
3107.30867798,0.01173963
3109.23748535,0.01173222
3111.16629272,0.01156541
3113.09510010,0.01164380
3115.02390747,0.01151874
3116.95271484,0.01149045
3118.88152222,0.01150422
3120.81032959,0.01143637
3122.73913696,0.01150332
3124.66794434,0.01140784
3126.59675171,0.01136651
3128.52555908,0.01133362
3130.45436645,0.01133284
3132.38317383,0.01132638
3134.31198120,0.01128559
3136.24078857,0.01132803
3138.16959595,0.01124761
3140.09840332,0.01121926
3142.02721069,0.01114561
3143.95601807,0.01106973
3145.88482544,0.01112095
3147.81363281,0.01112678
3149.74244019,0.01101893
3151.67124756,0.01090513
3153.60005493,0.01086939
3155.52886230,0.01080104
3157.45766968,0.01080845
3159.38647705,0.01076589
3161.31528442,0.01081513
3163.24409180,0.01076639
3165.17289917,0.01061573
3167.10170654,0.01075742
3169.03051392,0.01065624
3170.95932129,0.01061227
3172.88812866,0.01063452
3174.81693604,0.01053995
3176.74574341,0.01054766
3178.67455078,0.01039532
3180.60335815,0.01039567
3182.53216553,0.01046426
3184.46097290,0.01044550
3186.38978027,0.01039587
3188.31858765,0.01044949
3190.24739502,0.01044478
3192.17620239,0.01019226
3194.10500977,0.01025965
3196.03381714,0.01029581
3197.96262451,0.01020986
3199.89143188,0.01027567
3201.82023926,0.01016839
3203.74904663,0.01004008
3205.67785400,0.01011152
3207.60666138,0.01010234
3209.53546875,0.00997481
3211.46427612,0.01004273
3213.39308350,0.01001797
3215.32189087,0.01000449
3217.25069824,0.01000367
3219.17950562,0.00989327
3221.10831299,0.00987986
3223.03712036,0.00976692
3224.96592773,0.00987818
3226.89473511,0.00991797
3228.82354248,0.00978554
3230.75234985,0.00980495
3232.68115723,0.00972376
3234.60996460,0.00972201
3236.53877197,0.00973451
3238.46757935,0.00972926
3240.39638672,0.00968643
3242.32519409,0.00968441
3244.25400146,0.00960384
3246.18280884,0.00947266
3248.11161621,0.00964746
3250.04042358,0.00964765
3251.96923096,0.00959584
3253.89803833,0.00955718
3255.82684570,0.00954954
3257.75565308,0.00960042
3259.68446045,0.00942122
3261.61326782,0.00946473
3263.54207520,0.00949879
3265.47088257,0.00947238
3267.39968994,0.00944889
3269.32849731,0.00934069
3271.25730469,0.00940942
3273.18611206,0.00928088
3275.11491943,0.00920078
3277.04372681,0.00936507
3278.97253418,0.00942423
3280.90134155,0.00937333
3282.83014893,0.00934700
3284.75895630,0.00936038
3286.68776367,0.00929779
3288.61657104,0.00938828
3290.54537842,0.00936374
3292.47418579,0.00915858
3294.40299316,0.00924262
3296.33180054,0.00926785
3298.26060791,0.00918926
3300.18941528,0.00916932
3302.11822266,0.00911623
3304.04703003,0.00918049
3305.97583740,0.00911374
3307.90464478,0.00906566
3309.83345215,0.00912016
3311.76225952,0.00896936
3313.69106689,0.00907557
3315.61987427,0.00919002
3317.54868164,0.00908978
3319.47748901,0.00908373
3321.40629639,0.00896649
3323.33510376,0.00895111
3325.26391113,0.00895808
3327.19271851,0.00892602
3329.12152588,0.00894037
3331.05033325,0.00885840
3332.97914062,0.00891554
3334.90794800,0.00892203
3336.83675537,0.00876397
3338.76556274,0.00876980
3340.69437012,0.00893631
3342.62317749,0.00891821
3344.55198486,0.00881420
3346.48079224,0.00881231
3348.40959961,0.00876853
3350.33840698,0.00880558
3352.26721436,0.00874800
3354.19602173,0.00870518
3356.12482910,0.00874286
3358.05363647,0.00864010
3359.98244385,0.00864772
3361.91125122,0.00862534
3363.84005859,0.00860456
3365.76886597,0.00859514
3367.69767334,0.00846252
3369.62648071,0.00839427
3371.55528809,0.00841453
3373.48409546,0.00851865
3375.41290283,0.00849128
3377.34171020,0.00843428
3379.27051758,0.00843103
3381.19932495,0.00841419
3383.12813232,0.00851419
3385.05693970,0.00840533
3386.98574707,0.00831558
3388.91455444,0.00837696
3390.84336182,0.00823565
3392.77216919,0.00828788
3394.70097656,0.00834894
3396.62978394,0.00821913
3398.55859131,0.00825989
3400.48739868,0.00820712
3402.41620605,0.00819694
3404.34501343,0.00826893
3406.27382080,0.00814903
3408.20262817,0.00816797
3410.13143555,0.00827024
3412.06024292,0.00821024
3413.98905029,0.00807801
3415.91785767,0.00807423
3417.84666504,0.00811154
3419.77547241,0.00802481
3421.70427979,0.00800280
3423.63308716,0.00798088
3425.56189453,0.00798056
3427.49070190,0.00801089
3429.41950928,0.00795756
3431.34831665,0.00795822
3433.27712402,0.00796302
3435.20593140,0.00794206
3437.13473877,0.00790618
3439.06354614,0.00783931
3440.99235352,0.00775855
3442.92116089,0.00776398
3444.84996826,0.00784933
3446.77877563,0.00775642
3448.70758301,0.00768850
3450.63639038,0.00775682
3452.56519775,0.00776654
3454.49400513,0.00777291
3456.42281250,0.00772831
3458.35161987,0.00771062
3460.28042725,0.00770111
3462.20923462,0.00768259
3464.13804199,0.00771179
3466.06684937,0.00754795
3467.99565674,0.00752534
3469.92446411,0.00765587
3471.85327148,0.00756826
3473.78207886,0.00752961
3475.71088623,0.00758705
3477.63969360,0.00765146
3479.56850098,0.00752704
3481.49730835,0.00742375
3483.42611572,0.00750684
3485.35492310,0.00747462
3487.28373047,0.00748832
3489.21253784,0.00747204
3491.14134521,0.00751993
3493.07015259,0.00751922
3494.99895996,0.00742056
3496.92776733,0.00747390
3498.85657471,0.00739193
3500.78538208,0.00734712
3502.71418945,0.00723066
3504.64299683,0.00727697
3506.57180420,0.00749626
3508.50061157,0.00732520
3510.42941895,0.00733985
3512.35822632,0.00742218
3514.28703369,0.00727985
3516.21584106,0.00727431
3518.14464844,0.00735132
3520.07345581,0.00732061
3522.00226318,0.00724076
3523.93107056,0.00720243
3525.85987793,0.00722117
3527.78868530,0.00723920
3529.71749268,0.00713039
3531.64630005,0.00726138
3533.57510742,0.00730734
3535.50391479,0.00715684
3537.43272217,0.00724578
3539.36152954,0.00729255
3541.29033691,0.00730308
3543.21914429,0.00716727
3545.14795166,0.00701469
3547.07675903,0.00696033
3549.00556641,0.00712010
3550.93437378,0.00725571
3552.86318115,0.00705735
3554.79198853,0.00715851
3556.72079590,0.00721611
3558.64960327,0.00718602
3560.57841064,0.00708669
3562.50721802,0.00706571
3564.43602539,0.00714671
3566.36483276,0.00650060
3568.29364014,0.00639116
3570.22244751,0.00702777
3572.15125488,0.00724005
3574.08006226,0.00713386
3576.00886963,0.00701911
3577.93767700,0.00709219
3579.86648437,0.00705775
3581.79529175,0.00697993
3583.72409912,0.00716285
3585.65290649,0.00696434
3587.58171387,0.00624365
3589.51052124,0.00650339
3591.43932861,0.00719333
3593.36813599,0.00689908
3595.29694336,0.00666956
3597.22575073,0.00691922
3599.15455811,0.00694533
3601.08336548,0.00675202
3603.01217285,0.00696777
3604.94098022,0.00711829
3606.86978760,0.00674266
3608.79859497,0.00631376
3610.72740234,0.00650492
3612.65620972,0.00660951
3614.58501709,0.00635047
3616.51382446,0.00696488
3618.44263184,0.00627682
3620.37143921,0.00607226
3622.30024658,0.00711372
3624.22905395,0.00674908
3626.15786133,0.00710006
3628.08666870,0.00585795
3630.01547607,0.00525020
3631.94428345,0.00686349
3633.87309082,0.00657962
3635.80189819,0.00683284
3637.73070557,0.00695550
3639.65951294,0.00684729
3641.58832031,0.00696935
3643.51712769,0.00678852
3645.44593506,0.00684430
3647.37474243,0.00592512
3649.30354980,0.00545144
3651.23235718,0.00557333
3653.16116455,0.00677103
3655.08997192,0.00674587
3657.01877930,0.00577830
3658.94758667,0.00680817
3660.87639404,0.00670629
3662.80520142,0.00680136
3664.73400879,0.00686853
3666.66281616,0.00676595
3668.59162354,0.00641714
3670.52043091,0.00514147
3672.44923828,0.00650687
3674.37804565,0.00606379
3676.30685303,0.00492538
3678.23566040,0.00637177
3680.16446777,0.00645124
3682.09327515,0.00652508
3684.02208252,0.00675555
3685.95088989,0.00657434
3687.87969727,0.00583303
3689.80850464,0.00532675
3691.73731201,0.00614214
3693.66611938,0.00642428
3695.59492676,0.00655952
3697.52373413,0.00652744
3699.45254150,0.00652714
3701.38134888,0.00628529
3703.31015625,0.00607276
3705.23896362,0.00663898
3707.16777100,0.00629890
3709.09657837,0.00614299
3711.02538574,0.00563916
3712.95419312,0.00532321
3714.88300049,0.00632240
3716.81180786,0.00632414
3718.74061523,0.00635663
3720.66942261,0.00610633
3722.59822998,0.00587969
3724.52703735,0.00612975
3726.45584473,0.00570809
3728.38465210,0.00614840
3730.31345947,0.00614071
3732.24226685,0.00558659
3734.17107422,0.00535932
3736.09988159,0.00506281
3738.02868896,0.00536519
3739.95749634,0.00594478
3741.88630371,0.00624803
3743.81511108,0.00476851
3745.74391846,0.00441799
3747.67272583,0.00585840
3749.60153320,0.00496438
3751.53034058,0.00450126
3753.45914795,0.00530884
3755.38795532,0.00573974
3757.31676270,0.00609279
3759.24557007,0.00551626
3761.17437744,0.00571138
3763.10318481,0.00616678
3765.03199219,0.00563199
3766.96079956,0.00587704
3768.88960693,0.00571296
3770.81841431,0.00542927
3772.74722168,0.00600748
3774.67602905,0.00593259
3776.60483643,0.00606516
3778.53364380,0.00582270
3780.46245117,0.00542399
3782.39125854,0.00588967
3784.32006592,0.00577597
3786.24887329,0.00577397
3788.17768066,0.00588308
3790.10648804,0.00580005
3792.03529541,0.00588730
3793.96410278,0.00599178
3795.89291016,0.00550342
3797.82171753,0.00545441
3799.75052490,0.00568620
3801.67933228,0.00440502
3803.60813965,0.00539241
3805.53694702,0.00572909
3807.46575439,0.00449155
3809.39456177,0.00569748
3811.32336914,0.00558266
3813.25217651,0.00585066
3815.18098389,0.00509284
3817.10979126,0.00433945
3819.03859863,0.00584680
3820.96740601,0.00448916
3822.89621338,0.00480960
3824.82502075,0.00577550
3826.75382812,0.00506680
3828.68263550,0.00560815
3830.61144287,0.00535057
3832.54025024,0.00519727
3834.46905762,0.00528740
3836.39786499,0.00494952
3838.32667236,0.00442715
3840.25547974,0.00474212
3842.18428711,0.00521079
3844.11309448,0.00495755
3846.04190186,0.00542659
3847.97070923,0.00536101
3849.89951660,0.00538537
3851.82832397,0.00478922
3853.75713135,0.00344226
3855.68593872,0.00411919
3857.61474609,0.00524590
3859.54355347,0.00522561
3861.47236084,0.00510412
3863.40116821,0.00493840
3865.32997559,0.00460419
3867.25878296,0.00522667
3869.18759033,0.00473824
3871.11639770,0.00423697
3873.04520508,0.00521179
3874.97401245,0.00471269
3876.90281982,0.00519011
3878.83162720,0.00536762
3880.76043457,0.00439098
3882.68924194,0.00523642
3884.61804932,0.00479422
3886.54685669,0.00426426
3888.47566406,0.00524630
3890.40447144,0.00491556
3892.33327881,0.00446808
3894.26208618,0.00505119
3896.19089355,0.00521695
3898.11970093,0.00479392
3900.04850830,0.00450353
3901.97731567,0.00455051
3903.90612305,0.00447529
3905.83493042,0.00449899
3907.76373779,0.00501581
3909.69254517,0.00495241
3911.62135254,0.00489587
3913.55015991,0.00509588
3915.47896728,0.00479173
3917.40777466,0.00469547
3919.33658203,0.00468617
3921.26538940,0.00478372
3923.19419678,0.00478549
3925.12300415,0.00470964
3927.05181152,0.00488386
3928.98061890,0.00487376
3930.90942627,0.00472910
3932.83823364,0.00453330
3934.76704102,0.00470368
3936.69584839,0.00482375
3938.62465576,0.00476922
3940.55346313,0.00488305
3942.48227051,0.00468665
3944.41107788,0.00468714
3946.33988525,0.00481060
3948.26869263,0.00465039
3950.19750000,0.00463773
3952.12630737,0.00469172
3954.05511475,0.00471927
3955.98392212,0.00475306
3957.91272949,0.00467751
3959.84153687,0.00468556
3961.77034424,0.00461615
3963.69915161,0.00452052
3965.62795898,0.00464263
3967.55676636,0.00461944
3969.48557373,0.00460444
3971.41438110,0.00459008
3973.34318848,0.00462664
3975.27199585,0.00460572
3977.20080322,0.00447206
3979.12961060,0.00464619
3981.05841797,0.00458278
3982.98722534,0.00451998
3984.91603271,0.00454447
3986.84484009,0.00445334
3988.77364746,0.00453762
3990.70245483,0.00447412
3992.63126221,0.00446405
3994.56006958,0.00451275
3996.48887695,0.00448445
3998.41768433,0.00445410
4000.34649170,0.00443175
4002.27529907,0.00439039
4004.20410645,0.00437238
4006.13291382,0.00439907
4008.06172119,0.00435762
4009.99052856,0.00445401
4011.91933594,0.00437454
4013.84814331,0.00430348
4015.77695068,0.00437856
4017.70575806,0.00430270
4019.63456543,0.00428694
4021.56337280,0.00434489
4023.49218018,0.00443620
4025.42098755,0.00430888
4027.34979492,0.00428219
4029.27860229,0.00431606
4031.20740967,0.00424776
4033.13621704,0.00429067
4035.06502441,0.00423178
4036.99383179,0.00427429
4038.92263916,0.00427045
4040.85144653,0.00427151
4042.78025391,0.00421351
4044.70906128,0.00412065
4046.63786865,0.00416226
4048.56667603,0.00409542
4050.49548340,0.00415147
4052.42429077,0.00413651
4054.35309814,0.00411550
4056.28190552,0.00408049
4058.21071289,0.00411666
4060.13952026,0.00423469
4062.06832764,0.00408533
4063.99713501,0.00403102
4065.92594238,0.00400410
4067.85474976,0.00407531
4069.78355713,0.00411230
4071.71236450,0.00408729
4073.64117187,0.00410366
4075.56997925,0.00402636
4077.49878662,0.00401450
4079.42759399,0.00391153
4081.35640137,0.00399085
4083.28520874,0.00398595
4085.21401611,0.00392655
4087.14282349,0.00395501
4089.07163086,0.00383614
4091.00043823,0.00393151
4092.92924561,0.00394797
4094.85805298,0.00392779
4096.78686035,0.00382811
4098.71566772,0.00384147
4100.64447510,0.00399281
4102.57328247,0.00385608
4104.50208984,0.00387267
4106.43089722,0.00380953
4108.35970459,0.00381490
4110.28851196,0.00392355
4112.21731934,0.00382390
4114.14612671,0.00386592
4116.07493408,0.00386696
4118.00374145,0.00384187
4119.93254883,0.00387384
4121.86135620,0.00376788
4123.79016357,0.00371752
4125.71897095,0.00381071
4127.64777832,0.00375701
4129.57658569,0.00375761
4131.50539307,0.00379066
4133.43420044,0.00367927
4135.36300781,0.00372079
4137.29181519,0.00369920
4139.22062256,0.00365322
4141.14942993,0.00367724
4143.07823730,0.00367404
4145.00704468,0.00364985
4146.93585205,0.00364037
4148.86465942,0.00368042
4150.79346680,0.00360077
4152.72227417,0.00366641
4154.65108154,0.00367607
4156.57988892,0.00355431
4158.50869629,0.00360393
4160.43750366,0.00355926
4162.36631103,0.00353374
4164.29511841,0.00359322
4166.22392578,0.00356924
4168.15273315,0.00351140
4170.08154053,0.00353816
4172.01034790,0.00357205
4173.93915527,0.00350517
4175.86796265,0.00345268
4177.79677002,0.00347157
4179.72557739,0.00348157
4181.65438477,0.00348583
4183.58319214,0.00350721
4185.51199951,0.00340664
4187.44080688,0.00341526
4189.36961426,0.00343239
4191.29842163,0.00336216
4193.22722900,0.00344744
4195.15603638,0.00342403
4197.08484375,0.00343460
4199.01365112,0.00342398
4200.94245850,0.00333584
4202.87126587,0.00338876
4204.80007324,0.00335906
4206.72888062,0.00338150
4208.65768799,0.00344528
4210.58649536,0.00339987
4212.51530273,0.00336298
4214.44411011,0.00334690
4216.37291748,0.00334806
4218.30172485,0.00331769
4220.23053223,0.00329384
4222.15933960,0.00333358
4224.08814697,0.00329260
4226.01695435,0.00325558
4227.94576172,0.00326225
4229.87456909,0.00321001
4231.80337646,0.00320798
4233.73218384,0.00316592
4235.66099121,0.00324999
4237.58979858,0.00327284
4239.51860596,0.00315327
4241.44741333,0.00328908
4243.37622070,0.00327301
4245.30502808,0.00323192
4247.23383545,0.00321778
4249.16264282,0.00309472
4251.09145020,0.00314689
4253.02025757,0.00318951
4254.94906494,0.00313598
4256.87787231,0.00301556
4258.80667969,0.00309815
4260.73548706,0.00313299
4262.66429443,0.00305878
4264.59310181,0.00315759
4266.52190918,0.00303681
4268.45071655,0.00300899
4270.37952393,0.00314783
4272.30833130,0.00310093
4274.23713867,0.00305454
4276.16594604,0.00307513
4278.09475342,0.00306776
4280.02356079,0.00306702
4281.95236816,0.00296814
4283.88117554,0.00290136
4285.80998291,0.00307350
4287.73879028,0.00301274
4289.66759766,0.00298814
4291.59640503,0.00307807
4293.52521240,0.00300874
4295.45401978,0.00301063
4297.38282715,0.00291647
4299.31163452,0.00299024
4301.24044189,0.00303905
4303.16924927,0.00296133
4305.09805664,0.00296441
4307.02686401,0.00288650
4308.95567139,0.00298285
4310.88447876,0.00299060
4312.81328613,0.00291415
4314.74209351,0.00289150
4316.67090088,0.00290756
4318.59970825,0.00303729
4320.52851562,0.00293473
4322.45732300,0.00279862
4324.38613037,0.00280934
4326.31493774,0.00282942
4328.24374512,0.00283572
4330.17255249,0.00281573
4332.10135986,0.00284400
4334.03016724,0.00289499
4335.95897461,0.00290764
4337.88778198,0.00287001
4339.81658936,0.00279333
4341.74539673,0.00274998
4343.67420410,0.00277520
4345.60301147,0.00278799
4347.53181885,0.00278654
4349.46062622,0.00273762
4351.38943359,0.00274242
4353.31824097,0.00273826
4355.24704834,0.00270707
4357.17585571,0.00285454
4359.10466309,0.00275798
4361.03347046,0.00264657
4362.96227783,0.00279921
4364.89108520,0.00273451
4366.81989258,0.00265836
4368.74869995,0.00271706
4370.67750732,0.00272832
4372.60631470,0.00270148
4374.53512207,0.00268801
4376.46392944,0.00267660
4378.39273682,0.00263731
4380.32154419,0.00261714
4382.25035156,0.00263167
4384.17915894,0.00263347
4386.10796631,0.00260880
4388.03677368,0.00259307
4389.96558105,0.00261331
4391.89438843,0.00265686
4393.82319580,0.00258401
4395.75200317,0.00259221
4397.68081055,0.00263638
4399.60961792,0.00256888
4401.53842529,0.00262693
4403.46723267,0.00259042
4405.39604004,0.00252556
4407.32484741,0.00253779
4409.25365478,0.00255132
4411.18246216,0.00251433
4413.11126953,0.00244291
4415.04007690,0.00247806
4416.96888428,0.00241733
4418.89769165,0.00251880
4420.82649902,0.00257522
4422.75530640,0.00246606
4424.68411377,0.00246335
4426.61292114,0.00242346
4428.54172852,0.00253152
4430.47053589,0.00244157
4432.39934326,0.00237064
4434.32815063,0.00243511
4436.25695801,0.00235644
4438.18576538,0.00244672
4440.11457275,0.00239638
4442.04338013,0.00241859
4443.97218750,0.00249618
4445.90099487,0.00238154
4447.82980225,0.00236180
4449.75860962,0.00236490
4451.68741699,0.00240930
4453.61622437,0.00237345
4455.54503174,0.00234789
4457.47383911,0.00237543
4459.40264648,0.00236525
4461.33145386,0.00235620
4463.26026123,0.00230583
4465.18906860,0.00237064
4467.11787598,0.00233983
4469.04668335,0.00223391
4470.97549072,0.00229039
4472.90429810,0.00230431
4474.83310547,0.00230516
4476.76191284,0.00234528
4478.69072021,0.00226483
4480.61952759,0.00222725
4482.54833496,0.00231463
4484.47714233,0.00231207
4486.40594971,0.00230724
4488.33475708,0.00226689
4490.26356445,0.00222695
4492.19237183,0.00222227
4494.12117920,0.00217406
4496.04998657,0.00231691
4497.97879395,0.00229140
4499.90760132,0.00219933
4501.83640869,0.00231922
4503.76521606,0.00221956
4505.69402344,0.00217373
4507.62283081,0.00214003
4509.55163818,0.00209898
4511.48044556,0.00220285
4513.40925293,0.00215954
4515.33806030,0.00220598
4517.26686768,0.00218884
4519.19567505,0.00215515
4521.12448242,0.00216821
4523.05328979,0.00210137
4524.98209717,0.00223937
4526.91090454,0.00212198
4528.83971191,0.00204593
4530.76851929,0.00218432
4532.69732666,0.00210071
4534.62613403,0.00212378
4536.55494141,0.00209267
4538.48374878,0.00210741
4540.41255615,0.00215173
4542.34136353,0.00209724
4544.27017090,0.00214453
4546.19897827,0.00208515
4548.12778564,0.00205980
4550.05659302,0.00206722
4551.98540039,0.00207868
4553.91420776,0.00209229
4555.84301514,0.00205895
4557.77182251,0.00206438
4559.70062988,0.00201810
4561.62943726,0.00202691
4563.55824463,0.00201890
4565.48705200,0.00201792
4567.41585937,0.00200569
4569.34466675,0.00188810
4571.27347412,0.00189156
4573.20228149,0.00200048
4575.13108887,0.00205734
4577.05989624,0.00195639
4578.98870361,0.00190630
4580.91751099,0.00194794
4582.84631836,0.00193365
4584.77512573,0.00194264
4586.70393311,0.00189644
4588.63274048,0.00188650
4590.56154785,0.00195708
4592.49035522,0.00192330
4594.41916260,0.00186119
4596.34796997,0.00190632
4598.27677734,0.00194716
4600.20558472,0.00193944
4602.13439209,0.00193139
4604.06319946,0.00191269
4605.99200684,0.00194080
4607.92081421,0.00193576
4609.84962158,0.00185966
4611.77842895,0.00186942
4613.70723633,0.00191422
4615.63604370,0.00188939
4617.56485107,0.00187217
4619.49365845,0.00179270
4621.42246582,0.00181145
4623.35127319,0.00191261
4625.28008057,0.00179202
4627.20888794,0.00180063
4629.13769531,0.00185060
4631.06650269,0.00179276
4632.99531006,0.00182999
4634.92411743,0.00182770
4636.85292480,0.00180060
4638.78173218,0.00175740
4640.71053955,0.00181004
4642.63934692,0.00179495
4644.56815430,0.00177707
4646.49696167,0.00184626
4648.42576904,0.00174647
4650.35457642,0.00178408
4652.28338379,0.00180878
4654.21219116,0.00176054
4656.14099853,0.00177999
4658.06980591,0.00173303
4659.99861328,0.00173904
4661.92742065,0.00177295
4663.85622803,0.00175191
4665.78503540,0.00172386
4667.71384277,0.00182303
4669.64265015,0.00177808
4671.57145752,0.00172149
4673.50026489,0.00175494
4675.42907227,0.00164905
4677.35787964,0.00174679
4679.28668701,0.00176810
4681.21549438,0.00170471
4683.14430176,0.00171609
4685.07310913,0.00165342
4687.00191650,0.00167719
4688.93072388,0.00166943
4690.85953125,0.00166635
4692.78833862,0.00161248
4694.71714600,0.00162469
4696.64595337,0.00171726
4698.57476074,0.00163518
4700.50356812,0.00159072
4702.43237549,0.00160825
4704.36118286,0.00163935
4706.28999023,0.00166813
4708.21879761,0.00163153
4710.14760498,0.00159557
4712.07641235,0.00160862
4714.00521973,0.00157898
4715.93402710,0.00159642
4717.86283447,0.00167341
4719.79164185,0.00161683
4721.72044922,0.00162401
4723.64925659,0.00165990
4725.57806396,0.00163955
4727.50687134,0.00158175
4729.43567871,0.00151318
4731.36448608,0.00152098
4733.29329346,0.00150831
4735.22210083,0.00156444
4737.15090820,0.00157271
4739.07971558,0.00154722
4741.00852295,0.00151205
4742.93733032,0.00146015
4744.86613770,0.00156485
4746.79494507,0.00157452
4748.72375244,0.00152015
4750.65255981,0.00150683
4752.58136719,0.00155103
4754.51017456,0.00157330
4756.43898193,0.00149921
4758.36778931,0.00155166
4760.29659668,0.00154773
4762.22540405,0.00147403
4764.15421143,0.00148210
4766.08301880,0.00153264
4768.01182617,0.00155395
4769.94063354,0.00150985
4771.86944092,0.00148401
4773.79824829,0.00143795
4775.72705566,0.00144146
4777.65586304,0.00146502
4779.58467041,0.00147276
4781.51347778,0.00143053
4783.44228516,0.00137631
4785.37109253,0.00146748
4787.29989990,0.00145020
4789.22870728,0.00142532
4791.15751465,0.00147809
4793.08632202,0.00142770
4795.01512939,0.00147183
4796.94393677,0.00149535
4798.87274414,0.00144450
4800.80155151,0.00144453
4802.73035889,0.00140372
4804.65916626,0.00141492
4806.58797363,0.00142234
4808.51678101,0.00133873
4810.44558838,0.00132893
4812.37439575,0.00137450
4814.30320312,0.00137358
4816.23201050,0.00135962
4818.16081787,0.00139023
4820.08962524,0.00138722
4822.01843262,0.00134001
4823.94723999,0.00134782
4825.87604736,0.00133366
4827.80485474,0.00136872
4829.73366211,0.00142632
4831.66246948,0.00135746
4833.59127686,0.00135584
4835.52008423,0.00135391
4837.44889160,0.00128486
4839.37769897,0.00131369
4841.30650635,0.00133279
4843.23531372,0.00131685
4845.16412109,0.00128864
4847.09292847,0.00128917
4849.02173584,0.00133808
4850.95054321,0.00132526
4852.87935059,0.00132415
4854.80815796,0.00129586
4856.73696533,0.00126624
4858.66577270,0.00130551
4860.59458008,0.00129024
4862.52338745,0.00128781
4864.45219482,0.00127556
4866.38100220,0.00126715
4868.30980957,0.00132140
4870.23861694,0.00130479
4872.16742432,0.00123141
4874.09623169,0.00121374
4876.02503906,0.00124159
4877.95384644,0.00124071
4879.88265381,0.00128618
4881.81146118,0.00129135
4883.74026855,0.00120139
4885.66907593,0.00120949
4887.59788330,0.00127769
4889.52669067,0.00126212
4891.45549805,0.00122637
4893.38430542,0.00128058
4895.31311279,0.00123820
4897.24192017,0.00123842
4899.17072754,0.00133627
4901.09953491,0.00123121
4903.02834228,0.00117684
4904.95714966,0.00120776
4906.88595703,0.00120863
4908.81476440,0.00119468
4910.74357178,0.00117525
4912.67237915,0.00120904
4914.60118652,0.00114896
4916.52999390,0.00113037
4918.45880127,0.00118259
4920.38760864,0.00112879
4922.31641602,0.00111160
4924.24522339,0.00118656
4926.17403076,0.00115640
4928.10283813,0.00117725
4930.03164551,0.00120453
4931.96045288,0.00104316
4933.88926025,0.00113969
4935.81806763,0.00119017
4937.74687500,0.00109218
4939.67568237,0.00119245
4941.60448975,0.00113442
4943.53329712,0.00110916
4945.46210449,0.00117271
4947.39091187,0.00116046
4949.31971924,0.00113615
4951.24852661,0.00111261
4953.17733398,0.00111258
4955.10614136,0.00107780
4957.03494873,0.00110147
4958.96375610,0.00105999
4960.89256348,0.00105880
4962.82137085,0.00113697
4964.75017822,0.00110983
4966.67898560,0.00109267
4968.60779297,0.00108879
4970.53660034,0.00115592
4972.46540771,0.00115417
4974.39421509,0.00106919
4976.32302246,0.00107242
4978.25182983,0.00110579
4980.18063721,0.00112709
4982.10944458,0.00108347
4984.03825195,0.00105208
4985.96705933,0.00105699
4987.89586670,0.00108845
4989.82467407,0.00110476
4991.75348145,0.00103987
4993.68228882,0.00101603
4995.61109619,0.00106966
4997.53990356,0.00104881
4999.46871094,0.00099657
5001.39751831,0.00104524
5003.32632568,0.00103891
5005.25513306,0.00103095
5007.18394043,0.00103057
5009.11274780,0.00096903
5011.04155518,0.00101317
5012.97036255,0.00103917
5014.89916992,0.00100400
5016.82797729,0.00102530
5018.75678467,0.00102343
5020.68559204,0.00098890
5022.61439941,0.00101199
5024.54320679,0.00101982
5026.47201416,0.00098554
5028.40082153,0.00094787
5030.32962891,0.00096832
5032.25843628,0.00105805
5034.18724365,0.00097417
5036.11605103,0.00093794
5038.04485840,0.00102841
5039.97366577,0.00100366
5041.90247314,0.00102104
5043.83128052,0.00098978
5045.76008789,0.00092374
5047.68889526,0.00094530
5049.61770264,0.00098008
5051.54651001,0.00096652
5053.47531738,0.00090904
5055.40412476,0.00096966
5057.33293213,0.00098871
5059.26173950,0.00093493
5061.19054687,0.00098664
5063.11935425,0.00094648
5065.04816162,0.00090860
5066.97696899,0.00099944
5068.90577637,0.00094578
5070.83458374,0.00087033
5072.76339111,0.00090313
5074.69219849,0.00092014
5076.62100586,0.00093474
5078.54981323,0.00094359
5080.47862061,0.00094988
5082.40742798,0.00089678
5084.33623535,0.00093539
5086.26504272,0.00097795
5088.19385010,0.00088542
5090.12265747,0.00088146
5092.05146484,0.00085733
5093.98027222,0.00090603
5095.90907959,0.00095197
5097.83788696,0.00088041
5099.76669434,0.00088120
5101.69550171,0.00086702
5103.62430908,0.00086627
5105.55311645,0.00083402
5107.48192383,0.00085715
5109.41073120,0.00086954
5111.33953857,0.00079233
5113.26834595,0.00084425
5115.19715332,0.00082544
5117.12596069,0.00077987
5119.05476807,0.00085730
5120.98357544,0.00088118
5122.91238281,0.00078040
5124.84119019,0.00074848
5126.76999756,0.00083481
5128.69880493,0.00082257
5130.62761230,0.00079321
5132.55641968,0.00081777
5134.48522705,0.00084971
5136.41403442,0.00088631
5138.34284180,0.00084277
5140.27164917,0.00078951
5142.20045654,0.00082068
5144.12926392,0.00078602
5146.05807129,0.00079984
5147.98687866,0.00083341
5149.91568603,0.00074333
5151.84449341,0.00083328
5153.77330078,0.00083140
5155.70210815,0.00076691
5157.63091553,0.00082915
5159.55972290,0.00075782
5161.48853027,0.00080095
5163.41733765,0.00085857
5165.34614502,0.00084265
5167.27495239,0.00084172
5169.20375977,0.00087214
5171.13256714,0.00087440
5173.06137451,0.00078828
5174.99018188,0.00082097
5176.91898926,0.00074988
5178.84779663,0.00072763
5180.77660400,0.00082359
5182.70541138,0.00082532
5184.63421875,0.00078032
5186.56302612,0.00073695
5188.49183350,0.00085773
5190.42064087,0.00077545
5192.34944824,0.00068169
5194.27825562,0.00076056
5196.20706299,0.00073622
5198.13587036,0.00078773
5200.06467773,0.00074388
5201.99348511,0.00073362
5203.92229248,0.00077887
5205.85109985,0.00073571
5207.77990723,0.00073964
5209.70871460,0.00072394
5211.63752197,0.00076005
5213.56632935,0.00073804
5215.49513672,0.00074328
5217.42394409,0.00081405
5219.35275146,0.00076245
5221.28155884,0.00077177
5223.21036621,0.00076106
5225.13917358,0.00072722
5227.06798096,0.00075570
5228.99678833,0.00069200
5230.92559570,0.00072270
5232.85440308,0.00075982
5234.78321045,0.00069159
5236.71201782,0.00077092
5238.64082520,0.00076495
5240.56963257,0.00069310
5242.49843994,0.00073814
5244.42724731,0.00069935
5246.35605469,0.00063614
5248.28486206,0.00064818
5250.21366943,0.00071651
5252.14247681,0.00073437
5254.07128418,0.00068795
5256.00009155,0.00067018
5257.92889893,0.00068144
5259.85770630,0.00068212
5261.78651367,0.00062791
5263.71532104,0.00060483
5265.64412842,0.00064825
5267.57293579,0.00072259
5269.50174316,0.00070785
5271.43055054,0.00063493
5273.35935791,0.00063466
5275.28816528,0.00065978
5277.21697266,0.00068556
5279.14578003,0.00061454
5281.07458740,0.00060050
5283.00339478,0.00068090
5284.93220215,0.00065678
5286.86100952,0.00067673
5288.78981689,0.00067421
5290.71862427,0.00059323
5292.64743164,0.00062706
5294.57623901,0.00066952
5296.50504639,0.00068617
5298.43385376,0.00065590
5300.36266113,0.00057002
5302.29146851,0.00066772
5304.22027588,0.00068207
5306.14908325,0.00062064
5308.07789062,0.00069987
5310.00669800,0.00064393
5311.93550537,0.00062961
5313.86431274,0.00062238
5315.79312012,0.00060409
5317.72192749,0.00069243
5319.65073486,0.00072420
5321.57954224,0.00071522
5323.50834961,0.00059643
5325.43715698,0.00060137
5327.36596436,0.00062221
5329.29477173,0.00056856
5331.22357910,0.00060926
5333.15238647,0.00052502
5335.08119385,0.00056578
5337.01000122,0.00064362
5338.93880859,0.00056918
5340.86761597,0.00059533
5342.79642334,0.00062037
5344.72523071,0.00059087
5346.65403809,0.00060151
5348.58284546,0.00057510
5350.51165283,0.00054512
5352.44046020,0.00058251
5354.36926758,0.00058152
5356.29807495,0.00067204
5358.22688232,0.00068238
5360.15568970,0.00058354
5362.08449707,0.00061123
5364.01330444,0.00057480
5365.94211182,0.00061000
5367.87091919,0.00059224
5369.79972656,0.00055999
5371.72853394,0.00063960
5373.65734131,0.00054370
5375.58614868,0.00052534
5377.51495605,0.00055877
5379.44376343,0.00053913
5381.37257080,0.00053844
5383.30137817,0.00053356
5385.23018555,0.00060555
5387.15899292,0.00061567
5389.08780029,0.00054645
5391.01660767,0.00054973
5392.94541504,0.00055862
5394.87422241,0.00049843
5396.80302978,0.00053705
5398.73183716,0.00053308
5400.66064453,0.00051094
5402.58945190,0.00058237
5404.51825928,0.00052016
5406.44706665,0.00055631
5408.37587402,0.00054350
5410.30468140,0.00045389
5412.23348877,0.00051558
5414.16229614,0.00049052
5416.09110352,0.00055093
5418.01991089,0.00056365
5419.94871826,0.00053359
5421.87752563,0.00059736
5423.80633301,0.00048387
5425.73514038,0.00054598
5427.66394775,0.00059348
5429.59275513,0.00047504
5431.52156250,0.00059018
5433.45036987,0.00054325
5435.37917725,0.00046941
5437.30798462,0.00056052
5439.23679199,0.00053544
5441.16559936,0.00050938
5443.09440674,0.00048430
5445.02321411,0.00052991
5446.95202148,0.00051318
5448.88082886,0.00050279
5450.80963623,0.00058713
5452.73844360,0.00052888
5454.66725098,0.00055415
5456.59605835,0.00058146
5458.52486572,0.00054675
5460.45367310,0.00049138
5462.38248047,0.00044065
5464.31128784,0.00051155
5466.24009521,0.00051474
5468.16890259,0.00048840
5470.09770996,0.00046619
5472.02651733,0.00051447
5473.95532471,0.00051727
5475.88413208,0.00048585
5477.81293945,0.00055562
5479.74174683,0.00051573
5481.67055420,0.00050504
5483.59936157,0.00047178
5485.52816895,0.00046795
5487.45697632,0.00047187
5489.38578369,0.00047507
5491.31459106,0.00060583
5493.24339844,0.00047020
5495.17220581,0.00039995
5497.10101318,0.00046949
5499.02982056,0.00042263
5500.95862793,0.00049702
5502.88743530,0.00051882
5504.81624268,0.00045643
5506.74505005,0.00044501
5508.67385742,0.00046147
5510.60266479,0.00042100
5512.53147217,0.00044267
5514.46027954,0.00050311
5516.38908691,0.00043550
5518.31789429,0.00042663
5520.24670166,0.00044867
5522.17550903,0.00050008
5524.10431641,0.00050478
5526.03312378,0.00039890
5527.96193115,0.00041528
5529.89073853,0.00045075
5531.81954590,0.00045614
5533.74835327,0.00047472
5535.67716064,0.00045756
5537.60596802,0.00043808
5539.53477539,0.00038532
5541.46358276,0.00039235
5543.39239014,0.00042592
5545.32119751,0.00041664
5547.25000488,0.00047681
5549.17881226,0.00044741
5551.10761963,0.00036811
5553.03642700,0.00039687
5554.96523437,0.00048838
5556.89404175,0.00050214
5558.82284912,0.00039592
5560.75165649,0.00047168
5562.68046387,0.00047967
5564.60927124,0.00039599
5566.53807861,0.00043063
5568.46688599,0.00040533
5570.39569336,0.00046518
5572.32450073,0.00040941
5574.25330811,0.00037666
5576.18211548,0.00044884
5578.11092285,0.00039623
5580.03973022,0.00043468
5581.96853760,0.00043312
5583.89734497,0.00041677
5585.82615234,0.00041183
5587.75495972,0.00042811
5589.68376709,0.00041179
5591.61257446,0.00036395
5593.54138184,0.00046029
5595.47018921,0.00043669
5597.39899658,0.00040880
5599.32780395,0.00041951
5601.25661133,0.00043959
5603.18541870,0.00042275
5605.11422607,0.00035627
5607.04303345,0.00044324
5608.97184082,0.00039594
5610.90064819,0.00036806
5612.82945557,0.00036725
5614.75826294,0.00034229
5616.68707031,0.00041512
5618.61587769,0.00037415
5620.54468506,0.00038188
5622.47349243,0.00036992
5624.40229980,0.00039226
5626.33110718,0.00038475
5628.25991455,0.00028513
5630.18872192,0.00036544
5632.11752930,0.00040228
5634.04633667,0.00038662
5635.97514404,0.00034323
5637.90395142,0.00035454
5639.83275879,0.00043442
5641.76156616,0.00041865
5643.69037353,0.00037382
5645.61918091,0.00030293
5647.54798828,0.00039486
5649.47679565,0.00043139
5651.40560303,0.00033084
5653.33441040,0.00036085
5655.26321777,0.00036061
5657.19202515,0.00039310
5659.12083252,0.00037758
5661.04963989,0.00027297
5662.97844727,0.00033971
5664.90725464,0.00041138
5666.83606201,0.00037311
5668.76486938,0.00041250
5670.69367676,0.00043331
5672.62248413,0.00031146
5674.55129150,0.00027089
5676.48009888,0.00033018
5678.40890625,0.00039873
5680.33771362,0.00042248
5682.26652100,0.00036674
5684.19532837,0.00039411
5686.12413574,0.00042674
5688.05294311,0.00038021
5689.98175049,0.00032081
5691.91055786,0.00034473
5693.83936523,0.00039363
5695.76817261,0.00032209
5697.69697998,0.00032951
5699.62578735,0.00035447
5701.55459473,0.00037056
5703.48340210,0.00040132
5705.41220947,0.00034745
5707.34101685,0.00035761
5709.26982422,0.00030270
5711.19863159,0.00027937
5713.12743896,0.00029467
5715.05624634,0.00028659
5716.98505371,0.00036107
5718.91386108,0.00027962
5720.84266846,0.00027776
5722.77147583,0.00039214
5724.70028320,0.00039533
5726.62909058,0.00036328
5728.55789795,0.00032337
5730.48670532,0.00031276
5732.41551270,0.00025929
5734.34432007,0.00026983
5736.27312744,0.00034140
5738.20193481,0.00039075
5740.13074219,0.00036245
5742.05954956,0.00028905
5743.98835693,0.00031996
5745.91716431,0.00030511
5747.84597168,0.00031413
5749.77477905,0.00032426
5751.70358643,0.00029637
5753.63239380,0.00035732
5755.56120117,0.00037955
5757.49000854,0.00032438
5759.41881592,0.00029271
5761.34762329,0.00034057
5763.27643066,0.00031818
5765.20523804,0.00030611
5767.13404541,0.00034724
5769.06285278,0.00033653
5770.99166016,0.00030566
5772.92046753,0.00027096
5774.84927490,0.00034638
5776.77808228,0.00032942
5778.70688965,0.00029087
5780.63569702,0.00033961
5782.56450439,0.00029592
5784.49331177,0.00026849
5786.42211914,0.00026231
5788.35092651,0.00031562
5790.27973389,0.00031249
5792.20854126,0.00024046
5794.13734863,0.00026902
5796.06615601,0.00033731
5797.99496338,0.00030878
5799.92377075,0.00026369
5801.85257812,0.00035165
5803.78138550,0.00029574
5805.71019287,0.00026344
5807.63900024,0.00029471
5809.56780762,0.00026421
5811.49661499,0.00032941
5813.42542236,0.00026862
5815.35422974,0.00031983
5817.28303711,0.00034899
5819.21184448,0.00023688
5821.14065186,0.00028765
5823.06945923,0.00026509
5824.99826660,0.00030329
5826.92707397,0.00030707
5828.85588135,0.00022211
5830.78468872,0.00024765
5832.71349609,0.00020644
5834.64230347,0.00025407
5836.57111084,0.00029495
5838.49991821,0.00025199
5840.42872559,0.00030609
5842.35753296,0.00029654
5844.28634033,0.00029237
5846.21514770,0.00029973
5848.14395508,0.00026031
5850.07276245,0.00027239
5852.00156982,0.00025480
5853.93037720,0.00026430
5855.85918457,0.00027234
5857.78799194,0.00026803
5859.71679932,0.00027815
5861.64560669,0.00024175
5863.57441406,0.00028454
5865.50322144,0.00026641
5867.43202881,0.00022959
5869.36083618,0.00025818
5871.28964355,0.00020354
5873.21845093,0.00022949
5875.14725830,0.00028601
5877.07606567,0.00030230
5879.00487305,0.00032092
5880.93368042,0.00026707
5882.86248779,0.00019857
5884.79129517,0.00017878
5886.72010254,0.00021645
5888.64890991,0.00028618
5890.57771728,0.00027226
5892.50652466,0.00019098
5894.43533203,0.00020305
5896.36413940,0.00023552
5898.29294678,0.00024137
5900.22175415,0.00021269
5902.15056152,0.00018613
5904.07936890,0.00020855
5906.00817627,0.00023328
5907.93698364,0.00031209
5909.86579102,0.00027797
5911.79459839,0.00028487
5913.72340576,0.00029974
5915.65221313,0.00017943
5917.58102051,0.00025305
5919.50982788,0.00019993
5921.43863525,0.00014484
5923.36744263,0.00026589
5925.29625000,0.00019057
5927.22505737,0.00020708
5929.15386475,0.00029704
5931.08267212,0.00024154
5933.01147949,0.00022328
5934.94028686,0.00031268
5936.86909424,0.00029005
5938.79790161,0.00018921
5940.72670898,0.00024279
5942.65551636,0.00026411
5944.58432373,0.00020639
5946.51313110,0.00015397
5948.44193848,0.00020758
5950.37074585,0.00031469
5952.29955322,0.00023657
5954.22836060,0.00018932
5956.15716797,0.00025130
5958.08597534,0.00022568
5960.01478271,0.00017656
5961.94359009,0.00022010
5963.87239746,0.00025670
5965.80120483,0.00020170
5967.73001221,0.00018007
5969.65881958,0.00019770
5971.58762695,0.00020642
5973.51643433,0.00020705
5975.44524170,0.00018339
5977.37404907,0.00022080
5979.30285645,0.00020491
5981.23166382,0.00016715
5983.16047119,0.00023461
5985.08927856,0.00015672
5987.01808594,0.00015082
5988.94689331,0.00025291
5990.87570068,0.00021411
5992.80450806,0.00022346
5994.73331543,0.00022733
5996.66212280,0.00021237
5998.59093018,0.00015975
6000.51973755,0.00017726
