399.26312622,0.00035440
401.19193359,0.00014319
403.12074097,0.00014713
405.04954834,0.00027325
406.97835571,0.00087651
408.90716309,0.00041262
410.83597046,0.00024352
412.76477783,0.00042365
414.69358521,0.00043810
416.62239258,0.00049439
418.55119995,0.00046197
420.48000732,0.00072015
422.40881470,0.00071674
424.33762207,0.00056029
426.26642944,0.00027459
428.19523682,0.00037669
430.12404419,0.00074915
432.05285156,0.00050298
433.98165894,0.00026095
435.91046631,0.00006115
437.83927368,0.00021432
439.76808105,0.00059846
441.69688843,0.00049224
443.62569580,0.00033321
445.55450317,0.00020619
447.48331055,0.00032103
449.41211792,0.00051932
451.34092529,0.00066494
453.26973267,0.00069082
455.19854004,0.00005943
457.12734741,0.00011775
459.05615479,0.00033737
460.98496216,0.00012214
462.91376953,0.00063037
464.84257690,0.00039504
466.77138428,0.00011733
468.70019165,0.00059404
470.62899902,0.00053988
472.55780640,0.00018186
474.48661377,0.00005346
476.41542114,0.00001059
478.34422852,-0.00016788
480.27303589,0.00018624
482.20184326,0.00010785
484.13065063,-0.00004342
486.05945801,0.00036671
487.98826538,0.00016665
489.91707275,0.00025756
491.84588013,0.00018405
493.77468750,0.00009194
495.70349487,0.00045008
497.63230225,0.00019221
499.56110962,0.00027020
501.48991699,0.00046444
503.41872437,0.00014514
505.34753174,0.00013394
507.27633911,0.00016296
509.20514648,0.00001516
511.13395386,0.00001731
513.06276123,0.00020876
514.99156860,0.00027938
516.92037598,0.00029082
518.84918335,0.00011569
520.77799072,-0.00010651
522.70679810,0.00023203
524.63560547,0.00013577
526.56441284,-0.00014081
528.49322021,0.00012400
530.42202759,0.00026076
532.35083496,0.00036248
534.27964233,0.00019103
536.20844971,0.00024195
538.13725708,0.00039551
540.06606445,0.00014401
541.99487183,0.00025076
543.92367920,0.00030337
545.85248657,0.00032141
547.78129395,0.00015061
549.71010132,0.00003651
551.63890869,0.00022034
553.56771606,0.00012934
555.49652344,0.00019771
557.42533081,0.00001453
559.35413818,-0.00013276
561.28294556,0.00022558
563.21175293,0.00041872
565.14056030,0.00020249
567.06936768,-0.00008854
568.99817505,0.00009400
570.92698242,0.00013727
572.85578979,0.00001381
574.78459717,0.00005830
576.71340454,0.00005873
578.64221191,0.00003281
580.57101929,0.00023395
582.49982666,0.00023987
584.42863403,-0.00012630
586.35744141,0.00026380
588.28624878,0.00037892
590.21505615,0.00013841
592.14386353,0.00022474
594.07267090,-0.00009365
596.00147827,0.00024628
597.93028564,0.00033078
599.85909302,0.00019399
601.78790039,0.00037924
603.71670776,-0.00006994
605.64551514,0.00002358
607.57432251,0.00004176
609.50312988,0.00017979
611.43193726,0.00030891
613.36074463,-0.00018831
615.28955200,0.00021399
617.21835938,0.00022934
619.14716675,-0.00005210
621.07597412,-0.00004114
623.00478149,0.00010957
624.93358887,0.00034192
626.86239624,-0.00000221
628.79120361,0.00007195
630.72001099,0.00031648
632.64881836,0.00037822
634.57762573,0.00039887
636.50643311,0.00035307
638.43524048,0.00028861
640.36404785,0.00042123
642.29285522,0.00045697
644.22166260,0.00032445
646.15046997,0.00080540
648.07927734,0.00073921
650.00808472,0.00065334
651.93689209,0.00073239
653.86569946,0.00059297
655.79450684,0.00064347
657.72331421,0.00048395
659.65212158,0.00085947
661.58092896,0.00059038
663.50973633,0.00050853
665.43854370,0.00094817
667.36735107,0.00066277
669.29615845,0.00098482
671.22496582,0.00086523
673.15377319,0.00079456
675.08258057,0.00116232
677.01138794,0.00101483
678.94019531,0.00099065
680.86900269,0.00088488
682.79781006,0.00101491
684.72661743,0.00127418
686.65542480,0.00118006
688.58423218,0.00087723
690.51303955,0.00084891
692.44184692,0.00111995
694.37065430,0.00122755
696.29946167,0.00116284
698.22826904,0.00130724
700.15707642,0.00174498
702.08588379,0.00160712
704.01469116,0.00132364
705.94349854,0.00134457
707.87230591,0.00112133
709.80111328,0.00068620
711.72992065,0.00046465
713.65872803,0.00036837
715.58753540,0.00017814
717.51634277,0.00035855
719.44515015,0.00036592
721.37395752,0.00010345
723.30276489,0.00019241
725.23157227,0.00035305
727.16037964,0.00018830
729.08918701,0.00012485
731.01799438,0.00032956
732.94680176,0.00037991
734.87560913,0.00037665
736.80441650,0.00025174
738.73322388,0.00031162
740.66203125,0.00043003
742.59083862,0.00038590
744.51964600,0.00016585
746.44845337,0.00003191
748.37726074,0.00026187
750.30606812,0.00026267
752.23487549,0.00021597
754.16368286,0.00027865
756.09249023,0.00015374
758.02129761,0.00012960
759.95010498,0.00019485
761.87891235,-0.00003686
763.80771973,0.00003561
765.73652710,0.00029906
767.66533447,0.00008287
769.59414185,0.00015286
771.52294922,0.00038159
773.45175659,0.00025190
775.38056396,0.00031774
777.30937134,0.00034826
779.23817871,0.00029459
781.16698608,0.00035290
783.09579346,0.00019894
785.02460083,0.00013382
786.95340820,0.00034124
788.88221558,0.00041900
790.81102295,0.00029035
792.73983032,0.00036229
794.66863770,0.00030972
796.59744507,0.00019488
798.52625244,0.00041515
800.45505981,0.00031365
802.38386719,0.00028821
804.31267456,0.00035374
806.24148193,0.00014413
808.17028931,0.00019493
810.09909668,0.00028415
812.02790405,0.00043964
813.95671143,0.00045639
815.88551880,0.00001776
817.81432617,0.00011277
819.74313354,0.00056501
821.67194092,0.00014202
823.60074829,0.00009973
825.52955566,0.00066096
827.45836304,0.00037513
829.38717041,0.00023143
831.31597778,0.00032627
833.24478516,0.00052217
835.17359253,0.00067442
837.10239990,0.00028073
839.03120728,0.00034115
840.96001465,0.00056592
842.88882202,0.00076168
844.81762939,0.00060788
846.74643677,0.00028260
848.67524414,0.00051611
850.60405151,0.00034197
852.53285889,0.00026452
854.46166626,0.00034869
856.39047363,0.00022293
858.31928101,0.00046123
860.24808838,0.00052606
862.17689575,0.00046876
864.10570313,0.00036513
866.03451050,0.00031083
867.96331787,0.00058266
869.89212524,0.00058358
871.82093262,0.00064551
873.74973999,0.00051736
875.67854736,0.00014132
877.60735474,0.00046945
879.53616211,0.00041495
881.46496948,0.00026853
883.39377686,0.00062731
885.32258423,0.00034661
887.25139160,0.00031315
889.18019897,0.00052931
891.10900635,0.00038494
893.03781372,0.00039732
894.96662109,0.00046781
896.89542847,0.00067226
898.82423584,0.00047172
900.75304321,0.00030203
902.68185059,0.00056855
904.61065796,0.00041136
906.53946533,0.00037750
908.46827271,0.00050020
910.39708008,0.00067715
912.32588745,0.00063904
914.25469482,0.00032595
916.18350220,0.00071107
918.11230957,0.00095438
920.04111694,0.00076848
921.96992432,0.00067403
923.89873169,0.00056968
925.82753906,0.00071177
927.75634644,0.00084559
929.68515381,0.00083940
931.61396118,0.00078186
933.54276855,0.00069651
935.47157593,0.00077246
937.40038330,0.00086602
939.32919067,0.00082799
941.25799805,0.00088246
943.18680542,0.00090811
945.11561279,0.00082011
947.04442017,0.00104311
948.97322754,0.00103335
950.90203491,0.00085452
952.83084229,0.00099169
954.75964966,0.00067630
956.68845703,0.00064455
958.61726440,0.00092079
960.54607178,0.00082409
962.47487915,0.00099541
964.40368652,0.00085631
966.33249390,0.00093153
968.26130127,0.00118692
970.19010864,0.00093505
972.11891602,0.00113627
974.04772339,0.00115368
975.97653076,0.00112771
977.90533813,0.00128683
979.83414551,0.00111218
981.76295288,0.00124783
983.69176025,0.00135069
985.62056763,0.00134286
987.54937500,0.00153790
989.47818237,0.00178855
991.40698975,0.00179503
993.33579712,0.00173223
995.26460449,0.00195763
997.19341187,0.00210326
999.12221924,0.00232670
1001.05102661,0.00243218
1002.97983398,0.00246831
1004.90864136,0.00263169
1006.83744873,0.00258095
1008.76625610,0.00273160
1010.69506348,0.00300444
1012.62387085,0.00319646
1014.55267822,0.00342307
1016.48148560,0.00354192
1018.41029297,0.00350411
1020.33910034,0.00355886
1022.26790771,0.00386695
1024.19671509,0.00412462
1026.12552246,0.00435593
1028.05432983,0.00450445
1029.98313721,0.00439539
1031.91194458,0.00459504
1033.84075195,0.00484460
1035.76955933,0.00457894
1037.69836670,0.00468257
1039.62717407,0.00492033
1041.55598145,0.00489697
1043.48478882,0.00480700
1045.41359619,0.00450676
1047.34240356,0.00470426
1049.27121094,0.00457448
1051.20001831,0.00426800
1053.12882568,0.00444104
1055.05763306,0.00424526
1056.98644043,0.00424812
1058.91524780,0.00418926
1060.84405518,0.00408460
1062.77286255,0.00404599
1064.70166992,0.00381823
1066.63047729,0.00380111
1068.55928467,0.00361555
1070.48809204,0.00337236
1072.41689941,0.00320186
1074.34570679,0.00327129
1076.27451416,0.00301907
1078.20332153,0.00274339
1080.13212891,0.00311560
1082.06093628,0.00287970
1083.98974365,0.00253739
1085.91855103,0.00261377
1087.84735840,0.00255830
1089.77616577,0.00239169
1091.70497314,0.00247605
1093.63378052,0.00243938
1095.56258789,0.00207425
1097.49139526,0.00226889
1099.42020264,0.00221944
1101.34901001,0.00201735
1103.27781738,0.00203264
1105.20662476,0.00192513
1107.13543213,0.00214432
1109.06423950,0.00205450
1110.99304687,0.00195623
1112.92185425,0.00219519
1114.85066162,0.00217173
1116.77946899,0.00197562
1118.70827637,0.00199102
1120.63708374,0.00207832
1122.56589111,0.00214807
1124.49469849,0.00215818
1126.42350586,0.00187542
1128.35231323,0.00224561
1130.28112061,0.00240339
1132.20992798,0.00204526
1134.13873535,0.00225665
1136.06754272,0.00219998
1137.99635010,0.00247721
1139.92515747,0.00267257
1141.85396484,0.00236053
1143.78277222,0.00265932
1145.71157959,0.00285882
1147.64038696,0.00302729
1149.56919434,0.00330530
1151.49800171,0.00336465
1153.42680908,0.00359421
1155.35561646,0.00370159
1157.28442383,0.00367241
1159.21323120,0.00387085
1161.14203857,0.00395733
1163.07084595,0.00392658
1164.99965332,0.00404723
1166.92846069,0.00424616
1168.85726807,0.00444209
1170.78607544,0.00444063
1172.71488281,0.00454938
1174.64369019,0.00477851
1176.57249756,0.00484586
1178.50130493,0.00508294
1180.43011230,0.00544830
1182.35891968,0.00565414
1184.28772705,0.00578457
1186.21653442,0.00606546
1188.14534180,0.00612560
1190.07414917,0.00619676
1192.00295654,0.00670956
1193.93176392,0.00698611
1195.86057129,0.00718770
1197.78937866,0.00754908
1199.71818604,0.00793971
1201.64699341,0.00832360
1203.57580078,0.00844548
1205.50460815,0.00887206
1207.43341553,0.00932222
1209.36222290,0.00939181
1211.29103027,0.00972960
1213.21983765,0.00998788
1215.14864502,0.01016557
1217.07745239,0.01031551
1219.00625977,0.01046104
1220.93506714,0.01078507
1222.86387451,0.01047615
1224.79268188,0.01050792
1226.72148926,0.01098068
1228.65029663,0.01097878
1230.57910400,0.01116575
1232.50791138,0.01092690
1234.43671875,0.01070551
1236.36552612,0.01094749
1238.29433350,0.01094647
1240.22314087,0.01090282
1242.15194824,0.01085171
1244.08075562,0.01094019
1246.00956299,0.01071510
1247.93837036,0.01062022
1249.86717773,0.01088483
1251.79598511,0.01065473
1253.72479248,0.01051593
1255.65359985,0.01055454
1257.58240723,0.01045033
1259.51121460,0.01026415
1261.44002197,0.01013918
1263.36882935,0.00999026
1265.29763672,0.00976817
1267.22644409,0.00980187
1269.15525146,0.00959099
1271.08405884,0.00932899
1273.01286621,0.00943372
1274.94167358,0.00930174
1276.87048096,0.00903638
1278.79928833,0.00897964
1280.72809570,0.00877779
1282.65690308,0.00855737
1284.58571045,0.00845034
1286.51451782,0.00817710
1288.44332520,0.00816845
1290.37213257,0.00825832
1292.30093994,0.00803114
1294.22974731,0.00790943
1296.15855469,0.00789244
1298.08736206,0.00776575
1300.01616943,0.00794414
1301.94497681,0.00820987
1303.87378418,0.00796708
1305.80259155,0.00806314
1307.73139893,0.00835546
1309.66020630,0.00830770
1311.58901367,0.00841950
1313.51782104,0.00863486
1315.44662842,0.00895342
1317.37543579,0.00891760
1319.30424316,0.00899951
1321.23305054,0.00953932
1323.16185791,0.00975741
1325.09066528,0.01003373
1327.01947266,0.01022425
1328.94828003,0.01023226
1330.87708740,0.01047602
1332.80589478,0.01077845
1334.73470215,0.01099558
1336.66350952,0.01109927
1338.59231689,0.01089427
1340.52112427,0.01104184
1342.44993164,0.01175747
1344.37873901,0.01162529
1346.30754639,0.01152551
1348.23635376,0.01174804
1350.16516113,0.01150317
1352.09396851,0.01154504
1354.02277588,0.01136705
1355.95158325,0.01125149
1357.88039062,0.01124804
1359.80919800,0.01102738
1361.73800537,0.01052723
1363.66681274,0.01021488
1365.59562012,0.01096707
1367.52442749,0.01071131
1369.45323486,0.01037707
1371.38204224,0.01074089
1373.31084961,0.01008546
1375.23965698,0.01015575
1377.16846436,0.01062318
1379.09727173,0.01045265
1381.02607910,0.01031382
1382.95488647,0.01040783
1384.88369385,0.01042471
1386.81250122,0.00988458
1388.74130859,0.01011090
1390.67011597,0.01095591
1392.59892334,0.01050362
1394.52773071,0.00993781
1396.45653809,0.01059249
1398.38534546,0.01033548
1400.31415283,0.01044556
1402.24296021,0.01135745
1404.17176758,0.01054128
1406.10057495,0.01061157
1408.02938232,0.01081818
1409.95818970,0.01048687
1411.88699707,0.01080109
1413.81580444,0.01054094
1415.74461182,0.01070785
1417.67341919,0.00939304
1419.60222656,0.00871420
1421.53103394,0.01000619
1423.45984131,0.00955342
1425.38864868,0.00946870
1427.31745605,0.00967911
1429.24626343,0.00891321
1431.17507080,0.00855285
1433.10387817,0.00898109
1435.03268555,0.00821648
1436.96149292,0.00697593
1438.89030029,0.00811933
1440.81910767,0.00814068
1442.74791504,0.00759539
1444.67672241,0.00807249
1446.60552979,0.00738941
1448.53433716,0.00746763
1450.46314453,0.00782969
1452.39195190,0.00795177
1454.32075928,0.00811162
1456.24956665,0.00689453
1458.17837402,0.00704758
1460.10718140,0.00901178
1462.03598877,0.00954956
1463.96479614,0.00942600
1465.89360352,0.00964709
1467.82241089,0.01102304
1469.75121826,0.01188514
1471.68002563,0.01033483
1473.60883301,0.01093400
1475.53764038,0.01241966
1477.46644775,0.01321138
1479.39525513,0.01453819
1481.32406250,0.01446675
1483.25286987,0.01549567
1485.18167725,0.01602571
1487.11048462,0.01542295
1489.03929199,0.01531389
1490.96809937,0.01541517
1492.89690674,0.01806738
1494.82571411,0.01746289
1496.75452148,0.01541843
1498.68332886,0.01757772
1500.61213623,0.01803346
1502.54094360,0.01942953
1504.46975098,0.01810500
1506.39855835,0.01282924
1508.32736572,0.01627363
1510.25617310,0.01901079
1512.18498047,0.01846341
1514.11378784,0.02015016
1516.04259521,0.01778170
1517.97140259,0.01876627
1519.90020996,0.01791966
1521.82901733,0.01546725
1523.75782471,0.01930802
1525.68663208,0.01861542
1527.61543945,0.01878917
1529.54424683,0.02115854
1531.47305420,0.01999626
1533.40186157,0.01797156
1535.33066895,0.01954385
1537.25947632,0.02083922
1539.18828369,0.01438647
1541.11709106,0.01548109
1543.04589844,0.01836280
1544.97470581,0.01777608
1546.90351318,0.02147947
1548.83232056,0.01959580
1550.76112793,0.02044780
1552.68993530,0.02021541
1554.61874268,0.01833262
1556.54755005,0.01957904
1558.47635742,0.01314133
1560.40516479,0.01482582
1562.33397217,0.02145829
1564.26277954,0.02003239
1566.19158691,0.02091803
1568.12039429,0.02046850
1570.04920166,0.01798858
1571.97800903,0.02111588
1573.90681641,0.02110004
1575.83562378,0.01659905
1577.76443115,0.01909045
1579.69323853,0.02157037
1581.62204590,0.02061450
1583.55085327,0.02111713
1585.47966064,0.02086589
1587.40846802,0.02100445
1589.33727539,0.02073933
1591.26608276,0.02075130
1593.19489014,0.02083118
1595.12369751,0.02060987
1597.05250488,0.02075575
1598.98131226,0.02080012
1600.91011963,0.02087774
1602.83892700,0.02029450
1604.76773437,0.02084899
1606.69654175,0.02041571
1608.62534912,0.02031646
1610.55415649,0.02037253
1612.48296387,0.02049268
1614.41177124,0.02061681
1616.34057861,0.01672895
1618.26938599,0.01863099
1620.19819336,0.02140837
1622.12700073,0.01864115
1624.05580811,0.01921079
1625.98461548,0.02012000
1627.91342285,0.01977199
1629.84223022,0.01988326
1631.77103760,0.02131807
1633.69984497,0.01920124
1635.62865234,0.01560762
1637.55745972,0.01866998
1639.48626709,0.02042365
1641.41507446,0.01988365
1643.34388184,0.02072253
1645.27268921,0.01802140
1647.20149658,0.01575956
1649.13030396,0.02028488
1651.05911133,0.01859614
1652.98791870,0.01177542
1654.91672607,0.01678099
1656.84553345,0.02104415
1658.77434082,0.02018915
1660.70314819,0.02071911
1662.63195557,0.01865942
1664.56076294,0.01976478
1666.48957031,0.02133981
1668.41837769,0.01819647
1670.34718506,0.01775375
1672.27599243,0.02048557
1674.20479980,0.01858588
1676.13360718,0.01804169
1678.06241455,0.02070217
1679.99122192,0.01980774
1681.92002930,0.01955595
1683.84883667,0.01542441
1685.77764404,0.01589027
1687.70645142,0.02173426
1689.63525879,0.01859941
1691.56406616,0.02105495
1693.49287354,0.02073948
1695.42168091,0.01493878
1697.35048828,0.01893876
1699.27929565,0.01612409
1701.20810303,0.01476676
1703.13691040,0.02044879
1705.06571777,0.01846752
1706.99452515,0.01881022
1708.92333252,0.02059339
1710.85213989,0.01976089
1712.78094727,0.01988798
1714.70975464,0.01816610
1716.63856201,0.01622465
1718.56736938,0.01616886
1720.49617676,0.01961451
1722.42498413,0.02019633
1724.35379150,0.01865427
1726.28259888,0.02058153
1728.21140625,0.01885722
1730.14021362,0.01901959
1732.06902100,0.01821176
1733.99782837,0.01359697
1735.92663574,0.01768124
1737.85544312,0.01942800
1739.78425049,0.01702237
1741.71305786,0.01874961
1743.64186523,0.01889758
1745.57067261,0.01880115
1747.49947998,0.01888616
1749.42828735,0.01792029
1751.35709473,0.01722018
1753.28590210,0.01936832
1755.21470947,0.02009850
1757.14351685,0.01827394
1759.07232422,0.02014420
1761.00113159,0.01872305
1762.92993896,0.01843414
1764.85874634,0.02104644
1766.78755371,0.01862720
1768.71636108,0.01888073
1770.64516846,0.01856896
1772.57397583,0.01665111
1774.50278320,0.01879079
1776.43159058,0.01999629
1778.36039795,0.01966543
1780.28920532,0.01931031
1782.21801270,0.01956428
1784.14682007,0.01943779
1786.07562744,0.01917391
1788.00443481,0.02015145
1789.93324219,0.01921787
1791.86204956,0.01740974
1793.79085693,0.01839560
1795.71966431,0.01971189
1797.64847168,0.01948018
1799.57727905,0.01912766
1801.50608643,0.01873404
1803.43489380,0.01954973
1805.36370117,0.01995283
1807.29250854,0.01962565
1809.22131592,0.01971227
1811.15012329,0.01899604
1813.07893066,0.01967832
1815.00773804,0.01986526
1816.93654541,0.01956903
1818.86535278,0.01967938
1820.79416016,0.01959782
1822.72296753,0.01991953
1824.65177490,0.01860129
1826.58058228,0.01935483
1828.50938965,0.01916901
1830.43819702,0.01792623
1832.36700439,0.01967550
1834.29581177,0.01948942
1836.22461914,0.01952940
1838.15342651,0.01929535
1840.08223389,0.01954660
1842.01104126,0.01952044
1843.93984863,0.01704166
1845.86865601,0.01854374
1847.79746338,0.01938821
1849.72627075,0.01873721
1851.65507812,0.01947739
1853.58388550,0.01914165
1855.51269287,0.01940431
1857.44150024,0.01925843
1859.37030762,0.01912267
1861.29911499,0.01912558
1863.22792236,0.01897781
1865.15672974,0.01917208
1867.08553711,0.01831413
1869.01434448,0.01750702
1870.94315186,0.01827334
1872.87195923,0.01931421
1874.80076660,0.01884099
1876.72957397,0.01883306
1878.65838135,0.01897157
1880.58718872,0.01864799
1882.51599609,0.01888116
1884.44480347,0.01856122
1886.37361084,0.01875350
1888.30241821,0.01829439
1890.23122559,0.01784208
1892.16003296,0.01865154
1894.08884033,0.01825382
1896.01764771,0.01819100
1897.94645508,0.01856115
1899.87526245,0.01839428
1901.80406982,0.01839039
1903.73287720,0.01827675
1905.66168457,0.01833544
1907.59049194,0.01819569
1909.51929932,0.01814178
1911.44810669,0.01803839
1913.37691406,0.01815330
1915.30572144,0.01840942
1917.23452881,0.01733027
1919.16333618,0.01750713
1921.09214355,0.01814407
1923.02095093,0.01741859
1924.94975830,0.01794412
1926.87856567,0.01793757
1928.80737305,0.01762262
1930.73618042,0.01805832
1932.66498779,0.01788517
1934.59379517,0.01797662
1936.52260254,0.01774617
1938.45140991,0.01785089
1940.38021729,0.01774590
1942.30902466,0.01715608
1944.23783203,0.01757016
1946.16663940,0.01760397
1948.09544678,0.01768816
1950.02425415,0.01769600
1951.95306152,0.01757337
1953.88186890,0.01774182
1955.81067627,0.01742908
1957.73948364,0.01754025
1959.66829102,0.01750007
1961.59709839,0.01737808
1963.52590576,0.01763833
1965.45471313,0.01737329
1967.38352051,0.01712992
1969.31232788,0.01738823
1971.24113525,0.01750004
1973.16994263,0.01729243
1975.09875000,0.01735178
1977.02755737,0.01737961
1978.95636475,0.01739805
1980.88517212,0.01737709
1982.81397949,0.01720181
1984.74278687,0.01719760
1986.67159424,0.01697003
1988.60040161,0.01704287
1990.52920898,0.01692925
1992.45801636,0.01655439
1994.38682373,0.01701432
1996.31563110,0.01711308
1998.24443848,0.01687676
2000.17324585,0.01699780
2002.10205322,0.01688367
2004.03086060,0.01679827
2005.95966797,0.01677314
2007.88847534,0.01670830
2009.81728271,0.01669469
2011.74609009,0.01664277
2013.67489746,0.01663102
2015.60370483,0.01644887
2017.53251221,0.01637268
2019.46131958,0.01647138
2021.39012695,0.01638389
2023.31893433,0.01631261
2025.24774170,0.01630457
2027.17654907,0.01637750
2029.10535645,0.01619147
2031.03416382,0.01602993
2032.96297119,0.01616580
2034.89177856,0.01602007
2036.82058594,0.01604464
2038.74939331,0.01606075
2040.67820068,0.01586321
2042.60700806,0.01592966
2044.53581543,0.01591831
2046.46462280,0.01571542
2048.39343018,0.01572741
2050.32223755,0.01591491
2052.25104492,0.01568586
2054.17985229,0.01553264
2056.10865967,0.01566386
2058.03746704,0.01558029
2059.96627441,0.01561571
2061.89508179,0.01557107
2063.82388916,0.01542702
2065.75269653,0.01547064
2067.68150391,0.01543834
2069.61031128,0.01537107
2071.53911865,0.01543282
2073.46792603,0.01531702
2075.39673340,0.01519010
2077.32554077,0.01529978
2079.25434814,0.01520666
2081.18315552,0.01516176
2083.11196289,0.01513999
2085.04077026,0.01501807
2086.96957764,0.01505640
2088.89838501,0.01501328
2090.82719238,0.01499728
2092.75599976,0.01498351
2094.68480713,0.01492982
2096.61361450,0.01489958
2098.54242187,0.01486518
2100.47122925,0.01484358
2102.40003662,0.01480759
2104.32884399,0.01482579
2106.25765137,0.01478796
2108.18645874,0.01478156
2110.11526611,0.01469099
2112.04407349,0.01455977
2113.97288086,0.01462391
2115.90168823,0.01468796
2117.83049561,0.01467214
2119.75930298,0.01456202
2121.68811035,0.01453552
2123.61691772,0.01455730
2125.54572510,0.01451571
2127.47453247,0.01444566
2129.40333984,0.01443242
2131.33214722,0.01442421
2133.26095459,0.01426641
2135.18976196,0.01423320
2137.11856934,0.01420574
2139.04737671,0.01428029
2140.97618408,0.01432451
2142.90499146,0.01411463
2144.83379883,0.01420878
2146.76260620,0.01430342
2148.69141357,0.01422201
2150.62022095,0.01412236
2152.54902832,0.01412223
2154.47783569,0.01415953
2156.40664307,0.01400918
2158.33545044,0.01409351
2160.26425781,0.01409936
2162.19306519,0.01401928
2164.12187256,0.01395157
2166.05067993,0.01386476
2167.97948730,0.01404780
2169.90829468,0.01386906
2171.83710205,0.01388504
2173.76590942,0.01400919
2175.69471680,0.01371709
2177.62352417,0.01382383
2179.55233154,0.01378297
2181.48113892,0.01375833
2183.40994629,0.01385939
2185.33875366,0.01368250
2187.26756104,0.01371313
2189.19636841,0.01366435
2191.12517578,0.01363767
2193.05398315,0.01354811
2194.98279053,0.01352356
2196.91159790,0.01371439
2198.84040527,0.01358145
2200.76921265,0.01348692
2202.69802002,0.01343794
2204.62682739,0.01351286
2206.55563477,0.01349017
2208.48444214,0.01331020
2210.41324951,0.01339305
2212.34205688,0.01324716
2214.27086426,0.01331779
2216.19967163,0.01339561
2218.12847900,0.01320837
2220.05728638,0.01331168
2221.98609375,0.01313277
2223.91490112,0.01308446
2225.84370850,0.01330180
2227.77251587,0.01314806
2229.70132324,0.01310474
2231.63013062,0.01310549
2233.55893799,0.01296531
2235.48774536,0.01302671
2237.41655273,0.01308323
2239.34536011,0.01304284
2241.27416748,0.01303062
2243.20297485,0.01293877
2245.13178223,0.01283808
2247.06058960,0.01283231
2248.98939697,0.01285879
2250.91820435,0.01286944
2252.84701172,0.01292250
2254.77581909,0.01285085
2256.70462646,0.01270527
2258.63343384,0.01272299
2260.56224121,0.01270126
2262.49104858,0.01264236
2264.41985596,0.01260243
2266.34866333,0.01263299
2268.27747070,0.01262055
2270.20627808,0.01257966
2272.13508545,0.01263436
2274.06389282,0.01249125
2275.99270020,0.01249393
2277.92150757,0.01256371
2279.85031494,0.01242997
2281.77912231,0.01239530
2283.70792969,0.01240223
2285.63673706,0.01238885
2287.56554443,0.01230696
2289.49435181,0.01235114
2291.42315918,0.01236022
2293.35196655,0.01217506
2295.28077393,0.01215414
2297.20958130,0.01220900
2299.13838867,0.01208315
2301.06719604,0.01196915
2302.99600342,0.01210926
2304.92481079,0.01207712
2306.85361816,0.01191025
2308.78242554,0.01185316
2310.71123291,0.01173567
2312.64004028,0.01161909
2314.56884766,0.01152532
2316.49765503,0.01141462
2318.42646240,0.01132070
2320.35526978,0.01128937
2322.28407715,0.01092910
2324.21288452,0.01069999
2326.14169189,0.01075238
2328.07049927,0.01051310
2329.99930664,0.01047252
2331.92811401,0.01040797
2333.85692139,0.01029904
2335.78572876,0.01024351
2337.71453613,0.01023944
2339.64334351,0.01033432
2341.57215088,0.01016651
2343.50095825,0.01035311
2345.42976562,0.01069454
2347.35857300,0.01107338
2349.28738037,0.01127980
2351.21618774,0.01085868
2353.14499512,0.01048783
2355.07380249,0.01002323
2357.00260986,0.00964872
2358.93141724,0.00956136
2360.86022461,0.00949971
2362.78903198,0.00944909
2364.71783936,0.00947018
2366.64664673,0.00967726
2368.57545410,0.00982909
2370.50426147,0.01005384
2372.43306885,0.01026577
2374.36187622,0.01043837
2376.29068359,0.01066132
2378.21949097,0.01093309
2380.14829834,0.01111699
2382.07710571,0.01112986
2384.00591309,0.01136358
2385.93472046,0.01136814
2387.86352783,0.01121361
2389.79233521,0.01124290
2391.72114258,0.01122693
2393.64994995,0.01115913
2395.57875732,0.01114414
2397.50756470,0.01121734
2399.43637207,0.01106698
2401.36517944,0.01110983
2403.29398682,0.01117465
2405.22279419,0.01101352
2407.15160156,0.01105142
2409.08040894,0.01106264
2411.00921631,0.01106039
2412.93802368,0.01099755
2414.86683105,0.01102303
2416.79563843,0.01100969
2418.72444580,0.01091746
2420.65325317,0.01090595
2422.58206055,0.01079449
2424.51086792,0.01086349
2426.43967529,0.01084073
2428.36848267,0.01081495
2430.29729004,0.01082618
2432.22609741,0.01072652
2434.15490479,0.01072638
2436.08371216,0.01065273
2438.01251953,0.01076145
2439.94132690,0.01076508
2441.87013428,0.01066503
2443.79894165,0.01067618
2445.72774902,0.01052954
2447.65655640,0.01062462
2449.58536377,0.01070373
2451.51417114,0.01058196
2453.44297852,0.01060545
2455.37178589,0.01050752
2457.30059326,0.01040415
2459.22940063,0.01049923
2461.15820801,0.01044072
2463.08701538,0.01042679
2465.01582275,0.01053721
2466.94463013,0.01040850
2468.87343750,0.01035842
2470.80224487,0.01040987
2472.73105225,0.01026908
2474.65985962,0.01022123
2476.58866699,0.01026454
2478.51747437,0.01018959
2480.44628174,0.01027035
2482.37508911,0.01025654
2484.30389648,0.01012623
2486.23270386,0.01023603
2488.16151123,0.01015624
2490.09031860,0.01021479
2492.01912598,0.01032504
2493.94793335,0.01015592
2495.87674072,0.01019450
2497.80554810,0.01017502
2499.73435547,0.01010351
2501.66316284,0.01006972
2503.59197021,0.01005852
2505.52077759,0.01002485
2507.44958496,0.00995384
2509.37839233,0.00998601
2511.30719971,0.00991872
2513.23600708,0.00993168
2515.16481445,0.00986287
2517.09362183,0.00987034
2519.02242920,0.00992376
2520.95123657,0.00975317
2522.88004395,0.00981935
2524.80885132,0.00976033
2526.73765869,0.00969212
2528.66646606,0.00977762
2530.59527344,0.00972198
2532.52408081,0.00969829
2534.45288818,0.00974260
2536.38169556,0.00972874
2538.31050293,0.00962335
2540.23931030,0.00979908
2542.16811768,0.00971969
2544.09692505,0.00954504
2546.02573242,0.00978740
2547.95453979,0.00964187
2549.88334717,0.00955374
2551.81215454,0.00962911
2553.74096191,0.00956449
2555.66976929,0.00960741
2557.59857666,0.00952071
2559.52738403,0.00953187
2561.45619141,0.00951768
2563.38499878,0.00935125
2565.31380615,0.00937595
2567.24261353,0.00943003
2569.17142090,0.00939073
2571.10022827,0.00941337
2573.02903564,0.00943457
2574.95784302,0.00936694
2576.88665039,0.00933233
2578.81545776,0.00929946
2580.74426514,0.00929085
2582.67307251,0.00925834
2584.60187988,0.00925679
2586.53068726,0.00938371
2588.45949463,0.00934835
2590.38830200,0.00920783
2592.31710937,0.00914788
2594.24591675,0.00919417
2596.17472412,0.00916800
2598.10353149,0.00910385
2600.03233887,0.00915504
2601.96114624,0.00907848
2603.88995361,0.00910297
2605.81876099,0.00908304
2607.74756836,0.00896889
2609.67637573,0.00907194
2611.60518311,0.00902716
2613.53399048,0.00896724
2615.46279785,0.00897804
2617.39160522,0.00901269
2619.32041260,0.00899662
2621.24921997,0.00891278
2623.17802734,0.00897356
2625.10683472,0.00883659
2627.03564209,0.00883171
2628.96444946,0.00888492
2630.89325684,0.00878628
2632.82206421,0.00891612
2634.75087158,0.00885061
2636.67967895,0.00879565
2638.60848633,0.00877896
2640.53729370,0.00866866
2642.46610107,0.00875857
2644.39490845,0.00873748
2646.32371582,0.00865873
2648.25252319,0.00862622
2650.18133057,0.00866979
2652.11013794,0.00874377
2654.03894531,0.00867398
2655.96775269,0.00858893
2657.89656006,0.00852780
2659.82536743,0.00850799
2661.75417480,0.00854140
2663.68298218,0.00856023
2665.61178955,0.00851447
2667.54059692,0.00855285
2669.46940430,0.00856130
2671.39821167,0.00848030
2673.32701904,0.00853272
2675.25582642,0.00852303
2677.18463379,0.00844500
2679.11344116,0.00841981
2681.04224854,0.00838440
2682.97105591,0.00833900
2684.89986328,0.00836906
2686.82867065,0.00831784
2688.75747803,0.00818925
2690.68628540,0.00831485
2692.61509277,0.00841909
2694.54390015,0.00835399
2696.47270752,0.00827290
2698.40151489,0.00826135
2700.33032227,0.00821641
2702.25912964,0.00819575
2704.18793701,0.00832193
2706.11674438,0.00814219
2708.04555176,0.00806386
2709.97435913,0.00815416
2711.90316650,0.00806601
2713.83197388,0.00814818
2715.76078125,0.00809508
2717.68958862,0.00799064
2719.61839600,0.00808650
2721.54720337,0.00807557
2723.47601074,0.00795528
2725.40481812,0.00799201
2727.33362549,0.00804149
2729.26243286,0.00790876
2731.19124023,0.00790260
2733.12004761,0.00799509
2735.04885498,0.00803610
2736.97766235,0.00791582
2738.90646973,0.00784971
2740.83527710,0.00790546
2742.76408447,0.00786962
2744.69289185,0.00790432
2746.62169922,0.00785195
2748.55050659,0.00784390
2750.47931396,0.00776923
2752.40812134,0.00770214
2754.33692871,0.00783427
2756.26573608,0.00771758
2758.19454346,0.00769339
2760.12335083,0.00771113
2762.05215820,0.00770981
2763.98096558,0.00775616
2765.90977295,0.00762944
2767.83858032,0.00760544
2769.76738770,0.00760920
2771.69619507,0.00764462
2773.62500244,0.00758513
2775.55380981,0.00753524
2777.48261719,0.00758613
2779.41142456,0.00746671
2781.34023193,0.00746766
2783.26903931,0.00746697
2785.19784668,0.00743658
2787.12665405,0.00745334
2789.05546143,0.00740262
2790.98426880,0.00740469
2792.91307617,0.00738454
2794.84188354,0.00733965
2796.77069092,0.00730972
2798.69949829,0.00737358
2800.62830566,0.00739240
2802.55711304,0.00732127
2804.48592041,0.00734275
2806.41472778,0.00728676
2808.34353516,0.00722105
2810.27234253,0.00729008
2812.20114990,0.00723813
2814.12995728,0.00712898
2816.05876465,0.00722332
2817.98757202,0.00714346
2819.91637939,0.00703489
2821.84518677,0.00719299
2823.77399414,0.00711122
2825.70280151,0.00707097
2827.63160889,0.00714103
2829.56041626,0.00700825
2831.48922363,0.00700519
2833.41803101,0.00700435
2835.34683838,0.00699840
2837.27564575,0.00705485
2839.20445312,0.00694211
2841.13326050,0.00690536
2843.06206787,0.00696701
2844.99087524,0.00692239
2846.91968262,0.00685771
2848.84848999,0.00675861
2850.77729736,0.00673515
2852.70610474,0.00679346
2854.63491211,0.00678663
2856.56371948,0.00682838
2858.49252686,0.00676192
2860.42133423,0.00665875
2862.35014160,0.00676217
2864.27894897,0.00681563
2866.20775635,0.00671338
2868.13656372,0.00656124
2870.06537109,0.00662623
2871.99417847,0.00674032
2873.92298584,0.00659479
2875.85179321,0.00663366
2877.78060059,0.00673819
2879.70940796,0.00661787
2881.63821533,0.00652195
2883.56702270,0.00643745
2885.49583008,0.00650637
2887.42463745,0.00662837
2889.35344482,0.00646733
2891.28225220,0.00639559
2893.21105957,0.00650109
2895.13986694,0.00643453
2897.06867432,0.00638943
2898.99748169,0.00644624
2900.92628906,0.00644534
2902.85509644,0.00640538
2904.78390381,0.00635971
2906.71271118,0.00638573
2908.64151855,0.00635013
2910.57032593,0.00634140
2912.49913330,0.00640159
2914.42794067,0.00628574
2916.35674805,0.00628657
2918.28555542,0.00628456
2920.21436279,0.00620849
2922.14317017,0.00630322
2924.07197754,0.00623197
2926.00078491,0.00621875
2927.92959229,0.00627209
2929.85839966,0.00618760
2931.78720703,0.00620412
2933.71601440,0.00609551
2935.64482178,0.00607648
2937.57362915,0.00616436
2939.50243652,0.00607087
2941.43124390,0.00608455
2943.36005127,0.00609476
2945.28885864,0.00611029
2947.21766602,0.00612349
2949.14647339,0.00601137
2951.07528076,0.00603188
2953.00408813,0.00603824
2954.93289551,0.00599050
2956.86170288,0.00598754
2958.79051025,0.00600504
2960.71931763,0.00604113
2962.64812500,0.00595190
2964.57693237,0.00591795
2966.50573975,0.00596939
2968.43454712,0.00596927
2970.36335449,0.00591727
2972.29216187,0.00585358
2974.22096924,0.00591877
2976.14977661,0.00594098
2978.07858398,0.00592670
2980.00739136,0.00589033
2981.93619873,0.00578978
2983.86500610,0.00581901
2985.79381348,0.00586665
2987.72262085,0.00593881
2989.65142822,0.00591683
2991.58023560,0.00574558
2993.50904297,0.00574471
2995.43785034,0.00581317
2997.36665771,0.00579906
2999.29546509,0.00576983
3001.22427246,0.00575818
3003.15307983,0.00573324
3005.08188721,0.00574570
3007.01069458,0.00577738
3008.93950195,0.00576048
3010.86830933,0.00572735
3012.79711670,0.00565150
3014.72592407,0.00565624
3016.65473145,0.00565444
3018.58353882,0.00561598
3020.51234619,0.00566132
3022.44115356,0.00564099
3024.36996094,0.00561764
3026.29876831,0.00557876
3028.22757568,0.00558613
3030.15638306,0.00566287
3032.08519043,0.00554931
3034.01399780,0.00546537
3035.94280518,0.00546870
3037.87161255,0.00542410
3039.80041992,0.00550404
3041.72922729,0.00551042
3043.65803467,0.00544750
3045.58684204,0.00551163
3047.51564941,0.00545522
3049.44445679,0.00543323
3051.37326416,0.00544335
3053.30207153,0.00534345
3055.23087891,0.00537222
3057.15968628,0.00532665
3059.08849365,0.00530496
3061.01730103,0.00534565
3062.94610840,0.00527540
3064.87491577,0.00533178
3066.80372314,0.00532035
3068.73253052,0.00527121
3070.66133789,0.00526332
3072.59014526,0.00518470
3074.51895264,0.00526263
3076.44776001,0.00527241
3078.37656738,0.00516870
3080.30537476,0.00520980
3082.23418213,0.00517154
3084.16298950,0.00510083
3086.09179687,0.00517373
3088.02060425,0.00518665
3089.94941162,0.00517662
3091.87821899,0.00519884
3093.80702637,0.00512295
3095.73583374,0.00505867
3097.66464111,0.00504604
3099.59344849,0.00504399
3101.52225586,0.00511074
3103.45106323,0.00509600
3105.37987061,0.00501718
3107.30867798,0.00505920
3109.23748535,0.00499517
3111.16629272,0.00494827
3113.09510010,0.00501348
3115.02390747,0.00489286
3116.95271484,0.00487277
3118.88152222,0.00493138
3120.81032959,0.00487414
3122.73913696,0.00481970
3124.66794434,0.00478831
3126.59675171,0.00484318
3128.52555908,0.00489197
3130.45436645,0.00493504
3132.38317383,0.00485016
3134.31198120,0.00475701
3136.24078857,0.00482365
3138.16959595,0.00480803
3140.09840332,0.00481385
3142.02721069,0.00478900
3143.95601807,0.00472487
3145.88482544,0.00473027
3147.81363281,0.00476152
3149.74244019,0.00481374
3151.67124756,0.00476637
3153.60005493,0.00467805
3155.52886230,0.00464212
3157.45766968,0.00464543
3159.38647705,0.00461533
3161.31528442,0.00462633
3163.24409180,0.00460377
3165.17289917,0.00453401
3167.10170654,0.00456048
3169.03051392,0.00448171
3170.95932129,0.00444151
3172.88812866,0.00441691
3174.81693604,0.00441375
3176.74574341,0.00442986
3178.67455078,0.00432325
3180.60335815,0.00444768
3182.53216553,0.00446931
3184.46097290,0.00440930
3186.38978027,0.00447773
3188.31858765,0.00435643
3190.24739502,0.00440785
3192.17620239,0.00449342
3194.10500977,0.00435513
3196.03381714,0.00440990
3197.96262451,0.00447040
3199.89143188,0.00430108
3201.82023926,0.00434763
3203.74904663,0.00439622
3205.67785400,0.00423722
3207.60666138,0.00429309
3209.53546875,0.00430479
3211.46427612,0.00421107
3213.39308350,0.00422404
3215.32189087,0.00427083
3217.25069824,0.00419206
3219.17950562,0.00403389
3221.10831299,0.00414981
3223.03712036,0.00420709
3224.96592773,0.00411279
3226.89473511,0.00416754
3228.82354248,0.00415611
3230.75234985,0.00407994
3232.68115723,0.00415791
3234.60996460,0.00423183
3236.53877197,0.00413713
3238.46757935,0.00413262
3240.39638672,0.00412296
3242.32519409,0.00400305
3244.25400146,0.00401609
3246.18280884,0.00410767
3248.11161621,0.00411635
3250.04042358,0.00407652
3251.96923096,0.00410270
3253.89803833,0.00403784
3255.82684570,0.00400837
3257.75565308,0.00403019
3259.68446045,0.00397574
3261.61326782,0.00404732
3263.54207520,0.00398499
3265.47088257,0.00396594
3267.39968994,0.00405527
3269.32849731,0.00391707
3271.25730469,0.00395504
3273.18611206,0.00406581
3275.11491943,0.00396725
3277.04372681,0.00394545
3278.97253418,0.00403440
3280.90134155,0.00408543
3282.83014893,0.00401022
3284.75895630,0.00388138
3286.68776367,0.00392445
3288.61657104,0.00398774
3290.54537842,0.00392016
3292.47418579,0.00393948
3294.40299316,0.00393982
3296.33180054,0.00390335
3298.26060791,0.00390177
3300.18941528,0.00386662
3302.11822266,0.00387633
3304.04703003,0.00386864
3305.97583740,0.00388294
3307.90464478,0.00387555
3309.83345215,0.00389098
3311.76225952,0.00386186
3313.69106689,0.00373148
3315.61987427,0.00385633
3317.54868164,0.00381174
3319.47748901,0.00377689
3321.40629639,0.00395893
3323.33510376,0.00379630
3325.26391113,0.00379691
3327.19271851,0.00378730
3329.12152588,0.00371139
3331.05033325,0.00384498
3332.97914062,0.00379945
3334.90794800,0.00385954
3336.83675537,0.00377426
3338.76556274,0.00372288
3340.69437012,0.00383681
3342.62317749,0.00375396
3344.55198486,0.00384757
3346.48079224,0.00373611
3348.40959961,0.00362091
3350.33840698,0.00373164
3352.26721436,0.00373200
3354.19602173,0.00373138
3356.12482910,0.00362898
3358.05363647,0.00366221
3359.98244385,0.00370889
3361.91125122,0.00368283
3363.84005859,0.00368715
3365.76886597,0.00366570
3367.69767334,0.00366216
3369.62648071,0.00357721
3371.55528809,0.00363156
3373.48409546,0.00368133
3375.41290283,0.00368929
3377.34171020,0.00364778
3379.27051758,0.00362708
3381.19932495,0.00371198
3383.12813232,0.00353957
3385.05693970,0.00358988
3386.98574707,0.00363847
3388.91455444,0.00348602
3390.84336182,0.00353891
3392.77216919,0.00346167
3394.70097656,0.00346408
3396.62978394,0.00350522
3398.55859131,0.00344239
3400.48739868,0.00351413
3402.41620605,0.00355184
3404.34501343,0.00350535
3406.27382080,0.00347662
3408.20262817,0.00343149
3410.13143555,0.00341686
3412.06024292,0.00344740
3413.98905029,0.00336899
3415.91785767,0.00338349
3417.84666504,0.00343795
3419.77547241,0.00340283
3421.70427979,0.00341317
3423.63308716,0.00342488
3425.56189453,0.00346233
3427.49070190,0.00335710
3429.41950928,0.00332228
3431.34831665,0.00341175
3433.27712402,0.00337001
3435.20593140,0.00335672
3437.13473877,0.00329818
3439.06354614,0.00330950
3440.99235352,0.00336682
3442.92116089,0.00329420
3444.84996826,0.00329374
3446.77877563,0.00328142
3448.70758301,0.00329018
3450.63639038,0.00336685
3452.56519775,0.00325918
3454.49400513,0.00326467
3456.42281250,0.00331777
3458.35161987,0.00321197
3460.28042725,0.00331667
3462.20923462,0.00331828
3464.13804199,0.00327619
3466.06684937,0.00330219
3467.99565674,0.00326170
3469.92446411,0.00334324
3471.85327148,0.00329583
3473.78207886,0.00325222
3475.71088623,0.00319302
3477.63969360,0.00327863
3479.56850098,0.00333441
3481.49730835,0.00309737
3483.42611572,0.00319868
3485.35492310,0.00321664
3487.28373047,0.00319776
3489.21253784,0.00325101
3491.14134521,0.00317221
3493.07015259,0.00326865
3494.99895996,0.00322843
3496.92776733,0.00314884
3498.85657471,0.00316583
3500.78538208,0.00321343
3502.71418945,0.00315173
3504.64299683,0.00318051
3506.57180420,0.00326045
3508.50061157,0.00305161
3510.42941895,0.00306656
3512.35822632,0.00306341
3514.28703369,0.00308339
3516.21584106,0.00321500
3518.14464844,0.00317491
3520.07345581,0.00321783
3522.00226318,0.00306386
3523.93107056,0.00295491
3525.85987793,0.00302463
3527.78868530,0.00300757
3529.71749268,0.00303659
3531.64630005,0.00306893
3533.57510742,0.00311869
3535.50391479,0.00313388
3537.43272217,0.00309325
3539.36152954,0.00314940
3541.29033691,0.00314488
3543.21914429,0.00299482
3545.14795166,0.00297640
3547.07675903,0.00296731
3549.00556641,0.00302390
3550.93437378,0.00302514
3552.86318115,0.00291092
3554.79198853,0.00311938
3556.72079590,0.00318468
3558.64960327,0.00312949
3560.57841064,0.00307165
3562.50721802,0.00302463
3564.43602539,0.00307726
3566.36483276,0.00270641
3568.29364014,0.00269043
3570.22244751,0.00309360
3572.15125488,0.00302183
3574.08006226,0.00296226
3576.00886963,0.00300502
3577.93767700,0.00291567
3579.86648437,0.00304540
3581.79529175,0.00305942
3583.72409912,0.00297074
3585.65290649,0.00295771
3587.58171387,0.00260888
3589.51052124,0.00275078
3591.43932861,0.00305377
3593.36813599,0.00282936
3595.29694336,0.00286771
3597.22575073,0.00294485
3599.15455811,0.00289888
3601.08336548,0.00288895
3603.01217285,0.00301082
3604.94098022,0.00307551
3606.86978760,0.00287967
3608.79859497,0.00270419
3610.72740234,0.00279979
3612.65620972,0.00287391
3614.58501709,0.00274986
3616.51382446,0.00299689
3618.44263184,0.00267934
3620.37143921,0.00255383
3622.30024658,0.00302916
3624.22905395,0.00292373
3626.15786133,0.00311106
3628.08666870,0.00248063
3630.01547607,0.00222626
3631.94428345,0.00303387
3633.87309082,0.00289188
3635.80189819,0.00296959
3637.73070557,0.00300560
3639.65951294,0.00294880
3641.58832031,0.00300731
3643.51712769,0.00293667
3645.44593506,0.00294484
3647.37474243,0.00259351
3649.30354980,0.00235988
3651.23235718,0.00233172
3653.16116455,0.00290968
3655.08997192,0.00289958
3657.01877930,0.00250518
3658.94758667,0.00297880
3660.87639404,0.00292833
3662.80520142,0.00292233
3664.73400879,0.00288255
3666.66281616,0.00292857
3668.59162354,0.00278576
3670.52043091,0.00222689
3672.44923828,0.00278218
3674.37804565,0.00253860
3676.30685303,0.00219840
3678.23566040,0.00280972
3680.16446777,0.00270108
3682.09327515,0.00272273
3684.02208252,0.00283184
3685.95088989,0.00277007
3687.87969727,0.00252874
3689.80850464,0.00232416
3691.73731201,0.00257851
3693.66611938,0.00272183
3695.59492676,0.00285661
3697.52373413,0.00279448
3699.45254150,0.00272740
3701.38134888,0.00261154
3703.31015625,0.00257893
3705.23896362,0.00288317
3707.16777100,0.00273600
3709.09657837,0.00267575
3711.02538574,0.00242088
3712.95419312,0.00230635
3714.88300049,0.00276827
3716.81180786,0.00267540
3718.74061523,0.00270209
3720.66942261,0.00261341
3722.59822998,0.00251048
3724.52703735,0.00257328
3726.45584473,0.00241417
3728.38465210,0.00274509
3730.31345947,0.00260764
3732.24226685,0.00235390
3734.17107422,0.00231070
3736.09988159,0.00212545
3738.02868896,0.00234253
3739.95749634,0.00253069
3741.88630371,0.00264631
3743.81511108,0.00201876
3745.74391846,0.00184919
3747.67272583,0.00253192
3749.60153320,0.00211555
3751.53034058,0.00192645
3753.45914795,0.00227052
3755.38795532,0.00248724
3757.31676270,0.00261652
3759.24557007,0.00230911
3761.17437744,0.00247544
3763.10318481,0.00267921
3765.03199219,0.00245512
3766.96079956,0.00251999
3768.88960693,0.00245656
3770.81841431,0.00239759
3772.74722168,0.00255868
3774.67602905,0.00254498
3776.60483643,0.00259960
3778.53364380,0.00247640
3780.46245117,0.00241275
3782.39125854,0.00259195
3784.32006592,0.00244425
3786.24887329,0.00244169
3788.17768066,0.00258582
3790.10648804,0.00255094
3792.03529541,0.00253001
3793.96410278,0.00258399
3795.89291016,0.00239143
3797.82171753,0.00236668
3799.75052490,0.00238827
3801.67933228,0.00187667
3803.60813965,0.00232014
3805.53694702,0.00246583
3807.46575439,0.00201761
3809.39456177,0.00251069
3811.32336914,0.00250602
3813.25217651,0.00249912
3815.18098389,0.00223113
3817.10979126,0.00199670
3819.03859863,0.00237541
3820.96740601,0.00200584
3822.89621338,0.00210499
3824.82502075,0.00239383
3826.75382812,0.00233003
3828.68263550,0.00238003
3830.61144287,0.00236436
3832.54025024,0.00234206
3834.46905762,0.00220389
3836.39786499,0.00218322
3838.32667236,0.00195390
3840.25547974,0.00214138
3842.18428711,0.00228539
3844.11309448,0.00204362
3846.04190186,0.00236358
3847.97070923,0.00236042
3849.89951660,0.00228378
3851.82832397,0.00202356
3853.75713135,0.00156255
3855.68593872,0.00193093
3857.61474609,0.00234235
3859.54355347,0.00226287
3861.47236084,0.00223186
3863.40116821,0.00219997
3865.32997559,0.00202250
3867.25878296,0.00218057
3869.18759033,0.00198970
3871.11639770,0.00189983
3873.04520508,0.00226608
3874.97401245,0.00199799
3876.90281982,0.00225314
3878.83162720,0.00230963
3880.76043457,0.00188881
3882.68924194,0.00222433
3884.61804932,0.00199477
3886.54685669,0.00186799
3888.47566406,0.00223716
3890.40447144,0.00201047
3892.33327881,0.00189947
3894.26208618,0.00207866
3896.19089355,0.00214187
3898.11970093,0.00203443
3900.04850830,0.00194674
3901.97731567,0.00200692
3903.90612305,0.00194036
3905.83493042,0.00196761
3907.76373779,0.00216553
3909.69254517,0.00218743
3911.62135254,0.00218340
3913.55015991,0.00219759
3915.47896728,0.00212971
3917.40777466,0.00208493
3919.33658203,0.00205932
3921.26538940,0.00205815
3923.19419678,0.00204764
3925.12300415,0.00201436
3927.05181152,0.00203412
3928.98061890,0.00206043
3930.90942627,0.00196039
3932.83823364,0.00192684
3934.76704102,0.00209433
3936.69584839,0.00209908
3938.62465576,0.00202733
3940.55346313,0.00205238
3942.48227051,0.00201982
3944.41107788,0.00208637
3946.33988525,0.00206078
3948.26869263,0.00191025
3950.19750000,0.00200490
3952.12630737,0.00202653
3954.05511475,0.00197488
3955.98392212,0.00206237
3957.91272949,0.00202948
3959.84153687,0.00195840
3961.77034424,0.00197917
3963.69915161,0.00201833
3965.62795898,0.00194570
3967.55676636,0.00196559
3969.48557373,0.00207729
3971.41438110,0.00198849
3973.34318848,0.00198968
3975.27199585,0.00199945
3977.20080322,0.00192159
3979.12961060,0.00191255
3981.05841797,0.00192328
3982.98722534,0.00194426
3984.91603271,0.00190600
3986.84484009,0.00196476
3988.77364746,0.00199177
3990.70245483,0.00191520
3992.63126221,0.00191740
3994.56006958,0.00192430
3996.48887695,0.00189763
3998.41768433,0.00186781
4000.34649170,0.00191319
4002.27529907,0.00191726
4004.20410645,0.00187695
4006.13291382,0.00187685
4008.06172119,0.00189345
4009.99052856,0.00185014
4011.91933594,0.00183150
4013.84814331,0.00190797
4015.77695068,0.00185463
4017.70575806,0.00190470
4019.63456543,0.00192164
4021.56337280,0.00181265
4023.49218018,0.00188045
4025.42098755,0.00192017
4027.34979492,0.00192395
4029.27860229,0.00189738
4031.20740967,0.00189820
4033.13621704,0.00185724
4035.06502441,0.00180549
4036.99383179,0.00186043
4038.92263916,0.00184234
4040.85144653,0.00186381
4042.78025391,0.00181910
4044.70906128,0.00178328
4046.63786865,0.00181980
4048.56667603,0.00178289
4050.49548340,0.00176221
4052.42429077,0.00177918
4054.35309814,0.00187422
4056.28190552,0.00184716
4058.21071289,0.00167085
4060.13952026,0.00163171
4062.06832764,0.00177904
4063.99713501,0.00178926
4065.92594238,0.00170892
4067.85474976,0.00178496
4069.78355713,0.00185939
4071.71236450,0.00180329
4073.64117187,0.00165187
4075.56997925,0.00175092
4077.49878662,0.00175185
4079.42759399,0.00164694
4081.35640137,0.00179432
4083.28520874,0.00167527
4085.21401611,0.00158540
4087.14282349,0.00169211
4089.07163086,0.00176370
4091.00043823,0.00174917
4092.92924561,0.00169823
4094.85805298,0.00177686
4096.78686035,0.00171844
4098.71566772,0.00161441
4100.64447510,0.00160764
4102.57328247,0.00171512
4104.50208984,0.00168430
4106.43089722,0.00163216
4108.35970459,0.00169598
4110.28851196,0.00160882
4112.21731934,0.00169748
4114.14612671,0.00162884
4116.07493408,0.00160205
4118.00374145,0.00164488
4119.93254883,0.00150727
4121.86135620,0.00169691
4123.79016357,0.00165282
4125.71897095,0.00164557
4127.64777832,0.00173443
4129.57658569,0.00156850
4131.50539307,0.00164991
4133.43420044,0.00167383
4135.36300781,0.00161161
4137.29181519,0.00162233
4139.22062256,0.00168311
4141.14942993,0.00164403
4143.07823730,0.00153991
4145.00704468,0.00160485
4146.93585205,0.00163007
4148.86465942,0.00158464
4150.79346680,0.00148566
4152.72227417,0.00156000
4154.65108154,0.00157356
4156.57988892,0.00146960
4158.50869629,0.00161495
4160.43750366,0.00157768
4162.36631103,0.00149874
4164.29511841,0.00154639
4166.22392578,0.00158479
4168.15273315,0.00159121
4170.08154053,0.00145257
4172.01034790,0.00154099
4173.93915527,0.00160525
4175.86796265,0.00145608
4177.79677002,0.00152967
4179.72557739,0.00150893
4181.65438477,0.00138836
4183.58319214,0.00149914
4185.51199951,0.00150238
4187.44080688,0.00146037
4189.36961426,0.00149721
4191.29842163,0.00143163
4193.22722900,0.00146161
4195.15603638,0.00144279
4197.08484375,0.00140303
4199.01365112,0.00152276
4200.94245850,0.00147930
4202.87126587,0.00142059
4204.80007324,0.00147762
4206.72888062,0.00147494
4208.65768799,0.00142077
4210.58649536,0.00139076
4212.51530273,0.00140480
4214.44411011,0.00144356
4216.37291748,0.00153125
4218.30172485,0.00148310
4220.23053223,0.00142657
4222.15933960,0.00139779
4224.08814697,0.00133899
4226.01695435,0.00143512
4227.94576172,0.00136024
4229.87456909,0.00133361
4231.80337646,0.00140402
4233.73218384,0.00133806
4235.66099121,0.00140783
4237.58979858,0.00139183
4239.51860596,0.00140820
4241.44741333,0.00142445
4243.37622070,0.00135300
4245.30502808,0.00135790
4247.23383545,0.00132646
4249.16264282,0.00135478
4251.09145020,0.00126947
4253.02025757,0.00129501
4254.94906494,0.00136106
4256.87787231,0.00132858
4258.80667969,0.00143324
4260.73548706,0.00129256
4262.66429443,0.00124334
4264.59310181,0.00132896
4266.52190918,0.00126425
4268.45071655,0.00129865
4270.37952393,0.00134108
4272.30833130,0.00133867
4274.23713867,0.00130933
4276.16594604,0.00132917
4278.09475342,0.00128502
4280.02356079,0.00122742
4281.95236816,0.00132381
4283.88117554,0.00135201
4285.80998291,0.00124169
4287.73879028,0.00122051
4289.66759766,0.00129937
4291.59640503,0.00124321
4293.52521240,0.00126963
4295.45401978,0.00132160
4297.38282715,0.00129387
4299.31163452,0.00128838
4301.24044189,0.00122458
4303.16924927,0.00125496
4305.09805664,0.00125302
4307.02686401,0.00125892
4308.95567139,0.00126782
4310.88447876,0.00125305
4312.81328613,0.00129486
4314.74209351,0.00123161
4316.67090088,0.00120929
4318.59970825,0.00120549
4320.52851562,0.00122385
4322.45732300,0.00121467
4324.38613037,0.00119533
4326.31493774,0.00122074
4328.24374512,0.00121178
4330.17255249,0.00124884
4332.10135986,0.00121702
4334.03016724,0.00125923
4335.95897461,0.00121727
4337.88778198,0.00113345
4339.81658936,0.00120497
4341.74539673,0.00125121
4343.67420410,0.00129580
4345.60301147,0.00121159
4347.53181885,0.00122750
4349.46062622,0.00121242
4351.38943359,0.00120894
4353.31824097,0.00125617
4355.24704834,0.00112562
4357.17585571,0.00120175
4359.10466309,0.00114829
4361.03347046,0.00115428
4362.96227783,0.00123486
4364.89108520,0.00111686
4366.81989258,0.00117489
4368.74869995,0.00117919
4370.67750732,0.00123397
4372.60631470,0.00116841
4374.53512207,0.00110682
4376.46392944,0.00121006
4378.39273682,0.00109709
4380.32154419,0.00116089
4382.25035156,0.00118471
4384.17915894,0.00107643
4386.10796631,0.00114573
4388.03677368,0.00118055
4389.96558105,0.00121969
4391.89438843,0.00122276
4393.82319580,0.00112935
4395.75200317,0.00112250
4397.68081055,0.00116702
4399.60961792,0.00115397
4401.53842529,0.00114011
4403.46723267,0.00110096
4405.39604004,0.00111712
4407.32484741,0.00114127
4409.25365478,0.00107838
4411.18246216,0.00109866
4413.11126953,0.00111649
4415.04007690,0.00110136
4416.96888428,0.00109261
4418.89769165,0.00104753
4420.82649902,0.00105739
4422.75530640,0.00109441
4424.68411377,0.00107610
4426.61292114,0.00104910
4428.54172852,0.00101882
4430.47053589,0.00103432
4432.39934326,0.00109499
4434.32815063,0.00107461
4436.25695801,0.00109454
4438.18576538,0.00108140
4440.11457275,0.00106890
4442.04338013,0.00109908
4443.97218750,0.00101887
4445.90099487,0.00104999
4447.82980225,0.00104197
4449.75860962,0.00101878
4451.68741699,0.00104550
4453.61622437,0.00101254
4455.54503174,0.00106569
4457.47383911,0.00107563
4459.40264648,0.00106909
4461.33145386,0.00098596
4463.26026123,0.00099883
4465.18906860,0.00104728
4467.11787598,0.00092811
4469.04668335,0.00101307
4470.97549072,0.00105083
4472.90429810,0.00096540
4474.83310547,0.00094110
4476.76191284,0.00101839
4478.69072021,0.00103793
4480.61952759,0.00094822
4482.54833496,0.00107201
4484.47714233,0.00098975
4486.40594971,0.00088161
4488.33475708,0.00098225
4490.26356445,0.00095682
4492.19237183,0.00104093
4494.12117920,0.00100396
4496.04998657,0.00090284
4497.97879395,0.00100163
4499.90760132,0.00094672
4501.83640869,0.00092225
4503.76521606,0.00102815
4505.69402344,0.00093907
4507.62283081,0.00093889
4509.55163818,0.00101835
4511.48044556,0.00090689
4513.40925293,0.00089971
4515.33806030,0.00095833
4517.26686768,0.00096760
4519.19567505,0.00090378
4521.12448242,0.00087544
4523.05328979,0.00096253
4524.98209717,0.00091994
4526.91090454,0.00091508
4528.83971191,0.00088038
4530.76851929,0.00082820
4532.69732666,0.00088194
4534.62613403,0.00086994
4536.55494141,0.00090096
4538.48374878,0.00087572
4540.41255615,0.00088606
4542.34136353,0.00093407
4544.27017090,0.00088577
4546.19897827,0.00087823
4548.12778564,0.00087649
4550.05659302,0.00091309
4551.98540039,0.00086196
4553.91420776,0.00085164
4555.84301514,0.00092561
4557.77182251,0.00089484
4559.70062988,0.00089835
4561.62943726,0.00083480
4563.55824463,0.00083466
4565.48705200,0.00089776
4567.41585937,0.00086881
4569.34466675,0.00087286
4571.27347412,0.00084903
4573.20228149,0.00090460
4575.13108887,0.00097063
4577.05989624,0.00091740
4578.98870361,0.00085477
4580.91751099,0.00080805
4582.84631836,0.00079144
4584.77512573,0.00083706
4586.70393311,0.00089138
4588.63274048,0.00084026
4590.56154785,0.00083453
4592.49035522,0.00082699
4594.41916260,0.00079600
4596.34796997,0.00083521
4598.27677734,0.00083227
4600.20558472,0.00086667
4602.13439209,0.00079012
4604.06319946,0.00076308
4605.99200684,0.00084665
4607.92081421,0.00078912
4609.84962158,0.00081914
4611.77842895,0.00081600
4613.70723633,0.00077313
4615.63604370,0.00076418
4617.56485107,0.00076561
4619.49365845,0.00079693
4621.42246582,0.00074906
4623.35127319,0.00080606
4625.28008057,0.00080261
4627.20888794,0.00074315
4629.13769531,0.00076905
4631.06650269,0.00076117
4632.99531006,0.00079422
4634.92411743,0.00079300
4636.85292480,0.00080337
4638.78173218,0.00080565
4640.71053955,0.00080324
4642.63934692,0.00082004
4644.56815430,0.00078630
4646.49696167,0.00077934
4648.42576904,0.00073717
4650.35457642,0.00075798
4652.28338379,0.00082844
4654.21219116,0.00084918
4656.14099853,0.00084292
4658.06980591,0.00076556
4659.99861328,0.00075001
4661.92742065,0.00080781
4663.85622803,0.00081001
4665.78503540,0.00081943
4667.71384277,0.00082082
4669.64265015,0.00073785
4671.57145752,0.00075099
4673.50026489,0.00075059
4675.42907227,0.00073866
4677.35787964,0.00082989
4679.28668701,0.00074487
4681.21549438,0.00069485
4683.14430176,0.00072233
4685.07310913,0.00071507
4687.00191650,0.00073371
4688.93072388,0.00071470
4690.85953125,0.00071999
4692.78833862,0.00066176
4694.71714600,0.00067915
4696.64595337,0.00070658
4698.57476074,0.00075815
4700.50356812,0.00081286
4702.43237549,0.00066828
4704.36118286,0.00072236
4706.28999023,0.00072892
4708.21879761,0.00066365
4710.14760498,0.00068468
4712.07641235,0.00063282
4714.00521973,0.00073560
4715.93402710,0.00068684
4717.86283447,0.00065979
4719.79164185,0.00071507
4721.72044922,0.00061353
4723.64925659,0.00068364
4725.57806396,0.00071790
4727.50687134,0.00070482
4729.43567871,0.00068578
4731.36448608,0.00066016
4733.29329346,0.00073918
4735.22210083,0.00067661
4737.15090820,0.00066642
4739.07971558,0.00072260
4741.00852295,0.00066702
4742.93733032,0.00067236
4744.86613770,0.00070850
4746.79494507,0.00070167
4748.72375244,0.00066503
4750.65255981,0.00064281
4752.58136719,0.00062057
4754.51017456,0.00066275
4756.43898193,0.00076440
4758.36778931,0.00070696
4760.29659668,0.00061880
4762.22540405,0.00068265
4764.15421143,0.00072272
4766.08301880,0.00062276
4768.01182617,0.00060040
4769.94063354,0.00068891
4771.86944092,0.00067761
4773.79824829,0.00067683
4775.72705566,0.00070606
4777.65586304,0.00066428
4779.58467041,0.00064635
4781.51347778,0.00063112
4783.44228516,0.00061418
4785.37109253,0.00063870
4787.29989990,0.00059658
4789.22870728,0.00058409
4791.15751465,0.00067663
4793.08632202,0.00065432
4795.01512939,0.00062300
4796.94393677,0.00062650
4798.87274414,0.00058846
4800.80155151,0.00061967
4802.73035889,0.00059463
4804.65916626,0.00059157
4806.58797363,0.00062482
4808.51678101,0.00059482
4810.44558838,0.00062057
4812.37439575,0.00058615
4814.30320312,0.00053080
4816.23201050,0.00063045
4818.16081787,0.00070140
4820.08962524,0.00060059
4822.01843262,0.00055857
4823.94723999,0.00058276
4825.87604736,0.00058626
4827.80485474,0.00059163
4829.73366211,0.00054370
4831.66246948,0.00055853
4833.59127686,0.00055305
4835.52008423,0.00054984
4837.44889160,0.00055897
4839.37769897,0.00053261
4841.30650635,0.00057128
4843.23531372,0.00056405
4845.16412109,0.00062054
4847.09292847,0.00064933
4849.02173584,0.00055435
4850.95054321,0.00049429
4852.87935059,0.00058159
4854.80815796,0.00057536
4856.73696533,0.00040651
4858.66577270,0.00059143
4860.59458008,0.00060309
4862.52338745,0.00051073
4864.45219482,0.00063822
4866.38100220,0.00045608
4868.30980957,0.00050411
4870.23861694,0.00059916
4872.16742432,0.00049573
4874.09623169,0.00057141
4876.02503906,0.00054739
4877.95384644,0.00049105
4879.88265381,0.00051159
4881.81146118,0.00054090
4883.74026855,0.00052848
4885.66907593,0.00056731
4887.59788330,0.00058183
4889.52669067,0.00051988
4891.45549805,0.00056104
4893.38430542,0.00058522
4895.31311279,0.00056757
4897.24192017,0.00049341
4899.17072754,0.00044855
4901.09953491,0.00044395
4903.02834228,0.00050154
4904.95714966,0.00058636
4906.88595703,0.00053355
4908.81476440,0.00052639
4910.74357178,0.00050063
4912.67237915,0.00051739
4914.60118652,0.00054692
4916.52999390,0.00047920
4918.45880127,0.00050656
4920.38760864,0.00052709
4922.31641602,0.00053197
4924.24522339,0.00051998
4926.17403076,0.00050960
4928.10283813,0.00050681
4930.03164551,0.00046979
4931.96045288,0.00047720
4933.88926025,0.00047118
4935.81806763,0.00050381
4937.74687500,0.00052780
4939.67568237,0.00049358
4941.60448975,0.00053488
4943.53329712,0.00055033
4945.46210449,0.00050635
4947.39091187,0.00050219
4949.31971924,0.00045189
4951.24852661,0.00041547
4953.17733398,0.00046654
4955.10614136,0.00050419
4957.03494873,0.00051189
4958.96375610,0.00048471
4960.89256348,0.00048616
4962.82137085,0.00047849
4964.75017822,0.00045179
4966.67898560,0.00044422
4968.60779297,0.00045124
4970.53660034,0.00050561
4972.46540771,0.00049151
4974.39421509,0.00048801
4976.32302246,0.00047111
4978.25182983,0.00049386
4980.18063721,0.00055166
4982.10944458,0.00042741
4984.03825195,0.00045194
4985.96705933,0.00055006
4987.89586670,0.00047812
4989.82467407,0.00042508
4991.75348145,0.00047546
4993.68228882,0.00049552
4995.61109619,0.00043429
4997.53990356,0.00048345
4999.46871094,0.00049376
5001.39751831,0.00047631
5003.32632568,0.00047333
5005.25513306,0.00044245
5007.18394043,0.00052322
5009.11274780,0.00051323
5011.04155518,0.00046807
5012.97036255,0.00048853
5014.89916992,0.00047156
5016.82797729,0.00049236
5018.75678467,0.00050225
5020.68559204,0.00047587
5022.61439941,0.00048606
5024.54320679,0.00046768
5026.47201416,0.00045230
5028.40082153,0.00045574
5030.32962891,0.00043322
5032.25843628,0.00047637
5034.18724365,0.00044540
5036.11605103,0.00041775
5038.04485840,0.00043840
5039.97366577,0.00043568
5041.90247314,0.00044720
5043.83128052,0.00033772
5045.76008789,0.00041803
5047.68889526,0.00046176
5049.61770264,0.00034212
5051.54651001,0.00041664
5053.47531738,0.00041251
5055.40412476,0.00042100
5057.33293213,0.00046595
5059.26173950,0.00045242
5061.19054687,0.00038428
5063.11935425,0.00034854
5065.04816162,0.00044332
5066.97696899,0.00043148
5068.90577637,0.00043585
5070.83458374,0.00042329
5072.76339111,0.00035853
5074.69219849,0.00036970
5076.62100586,0.00038534
5078.54981323,0.00038656
5080.47862061,0.00040553
5082.40742798,0.00042569
5084.33623535,0.00038991
5086.26504272,0.00040746
5088.19385010,0.00037618
5090.12265747,0.00037400
5092.05146484,0.00042073
5093.98027222,0.00043180
5095.90907959,0.00043418
5097.83788696,0.00032244
5099.76669434,0.00036915
5101.69550171,0.00038675
5103.62430908,0.00036572
5105.55311645,0.00039411
5107.48192383,0.00035825
5109.41073120,0.00043377
5111.33953857,0.00036285
5113.26834595,0.00040521
5115.19715332,0.00047934
5117.12596069,0.00041198
5119.05476807,0.00045147
5120.98357544,0.00039153
5122.91238281,0.00038763
5124.84119019,0.00038472
5126.76999756,0.00036307
5128.69880493,0.00038060
5130.62761230,0.00039974
5132.55641968,0.00043816
5134.48522705,0.00042596
5136.41403442,0.00044234
5138.34284180,0.00034803
5140.27164917,0.00034038
5142.20045654,0.00040956
5144.12926392,0.00040941
5146.05807129,0.00042208
5147.98687866,0.00033632
5149.91568603,0.00032596
5151.84449341,0.00036213
5153.77330078,0.00040830
5155.70210815,0.00036446
5157.63091553,0.00029607
5159.55972290,0.00039022
5161.48853027,0.00035884
5163.41733765,0.00035229
5165.34614502,0.00040828
5167.27495239,0.00037380
5169.20375977,0.00035440
5171.13256714,0.00034012
5173.06137451,0.00036456
5174.99018188,0.00038282
5176.91898926,0.00036012
5178.84779663,0.00035932
5180.77660400,0.00036593
5182.70541138,0.00037373
5184.63421875,0.00036904
5186.56302612,0.00033353
5188.49183350,0.00036694
5190.42064087,0.00035314
5192.34944824,0.00033647
5194.27825562,0.00041699
5196.20706299,0.00036321
5198.13587036,0.00033621
5200.06467773,0.00033186
5201.99348511,0.00031280
5203.92229248,0.00035508
5205.85109985,0.00033169
5207.77990723,0.00035334
5209.70871460,0.00035419
5211.63752197,0.00035550
5213.56632935,0.00032621
5215.49513672,0.00027162
5217.42394409,0.00033948
5219.35275146,0.00030594
5221.28155884,0.00029522
5223.21036621,0.00032773
5225.13917358,0.00028220
5227.06798096,0.00035098
5228.99678833,0.00038346
5230.92559570,0.00035924
5232.85440308,0.00031896
5234.78321045,0.00025252
5236.71201782,0.00036504
5238.64082520,0.00036264
5240.56963257,0.00029360
5242.49843994,0.00036417
5244.42724731,0.00030212
5246.35605469,0.00031578
5248.28486206,0.00034814
5250.21366943,0.00026784
5252.14247681,0.00022999
5254.07128418,0.00029620
5256.00009155,0.00037984
5257.92889893,0.00028828
5259.85770630,0.00032333
5261.78651367,0.00034185
5263.71532104,0.00030706
5265.64412842,0.00037896
5267.57293579,0.00031080
5269.50174316,0.00033566
5271.43055054,0.00031856
5273.35935791,0.00026378
5275.28816528,0.00032506
5277.21697266,0.00031384
5279.14578003,0.00035534
5281.07458740,0.00034323
5283.00339478,0.00023668
5284.93220215,0.00026938
5286.86100952,0.00035814
5288.78981689,0.00027971
5290.71862427,0.00025350
5292.64743164,0.00030494
5294.57623901,0.00029788
5296.50504639,0.00030332
5298.43385376,0.00026622
5300.36266113,0.00035642
5302.29146851,0.00035245
5304.22027588,0.00028672
5306.14908325,0.00033272
5308.07789062,0.00022001
5310.00669800,0.00025577
5311.93550537,0.00035023
5313.86431274,0.00025723
5315.79312012,0.00023057
5317.72192749,0.00026389
5319.65073486,0.00026888
5321.57954224,0.00035693
5323.50834961,0.00036237
5325.43715698,0.00021988
5327.36596436,0.00028247
5329.29477173,0.00029343
5331.22357910,0.00023546
5333.15238647,0.00032004
5335.08119385,0.00032818
5337.01000122,0.00024716
5338.93880859,0.00018935
5340.86761597,0.00031389
5342.79642334,0.00033550
5344.72523071,0.00024158
5346.65403809,0.00024539
5348.58284546,0.00025564
5350.51165283,0.00032056
5352.44046020,0.00027091
5354.36926758,0.00027382
5356.29807495,0.00031241
5358.22688232,0.00022758
5360.15568970,0.00028238
5362.08449707,0.00029445
5364.01330444,0.00024260
5365.94211182,0.00034090
5367.87091919,0.00037310
5369.79972656,0.00025681
5371.72853394,0.00025043
5373.65734131,0.00029283
5375.58614868,0.00029612
5377.51495605,0.00027600
5379.44376343,0.00021745
5381.37257080,0.00026290
5383.30137817,0.00020859
5385.23018555,0.00019937
5387.15899292,0.00034687
5389.08780029,0.00026586
5391.01660767,0.00021786
5392.94541504,0.00026803
5394.87422241,0.00025366
5396.80302978,0.00031106
5398.73183716,0.00028151
5400.66064453,0.00020910
5402.58945190,0.00027364
5404.51825928,0.00032786
5406.44706665,0.00028169
5408.37587402,0.00023299
5410.30468140,0.00024055
5412.23348877,0.00020762
5414.16229614,0.00020487
5416.09110352,0.00024723
5418.01991089,0.00017693
5419.94871826,0.00020508
5421.87752563,0.00027374
5423.80633301,0.00022525
5425.73514038,0.00027501
5427.66394775,0.00027859
5429.59275513,0.00013829
5431.52156250,0.00015000
5433.45036987,0.00023643
5435.37917725,0.00013910
5437.30798462,0.00020128
5439.23679199,0.00031603
5441.16559936,0.00020551
5443.09440674,0.00025699
5445.02321411,0.00024813
5446.95202148,0.00018225
5448.88082886,0.00022543
5450.80963623,0.00017643
5452.73844360,0.00024295
5454.66725098,0.00024972
5456.59605835,0.00020864
5458.52486572,0.00023432
5460.45367310,0.00014721
5462.38248047,0.00018544
5464.31128784,0.00023519
5466.24009521,0.00020403
5468.16890259,0.00026042
5470.09770996,0.00023642
5472.02651733,0.00019158
5473.95532471,0.00023099
5475.88413208,0.00026635
5477.81293945,0.00024481
5479.74174683,0.00016263
5481.67055420,0.00017488
5483.59936157,0.00021800
5485.52816895,0.00020538
5487.45697632,0.00022829
5489.38578369,0.00022881
5491.31459106,0.00025144
5493.24339844,0.00022259
5495.17220581,0.00013372
5497.10101318,0.00015229
5499.02982056,0.00015776
5500.95862793,0.00016230
5502.88743530,0.00022961
5504.81624268,0.00023623
5506.74505005,0.00020337
5508.67385742,0.00021403
5510.60266479,0.00021610
5512.53147217,0.00024274
5514.46027954,0.00025435
5516.38908691,0.00019697
5518.31789429,0.00022527
5520.24670166,0.00020937
5522.17550903,0.00018321
5524.10431641,0.00026905
5526.03312378,0.00027247
5527.96193115,0.00021304
5529.89073853,0.00018801
5531.81954590,0.00019569
5533.74835327,0.00019793
5535.67716064,0.00020384
5537.60596802,0.00019394
5539.53477539,0.00022692
5541.46358276,0.00022553
5543.39239014,0.00015221
5545.32119751,0.00024498
5547.25000488,0.00025608
5549.17881226,0.00018172
5551.10761963,0.00020554
5553.03642700,0.00020335
5554.96523437,0.00021284
5556.89404175,0.00020761
5558.82284912,0.00023104
5560.75165649,0.00021013
5562.68046387,0.00018519
5564.60927124,0.00018855
5566.53807861,0.00015922
5568.46688599,0.00023088
5570.39569336,0.00020467
5572.32450073,0.00018245
5574.25330811,0.00018734
5576.18211548,0.00013840
5578.11092285,0.00024825
5580.03973022,0.00022814
5581.96853760,0.00017180
5583.89734497,0.00019384
5585.82615234,0.00014433
5587.75495972,0.00020301
5589.68376709,0.00018303
5591.61257446,0.00014510
5593.54138184,0.00022684
5595.47018921,0.00018176
5597.39899658,0.00014144
5599.32780395,0.00019942
5601.25661133,0.00024364
5603.18541870,0.00024459
5605.11422607,0.00019016
5607.04303345,0.00019727
5608.97184082,0.00024359
5610.90064819,0.00016470
5612.82945557,0.00014156
5614.75826294,0.00023805
5616.68707031,0.00018025
5618.61587769,0.00009743
5620.54468506,0.00011962
5622.47349243,0.00017537
5624.40229980,0.00023255
5626.33110718,0.00018038
5628.25991455,0.00020758
5630.18872192,0.00024439
5632.11752930,0.00016575
5634.04633667,0.00018765
5635.97514404,0.00019941
5637.90395142,0.00023987
5639.83275879,0.00026639
5641.76156616,0.00018705
5643.69037353,0.00020955
5645.61918091,0.00020762
5647.54798828,0.00016535
5649.47679565,0.00017342
5651.40560303,0.00014686
5653.33441040,0.00015464
5655.26321777,0.00019969
5657.19202515,0.00019673
5659.12083252,0.00020302
5661.04963989,0.00018221
5662.97844727,0.00013615
5664.90725464,0.00020434
5666.83606201,0.00015440
5668.76486938,0.00007303
5670.69367676,0.00018365
5672.62248413,0.00016452
5674.55129150,0.00012146
5676.48009888,0.00017871
5678.40890625,0.00017010
5680.33771362,0.00017842
5682.26652100,0.00015548
5684.19532837,0.00009835
5686.12413574,0.00015023
5688.05294311,0.00016080
5689.98175049,0.00013510
5691.91055786,0.00014175
5693.83936523,0.00010096
5695.76817261,0.00017600
5697.69697998,0.00017972
5699.62578735,0.00009619
5701.55459473,0.00017588
5703.48340210,0.00024626
5705.41220947,0.00023089
5707.34101685,0.00013933
5709.26982422,0.00011423
5711.19863159,0.00009618
5713.12743896,0.00012025
5715.05624634,0.00025753
5716.98505371,0.00018571
5718.91386108,0.00014815
5720.84266846,0.00016405
5722.77147583,0.00009743
5724.70028320,0.00015335
5726.62909058,0.00016888
5728.55789795,0.00018726
5730.48670532,0.00021281
5732.41551270,0.00014135
5734.34432007,0.00013513
5736.27312744,0.00015922
5738.20193481,0.00016306
5740.13074219,0.00014011
5742.05954956,0.00012302
5743.98835693,0.00014280
5745.91716431,0.00006929
5747.84597168,0.00010957
5749.77477905,0.00020769
5751.70358643,0.00013800
5753.63239380,0.00016379
5755.56120117,0.00014644
5757.49000854,0.00012161
5759.41881592,0.00017193
5761.34762329,0.00012456
5763.27643066,0.00011837
5765.20523804,0.00007074
5767.13404541,0.00016124
5769.06285278,0.00020193
5770.99166016,0.00006921
5772.92046753,0.00018426
5774.84927490,0.00018134
5776.77808228,0.00012451
5778.70688965,0.00019121
5780.63569702,0.00019798
5782.56450439,0.00016623
5784.49331177,0.00005855
5786.42211914,0.00013204
5788.35092651,0.00017640
5790.27973389,0.00011361
5792.20854126,0.00015556
5794.13734863,0.00015165
5796.06615601,0.00019881
5797.99496338,0.00014489
5799.92377075,0.00004684
5801.85257812,0.00010714
5803.78138550,0.00016515
5805.71019287,0.00020142
5807.63900024,0.00016816
5809.56780762,0.00010822
5811.49661499,0.00010521
5813.42542236,0.00020154
5815.35422974,0.00020228
5817.28303711,0.00011308
5819.21184448,0.00018281
5821.14065186,0.00014473
5823.06945923,0.00009229
5824.99826660,0.00010459
5826.92707397,0.00007892
5828.85588135,0.00018078
5830.78468872,0.00018743
5832.71349609,0.00013561
5834.64230347,0.00013336
5836.57111084,0.00011442
5838.49991821,0.00010134
5840.42872559,0.00004183
5842.35753296,0.00011855
5844.28634033,0.00018316
5846.21514770,0.00014666
5848.14395508,0.00018830
5850.07276245,0.00018723
5852.00156982,0.00017934
5853.93037720,0.00014574
5855.85918457,0.00008860
5857.78799194,0.00007451
5859.71679932,0.00005512
5861.64560669,0.00011950
5863.57441406,0.00014551
5865.50322144,0.00006107
5867.43202881,0.00006681
5869.36083618,0.00009108
5871.28964355,0.00006700
5873.21845093,0.00012158
5875.14725830,0.00013867
5877.07606567,0.00009442
5879.00487305,0.00013810
5880.93368042,0.00013580
5882.86248779,0.00007399
5884.79129517,0.00010100
5886.72010254,0.00012657
5888.64890991,0.00015365
5890.57771728,0.00012169
5892.50652466,0.00003639
5894.43533203,0.00010505
5896.36413940,0.00006929
5898.29294678,0.00003886
5900.22175415,0.00013663
5902.15056152,0.00006086
5904.07936890,0.00013984
5906.00817627,0.00019073
5907.93698364,0.00005453
5909.86579102,0.00014667
5911.79459839,0.00020356
5913.72340576,0.00011675
5915.65221313,0.00008873
5917.58102051,0.00014186
5919.50982788,0.00015481
5921.43863525,0.00013361
5923.36744263,0.00010174
5925.29625000,0.00002957
5927.22505737,0.00005827
5929.15386475,0.00008233
5931.08267212,0.00015132
5933.01147949,0.00015799
5934.94028686,0.00009078
5936.86909424,0.00014751
5938.79790161,0.00007759
5940.72670898,0.00006008
5942.65551636,0.00012502
5944.58432373,0.00014189
5946.51313110,0.00013623
5948.44193848,0.00005707
5950.37074585,0.00005254
5952.29955322,0.00003768
5954.22836060,0.00009073
5956.15716797,0.00011892
5958.08597534,0.00007674
5960.01478271,0.00013833
5961.94359009,0.00009055
5963.87239746,0.00009719
5965.80120483,0.00009979
5967.73001221,-0.00000346
5969.65881958,0.00008013
5971.58762695,0.00013424
5973.51643433,0.00006039
5975.44524170,0.00004900
5977.37404907,0.00010864
5979.30285645,0.00012580
5981.23166382,0.00007756
5983.16047119,0.00010818
5985.08927856,0.00011541
5987.01808594,0.00007725
5988.94689331,0.00009954
5990.87570068,0.00010595
5992.80450806,0.00011070
5994.73331543,0.00012566
5996.66212280,0.00013132
5998.59093018,0.00008029
6000.51973755,0.00009495
