399.26312622,0.00035060
401.19193359,0.00071944
403.12074097,0.00125111
405.04954834,0.00078987
406.97835571,0.00065776
408.90716309,0.00080164
410.83597046,0.00066476
412.76477783,0.00086638
414.69358521,0.00137805
416.62239258,0.00116303
418.55119995,0.00075651
420.48000732,0.00119915
422.40881470,0.00106399
424.33762207,0.00083736
426.26642944,0.00096862
428.19523682,0.00123695
430.12404419,0.00137875
432.05285156,0.00126032
433.98165894,0.00138796
435.91046631,0.00113396
437.83927368,0.00118719
439.76808105,0.00099142
441.69688843,0.00107958
443.62569580,0.00131527
445.55450317,0.00072465
447.48331055,0.00115769
449.41211792,0.00104329
451.34092529,0.00067263
453.26973267,0.00088760
455.19854004,0.00074773
457.12734741,0.00088664
459.05615479,0.00067002
460.98496216,0.00062963
462.91376953,0.00058095
464.84257690,0.00048361
466.77138428,0.00059516
468.70019165,0.00062335
470.62899902,0.00066793
472.55780640,0.00007300
474.48661377,0.00049272
476.41542114,0.00083688
478.34422852,-0.00011903
480.27303589,0.00004974
482.20184326,0.00042262
484.13065063,0.00031440
486.05945801,0.00004251
487.98826538,0.00010844
489.91707275,0.00056314
491.84588013,0.00044794
493.77468750,0.00022617
495.70349487,0.00042732
497.63230225,0.00006989
499.56110962,0.00002307
501.48991699,0.00051848
503.41872437,0.00024103
505.34753174,-0.00019525
507.27633911,-0.00011342
509.20514648,0.00052734
511.13395386,0.00065232
513.06276123,0.00031163
514.99156860,0.00032789
516.92037598,0.00050960
518.84918335,0.00054999
520.77799072,0.00024306
522.70679810,0.00025410
524.63560547,0.00002586
526.56441284,0.00003340
528.49322021,0.00047803
530.42202759,0.00018383
532.35083496,0.00031503
534.27964233,0.00034585
536.20844971,0.00007733
538.13725708,0.00025458
540.06606445,0.00010316
541.99487183,0.00003354
543.92367920,0.00015301
545.85248657,0.00010497
547.78129395,0.00012292
549.71010132,0.00016682
551.63890869,0.00002804
553.56771606,0.00018812
555.49652344,-0.00000776
557.42533081,0.00003896
559.35413818,0.00037383
561.28294556,0.00009003
563.21175293,0.00026447
565.14056030,0.00001650
567.06936768,-0.00010331
568.99817505,0.00013877
570.92698242,0.00034065
572.85578979,0.00029647
574.78459717,0.00013785
576.71340454,0.00031051
578.64221191,0.00017880
580.57101929,0.00034291
582.49982666,0.00020460
584.42863403,0.00013146
586.35744141,-0.00003745
588.28624878,0.00009582
590.21505615,0.00015961
592.14386353,-0.00012036
594.07267090,0.00015341
596.00147827,0.00045973
597.93028564,0.00020216
599.85909302,0.00012615
601.78790039,0.00025300
603.71670776,0.00002571
605.64551514,0.00014234
607.57432251,0.00018686
609.50312988,0.00013781
611.43193726,0.00030613
613.36074463,-0.00018184
615.28955200,0.00004565
617.21835938,0.00002512
619.14716675,-0.00016294
621.07597412,-0.00000606
623.00478149,-0.00018473
624.93358887,0.00006543
626.86239624,0.00008936
628.79120361,0.00020268
630.72001099,0.00036196
632.64881836,0.00051193
634.57762573,0.00068495
636.50643311,0.00053837
638.43524048,0.00072523
640.36404785,0.00068818
642.29285522,0.00103578
644.22166260,0.00138612
646.15046997,0.00117329
648.07927734,0.00095859
650.00808472,0.00092022
651.93689209,0.00140778
653.86569946,0.00146070
655.79450684,0.00158129
657.72331421,0.00171313
659.65212158,0.00156531
661.58092896,0.00163978
663.50973633,0.00140526
665.43854370,0.00138626
667.36735107,0.00146773
669.29615845,0.00166471
671.22496582,0.00184531
673.15377319,0.00184054
675.08258057,0.00201284
677.01138794,0.00182101
678.94019531,0.00173386
680.86900269,0.00216758
682.79781006,0.00239444
684.72661743,0.00216489
686.65542480,0.00207169
688.58423218,0.00204248
690.51303955,0.00197371
692.44184692,0.00212739
694.37065430,0.00243568
696.29946167,0.00279890
698.22826904,0.00305454
700.15707642,0.00330029
702.08588379,0.00338302
704.01469116,0.00311931
705.94349854,0.00240630
707.87230591,0.00222151
709.80111328,0.00196927
711.72992065,0.00101432
713.65872803,0.00086854
715.58753540,0.00036119
717.51634277,0.00019944
719.44515015,0.00061724
721.37395752,0.00039804
723.30276489,0.00040832
725.23157227,0.00010406
727.16037964,0.00018169
729.08918701,0.00016268
731.01799438,0.00003988
732.94680176,0.00034221
734.87560913,0.00021793
736.80441650,-0.00000227
738.73322388,-0.00016074
740.66203125,0.00033729
742.59083862,0.00053880
744.51964600,0.00029411
746.44845337,0.00027589
748.37726074,0.00014042
750.30606812,0.00015745
752.23487549,0.00029123
754.16368286,-0.00004615
756.09249023,-0.00012711
758.02129761,0.00025819
759.95010498,0.00027406
761.87891235,0.00033256
763.80771973,0.00020983
765.73652710,0.00001838
767.66533447,0.00006365
769.59414185,0.00020258
771.52294922,0.00051322
773.45175659,0.00053461
775.38056396,0.00037938
777.30937134,0.00040271
779.23817871,0.00034902
781.16698608,0.00015302
783.09579346,0.00018751
785.02460083,0.00021155
786.95340820,0.00008151
788.88221558,0.00021038
790.81102295,0.00020908
792.73983032,0.00035957
794.66863770,0.00060188
796.59744507,0.00020900
798.52625244,0.00023721
800.45505981,0.00046223
802.38386719,0.00034754
804.31267456,0.00041190
806.24148193,0.00026480
808.17028931,0.00032996
810.09909668,0.00057001
812.02790405,0.00050231
813.95671143,0.00017365
815.88551880,-0.00011628
817.81432617,0.00026171
819.74313354,0.00033705
821.67194092,0.00009020
823.60074829,0.00038254
825.52955566,0.00039988
827.45836304,0.00014033
829.38717041,0.00011364
831.31597778,0.00035879
833.24478516,0.00074953
835.17359253,0.00094874
837.10239990,0.00071492
839.03120728,0.00056508
840.96001465,0.00099669
842.88882202,0.00072150
844.81762939,0.00031347
846.74643677,0.00077850
848.67524414,0.00052428
850.60405151,0.00032812
852.53285889,0.00038650
854.46166626,0.00030495
856.39047363,0.00077114
858.31928101,0.00054320
860.24808838,0.00036516
862.17689575,0.00050662
864.10570313,0.00042672
866.03451050,0.00044143
867.96331787,0.00021809
869.89212524,0.00035379
871.82093262,0.00033622
873.74973999,0.00034081
875.67854736,0.00044090
877.60735474,0.00044774
879.53616211,0.00068164
881.46496948,0.00035708
883.39377686,0.00040705
885.32258423,0.00047963
887.25139160,0.00021576
889.18019897,0.00046792
891.10900635,0.00040977
893.03781372,0.00045961
894.96662109,0.00060183
896.89542847,0.00043817
898.82423584,0.00033394
900.75304321,0.00025695
902.68185059,0.00046910
904.61065796,0.00044999
906.53946533,0.00024079
908.46827271,0.00026481
910.39708008,0.00037134
912.32588745,0.00051609
914.25469482,0.00041602
916.18350220,0.00050938
918.11230957,0.00060312
920.04111694,0.00042349
921.96992432,0.00070374
923.89873169,0.00086539
925.82753906,0.00083675
927.75634644,0.00094543
929.68515381,0.00080673
931.61396118,0.00100592
933.54276855,0.00100490
935.47157593,0.00088680
937.40038330,0.00124065
939.32919067,0.00108663
941.25799805,0.00121803
943.18680542,0.00141516
945.11561279,0.00116933
947.04442017,0.00143164
948.97322754,0.00121341
950.90203491,0.00090963
952.83084229,0.00135447
954.75964966,0.00132545
956.68845703,0.00114803
958.61726440,0.00117633
960.54607178,0.00100018
962.47487915,0.00123128
964.40368652,0.00125545
966.33249390,0.00114239
968.26130127,0.00143063
970.19010864,0.00124388
972.11891602,0.00137294
974.04772339,0.00167746
975.97653076,0.00157837
977.90533813,0.00146910
979.83414551,0.00153553
981.76295288,0.00221316
983.69176025,0.00225919
985.62056763,0.00234764
987.54937500,0.00277170
989.47818237,0.00265505
991.40698975,0.00323949
993.33579712,0.00346336
995.26460449,0.00362985
997.19341187,0.00417924
999.12221924,0.00435853
1001.05102661,0.00493203
1002.97983398,0.00500507
1004.90864136,0.00521700
1006.83744873,0.00581138
1008.76625610,0.00608501
1010.69506348,0.00650535
1012.62387085,0.00665462
1014.55267822,0.00708234
1016.48148560,0.00749407
1018.41029297,0.00765359
1020.33910034,0.00808958
1022.26790771,0.00844541
1024.19671509,0.00888500
1026.12552246,0.00911562
1028.05432983,0.00923331
1029.98313721,0.00965450
1031.91194458,0.00999122
1033.84075195,0.01014799
1035.76955933,0.01031948
1037.69836670,0.01043025
1039.62717407,0.01039996
1041.55598145,0.01037459
1043.48478882,0.01039393
1045.41359619,0.01041281
1047.34240356,0.01018387
1049.27121094,0.00988182
1051.20001831,0.00978627
1053.12882568,0.00970223
1055.05763306,0.00938081
1056.98644043,0.00897750
1058.91524780,0.00889294
1060.84405518,0.00868249
1062.77286255,0.00835329
1064.70166992,0.00814888
1066.63047729,0.00801263
1068.55928467,0.00779230
1070.48809204,0.00719123
1072.41689941,0.00683745
1074.34570679,0.00665749
1076.27451416,0.00655896
1078.20332153,0.00622919
1080.13212891,0.00556728
1082.06093628,0.00559517
1083.98974365,0.00544777
1085.91855103,0.00494268
1087.84735840,0.00464928
1089.77616577,0.00450091
1091.70497314,0.00456287
1093.63378052,0.00431906
1095.56258789,0.00403128
1097.49139526,0.00396108
1099.42020264,0.00396364
1101.34901001,0.00390045
1103.27781738,0.00390535
1105.20662476,0.00372386
1107.13543213,0.00345532
1109.06423950,0.00362960
1110.99304687,0.00353882
1112.92185425,0.00350503
1114.85066162,0.00330950
1116.77946899,0.00325830
1118.70827637,0.00366703
1120.63708374,0.00348790
1122.56589111,0.00361965
1124.49469849,0.00361790
1126.42350586,0.00349449
1128.35231323,0.00363313
1130.28112061,0.00370283
1132.20992798,0.00406974
1134.13873535,0.00402546
1136.06754272,0.00422498
1137.99635010,0.00432500
1139.92515747,0.00439796
1141.85396484,0.00503469
1143.78277222,0.00506271
1145.71157959,0.00528151
1147.64038696,0.00576646
1149.56919434,0.00606629
1151.49800171,0.00641674
1153.42680908,0.00671412
1155.35561646,0.00705449
1157.28442383,0.00738898
1159.21323120,0.00762344
1161.14203857,0.00784037
1163.07084595,0.00825724
1164.99965332,0.00834619
1166.92846069,0.00865476
1168.85726807,0.00910630
1170.78607544,0.00914454
1172.71488281,0.00963433
1174.64369019,0.01006642
1176.57249756,0.01055620
1178.50130493,0.01108940
1180.43011230,0.01123036
1182.35891968,0.01180953
1184.28772705,0.01246407
1186.21653442,0.01273570
1188.14534180,0.01318346
1190.07414917,0.01390742
1192.00295654,0.01472910
1193.93176392,0.01550747
1195.86057129,0.01607458
1197.78937866,0.01699428
1199.71818604,0.01775833
1201.64699341,0.01827770
1203.57580078,0.01923192
1205.50460815,0.01968346
1207.43341553,0.02039148
1209.36222290,0.02140284
1211.29103027,0.02189818
1213.21983765,0.02250963
1215.14864502,0.02308656
1217.07745239,0.02363041
1219.00625977,0.02390306
1220.93506714,0.02418672
1222.86387451,0.02460101
1224.79268188,0.02476912
1226.72148926,0.02500098
1228.65029663,0.02511248
1230.57910400,0.02521542
1232.50791138,0.02522272
1234.43671875,0.02514569
1236.36552612,0.02520737
1238.29433350,0.02518820
1240.22314087,0.02504186
1242.15194824,0.02493115
1244.08075562,0.02489143
1246.00956299,0.02462097
1247.93837036,0.02449003
1249.86717773,0.02446950
1251.79598511,0.02416978
1253.72479248,0.02399614
1255.65359985,0.02388189
1257.58240723,0.02350072
1259.51121460,0.02311452
1261.44002197,0.02278456
1263.36882935,0.02236932
1265.29763672,0.02216779
1267.22644409,0.02193752
1269.15525146,0.02148539
1271.08405884,0.02113689
1273.01286621,0.02099969
1274.94167358,0.02078273
1276.87048096,0.02029745
1278.79928833,0.01979449
1280.72809570,0.01929380
1282.65690308,0.01912708
1284.58571045,0.01865175
1286.51451782,0.01808759
1288.44332520,0.01818243
1290.37213257,0.01777060
1292.30093994,0.01767821
1294.22974731,0.01775750
1296.15855469,0.01732161
1298.08736206,0.01738487
1300.01616943,0.01733448
1301.94497681,0.01751705
1303.87378418,0.01782399
1305.80259155,0.01770401
1307.73139893,0.01809200
1309.66020630,0.01854702
1311.58901367,0.01860882
1313.51782104,0.01886538
1315.44662842,0.01948985
1317.37543579,0.02000691
1319.30424316,0.02030112
1321.23305054,0.02103009
1323.16185791,0.02200234
1325.09066528,0.02235630
1327.01947266,0.02273079
1328.94828003,0.02372199
1330.87708740,0.02448411
1332.80589478,0.02472421
1334.73470215,0.02495324
1336.66350952,0.02534216
1338.59231689,0.02522760
1340.52112427,0.02546557
1342.44993164,0.02658129
1344.37873901,0.02682332
1346.30754639,0.02664825
1348.23635376,0.02657150
1350.16516113,0.02646193
1352.09396851,0.02646341
1354.02277588,0.02605751
1355.95158325,0.02582665
1357.88039062,0.02565491
1359.80919800,0.02535029
1361.73800537,0.02403578
1363.66681274,0.02356970
1365.59562012,0.02517557
1367.52442749,0.02452062
1369.45323486,0.02421491
1371.38204224,0.02466565
1373.31084961,0.02316780
1375.23965698,0.02347869
1377.16846436,0.02416600
1379.09727173,0.02411704
1381.02607910,0.02415166
1382.95488647,0.02409817
1384.88369385,0.02398213
1386.81250122,0.02275204
1388.74130859,0.02325226
1390.67011597,0.02534310
1392.59892334,0.02450776
1394.52773071,0.02255926
1396.45653809,0.02395274
1398.38534546,0.02387195
1400.31415283,0.02374810
1402.24296021,0.02624631
1404.17176758,0.02440073
1406.10057495,0.02440907
1408.02938232,0.02559345
1409.95818970,0.02481705
1411.88699707,0.02546673
1413.81580444,0.02427986
1415.74461182,0.02485572
1417.67341919,0.02190638
1419.60222656,0.01950826
1421.53103394,0.02322154
1423.45984131,0.02214477
1425.38864868,0.02165778
1427.31745605,0.02226677
1429.24626343,0.02038061
1431.17507080,0.01983438
1433.10387817,0.02036532
1435.03268555,0.01831025
1436.96149292,0.01514344
1438.89030029,0.01775274
1440.81910767,0.01823856
1442.74791504,0.01676105
1444.67672241,0.01764974
1446.60552979,0.01614702
1448.53433716,0.01651959
1450.46314453,0.01694479
1452.39195190,0.01734775
1454.32075928,0.01785197
1456.24956665,0.01407187
1458.17837402,0.01486570
1460.10718140,0.02057258
1462.03598877,0.02208247
1463.96479614,0.02166153
1465.89360352,0.02225289
1467.82241089,0.02593489
1469.75121826,0.02788034
1471.68002563,0.02393371
1473.60883301,0.02534581
1475.53764038,0.02908745
1477.46644775,0.03160774
1479.39525513,0.03513907
1481.32406250,0.03516919
1483.25286987,0.03762558
1485.18167725,0.03879466
1487.11048462,0.03776760
1489.03929199,0.03701209
1490.96809937,0.03696819
1492.89690674,0.04424624
1494.82571411,0.04283232
1496.75452148,0.03774738
1498.68332886,0.04325014
1500.61213623,0.04472142
1502.54094360,0.04860900
1504.46975098,0.04505267
1506.39855835,0.03087437
1508.32736572,0.03948399
1510.25617310,0.04713894
1512.18498047,0.04548226
1514.11378784,0.04998605
1516.04259521,0.04381750
1517.97140259,0.04614372
1519.90020996,0.04448153
1521.82901733,0.03733873
1523.75782471,0.04754299
1525.68663208,0.04632644
1527.61543945,0.04624350
1529.54424683,0.05233559
1531.47305420,0.04972059
1533.40186157,0.04477843
1535.33066895,0.04817648
1537.25947632,0.05203819
1539.18828369,0.03502768
1541.11709106,0.03724546
1543.04589844,0.04578617
1544.97470581,0.04363727
1546.90351318,0.05355532
1548.83232056,0.04900026
1550.76112793,0.05075966
1552.68993530,0.05053657
1554.61874268,0.04506513
1556.54755005,0.04888498
1558.47635742,0.03192995
1560.40516479,0.03552426
1562.33397217,0.05385518
1564.26277954,0.05012054
1566.19158691,0.05220509
1568.12039429,0.05113202
1570.04920166,0.04435611
1571.97800903,0.05306394
1573.90681641,0.05334150
1575.83562378,0.04090239
1577.76443115,0.04741518
1579.69323853,0.05447292
1581.62204590,0.05199641
1583.55085327,0.05310150
1585.47966064,0.05235996
1587.40846802,0.05290363
1589.33727539,0.05239013
1591.26608276,0.05245613
1593.19489014,0.05219387
1595.12369751,0.05177476
1597.05250488,0.05271923
1598.98131226,0.05200486
1600.91011963,0.05259433
1602.83892700,0.05173136
1604.76773437,0.05243718
1606.69654175,0.05160938
1608.62534912,0.05155557
1610.55415649,0.05142051
1612.48296387,0.05208766
1614.41177124,0.05261192
1616.34057861,0.04156409
1618.26938599,0.04596374
1620.19819336,0.05454621
1622.12700073,0.04747801
1624.05580811,0.04771646
1625.98461548,0.05055280
1627.91342285,0.05017696
1629.84223022,0.05000768
1631.77103760,0.05397359
1633.69984497,0.04888188
1635.62865234,0.03905986
1637.55745972,0.04673189
1639.48626709,0.05238768
1641.41507446,0.05099548
1643.34388184,0.05255776
1645.27268921,0.04633340
1647.20149658,0.03956214
1649.13030396,0.05155934
1651.05911133,0.04832657
1652.98791870,0.02852140
1654.91672607,0.04136143
1656.84553345,0.05376213
1658.77434082,0.05154859
1660.70314819,0.05283587
1662.63195557,0.04734314
1664.56076294,0.05062656
1666.48957031,0.05482542
1668.41837769,0.04653367
1670.34718506,0.04503510
1672.27599243,0.05251792
1674.20479980,0.04756144
1676.13360718,0.04529677
1678.06241455,0.05349997
1679.99122192,0.05129293
1681.92002930,0.05032296
1683.84883667,0.03929696
1685.77764404,0.03958290
1687.70645142,0.05648969
1689.63525879,0.04789677
1691.56406616,0.05408543
1693.49287354,0.05475286
1695.42168091,0.03804086
1697.35048828,0.04874356
1699.27929565,0.04147634
1701.20810303,0.03694449
1703.13691040,0.05306400
1705.06571777,0.04765425
1706.99452515,0.04858567
1708.92333252,0.05360939
1710.85213989,0.05109947
1712.78094727,0.05219412
1714.70975464,0.04755796
1716.63856201,0.04212867
1718.56736938,0.04146726
1720.49617676,0.05060186
1722.42498413,0.05307649
1724.35379150,0.04859576
1726.28259888,0.05370977
1728.21140625,0.04885680
1730.14021362,0.04932616
1732.06902100,0.04803253
1733.99782837,0.03472731
1735.92663574,0.04538529
1737.85544312,0.05063813
1739.78425049,0.04404566
1741.71305786,0.04881380
1743.64186523,0.04953858
1745.57067261,0.04950415
1747.49947998,0.04976147
1749.42828735,0.04725494
1751.35709473,0.04474791
1753.28590210,0.05081113
1755.21470947,0.05336989
1757.14351685,0.04777869
1759.07232422,0.05353803
1761.00113159,0.04938578
1762.92993896,0.04791512
1764.85874634,0.05597319
1766.78755371,0.04922710
1768.71636108,0.05007281
1770.64516846,0.04926043
1772.57397583,0.04357565
1774.50278320,0.04985435
1776.43159058,0.05301940
1778.36039795,0.05233234
1780.28920532,0.05154940
1782.21801270,0.05188712
1784.14682007,0.05166622
1786.07562744,0.05061620
1788.00443481,0.05379322
1789.93324219,0.05206602
1791.86204956,0.04615525
1793.79085693,0.04850440
1795.71966431,0.05277860
1797.64847168,0.05209944
1799.57727905,0.05099598
1801.50608643,0.04987885
1803.43489380,0.05210155
1805.36370117,0.05346723
1807.29250854,0.05260623
1809.22131592,0.05262948
1811.15012329,0.05094203
1813.07893066,0.05298974
1815.00773804,0.05322919
1816.93654541,0.05255062
1818.86535278,0.05299514
1820.79416016,0.05303203
1822.72296753,0.05386205
1824.65177490,0.04942037
1826.58058228,0.05174026
1828.50938965,0.05170155
1830.43819702,0.04798479
1832.36700439,0.05308776
1834.29581177,0.05265593
1836.22461914,0.05264474
1838.15342651,0.05235608
1840.08223389,0.05294330
1842.01104126,0.05283090
1843.93984863,0.04572687
1845.86865601,0.04947777
1847.79746338,0.05270210
1849.72627075,0.05164097
1851.65507812,0.05346807
1853.58388550,0.05206124
1855.51269287,0.05265729
1857.44150024,0.05231787
1859.37030762,0.05197162
1861.29911499,0.05237537
1863.22792236,0.05180103
1865.15672974,0.05252400
1867.08553711,0.05025062
1869.01434448,0.04772862
1870.94315186,0.05019423
1872.87195923,0.05244227
1874.80076660,0.05142007
1876.72957397,0.05182942
1878.65838135,0.05159857
1880.58718872,0.05137683
1882.51599609,0.05193160
1884.44480347,0.05080743
1886.37361084,0.05183030
1888.30241821,0.05042735
1890.23122559,0.04912017
1892.16003296,0.05146425
1894.08884033,0.05052039
1896.01764771,0.05019367
1897.94645508,0.05111209
1899.87526245,0.05078408
1901.80406982,0.05080178
1903.73287720,0.05049913
1905.66168457,0.05074374
1907.59049194,0.05020450
1909.51929932,0.04995203
1911.44810669,0.05034520
1913.37691406,0.05040731
1915.30572144,0.05079266
1917.23452881,0.04808421
1919.16333618,0.04819025
1921.09214355,0.05044496
1923.02095093,0.04848482
1924.94975830,0.04970812
1926.87856567,0.05046751
1928.80737305,0.04959908
1930.73618042,0.05041407
1932.66498779,0.04965103
1934.59379517,0.05012448
1936.52260254,0.04971510
1938.45140991,0.04988242
1940.38021729,0.04991091
1942.30902466,0.04783995
1944.23783203,0.04897412
1946.16663940,0.04958142
1948.09544678,0.04941248
1950.02425415,0.04996175
1951.95306152,0.04963735
1953.88186890,0.04964279
1955.81067627,0.04945556
1957.73948364,0.04951674
1959.66829102,0.04956623
1961.59709839,0.04943146
1963.52590576,0.04959495
1965.45471313,0.04925597
1967.38352051,0.04856365
1969.31232788,0.04919668
1971.24113525,0.04958157
1973.16994263,0.04907430
1975.09875000,0.04937324
1977.02755737,0.04903014
1978.95636475,0.04911854
1980.88517212,0.04917081
1982.81397949,0.04889827
1984.74278687,0.04909617
1986.67159424,0.04859686
1988.60040161,0.04880935
1990.52920898,0.04822828
1992.45801636,0.04761079
1994.38682373,0.04853957
1996.31563110,0.04863426
1998.24443848,0.04831465
2000.17324585,0.04822773
2002.10205322,0.04806920
2004.03086060,0.04802028
2005.95966797,0.04813795
2007.88847534,0.04794879
2009.81728271,0.04772713
2011.74609009,0.04768603
2013.67489746,0.04772177
2015.60370483,0.04741098
2017.53251221,0.04687971
2019.46131958,0.04734900
2021.39012695,0.04734746
2023.31893433,0.04710039
2025.24774170,0.04718754
2027.17654907,0.04696814
2029.10535645,0.04704648
2031.03416382,0.04679178
2032.96297119,0.04674789
2034.89177856,0.04669081
2036.82058594,0.04639982
2038.74939331,0.04641238
2040.67820068,0.04617555
2042.60700806,0.04616217
2044.53581543,0.04625707
2046.46462280,0.04611920
2048.39343018,0.04602407
2050.32223755,0.04593053
2052.25104492,0.04576033
2054.17985229,0.04578141
2056.10865967,0.04561097
2058.03746704,0.04543194
2059.96627441,0.04555799
2061.89508179,0.04529595
2063.82388916,0.04509248
2065.75269653,0.04496010
2067.68150391,0.04506581
2069.61031128,0.04515848
2071.53911865,0.04485217
2073.46792603,0.04478978
2075.39673340,0.04469505
2077.32554077,0.04467433
2079.25434814,0.04458635
2081.18315552,0.04456448
2083.11196289,0.04446530
2085.04077026,0.04426919
2086.96957764,0.04442357
2088.89838501,0.04414795
2090.82719238,0.04401936
2092.75599976,0.04418883
2094.68480713,0.04401439
2096.61361450,0.04386332
2098.54242187,0.04393955
2100.47122925,0.04380738
2102.40003662,0.04362759
2104.32884399,0.04374762
2106.25765137,0.04348900
2108.18645874,0.04348066
2110.11526611,0.04355063
2112.04407349,0.04323230
2113.97288086,0.04326742
2115.90168823,0.04323055
2117.83049561,0.04318423
2119.75930298,0.04320293
2121.68811035,0.04305765
2123.61691772,0.04294200
2125.54572510,0.04291480
2127.47453247,0.04289039
2129.40333984,0.04283760
2131.33214722,0.04272565
2133.26095459,0.04257917
2135.18976196,0.04263035
2137.11856934,0.04257190
2139.04737671,0.04248845
2140.97618408,0.04245992
2142.90499146,0.04240900
2144.83379883,0.04245126
2146.76260620,0.04241182
2148.69141357,0.04239400
2150.62022095,0.04226328
2152.54902832,0.04216169
2154.47783569,0.04216337
2156.40664307,0.04205206
2158.33545044,0.04196743
2160.26425781,0.04199022
2162.19306519,0.04192172
2164.12187256,0.04184347
2166.05067993,0.04197722
2167.97948730,0.04179884
2169.90829468,0.04163737
2171.83710205,0.04171781
2173.76590942,0.04170928
2175.69471680,0.04166410
2177.62352417,0.04153383
2179.55233154,0.04157812
2181.48113892,0.04143009
2183.40994629,0.04131198
2185.33875366,0.04130550
2187.26756104,0.04119359
2189.19636841,0.04135849
2191.12517578,0.04125103
2193.05398315,0.04117868
2194.98279053,0.04119617
2196.91159790,0.04100997
2198.84040527,0.04105727
2200.76921265,0.04098493
2202.69802002,0.04093734
2204.62682739,0.04100368
2206.55563477,0.04081980
2208.48444214,0.04070573
2210.41324951,0.04077801
2212.34205688,0.04080386
2214.27086426,0.04069158
2216.19967163,0.04056878
2218.12847900,0.04056717
2220.05728638,0.04048391
2221.98609375,0.04048072
2223.91490112,0.04050107
2225.84370850,0.04033973
2227.77251587,0.04034820
2229.70132324,0.04018266
2231.63013062,0.04008760
2233.55893799,0.04025253
2235.48774536,0.04011275
2237.41655273,0.04003850
2239.34536011,0.04001499
2241.27416748,0.03989755
2243.20297485,0.03980827
2245.13178223,0.03971471
2247.06058960,0.03964574
2248.98939697,0.03963200
2250.91820435,0.03965215
2252.84701172,0.03955930
2254.77581909,0.03951279
2256.70462646,0.03940511
2258.63343384,0.03929671
2260.56224121,0.03938822
2262.49104858,0.03930917
2264.41985596,0.03912448
2266.34866333,0.03917158
2268.27747070,0.03919321
2270.20627808,0.03910310
2272.13508545,0.03911463
2274.06389282,0.03900060
2275.99270020,0.03890656
2277.92150757,0.03891482
2279.85031494,0.03888201
2281.77912231,0.03879289
2283.70792969,0.03872580
2285.63673706,0.03880423
2287.56554443,0.03864200
2289.49435181,0.03851892
2291.42315918,0.03844460
2293.35196655,0.03834674
2295.28077393,0.03838214
2297.20958130,0.03811451
2299.13838867,0.03796093
2301.06719604,0.03787711
2302.99600342,0.03768344
2304.92481079,0.03757970
2306.85361816,0.03740408
2308.78242554,0.03721540
2310.71123291,0.03691583
2312.64004028,0.03648531
2314.56884766,0.03607918
2316.49765503,0.03573195
2318.42646240,0.03533479
2320.35526978,0.03499776
2322.28407715,0.03453056
2324.21288452,0.03406442
2326.14169189,0.03370864
2328.07049927,0.03325061
2329.99930664,0.03305266
2331.92811401,0.03269533
2333.85692139,0.03243425
2335.78572876,0.03243642
2337.71453613,0.03241669
2339.64334351,0.03251940
2341.57215088,0.03268920
2343.50095825,0.03307528
2345.42976562,0.03336848
2347.35857300,0.03468081
2349.28738037,0.03577831
2351.21618774,0.03460944
2353.14499512,0.03301273
2355.07380249,0.03178273
2357.00260986,0.03104181
2358.93141724,0.03045303
2360.86022461,0.03005547
2362.78903198,0.03018615
2364.71783936,0.03027722
2366.64664673,0.03068958
2368.57545410,0.03116894
2370.50426147,0.03186502
2372.43306885,0.03277689
2374.36187622,0.03353544
2376.29068359,0.03426327
2378.21949097,0.03492856
2380.14829834,0.03556811
2382.07710571,0.03592097
2384.00591309,0.03615087
2385.93472046,0.03619175
2387.86352783,0.03621695
2389.79233521,0.03621174
2391.72114258,0.03617167
2393.64994995,0.03623217
2395.57875732,0.03598421
2397.50756470,0.03600139
2399.43637207,0.03604893
2401.36517944,0.03588733
2403.29398682,0.03578885
2405.22279419,0.03572456
2407.15160156,0.03574931
2409.08040894,0.03571464
2411.00921631,0.03579618
2412.93802368,0.03569628
2414.86683105,0.03561994
2416.79563843,0.03558615
2418.72444580,0.03551519
2420.65325317,0.03552865
2422.58206055,0.03537821
2424.51086792,0.03543879
2426.43967529,0.03536733
2428.36848267,0.03521402
2430.29729004,0.03513475
2432.22609741,0.03513100
2434.15490479,0.03518803
2436.08371216,0.03504714
2438.01251953,0.03506370
2439.94132690,0.03493365
2441.87013428,0.03498115
2443.79894165,0.03497150
2445.72774902,0.03477710
2447.65655640,0.03496571
2449.58536377,0.03487892
2451.51417114,0.03476469
2453.44297852,0.03463961
2455.37178589,0.03457625
2457.30059326,0.03467279
2459.22940063,0.03455260
2461.15820801,0.03447725
2463.08701538,0.03437877
2465.01582275,0.03440720
2466.94463013,0.03435041
2468.87343750,0.03423953
2470.80224487,0.03429612
2472.73105225,0.03427573
2474.65985962,0.03426464
2476.58866699,0.03413673
2478.51747437,0.03409741
2480.44628174,0.03416352
2482.37508911,0.03406045
2484.30389648,0.03396134
2486.23270386,0.03396579
2488.16151123,0.03393471
2490.09031860,0.03390928
2492.01912598,0.03387798
2493.94793335,0.03375920
2495.87674072,0.03379067
2497.80554810,0.03367345
2499.73435547,0.03350445
2501.66316284,0.03357849
2503.59197021,0.03351767
2505.52077759,0.03340345
2507.44958496,0.03338569
2509.37839233,0.03341831
2511.30719971,0.03336106
2513.23600708,0.03335793
2515.16481445,0.03335410
2517.09362183,0.03314012
2519.02242920,0.03311529
2520.95123657,0.03316101
2522.88004395,0.03306522
2524.80885132,0.03298327
2526.73765869,0.03303509
2528.66646606,0.03305520
2530.59527344,0.03294282
2532.52408081,0.03290216
2534.45288818,0.03277978
2536.38169556,0.03278543
2538.31050293,0.03279828
2540.23931030,0.03258795
2542.16811768,0.03252799
2544.09692505,0.03256215
2546.02573242,0.03274653
2547.95453979,0.03274423
2549.88334717,0.03256512
2551.81215454,0.03261597
2553.74096191,0.03245988
2555.66976929,0.03232925
2557.59857666,0.03234629
2559.52738403,0.03228049
2561.45619141,0.03228234
2563.38499878,0.03227863
2565.31380615,0.03222544
2567.24261353,0.03211787
2569.17142090,0.03209978
2571.10022827,0.03205586
2573.02903564,0.03200760
2574.95784302,0.03200575
2576.88665039,0.03186876
2578.81545776,0.03181830
2580.74426514,0.03178709
2582.67307251,0.03180509
2584.60187988,0.03176786
2586.53068726,0.03166345
2588.45949463,0.03169382
2590.38830200,0.03157316
2592.31710937,0.03149665
2594.24591675,0.03151435
2596.17472412,0.03151148
2598.10353149,0.03147897
2600.03233887,0.03143689
2601.96114624,0.03147368
2603.88995361,0.03137870
2605.81876099,0.03124847
2607.74756836,0.03113680
2609.67637573,0.03107560
2611.60518311,0.03105361
2613.53399048,0.03109733
2615.46279785,0.03109106
2617.39160522,0.03090456
2619.32041260,0.03093563
2621.24921997,0.03096982
2623.17802734,0.03090885
2625.10683472,0.03081460
2627.03564209,0.03080301
2628.96444946,0.03088198
2630.89325684,0.03067315
2632.82206421,0.03064451
2634.75087158,0.03066701
2636.67967895,0.03048643
2638.60848633,0.03051167
2640.53729370,0.03064186
2642.46610107,0.03053321
2644.39490845,0.03039084
2646.32371582,0.03046546
2648.25252319,0.03031469
2650.18133057,0.03026428
2652.11013794,0.03027394
2654.03894531,0.03010637
2655.96775269,0.03012249
2657.89656006,0.03002313
2659.82536743,0.03000645
2661.75417480,0.03005286
2663.68298218,0.03003140
2665.61178955,0.02999408
2667.54059692,0.02981905
2669.46940430,0.02977124
2671.39821167,0.02978853
2673.32701904,0.02975175
2675.25582642,0.02961937
2677.18463379,0.02961352
2679.11344116,0.02961470
2681.04224854,0.02949575
2682.97105591,0.02955383
2684.89986328,0.02950103
2686.82867065,0.02938244
2688.75747803,0.02931251
2690.68628540,0.02933389
2692.61509277,0.02940455
2694.54390015,0.02928511
2696.47270752,0.02921520
2698.40151489,0.02925459
2700.33032227,0.02919592
2702.25912964,0.02905313
2704.18793701,0.02913019
2706.11674438,0.02912502
2708.04555176,0.02894503
2709.97435913,0.02902363
2711.90316650,0.02898297
2713.83197388,0.02886547
2715.76078125,0.02887915
2717.68958862,0.02881383
2719.61839600,0.02869611
2721.54720337,0.02862318
2723.47601074,0.02860354
2725.40481812,0.02852765
2727.33362549,0.02856337
2729.26243286,0.02849770
2731.19124023,0.02832634
2733.12004761,0.02846303
2735.04885498,0.02845212
2736.97766235,0.02836918
2738.90646973,0.02844892
2740.83527710,0.02830771
2742.76408447,0.02815306
2744.69289185,0.02810505
2746.62169922,0.02807001
2748.55050659,0.02803084
2750.47931396,0.02798260
2752.40812134,0.02796223
2754.33692871,0.02796581
2756.26573608,0.02795084
2758.19454346,0.02776051
2760.12335083,0.02780253
2762.05215820,0.02786640
2763.98096558,0.02764988
2765.90977295,0.02771362
2767.83858032,0.02763713
2769.76738770,0.02747518
2771.69619507,0.02755869
2773.62500244,0.02747882
2775.55380981,0.02732005
2777.48261719,0.02729685
2779.41142456,0.02731147
2781.34023193,0.02716365
2783.26903931,0.02720390
2785.19784668,0.02721609
2787.12665405,0.02708489
2789.05546143,0.02715774
2790.98426880,0.02707055
2792.91307617,0.02707572
2794.84188354,0.02704350
2796.77069092,0.02687047
2798.69949829,0.02685666
2800.62830566,0.02678132
2802.55711304,0.02677720
2804.48592041,0.02672422
2806.41472778,0.02658096
2808.34353516,0.02648693
2810.27234253,0.02642879
2812.20114990,0.02640456
2814.12995728,0.02644063
2816.05876465,0.02640370
2817.98757202,0.02623997
2819.91637939,0.02627536
2821.84518677,0.02621000
2823.77399414,0.02611027
2825.70280151,0.02612425
2827.63160889,0.02606862
2829.56041626,0.02607737
2831.48922363,0.02598331
2833.41803101,0.02586152
2835.34683838,0.02575134
2837.27564575,0.02575414
2839.20445312,0.02573218
2841.13326050,0.02563205
2843.06206787,0.02561633
2844.99087524,0.02537408
2846.91968262,0.02524567
2848.84848999,0.02519193
2850.77729736,0.02510741
2852.70610474,0.02509881
2854.63491211,0.02509215
2856.56371948,0.02518233
2858.49252686,0.02502805
2860.42133423,0.02497568
2862.35014160,0.02499972
2864.27894897,0.02488454
2866.20775635,0.02493970
2868.13656372,0.02486045
2870.06537109,0.02478476
2871.99417847,0.02474967
2873.92298584,0.02460036
2875.85179321,0.02458621
2877.78060059,0.02466327
2879.70940796,0.02459848
2881.63821533,0.02450477
2883.56702270,0.02449275
2885.49583008,0.02441696
2887.42463745,0.02438154
2889.35344482,0.02433047
2891.28225220,0.02432766
2893.21105957,0.02427788
2895.13986694,0.02406706
2897.06867432,0.02407737
2898.99748169,0.02405489
2900.92628906,0.02397892
2902.85509644,0.02403360
2904.78390381,0.02390894
2906.71271118,0.02375964
2908.64151855,0.02387263
2910.57032593,0.02388452
2912.49913330,0.02361352
2914.42794067,0.02353435
2916.35674805,0.02350881
2918.28555542,0.02346353
2920.21436279,0.02348745
2922.14317017,0.02335534
2924.07197754,0.02340319
2926.00078491,0.02339091
2927.92959229,0.02330140
2929.85839966,0.02343723
2931.78720703,0.02334055
2933.71601440,0.02333799
2935.64482178,0.02342718
2937.57362915,0.02329861
2939.50243652,0.02334333
2941.43124390,0.02340684
2943.36005127,0.02334208
2945.28885864,0.02323650
2947.21766602,0.02327212
2949.14647339,0.02333381
2951.07528076,0.02317395
2953.00408813,0.02311842
2954.93289551,0.02303826
2956.86170288,0.02293198
2958.79051025,0.02290132
2960.71931763,0.02281459
2962.64812500,0.02277349
2964.57693237,0.02268387
2966.50573975,0.02269405
2968.43454712,0.02268477
2970.36335449,0.02266770
2972.29216187,0.02275325
2974.22096924,0.02270741
2976.14977661,0.02277019
2978.07858398,0.02277737
2980.00739136,0.02275612
2981.93619873,0.02278402
2983.86500610,0.02272242
2985.79381348,0.02273155
2987.72262085,0.02257151
2989.65142822,0.02256760
2991.58023560,0.02262115
2993.50904297,0.02249186
2995.43785034,0.02259160
2997.36665771,0.02248218
2999.29546509,0.02236563
3001.22427246,0.02238460
3003.15307983,0.02220860
3005.08188721,0.02218496
3007.01069458,0.02210660
3008.93950195,0.02215560
3010.86830933,0.02224364
3012.79711670,0.02201625
3014.72592407,0.02205434
3016.65473145,0.02196564
3018.58353882,0.02183433
3020.51234619,0.02195556
3022.44115356,0.02179061
3024.36996094,0.02175720
3026.29876831,0.02174044
3028.22757568,0.02166132
3030.15638306,0.02173506
3032.08519043,0.02157127
3034.01399780,0.02143418
3035.94280518,0.02149002
3037.87161255,0.02155775
3039.80041992,0.02145601
3041.72922729,0.02135049
3043.65803467,0.02134760
3045.58684204,0.02124917
3047.51564941,0.02121066
3049.44445679,0.02109111
3051.37326416,0.02105238
3053.30207153,0.02109463
3055.23087891,0.02102952
3057.15968628,0.02105963
3059.08849365,0.02100666
3061.01730103,0.02101025
3062.94610840,0.02089412
3064.87491577,0.02070760
3066.80372314,0.02083872
3068.73253052,0.02076133
3070.66133789,0.02063344
3072.59014526,0.02068011
3074.51895264,0.02067506
3076.44776001,0.02067255
3078.37656738,0.02051638
3080.30537476,0.02048415
3082.23418213,0.02055750
3084.16298950,0.02041678
3086.09179687,0.02038159
3088.02060425,0.02039720
3089.94941162,0.02028001
3091.87821899,0.02015856
3093.80702637,0.02018420
3095.73583374,0.02023597
3097.66464111,0.02011298
3099.59344849,0.02003197
3101.52225586,0.02004804
3103.45106323,0.02006068
3105.37987061,0.01991526
3107.30867798,0.01988382
3109.23748535,0.01994841
3111.16629272,0.01972161
3113.09510010,0.01975515
3115.02390747,0.01973750
3116.95271484,0.01951845
3118.88152222,0.01955524
3120.81032959,0.01951322
3122.73913696,0.01948814
3124.66794434,0.01950297
3126.59675171,0.01952534
3128.52555908,0.01941578
3130.45436645,0.01933439
3132.38317383,0.01929045
3134.31198120,0.01905888
3136.24078857,0.01922000
3138.16959595,0.01919892
3140.09840332,0.01898422
3142.02721069,0.01903990
3143.95601807,0.01902193
3145.88482544,0.01904849
3147.81363281,0.01886036
3149.74244019,0.01878564
3151.67124756,0.01878576
3153.60005493,0.01869943
3155.52886230,0.01879974
3157.45766968,0.01856846
3159.38647705,0.01850856
3161.31528442,0.01869877
3163.24409180,0.01854029
3165.17289917,0.01843357
3167.10170654,0.01839555
3169.03051392,0.01830675
3170.95932129,0.01830544
3172.88812866,0.01825588
3174.81693604,0.01812582
3176.74574341,0.01805149
3178.67455078,0.01807568
3180.60335815,0.01800406
3182.53216553,0.01782915
3184.46097290,0.01780468
3186.38978027,0.01779549
3188.31858765,0.01787234
3190.24739502,0.01785636
3192.17620239,0.01765190
3194.10500977,0.01777591
3196.03381714,0.01773736
3197.96262451,0.01751803
3199.89143188,0.01755344
3201.82023926,0.01759506
3203.74904663,0.01753625
3205.67785400,0.01736220
3207.60666138,0.01735164
3209.53546875,0.01735283
3211.46427612,0.01726345
3213.39308350,0.01728559
3215.32189087,0.01727566
3217.25069824,0.01718247
3219.17950562,0.01713450
3221.10831299,0.01719972
3223.03712036,0.01712468
3224.96592773,0.01709622
3226.89473511,0.01709979
3228.82354248,0.01696401
3230.75234985,0.01694511
3232.68115723,0.01694236
3234.60996460,0.01693288
3236.53877197,0.01685643
3238.46757935,0.01680059
3240.39638672,0.01680716
3242.32519409,0.01673667
3244.25400146,0.01670972
3246.18280884,0.01675363
3248.11161621,0.01680805
3250.04042358,0.01672580
3251.96923096,0.01663968
3253.89803833,0.01669463
3255.82684570,0.01670749
3257.75565308,0.01659095
3259.68446045,0.01657526
3261.61326782,0.01656907
3263.54207520,0.01652521
3265.47088257,0.01663602
3267.39968994,0.01653882
3269.32849731,0.01650017
3271.25730469,0.01652140
3273.18611206,0.01638930
3275.11491943,0.01640262
3277.04372681,0.01636816
3278.97253418,0.01638937
3280.90134155,0.01634353
3282.83014893,0.01627329
3284.75895630,0.01631838
3286.68776367,0.01629780
3288.61657104,0.01626824
3290.54537842,0.01619524
3292.47418579,0.01624782
3294.40299316,0.01623372
3296.33180054,0.01618147
3298.26060791,0.01614323
3300.18941528,0.01604875
3302.11822266,0.01616842
3304.04703003,0.01616180
3305.97583740,0.01601560
3307.90464478,0.01604316
3309.83345215,0.01612263
3311.76225952,0.01600337
3313.69106689,0.01590927
3315.61987427,0.01602284
3317.54868164,0.01597527
3319.47748901,0.01587798
3321.40629639,0.01591866
3323.33510376,0.01587034
3325.26391113,0.01571433
3327.19271851,0.01573643
3329.12152588,0.01577840
3331.05033325,0.01570796
3332.97914062,0.01572516
3334.90794800,0.01568879
3336.83675537,0.01556036
3338.76556274,0.01558321
3340.69437012,0.01568083
3342.62317749,0.01558307
3344.55198486,0.01566579
3346.48079224,0.01574069
3348.40959961,0.01553191
3350.33840698,0.01539903
3352.26721436,0.01537394
3354.19602173,0.01551627
3356.12482910,0.01542655
3358.05363647,0.01534138
3359.98244385,0.01532762
3361.91125122,0.01522925
3363.84005859,0.01534061
3365.76886597,0.01520433
3367.69767334,0.01517605
3369.62648071,0.01525197
3371.55528809,0.01526976
3373.48409546,0.01525889
3375.41290283,0.01506905
3377.34171020,0.01510243
3379.27051758,0.01508555
3381.19932495,0.01505611
3383.12813232,0.01497034
3385.05693970,0.01487554
3386.98574707,0.01491531
3388.91455444,0.01490580
3390.84336182,0.01488465
3392.77216919,0.01474996
3394.70097656,0.01476893
3396.62978394,0.01471851
3398.55859131,0.01472094
3400.48739868,0.01475108
3402.41620605,0.01462864
3404.34501343,0.01468110
3406.27382080,0.01463882
3408.20262817,0.01464401
3410.13143555,0.01463028
3412.06024292,0.01459097
3413.98905029,0.01452572
3415.91785767,0.01458335
3417.84666504,0.01460634
3419.77547241,0.01431678
3421.70427979,0.01441879
3423.63308716,0.01441842
3425.56189453,0.01438890
3427.49070190,0.01441980
3429.41950928,0.01422738
3431.34831665,0.01423485
3433.27712402,0.01427336
3435.20593140,0.01436203
3437.13473877,0.01422959
3439.06354614,0.01422514
3440.99235352,0.01416071
3442.92116089,0.01399941
3444.84996826,0.01415178
3446.77877563,0.01386005
3448.70758301,0.01388488
3450.63639038,0.01411342
3452.56519775,0.01402969
3454.49400513,0.01408675
3456.42281250,0.01395891
3458.35161987,0.01396035
3460.28042725,0.01395971
3462.20923462,0.01381240
3464.13804199,0.01391632
3466.06684937,0.01390923
3467.99565674,0.01380211
3469.92446411,0.01380626
3471.85327148,0.01382906
3473.78207886,0.01385795
3475.71088623,0.01370913
3477.63969360,0.01375650
3479.56850098,0.01367705
3481.49730835,0.01340329
3483.42611572,0.01372190
3485.35492310,0.01365672
3487.28373047,0.01347713
3489.21253784,0.01359459
3491.14134521,0.01356292
3493.07015259,0.01370895
3494.99895996,0.01364221
3496.92776733,0.01361874
3498.85657471,0.01365192
3500.78538208,0.01359660
3502.71418945,0.01325765
3504.64299683,0.01324614
3506.57180420,0.01374709
3508.50061157,0.01338200
3510.42941895,0.01332102
3512.35822632,0.01356902
3514.28703369,0.01353916
3516.21584106,0.01357604
3518.14464844,0.01339012
3520.07345581,0.01352475
3522.00226318,0.01336385
3523.93107056,0.01316321
3525.85987793,0.01323479
3527.78868530,0.01320293
3529.71749268,0.01335282
3531.64630005,0.01338065
3533.57510742,0.01348718
3535.50391479,0.01342987
3537.43272217,0.01326010
3539.36152954,0.01338948
3541.29033691,0.01338260
3543.21914429,0.01328908
3545.14795166,0.01294979
3547.07675903,0.01262156
3549.00556641,0.01318174
3550.93437378,0.01326677
3552.86318115,0.01282917
3554.79198853,0.01325899
3556.72079590,0.01325878
3558.64960327,0.01314587
3560.57841064,0.01315953
3562.50721802,0.01305169
3564.43602539,0.01312505
3566.36483276,0.01203369
3568.29364014,0.01168021
3570.22244751,0.01290161
3572.15125488,0.01321151
3574.08006226,0.01298788
3576.00886963,0.01316150
3577.93767700,0.01314905
3579.86648437,0.01302443
3581.79529175,0.01306561
3583.72409912,0.01321186
3585.65290649,0.01273557
3587.58171387,0.01146582
3589.51052124,0.01199060
3591.43932861,0.01322501
3593.36813599,0.01279675
3595.29694336,0.01243756
3597.22575073,0.01267517
3599.15455811,0.01290786
3601.08336548,0.01271372
3603.01217285,0.01283605
3604.94098022,0.01319231
3606.86978760,0.01261515
3608.79859497,0.01167050
3610.72740234,0.01201457
3612.65620972,0.01231633
3614.58501709,0.01186523
3616.51382446,0.01289061
3618.44263184,0.01171754
3620.37143921,0.01126012
3622.30024658,0.01302393
3624.22905395,0.01266229
3626.15786133,0.01329303
3628.08666870,0.01084803
3630.01547607,0.00972150
3631.94428345,0.01279997
3633.87309082,0.01245530
3635.80189819,0.01270758
3637.73070557,0.01300640
3639.65951294,0.01280085
3641.58832031,0.01281676
3643.51712769,0.01270372
3645.44593506,0.01289279
3647.37474243,0.01121876
3649.30354980,0.01018284
3651.23235718,0.01027618
3653.16116455,0.01259423
3655.08997192,0.01252564
3657.01877930,0.01093879
3658.94758667,0.01295298
3660.87639404,0.01265186
3662.80520142,0.01280576
3664.73400879,0.01282485
3666.66281616,0.01268323
3668.59162354,0.01213268
3670.52043091,0.00952955
3672.44923828,0.01214557
3674.37804565,0.01143120
3676.30685303,0.00907015
3678.23566040,0.01192389
3680.16446777,0.01212187
3682.09327515,0.01220025
3684.02208252,0.01272197
3685.95088989,0.01241135
3687.87969727,0.01104294
3689.80850464,0.00994458
3691.73731201,0.01150726
3693.66611938,0.01199626
3695.59492676,0.01233491
3697.52373413,0.01242969
3699.45254150,0.01232982
3701.38134888,0.01183244
3703.31015625,0.01133304
3705.23896362,0.01264536
3707.16777100,0.01194866
3709.09657837,0.01151514
3711.02538574,0.01069315
3712.95419312,0.01003649
3714.88300049,0.01204413
3716.81180786,0.01185915
3718.74061523,0.01196442
3720.66942261,0.01167346
3722.59822998,0.01122975
3724.52703735,0.01166743
3726.45584473,0.01071312
3728.38465210,0.01174862
3730.31345947,0.01159095
3732.24226685,0.01046850
3734.17107422,0.01011000
3736.09988159,0.00955212
3738.02868896,0.01032444
3739.95749634,0.01126755
3741.88630371,0.01183480
3743.81511108,0.00886724
3745.74391846,0.00825937
3747.67272583,0.01132582
3749.60153320,0.00940158
3751.53034058,0.00841986
3753.45914795,0.01005466
3755.38795532,0.01091098
3757.31676270,0.01146621
3759.24557007,0.01039875
3761.17437744,0.01090540
3763.10318481,0.01181787
3765.03199219,0.01073199
3766.96079956,0.01104707
3768.88960693,0.01090961
3770.81841431,0.01032016
3772.74722168,0.01138199
3774.67602905,0.01131204
3776.60483643,0.01135419
3778.53364380,0.01104394
3780.46245117,0.01051651
3782.39125854,0.01133649
3784.32006592,0.01102604
3786.24887329,0.01096219
3788.17768066,0.01124006
3790.10648804,0.01115141
3792.03529541,0.01110620
3793.96410278,0.01134806
3795.89291016,0.01055345
3797.82171753,0.01036571
3799.75052490,0.01105773
3801.67933228,0.00847372
3803.60813965,0.01009593
3805.53694702,0.01108134
3807.46575439,0.00881183
3809.39456177,0.01102900
3811.32336914,0.01071893
3813.25217651,0.01113086
3815.18098389,0.00994658
3817.10979126,0.00853060
3819.03859863,0.01119805
3820.96740601,0.00873155
3822.89621338,0.00924533
3824.82502075,0.01111678
3826.75382812,0.00990325
3828.68263550,0.01074540
3830.61144287,0.01022633
3832.54025024,0.00972470
3834.46905762,0.00998361
3836.39786499,0.00957787
3838.32667236,0.00845980
3840.25547974,0.00920047
3842.18428711,0.01010001
3844.11309448,0.00957966
3846.04190186,0.01053503
3847.97070923,0.01035594
3849.89951660,0.01031449
3851.82832397,0.00910804
3853.75713135,0.00653996
3855.68593872,0.00802295
3857.61474609,0.01043574
3859.54355347,0.01015029
3861.47236084,0.00987071
3863.40116821,0.00968994
3865.32997559,0.00887272
3867.25878296,0.01010057
3869.18759033,0.00918171
3871.11639770,0.00826317
3873.04520508,0.01016228
3874.97401245,0.00911773
3876.90281982,0.00997534
3878.83162720,0.01028014
3880.76043457,0.00846630
3882.68924194,0.01009478
3884.61804932,0.00929570
3886.54685669,0.00841377
3888.47566406,0.01017115
3890.40447144,0.00939512
3892.33327881,0.00886077
3894.26208618,0.00989105
3896.19089355,0.00992393
3898.11970093,0.00939921
3900.04850830,0.00878764
3901.97731567,0.00871691
3903.90612305,0.00869374
3905.83493042,0.00875691
3907.76373779,0.00976065
3909.69254517,0.00982331
3911.62135254,0.00965047
3913.55015991,0.00988470
3915.47896728,0.00954666
3917.40777466,0.00915262
3919.33658203,0.00906450
3921.26538940,0.00951926
3923.19419678,0.00940766
3925.12300415,0.00928583
3927.05181152,0.00951390
3928.98061890,0.00944765
3930.90942627,0.00930126
3932.83823364,0.00900332
3934.76704102,0.00938817
3936.69584839,0.00948800
3938.62465576,0.00933652
3940.55346313,0.00943802
3942.48227051,0.00902180
3944.41107788,0.00916344
3946.33988525,0.00945715
3948.26869263,0.00913341
3950.19750000,0.00898549
3952.12630737,0.00913670
3954.05511475,0.00926441
3955.98392212,0.00928380
3957.91272949,0.00913145
3959.84153687,0.00913332
3961.77034424,0.00914607
3963.69915161,0.00907451
3965.62795898,0.00918441
3967.55676636,0.00904222
3969.48557373,0.00900693
3971.41438110,0.00900081
3973.34318848,0.00897428
3975.27199585,0.00900090
3977.20080322,0.00894578
3979.12961060,0.00909962
3981.05841797,0.00897137
3982.98722534,0.00892423
3984.91603271,0.00890758
3986.84484009,0.00888059
3988.77364746,0.00895725
3990.70245483,0.00888574
3992.63126221,0.00894995
3994.56006958,0.00882540
3996.48887695,0.00887557
3998.41768433,0.00884897
4000.34649170,0.00876786
4002.27529907,0.00885302
4004.20410645,0.00874384
4006.13291382,0.00873998
4008.06172119,0.00860522
4009.99052856,0.00866151
4011.91933594,0.00864873
4013.84814331,0.00860197
4015.77695068,0.00875027
4017.70575806,0.00862061
4019.63456543,0.00858679
4021.56337280,0.00853639
4023.49218018,0.00849218
4025.42098755,0.00849490
4027.34979492,0.00850439
4029.27860229,0.00846729
4031.20740967,0.00843263
4033.13621704,0.00844705
4035.06502441,0.00836861
4036.99383179,0.00846065
4038.92263916,0.00845617
4040.85144653,0.00842887
4042.78025391,0.00831919
4044.70906128,0.00825142
4046.63786865,0.00835096
4048.56667603,0.00831424
4050.49548340,0.00830412
4052.42429077,0.00818114
4054.35309814,0.00825392
4056.28190552,0.00823515
4058.21071289,0.00809604
4060.13952026,0.00817747
4062.06832764,0.00816587
4063.99713501,0.00812887
4065.92594238,0.00803163
4067.85474976,0.00808613
4069.78355713,0.00810101
4071.71236450,0.00810428
4073.64117187,0.00809810
4075.56997925,0.00802079
4077.49878662,0.00802464
4079.42759399,0.00789186
4081.35640137,0.00798755
4083.28520874,0.00795454
4085.21401611,0.00788497
4087.14282349,0.00796542
4089.07163086,0.00787294
4091.00043823,0.00791478
4092.92924561,0.00789468
4094.85805298,0.00785783
4096.78686035,0.00779604
4098.71566772,0.00778679
4100.64447510,0.00785320
4102.57328247,0.00780339
4104.50208984,0.00779034
4106.43089722,0.00771167
4108.35970459,0.00767455
4110.28851196,0.00775526
4112.21731934,0.00774915
4114.14612671,0.00760743
4116.07493408,0.00759599
4118.00374145,0.00760483
4119.93254883,0.00763438
4121.86135620,0.00767467
4123.79016357,0.00754571
4125.71897095,0.00756531
4127.64777832,0.00750085
4129.57658569,0.00749485
4131.50539307,0.00752082
4133.43420044,0.00743229
4135.36300781,0.00751041
4137.29181519,0.00740445
4139.22062256,0.00735396
4141.14942993,0.00747666
4143.07823730,0.00747226
4145.00704468,0.00738432
4146.93585205,0.00739141
4148.86465942,0.00743113
4150.79346680,0.00735098
4152.72227417,0.00729081
4154.65108154,0.00726754
4156.57988892,0.00728452
4158.50869629,0.00721654
4160.43750366,0.00719604
4162.36631103,0.00725982
4164.29511841,0.00728147
4166.22392578,0.00718597
4168.15273315,0.00712347
4170.08154053,0.00722589
4172.01034790,0.00705821
4173.93915527,0.00705266
4175.86796265,0.00714004
4177.79677002,0.00708864
4179.72557739,0.00711307
4181.65438477,0.00696451
4183.58319214,0.00702382
4185.51199951,0.00704431
4187.44080688,0.00694260
4189.36961426,0.00693762
4191.29842163,0.00689486
4193.22722900,0.00695322
4195.15603638,0.00689521
4197.08484375,0.00684609
4199.01365112,0.00691976
4200.94245850,0.00688914
4202.87126587,0.00684609
4204.80007324,0.00687499
4206.72888062,0.00680215
4208.65768799,0.00683886
4210.58649536,0.00686671
4212.51530273,0.00672357
4214.44411011,0.00675738
4216.37291748,0.00669830
4218.30172485,0.00670596
4220.23053223,0.00668628
4222.15933960,0.00656900
4224.08814697,0.00668371
4226.01695435,0.00669683
4227.94576172,0.00666876
4229.87456909,0.00666433
4231.80337646,0.00667279
4233.73218384,0.00660778
4235.66099121,0.00654840
4237.58979858,0.00650222
4239.51860596,0.00648923
4241.44741333,0.00655455
4243.37622070,0.00644301
4245.30502808,0.00651146
4247.23383545,0.00644455
4249.16264282,0.00638491
4251.09145020,0.00646884
4253.02025757,0.00632909
4254.94906494,0.00642547
4256.87787231,0.00642552
4258.80667969,0.00632284
4260.73548706,0.00635544
4262.66429443,0.00642873
4264.59310181,0.00635565
4266.52190918,0.00625074
4268.45071655,0.00634238
4270.37952393,0.00626101
4272.30833130,0.00623935
4274.23713867,0.00620166
4276.16594604,0.00617788
4278.09475342,0.00619428
4280.02356079,0.00617836
4281.95236816,0.00623775
4283.88117554,0.00613017
4285.80998291,0.00615210
4287.73879028,0.00614299
4289.66759766,0.00611255
4291.59640503,0.00612245
4293.52521240,0.00609816
4295.45401978,0.00607212
4297.38282715,0.00603142
4299.31163452,0.00611919
4301.24044189,0.00600244
4303.16924927,0.00605469
4305.09805664,0.00598294
4307.02686401,0.00589150
4308.95567139,0.00609075
4310.88447876,0.00591886
4312.81328613,0.00597178
4314.74209351,0.00602358
4316.67090088,0.00599576
4318.59970825,0.00597154
4320.52851562,0.00580866
4322.45732300,0.00591764
4324.38613037,0.00588283
4326.31493774,0.00586537
4328.24374512,0.00586473
4330.17255249,0.00586301
4332.10135986,0.00584880
4334.03016724,0.00573043
4335.95897461,0.00581491
4337.88778198,0.00576168
4339.81658936,0.00573690
4341.74539673,0.00576097
4343.67420410,0.00569345
4345.60301147,0.00569083
4347.53181885,0.00567487
4349.46062622,0.00566322
4351.38943359,0.00563306
4353.31824097,0.00562994
4355.24704834,0.00561294
4357.17585571,0.00566437
4359.10466309,0.00563379
4361.03347046,0.00553728
4362.96227783,0.00556789
4364.89108520,0.00551070
4366.81989258,0.00553179
4368.74869995,0.00556943
4370.67750732,0.00550283
4372.60631470,0.00550162
4374.53512207,0.00551333
4376.46392944,0.00554685
4378.39273682,0.00552920
4380.32154419,0.00541535
4382.25035156,0.00537067
4384.17915894,0.00543189
4386.10796631,0.00549037
4388.03677368,0.00541088
4389.96558105,0.00534721
4391.89438843,0.00543710
4393.82319580,0.00539875
4395.75200317,0.00533087
4397.68081055,0.00531236
4399.60961792,0.00526675
4401.53842529,0.00529653
4403.46723267,0.00531300
4405.39604004,0.00532574
4407.32484741,0.00524749
4409.25365478,0.00521578
4411.18246216,0.00529566
4413.11126953,0.00526440
4415.04007690,0.00519436
4416.96888428,0.00519127
4418.89769165,0.00523790
4420.82649902,0.00514855
4422.75530640,0.00510429
4424.68411377,0.00513602
4426.61292114,0.00509508
4428.54172852,0.00512310
4430.47053589,0.00515212
4432.39934326,0.00514380
4434.32815063,0.00511610
4436.25695801,0.00509982
4438.18576538,0.00500869
4440.11457275,0.00498409
4442.04338013,0.00502789
4443.97218750,0.00495219
4445.90099487,0.00491028
4447.82980225,0.00495451
4449.75860962,0.00505581
4451.68741699,0.00493014
4453.61622437,0.00487217
4455.54503174,0.00497080
4457.47383911,0.00491012
4459.40264648,0.00491973
4461.33145386,0.00483929
4463.26026123,0.00482367
4465.18906860,0.00485571
4467.11787598,0.00482103
4469.04668335,0.00485718
4470.97549072,0.00483603
4472.90429810,0.00480420
4474.83310547,0.00471552
4476.76191284,0.00475709
4478.69072021,0.00479974
4480.61952759,0.00480788
4482.54833496,0.00483456
4484.47714233,0.00474333
4486.40594971,0.00480069
4488.33475708,0.00474881
4490.26356445,0.00466578
4492.19237183,0.00472533
4494.12117920,0.00469457
4496.04998657,0.00469157
4497.97879395,0.00472308
4499.90760132,0.00468065
4501.83640869,0.00455997
4503.76521606,0.00455170
4505.69402344,0.00462541
4507.62283081,0.00460810
4509.55163818,0.00454988
4511.48044556,0.00455183
4513.40925293,0.00451795
4515.33806030,0.00448968
4517.26686768,0.00460385
4519.19567505,0.00455992
4521.12448242,0.00449546
4523.05328979,0.00454008
4524.98209717,0.00447218
4526.91090454,0.00447360
4528.83971191,0.00448030
4530.76851929,0.00437393
4532.69732666,0.00442656
4534.62613403,0.00446611
4536.55494141,0.00436258
4538.48374878,0.00443405
4540.41255615,0.00442510
4542.34136353,0.00437725
4544.27017090,0.00444072
4546.19897827,0.00433295
4548.12778564,0.00424307
4550.05659302,0.00430414
4551.98540039,0.00436812
4553.91420776,0.00428160
4555.84301514,0.00427943
4557.77182251,0.00429872
4559.70062988,0.00425836
4561.62943726,0.00426984
4563.55824463,0.00414887
4565.48705200,0.00427117
4567.41585937,0.00427701
4569.34466675,0.00412859
4571.27347412,0.00420602
4573.20228149,0.00415320
4575.13108887,0.00425682
4577.05989624,0.00427361
4578.98870361,0.00412474
4580.91751099,0.00412139
4582.84631836,0.00412838
4584.77512573,0.00411727
4586.70393311,0.00406060
4588.63274048,0.00414473
4590.56154785,0.00414776
4592.49035522,0.00405432
4594.41916260,0.00402392
4596.34796997,0.00400257
4598.27677734,0.00407210
4600.20558472,0.00408231
4602.13439209,0.00407192
4604.06319946,0.00401498
4605.99200684,0.00396124
4607.92081421,0.00400220
4609.84962158,0.00401428
4611.77842895,0.00397403
4613.70723633,0.00394070
4615.63604370,0.00398017
4617.56485107,0.00396413
4619.49365845,0.00396039
4621.42246582,0.00391015
4623.35127319,0.00387684
4625.28008057,0.00397890
4627.20888794,0.00385238
4629.13769531,0.00378053
4631.06650269,0.00388059
4632.99531006,0.00385665
4634.92411743,0.00387739
4636.85292480,0.00384652
4638.78173218,0.00379499
4640.71053955,0.00383844
4642.63934692,0.00381031
4644.56815430,0.00379745
4646.49696167,0.00376205
4648.42576904,0.00370802
4650.35457642,0.00375940
4652.28338379,0.00376372
4654.21219116,0.00374965
4656.14099853,0.00373807
4658.06980591,0.00365802
4659.99861328,0.00365910
4661.92742065,0.00373313
4663.85622803,0.00369319
4665.78503540,0.00362222
4667.71384277,0.00363169
4669.64265015,0.00365329
4671.57145752,0.00369339
4673.50026489,0.00367007
4675.42907227,0.00362963
4677.35787964,0.00361908
4679.28668701,0.00357057
4681.21549438,0.00354754
4683.14430176,0.00353404
4685.07310913,0.00360303
4687.00191650,0.00366149
4688.93072388,0.00364362
4690.85953125,0.00361425
4692.78833862,0.00355045
4694.71714600,0.00355299
4696.64595337,0.00351351
4698.57476074,0.00346644
4700.50356812,0.00345587
4702.43237549,0.00344918
4704.36118286,0.00353042
4706.28999023,0.00351504
4708.21879761,0.00347895
4710.14760498,0.00351930
4712.07641235,0.00348122
4714.00521973,0.00343501
4715.93402710,0.00347802
4717.86283447,0.00349113
4719.79164185,0.00340217
4721.72044922,0.00340738
4723.64925659,0.00343786
4725.57806396,0.00338271
4727.50687134,0.00338948
4729.43567871,0.00334670
4731.36448608,0.00334278
4733.29329346,0.00336296
4735.22210083,0.00322957
4737.15090820,0.00327672
4739.07971558,0.00334182
4741.00852295,0.00331895
4742.93733032,0.00341774
4744.86613770,0.00334612
4746.79494507,0.00324029
4748.72375244,0.00328995
4750.65255981,0.00331615
4752.58136719,0.00323278
4754.51017456,0.00323876
4756.43898193,0.00330764
4758.36778931,0.00321933
4760.29659668,0.00326969
4762.22540405,0.00326974
4764.15421143,0.00317394
4766.08301880,0.00323619
4768.01182617,0.00323549
4769.94063354,0.00320675
4771.86944092,0.00317210
4773.79824829,0.00317831
4775.72705566,0.00314731
4777.65586304,0.00310084
4779.58467041,0.00315554
4781.51347778,0.00314428
4783.44228516,0.00313342
4785.37109253,0.00312894
4787.29989990,0.00314717
4789.22870728,0.00312869
4791.15751465,0.00305975
4793.08632202,0.00305343
4795.01512939,0.00306004
4796.94393677,0.00309129
4798.87274414,0.00308405
4800.80155151,0.00308241
4802.73035889,0.00307573
4804.65916626,0.00301462
4806.58797363,0.00299761
4808.51678101,0.00299683
4810.44558838,0.00300809
4812.37439575,0.00310260
4814.30320312,0.00306274
4816.23201050,0.00291396
4818.16081787,0.00299557
4820.08962524,0.00299935
4822.01843262,0.00294933
4823.94723999,0.00295642
4825.87604736,0.00287579
4827.80485474,0.00290764
4829.73366211,0.00286606
4831.66246948,0.00286559
4833.59127686,0.00292836
4835.52008423,0.00287940
4837.44889160,0.00289791
4839.37769897,0.00289927
4841.30650635,0.00284046
4843.23531372,0.00282448
4845.16412109,0.00287088
4847.09292847,0.00284509
4849.02173584,0.00287559
4850.95054321,0.00282486
4852.87935059,0.00273669
4854.80815796,0.00287885
4856.73696533,0.00281498
4858.66577270,0.00277223
4860.59458008,0.00278735
4862.52338745,0.00274539
4864.45219482,0.00282197
4866.38100220,0.00273236
4868.30980957,0.00272432
4870.23861694,0.00278011
4872.16742432,0.00274124
4874.09623169,0.00272816
4876.02503906,0.00267948
4877.95384644,0.00268486
4879.88265381,0.00276826
4881.81146118,0.00276497
4883.74026855,0.00261086
4885.66907593,0.00263457
4887.59788330,0.00273181
4889.52669067,0.00267966
4891.45549805,0.00266889
4893.38430542,0.00265504
4895.31311279,0.00264081
4897.24192017,0.00260258
4899.17072754,0.00256003
4901.09953491,0.00263129
4903.02834228,0.00269030
4904.95714966,0.00262151
4906.88595703,0.00257826
4908.81476440,0.00260502
4910.74357178,0.00261489
4912.67237915,0.00266955
4914.60118652,0.00260223
4916.52999390,0.00254945
4918.45880127,0.00262936
4920.38760864,0.00255841
4922.31641602,0.00255968
4924.24522339,0.00255704
4926.17403076,0.00248276
4928.10283813,0.00258890
4930.03164551,0.00255635
4931.96045288,0.00251746
4933.88926025,0.00253747
4935.81806763,0.00244717
4937.74687500,0.00252052
4939.67568237,0.00248989
4941.60448975,0.00244470
4943.53329712,0.00252575
4945.46210449,0.00247965
4947.39091187,0.00248912
4949.31971924,0.00246322
4951.24852661,0.00250736
4953.17733398,0.00253062
4955.10614136,0.00238118
4957.03494873,0.00242147
4958.96375610,0.00241722
4960.89256348,0.00234069
4962.82137085,0.00241317
4964.75017822,0.00244647
4966.67898560,0.00241889
4968.60779297,0.00239743
4970.53660034,0.00236975
4972.46540771,0.00237566
4974.39421509,0.00237370
4976.32302246,0.00235821
4978.25182983,0.00233423
4980.18063721,0.00226640
4982.10944458,0.00235068
4984.03825195,0.00236088
4985.96705933,0.00226436
4987.89586670,0.00230840
4989.82467407,0.00227647
4991.75348145,0.00229327
4993.68228882,0.00230136
4995.61109619,0.00227351
4997.53990356,0.00233920
4999.46871094,0.00233416
5001.39751831,0.00227196
5003.32632568,0.00221254
5005.25513306,0.00229502
5007.18394043,0.00231352
5009.11274780,0.00220489
5011.04155518,0.00220625
5012.97036255,0.00223397
5014.89916992,0.00229960
5016.82797729,0.00230763
5018.75678467,0.00221734
5020.68559204,0.00224522
5022.61439941,0.00225735
5024.54320679,0.00213575
5026.47201416,0.00215074
5028.40082153,0.00217785
5030.32962891,0.00214950
5032.25843628,0.00211880
5034.18724365,0.00206708
5036.11605103,0.00215607
5038.04485840,0.00211000
5039.97366577,0.00214663
5041.90247314,0.00222681
5043.83128052,0.00212292
5045.76008789,0.00219469
5047.68889526,0.00211958
5049.61770264,0.00207174
5051.54651001,0.00214362
5053.47531738,0.00206894
5055.40412476,0.00204903
5057.33293213,0.00206637
5059.26173950,0.00211925
5061.19054687,0.00208840
5063.11935425,0.00207893
5065.04816162,0.00210442
5066.97696899,0.00207448
5068.90577637,0.00206705
5070.83458374,0.00200076
5072.76339111,0.00202471
5074.69219849,0.00208829
5076.62100586,0.00205077
5078.54981323,0.00204108
5080.47862061,0.00205852
5082.40742798,0.00199681
5084.33623535,0.00201671
5086.26504272,0.00200364
5088.19385010,0.00193582
5090.12265747,0.00206217
5092.05146484,0.00202833
5093.98027222,0.00197168
5095.90907959,0.00199434
5097.83788696,0.00194432
5099.76669434,0.00195894
5101.69550171,0.00194986
5103.62430908,0.00200439
5105.55311645,0.00197209
5107.48192383,0.00192351
5109.41073120,0.00194402
5111.33953857,0.00188071
5113.26834595,0.00188288
5115.19715332,0.00190626
5117.12596069,0.00193335
5119.05476807,0.00192799
5120.98357544,0.00188733
5122.91238281,0.00186023
5124.84119019,0.00190693
5126.76999756,0.00193593
5128.69880493,0.00187977
5130.62761230,0.00186472
5132.55641968,0.00185444
5134.48522705,0.00186483
5136.41403442,0.00174393
5138.34284180,0.00178576
5140.27164917,0.00186599
5142.20045654,0.00172338
5144.12926392,0.00185009
5146.05807129,0.00184155
5147.98687866,0.00175659
5149.91568603,0.00177755
5151.84449341,0.00177904
5153.77330078,0.00188608
5155.70210815,0.00175148
5157.63091553,0.00178553
5159.55972290,0.00187988
5161.48853027,0.00174391
5163.41733765,0.00177869
5165.34614502,0.00178343
5167.27495239,0.00180367
5169.20375977,0.00179561
5171.13256714,0.00172218
5173.06137451,0.00172555
5174.99018188,0.00169564
5176.91898926,0.00172347
5178.84779663,0.00174076
5180.77660400,0.00172423
5182.70541138,0.00169260
5184.63421875,0.00163047
5186.56302612,0.00167670
5188.49183350,0.00174786
5190.42064087,0.00170902
5192.34944824,0.00166178
5194.27825562,0.00170865
5196.20706299,0.00169050
5198.13587036,0.00169218
5200.06467773,0.00172141
5201.99348511,0.00162809
5203.92229248,0.00170643
5205.85109985,0.00170012
5207.77990723,0.00154544
5209.70871460,0.00158207
5211.63752197,0.00162209
5213.56632935,0.00170524
5215.49513672,0.00164399
5217.42394409,0.00158367
5219.35275146,0.00171908
5221.28155884,0.00165235
5223.21036621,0.00160149
5225.13917358,0.00156929
5227.06798096,0.00155652
5228.99678833,0.00164243
5230.92559570,0.00157187
5232.85440308,0.00154364
5234.78321045,0.00156430
5236.71201782,0.00154486
5238.64082520,0.00155143
5240.56963257,0.00156100
5242.49843994,0.00157649
5244.42724731,0.00155140
5246.35605469,0.00157647
5248.28486206,0.00162152
5250.21366943,0.00153055
5252.14247681,0.00152598
5254.07128418,0.00160933
5256.00009155,0.00153154
5257.92889893,0.00155081
5259.85770630,0.00156658
5261.78651367,0.00146212
5263.71532104,0.00147385
5265.64412842,0.00145441
5267.57293579,0.00147813
5269.50174316,0.00148779
5271.43055054,0.00147760
5273.35935791,0.00152460
5275.28816528,0.00148020
5277.21697266,0.00151313
5279.14578003,0.00150550
5281.07458740,0.00145031
5283.00339478,0.00144082
5284.93220215,0.00145733
5286.86100952,0.00153229
5288.78981689,0.00144576
5290.71862427,0.00142186
5292.64743164,0.00151697
5294.57623901,0.00149638
5296.50504639,0.00146290
5298.43385376,0.00144822
5300.36266113,0.00144490
5302.29146851,0.00138464
5304.22027588,0.00139860
5306.14908325,0.00148001
5308.07789062,0.00144453
5310.00669800,0.00143248
5311.93550537,0.00137697
5313.86431274,0.00135609
5315.79312012,0.00143130
5317.72192749,0.00142214
5319.65073486,0.00144005
5321.57954224,0.00140405
5323.50834961,0.00139219
5325.43715698,0.00144547
5327.36596436,0.00136057
5329.29477173,0.00137381
5331.22357910,0.00143375
5333.15238647,0.00137514
5335.08119385,0.00139193
5337.01000122,0.00139238
5338.93880859,0.00124805
5340.86761597,0.00127231
5342.79642334,0.00134525
5344.72523071,0.00124688
5346.65403809,0.00131160
5348.58284546,0.00134655
5350.51165283,0.00132522
5352.44046020,0.00131832
5354.36926758,0.00127754
5356.29807495,0.00138782
5358.22688232,0.00135139
5360.15568970,0.00131948
5362.08449707,0.00133414
5364.01330444,0.00128678
5365.94211182,0.00124606
5367.87091919,0.00118647
5369.79972656,0.00130916
5371.72853394,0.00126666
5373.65734131,0.00126508
5375.58614868,0.00130499
5377.51495605,0.00118440
5379.44376343,0.00128577
5381.37257080,0.00126621
5383.30137817,0.00125527
5385.23018555,0.00127279
5387.15899292,0.00123735
5389.08780029,0.00129906
5391.01660767,0.00130402
5392.94541504,0.00129214
5394.87422241,0.00111268
5396.80302978,0.00118138
5398.73183716,0.00129909
5400.66064453,0.00115543
5402.58945190,0.00123625
5404.51825928,0.00126908
5406.44706665,0.00124712
5408.37587402,0.00121453
5410.30468140,0.00119484
5412.23348877,0.00122652
5414.16229614,0.00115965
5416.09110352,0.00121014
5418.01991089,0.00122382
5419.94871826,0.00122422
5421.87752563,0.00125848
5423.80633301,0.00122023
5425.73514038,0.00121840
5427.66394775,0.00115150
5429.59275513,0.00109769
5431.52156250,0.00113218
5433.45036987,0.00116032
5435.37917725,0.00110959
5437.30798462,0.00112232
5439.23679199,0.00120609
5441.16559936,0.00113072
5443.09440674,0.00113447
5445.02321411,0.00119234
5446.95202148,0.00114413
5448.88082886,0.00116697
5450.80963623,0.00115963
5452.73844360,0.00112556
5454.66725098,0.00111107
5456.59605835,0.00109835
5458.52486572,0.00112601
5460.45367310,0.00111085
5462.38248047,0.00111195
5464.31128784,0.00109141
5466.24009521,0.00106603
5468.16890259,0.00110742
5470.09770996,0.00108186
5472.02651733,0.00107077
5473.95532471,0.00107685
5475.88413208,0.00107980
5477.81293945,0.00107358
5479.74174683,0.00102619
5481.67055420,0.00107596
5483.59936157,0.00108408
5485.52816895,0.00107950
5487.45697632,0.00108791
5489.38578369,0.00102040
5491.31459106,0.00106952
5493.24339844,0.00104932
5495.17220581,0.00102670
5497.10101318,0.00111007
5499.02982056,0.00106032
5500.95862793,0.00107356
5502.88743530,0.00105346
5504.81624268,0.00100236
5506.74505005,0.00106960
5508.67385742,0.00101004
5510.60266479,0.00100471
5512.53147217,0.00105551
5514.46027954,0.00103205
5516.38908691,0.00104720
5518.31789429,0.00100813
5520.24670166,0.00098884
5522.17550903,0.00103350
5524.10431641,0.00102885
5526.03312378,0.00095420
5527.96193115,0.00094310
5529.89073853,0.00098957
5531.81954590,0.00098098
5533.74835327,0.00100468
5535.67716064,0.00094450
5537.60596802,0.00090132
5539.53477539,0.00096011
5541.46358276,0.00095002
5543.39239014,0.00100820
5545.32119751,0.00100771
5547.25000488,0.00095094
5549.17881226,0.00096132
5551.10761963,0.00090971
5553.03642700,0.00091274
5554.96523437,0.00091746
5556.89404175,0.00091956
5558.82284912,0.00094000
5560.75165649,0.00092682
5562.68046387,0.00098423
5564.60927124,0.00092306
5566.53807861,0.00092949
5568.46688599,0.00103127
5570.39569336,0.00090190
5572.32450073,0.00087392
5574.25330811,0.00090854
5576.18211548,0.00091817
5578.11092285,0.00098739
5580.03973022,0.00093114
5581.96853760,0.00090963
5583.89734497,0.00092670
5585.82615234,0.00091669
5587.75495972,0.00088169
5589.68376709,0.00087390
5591.61257446,0.00089683
5593.54138184,0.00082640
5595.47018921,0.00086922
5597.39899658,0.00096095
5599.32780395,0.00096814
5601.25661133,0.00094777
5603.18541870,0.00089260
5605.11422607,0.00083044
5607.04303345,0.00083349
5608.97184082,0.00087996
5610.90064819,0.00084041
5612.82945557,0.00090447
5614.75826294,0.00094025
5616.68707031,0.00088179
5618.61587769,0.00085592
5620.54468506,0.00078483
5622.47349243,0.00086102
5624.40229980,0.00089913
5626.33110718,0.00088946
5628.25991455,0.00088741
5630.18872192,0.00086081
5632.11752930,0.00090358
5634.04633667,0.00084221
5635.97514404,0.00085404
5637.90395142,0.00087588
5639.83275879,0.00085573
5641.76156616,0.00084794
5643.69037353,0.00082147
5645.61918091,0.00080771
5647.54798828,0.00074383
5649.47679565,0.00083637
5651.40560303,0.00079977
5653.33441040,0.00074030
5655.26321777,0.00084115
5657.19202515,0.00078115
5659.12083252,0.00079812
5661.04963989,0.00081273
5662.97844727,0.00079951
5664.90725464,0.00080880
5666.83606201,0.00079137
5668.76486938,0.00082227
5670.69367676,0.00079245
5672.62248413,0.00076992
5674.55129150,0.00074302
5676.48009888,0.00074674
5678.40890625,0.00079945
5680.33771362,0.00085035
5682.26652100,0.00082619
5684.19532837,0.00074574
5686.12413574,0.00077688
5688.05294311,0.00076153
5689.98175049,0.00070883
5691.91055786,0.00072386
5693.83936523,0.00075058
5695.76817261,0.00074573
5697.69697998,0.00079322
5699.62578735,0.00081067
5701.55459473,0.00069420
5703.48340210,0.00075697
5705.41220947,0.00077174
5707.34101685,0.00067475
5709.26982422,0.00069810
5711.19863159,0.00067731
5713.12743896,0.00070327
5715.05624634,0.00066893
5716.98505371,0.00064401
5718.91386108,0.00075313
5720.84266846,0.00074658
5722.77147583,0.00071872
5724.70028320,0.00074863
5726.62909058,0.00074263
5728.55789795,0.00068719
5730.48670532,0.00070206
5732.41551270,0.00072922
5734.34432007,0.00071009
5736.27312744,0.00077120
5738.20193481,0.00070925
5740.13074219,0.00067651
5742.05954956,0.00077852
5743.98835693,0.00074157
5745.91716431,0.00074256
5747.84597168,0.00071392
5749.77477905,0.00067475
5751.70358643,0.00072035
5753.63239380,0.00067732
5755.56120117,0.00071904
5757.49000854,0.00070564
5759.41881592,0.00062080
5761.34762329,0.00065085
5763.27643066,0.00066698
5765.20523804,0.00070677
5767.13404541,0.00069248
5769.06285278,0.00066569
5770.99166016,0.00072329
5772.92046753,0.00069985
5774.84927490,0.00063924
5776.77808228,0.00064699
5778.70688965,0.00064381
5780.63569702,0.00067741
5782.56450439,0.00072022
5784.49331177,0.00064132
5786.42211914,0.00062513
5788.35092651,0.00065350
5790.27973389,0.00063017
5792.20854126,0.00062004
5794.13734863,0.00065888
5796.06615601,0.00068440
5797.99496338,0.00059918
5799.92377075,0.00057362
5801.85257812,0.00055371
5803.78138550,0.00059693
5805.71019287,0.00064366
5807.63900024,0.00057576
5809.56780762,0.00060731
5811.49661499,0.00058326
5813.42542236,0.00062447
5815.35422974,0.00061863
5817.28303711,0.00053918
5819.21184448,0.00062279
5821.14065186,0.00062328
5823.06945923,0.00061452
5824.99826660,0.00060355
5826.92707397,0.00064217
5828.85588135,0.00059200
5830.78468872,0.00053144
5832.71349609,0.00065192
5834.64230347,0.00059307
5836.57111084,0.00061871
5838.49991821,0.00061301
5840.42872559,0.00050702
5842.35753296,0.00057953
5844.28634033,0.00061227
5846.21514770,0.00065003
5848.14395508,0.00061627
5850.07276245,0.00054838
5852.00156982,0.00054002
5853.93037720,0.00053447
5855.85918457,0.00060146
5857.78799194,0.00062718
5859.71679932,0.00052939
5861.64560669,0.00049781
5863.57441406,0.00056027
5865.50322144,0.00053448
5867.43202881,0.00054933
5869.36083618,0.00057589
5871.28964355,0.00054468
5873.21845093,0.00052994
5875.14725830,0.00054926
5877.07606567,0.00057024
5879.00487305,0.00052877
5880.93368042,0.00057048
5882.86248779,0.00054106
5884.79129517,0.00050777
5886.72010254,0.00055982
5888.64890991,0.00056476
5890.57771728,0.00057376
5892.50652466,0.00053637
5894.43533203,0.00061710
5896.36413940,0.00055518
5898.29294678,0.00046400
5900.22175415,0.00056722
5902.15056152,0.00052840
5904.07936890,0.00055559
5906.00817627,0.00055590
5907.93698364,0.00052341
5909.86579102,0.00050808
5911.79459839,0.00051881
5913.72340576,0.00061193
5915.65221313,0.00050453
5917.58102051,0.00053924
5919.50982788,0.00057693
5921.43863525,0.00045957
5923.36744263,0.00057147
5925.29625000,0.00054073
5927.22505737,0.00041385
5929.15386475,0.00051013
5931.08267212,0.00049748
5933.01147949,0.00045474
5934.94028686,0.00054413
5936.86909424,0.00049589
5938.79790161,0.00049227
5940.72670898,0.00052033
5942.65551636,0.00046588
5944.58432373,0.00050665
5946.51313110,0.00048170
5948.44193848,0.00047301
5950.37074585,0.00051047
5952.29955322,0.00052214
5954.22836060,0.00051318
5956.15716797,0.00048657
5958.08597534,0.00051570
5960.01478271,0.00048921
5961.94359009,0.00049610
5963.87239746,0.00045439
5965.80120483,0.00044091
5967.73001221,0.00045801
5969.65881958,0.00037898
5971.58762695,0.00054196
5973.51643433,0.00055931
5975.44524170,0.00042949
5977.37404907,0.00045878
5979.30285645,0.00040538
5981.23166382,0.00045871
5983.16047119,0.00047180
5985.08927856,0.00038149
5987.01808594,0.00044624
5988.94689331,0.00052985
5990.87570068,0.00044952
5992.80450806,0.00037313
5994.73331543,0.00042095
5996.66212280,0.00041548
5998.59093018,0.00049838
6000.51973755,0.00047634
