399.26312622,0.00063459
401.19193359,0.00080578
403.12074097,0.00067096
405.04954834,0.00105520
406.97835571,0.00075762
408.90716309,0.00094516
410.83597046,0.00112616
412.76477783,0.00063473
414.69358521,0.00096678
416.62239258,0.00118740
418.55119995,0.00089428
420.48000732,0.00105572
422.40881470,0.00114107
424.33762207,0.00109540
426.26642944,0.00171277
428.19523682,0.00108331
430.12404419,0.00024899
432.05285156,0.00109411
433.98165894,0.00118710
435.91046631,0.00093794
437.83927368,0.00130792
439.76808105,0.00126805
441.69688843,0.00099499
443.62569580,0.00110674
445.55450317,0.00074332
447.48331055,0.00065202
449.41211792,0.00114028
451.34092529,0.00037774
453.26973267,0.00054169
455.19854004,0.00096051
457.12734741,0.00078386
459.05615479,0.00112469
460.98496216,0.00060854
462.91376953,0.00056183
464.84257690,0.00042788
466.77138428,0.00037041
468.70019165,0.00052345
470.62899902,0.00004115
472.55780640,0.00040767
474.48661377,0.00051890
476.41542114,0.00017181
478.34422852,-0.00011911
480.27303589,0.00031637
482.20184326,0.00050171
484.13065063,0.00007154
486.05945801,0.00039793
487.98826538,0.00010561
489.91707275,0.00014974
491.84588013,0.00014762
493.77468750,-0.00009727
495.70349487,0.00010510
497.63230225,0.00007851
499.56110962,0.00018794
501.48991699,-0.00011512
503.41872437,0.00026745
505.34753174,0.00009065
507.27633911,-0.00012160
509.20514648,0.00051692
511.13395386,0.00007684
513.06276123,0.00002594
514.99156860,0.00027361
516.92037598,0.00016225
518.84918335,0.00014524
520.77799072,0.00025514
522.70679810,0.00030845
524.63560547,-0.00000014
526.56441284,-0.00007523
528.49322021,0.00004352
530.42202759,0.00001242
532.35083496,0.00015049
534.27964233,0.00017369
536.20844971,0.00022813
538.13725708,0.00000476
540.06606445,-0.00041600
541.99487183,-0.00002290
543.92367920,0.00042278
545.85248657,0.00054145
547.78129395,0.00018679
549.71010132,-0.00017389
551.63890869,0.00027586
553.56771606,0.00000015
555.49652344,-0.00006755
557.42533081,0.00063329
559.35413818,0.00016361
561.28294556,0.00015033
563.21175293,0.00047516
565.14056030,-0.00005663
567.06936768,0.00031600
568.99817505,0.00042431
570.92698242,0.00007409
572.85578979,0.00035155
574.78459717,-0.00012064
576.71340454,-0.00005545
578.64221191,0.00039495
580.57101929,0.00014294
582.49982666,0.00036552
584.42863403,-0.00002563
586.35744141,-0.00041931
588.28624878,0.00007449
590.21505615,0.00004266
592.14386353,-0.00024501
594.07267090,-0.00016924
596.00147827,0.00004985
597.93028564,0.00027551
599.85909302,0.00038417
601.78790039,0.00005256
603.71670776,0.00010585
605.64551514,0.00005400
607.57432251,-0.00009404
609.50312988,0.00032060
611.43193726,0.00006268
613.36074463,-0.00025745
615.28955200,0.00023618
617.21835938,0.00025017
619.14716675,0.00016118
621.07597412,0.00009371
623.00478149,-0.00006263
624.93358887,-0.00001896
626.86239624,0.00002809
628.79120361,-0.00004157
630.72001099,0.00022373
632.64881836,0.00073494
634.57762573,0.00092777
636.50643311,0.00063654
638.43524048,0.00066674
640.36404785,0.00097529
642.29285522,0.00061565
644.22166260,0.00072044
646.15046997,0.00116257
648.07927734,0.00108669
650.00808472,0.00124227
651.93689209,0.00117924
653.86569946,0.00099394
655.79450684,0.00114074
657.72331421,0.00127718
659.65212158,0.00142257
661.58092896,0.00168499
663.50973633,0.00184150
665.43854370,0.00173358
667.36735107,0.00167145
669.29615845,0.00170914
671.22496582,0.00205470
673.15377319,0.00220378
675.08258057,0.00188098
677.01138794,0.00201391
678.94019531,0.00225347
680.86900269,0.00209163
682.79781006,0.00185354
684.72661743,0.00204806
686.65542480,0.00218790
688.58423218,0.00200500
690.51303955,0.00219559
692.44184692,0.00220146
694.37065430,0.00238578
696.29946167,0.00277374
698.22826904,0.00297486
700.15707642,0.00337700
702.08588379,0.00308916
704.01469116,0.00288094
705.94349854,0.00293996
707.87230591,0.00229756
709.80111328,0.00186999
711.72992065,0.00152618
713.65872803,0.00092583
715.58753540,0.00065454
717.51634277,0.00057421
719.44515015,0.00027539
721.37395752,0.00022969
723.30276489,0.00027631
725.23157227,0.00004054
727.16037964,0.00019881
729.08918701,0.00006287
731.01799438,-0.00014814
732.94680176,0.00021898
734.87560913,0.00016517
736.80441650,-0.00002931
738.73322388,0.00011891
740.66203125,0.00016394
742.59083862,0.00026491
744.51964600,0.00032942
746.44845337,-0.00007320
748.37726074,0.00007435
750.30606812,0.00038352
752.23487549,0.00009908
754.16368286,0.00021144
756.09249023,0.00018346
758.02129761,-0.00008605
759.95010498,0.00023282
761.87891235,0.00029782
763.80771973,0.00028307
765.73652710,0.00039917
767.66533447,0.00023733
769.59414185,0.00016022
771.52294922,0.00007999
773.45175659,0.00033453
775.38056396,0.00028141
777.30937134,0.00003806
779.23817871,0.00002809
781.16698608,0.00006959
783.09579346,0.00029165
785.02460083,0.00031959
786.95340820,0.00027338
788.88221558,0.00024541
790.81102295,0.00042333
792.73983032,0.00048140
794.66863770,0.00033768
796.59744507,0.00038817
798.52625244,0.00043707
800.45505981,0.00061005
802.38386719,0.00050230
804.31267456,0.00037402
806.24148193,0.00040816
808.17028931,0.00013975
810.09909668,0.00025672
812.02790405,0.00058403
813.95671143,0.00026024
815.88551880,0.00013002
817.81432617,0.00055208
819.74313354,0.00040440
821.67194092,0.00022895
823.60074829,0.00028327
825.52955566,0.00023009
827.45836304,0.00055359
829.38717041,0.00055752
831.31597778,0.00045178
833.24478516,0.00063280
835.17359253,0.00074884
837.10239990,0.00085500
839.03120728,0.00060049
840.96001465,0.00050512
842.88882202,0.00084374
844.81762939,0.00084106
846.74643677,0.00051321
848.67524414,0.00061090
850.60405151,0.00086079
852.53285889,0.00059034
854.46166626,0.00041710
856.39047363,0.00050132
858.31928101,0.00049845
860.24808838,0.00053513
862.17689575,0.00047760
864.10570313,0.00037252
866.03451050,0.00036735
867.96331787,0.00052485
869.89212524,0.00039520
871.82093262,0.00002090
873.74973999,0.00034326
875.67854736,0.00050583
877.60735474,0.00030837
879.53616211,0.00028451
881.46496948,0.00028306
883.39377686,0.00036522
885.32258423,0.00014966
887.25139160,0.00023786
889.18019897,0.00028341
891.10900635,0.00027949
893.03781372,0.00045092
894.96662109,0.00043552
896.89542847,0.00048745
898.82423584,0.00023998
900.75304321,0.00031839
902.68185059,0.00040477
904.61065796,0.00038895
906.53946533,0.00049472
908.46827271,0.00039006
910.39708008,0.00046490
912.32588745,0.00047773
914.25469482,0.00063068
916.18350220,0.00069325
918.11230957,0.00073785
920.04111694,0.00056416
921.96992432,0.00049701
923.89873169,0.00093086
925.82753906,0.00071965
927.75634644,0.00077663
929.68515381,0.00111741
931.61396118,0.00103889
933.54276855,0.00096702
935.47157593,0.00096910
937.40038330,0.00095466
939.32919067,0.00108971
941.25799805,0.00130340
943.18680542,0.00112145
945.11561279,0.00114238
947.04442017,0.00115179
948.97322754,0.00126938
950.90203491,0.00125617
952.83084229,0.00110258
954.75964966,0.00135837
956.68845703,0.00100808
958.61726440,0.00118689
960.54607178,0.00120806
962.47487915,0.00094180
964.40368652,0.00131414
966.33249390,0.00118644
968.26130127,0.00136653
970.19010864,0.00120598
972.11891602,0.00116561
974.04772339,0.00151386
975.97653076,0.00159058
977.90533813,0.00189078
979.83414551,0.00166663
981.76295288,0.00182467
983.69176025,0.00220444
985.62056763,0.00238178
987.54937500,0.00255989
989.47818237,0.00273397
991.40698975,0.00325088
993.33579712,0.00352037
995.26460449,0.00380494
997.19341187,0.00400892
999.12221924,0.00429087
1001.05102661,0.00460821
1002.97983398,0.00502538
1004.90864136,0.00544020
1006.83744873,0.00535433
1008.76625610,0.00593958
1010.69506348,0.00635525
1012.62387085,0.00657514
1014.55267822,0.00721650
1016.48148560,0.00740037
1018.41029297,0.00772817
1020.33910034,0.00814574
1022.26790771,0.00844641
1024.19671509,0.00872971
1026.12552246,0.00889316
1028.05432983,0.00918426
1029.98313721,0.00954085
1031.91194458,0.00981595
1033.84075195,0.01012790
1035.76955933,0.01027608
1037.69836670,0.01016145
1039.62717407,0.01022449
1041.55598145,0.01031332
1043.48478882,0.01026616
1045.41359619,0.00998455
1047.34240356,0.00986696
1049.27121094,0.00994782
1051.20001831,0.00978183
1053.12882568,0.00961996
1055.05763306,0.00930936
1056.98644043,0.00912036
1058.91524780,0.00889543
1060.84405518,0.00867133
1062.77286255,0.00850138
1064.70166992,0.00810910
1066.63047729,0.00802928
1068.55928467,0.00769787
1070.48809204,0.00724838
1072.41689941,0.00705232
1074.34570679,0.00672259
1076.27451416,0.00623339
1078.20332153,0.00594094
1080.13212891,0.00585511
1082.06093628,0.00546016
1083.98974365,0.00533949
1085.91855103,0.00502712
1087.84735840,0.00460207
1089.77616577,0.00468414
1091.70497314,0.00446748
1093.63378052,0.00421799
1095.56258789,0.00405735
1097.49139526,0.00389715
1099.42020264,0.00381580
1101.34901001,0.00390766
1103.27781738,0.00383341
1105.20662476,0.00333872
1107.13543213,0.00338205
1109.06423950,0.00369206
1110.99304687,0.00340796
1112.92185425,0.00321908
1114.85066162,0.00344203
1116.77946899,0.00326275
1118.70827637,0.00341816
1120.63708374,0.00364723
1122.56589111,0.00337899
1124.49469849,0.00367372
1126.42350586,0.00375681
1128.35231323,0.00375051
1130.28112061,0.00387385
1132.20992798,0.00387662
1134.13873535,0.00407400
1136.06754272,0.00408178
1137.99635010,0.00430362
1139.92515747,0.00452843
1141.85396484,0.00476404
1143.78277222,0.00510903
1145.71157959,0.00541791
1147.64038696,0.00582459
1149.56919434,0.00611704
1151.49800171,0.00645302
1153.42680908,0.00666638
1155.35561646,0.00686430
1157.28442383,0.00704302
1159.21323120,0.00734798
1161.14203857,0.00767688
1163.07084595,0.00789684
1164.99965332,0.00839595
1166.92846069,0.00866969
1168.85726807,0.00893321
1170.78607544,0.00916869
1172.71488281,0.00933829
1174.64369019,0.00974786
1176.57249756,0.01013569
1178.50130493,0.01053393
1180.43011230,0.01097098
1182.35891968,0.01167336
1184.28772705,0.01200663
1186.21653442,0.01216164
1188.14534180,0.01297768
1190.07414917,0.01370924
1192.00295654,0.01430748
1193.93176392,0.01509863
1195.86057129,0.01573657
1197.78937866,0.01634793
1199.71818604,0.01715374
1201.64699341,0.01791587
1203.57580078,0.01857299
1205.50460815,0.01912244
1207.43341553,0.01986071
1209.36222290,0.02064825
1211.29103027,0.02111693
1213.21983765,0.02174066
1215.14864502,0.02237041
1217.07745239,0.02276238
1219.00625977,0.02308721
1220.93506714,0.02358581
1222.86387451,0.02380429
1224.79268188,0.02389473
1226.72148926,0.02433090
1228.65029663,0.02424855
1230.57910400,0.02432510
1232.50791138,0.02450537
1234.43671875,0.02446132
1236.36552612,0.02446214
1238.29433350,0.02417471
1240.22314087,0.02432197
1242.15194824,0.02406768
1244.08075562,0.02383545
1246.00956299,0.02405029
1247.93837036,0.02361330
1249.86717773,0.02353157
1251.79598511,0.02350283
1253.72479248,0.02315034
1255.65359985,0.02289912
1257.58240723,0.02263070
1259.51121460,0.02224537
1261.44002197,0.02173795
1263.36882935,0.02162936
1265.29763672,0.02136353
1267.22644409,0.02088806
1269.15525146,0.02072783
1271.08405884,0.02046146
1273.01286621,0.02010612
1274.94167358,0.01983363
1276.87048096,0.01955264
1278.79928833,0.01917050
1280.72809570,0.01874163
1282.65690308,0.01834881
1284.58571045,0.01798869
1286.51451782,0.01761005
1288.44332520,0.01726805
1290.37213257,0.01712987
1292.30093994,0.01704843
1294.22974731,0.01683383
1296.15855469,0.01656578
1298.08736206,0.01659859
1300.01616943,0.01688152
1301.94497681,0.01692192
1303.87378418,0.01702109
1305.80259155,0.01723263
1307.73139893,0.01730201
1309.66020630,0.01769878
1311.58901367,0.01796488
1313.51782104,0.01807502
1315.44662842,0.01862776
1317.37543579,0.01896643
1319.30424316,0.01934192
1321.23305054,0.02026250
1323.16185791,0.02101775
1325.09066528,0.02128452
1327.01947266,0.02177562
1328.94828003,0.02254659
1330.87708740,0.02306659
1332.80589478,0.02363560
1334.73470215,0.02410502
1336.66350952,0.02426699
1338.59231689,0.02391385
1340.52112427,0.02409500
1342.44993164,0.02529430
1344.37873901,0.02546711
1346.30754639,0.02534885
1348.23635376,0.02531314
1350.16516113,0.02514416
1352.09396851,0.02533792
1354.02277588,0.02489916
1355.95158325,0.02474744
1357.88039062,0.02457913
1359.80919800,0.02407137
1361.73800537,0.02287453
1363.66681274,0.02225408
1365.59562012,0.02399955
1367.52442749,0.02348120
1369.45323486,0.02276527
1371.38204224,0.02338993
1373.31084961,0.02204775
1375.23965698,0.02230793
1377.16846436,0.02300472
1379.09727173,0.02273859
1381.02607910,0.02283348
1382.95488647,0.02292387
1384.88369385,0.02292749
1386.81250122,0.02155537
1388.74130859,0.02199187
1390.67011597,0.02432829
1392.59892334,0.02333697
1394.52773071,0.02151898
1396.45653809,0.02288913
1398.38534546,0.02257385
1400.31415283,0.02249160
1402.24296021,0.02476867
1404.17176758,0.02302101
1406.10057495,0.02327218
1408.02938232,0.02448758
1409.95818970,0.02325075
1411.88699707,0.02395082
1413.81580444,0.02333766
1415.74461182,0.02358206
1417.67341919,0.02087264
1419.60222656,0.01842044
1421.53103394,0.02166135
1423.45984131,0.02094089
1425.38864868,0.02040637
1427.31745605,0.02097701
1429.24626343,0.01913502
1431.17507080,0.01859393
1433.10387817,0.01899621
1435.03268555,0.01715201
1436.96149292,0.01447615
1438.89030029,0.01672034
1440.81910767,0.01728995
1442.74791504,0.01602739
1444.67672241,0.01688583
1446.60552979,0.01540174
1448.53433716,0.01549920
1450.46314453,0.01609613
1452.39195190,0.01642505
1454.32075928,0.01693181
1456.24956665,0.01352436
1458.17837402,0.01404483
1460.10718140,0.01939765
1462.03598877,0.02081009
1463.96479614,0.02046700
1465.89360352,0.02111002
1467.82241089,0.02454646
1469.75121826,0.02639402
1471.68002563,0.02240857
1473.60883301,0.02373389
1475.53764038,0.02751457
1477.46644775,0.02977948
1479.39525513,0.03316571
1481.32406250,0.03315680
1483.25286987,0.03544007
1485.18167725,0.03661254
1487.11048462,0.03536455
1489.03929199,0.03482168
1490.96809937,0.03500914
1492.89690674,0.04182831
1494.82571411,0.04034955
1496.75452148,0.03539921
1498.68332886,0.04085420
1500.61213623,0.04221785
1502.54094360,0.04577272
1504.46975098,0.04232790
1506.39855835,0.02876705
1508.32736572,0.03686009
1510.25617310,0.04415000
1512.18498047,0.04285484
1514.11378784,0.04693710
1516.04259521,0.04119259
1517.97140259,0.04350984
1519.90020996,0.04159414
1521.82901733,0.03502324
1523.75782471,0.04464498
1525.68663208,0.04346250
1527.61543945,0.04340955
1529.54424683,0.04896817
1531.47305420,0.04649115
1533.40186157,0.04178385
1535.33066895,0.04520518
1537.25947632,0.04879201
1539.18828369,0.03261572
1541.11709106,0.03483139
1543.04589844,0.04274296
1544.97470581,0.04076840
1546.90351318,0.05016095
1548.83232056,0.04601534
1550.76112793,0.04771015
1552.68993530,0.04736902
1554.61874268,0.04226634
1556.54755005,0.04549399
1558.47635742,0.02980923
1560.40516479,0.03356231
1562.33397217,0.05053636
1564.26277954,0.04706373
1566.19158691,0.04874648
1568.12039429,0.04793097
1570.04920166,0.04168301
1571.97800903,0.04951132
1573.90681641,0.04994198
1575.83562378,0.03790917
1577.76443115,0.04424822
1579.69323853,0.05115141
1581.62204590,0.04850990
1583.55085327,0.04989070
1585.47966064,0.04891612
1587.40846802,0.04932417
1589.33727539,0.04909376
1591.26608276,0.04893670
1593.19489014,0.04887934
1595.12369751,0.04825866
1597.05250488,0.04898805
1598.98131226,0.04869717
1600.91011963,0.04890057
1602.83892700,0.04799304
1604.76773437,0.04907300
1606.69654175,0.04803085
1608.62534912,0.04790590
1610.55415649,0.04797041
1612.48296387,0.04846117
1614.41177124,0.04893380
1616.34057861,0.03851490
1618.26938599,0.04280359
1620.19819336,0.05095818
1622.12700073,0.04414526
1624.05580811,0.04443720
1625.98461548,0.04718864
1627.91342285,0.04679068
1629.84223022,0.04654739
1631.77103760,0.05028974
1633.69984497,0.04542490
1635.62865234,0.03620936
1637.55745972,0.04353938
1639.48626709,0.04878179
1641.41507446,0.04739402
1643.34388184,0.04874002
1645.27268921,0.04313348
1647.20149658,0.03686645
1649.13030396,0.04791602
1651.05911133,0.04483461
1652.98791870,0.02630344
1654.91672607,0.03870910
1656.84553345,0.05006376
1658.77434082,0.04774541
1660.70314819,0.04916842
1662.63195557,0.04380079
1664.56076294,0.04689483
1666.48957031,0.05070819
1668.41837769,0.04298817
1670.34718506,0.04185330
1672.27599243,0.04855045
1674.20479980,0.04395566
1676.13360718,0.04216751
1678.06241455,0.04973596
1679.99122192,0.04753938
1681.92002930,0.04662840
1683.84883667,0.03629155
1685.77764404,0.03682226
1687.70645142,0.05250450
1689.63525879,0.04424565
1691.56406616,0.05019093
1693.49287354,0.05051630
1695.42168091,0.03512524
1697.35048828,0.04526674
1699.27929565,0.03817122
1701.20810303,0.03421081
1703.13691040,0.04923186
1705.06571777,0.04409648
1706.99452515,0.04479999
1708.92333252,0.04939127
1710.85213989,0.04724517
1712.78094727,0.04818961
1714.70975464,0.04382661
1716.63856201,0.03876072
1718.56736938,0.03839181
1720.49617676,0.04682713
1722.42498413,0.04891973
1724.35379150,0.04476708
1726.28259888,0.04936076
1728.21140625,0.04512854
1730.14021362,0.04555194
1732.06902100,0.04417127
1733.99782837,0.03196229
1735.92663574,0.04177690
1737.85544312,0.04668691
1739.78425049,0.04063136
1741.71305786,0.04501563
1743.64186523,0.04559198
1745.57067261,0.04548698
1747.49947998,0.04564577
1749.42828735,0.04344971
1751.35709473,0.04138714
1753.28590210,0.04682706
1755.21470947,0.04908458
1757.14351685,0.04401914
1759.07232422,0.04948446
1761.00113159,0.04559141
1762.92993896,0.04392541
1764.85874634,0.05134811
1766.78755371,0.04532284
1768.71636108,0.04601955
1770.64516846,0.04521774
1772.57397583,0.04035973
1774.50278320,0.04598510
1776.43159058,0.04862190
1778.36039795,0.04809589
1780.28920532,0.04725216
1782.21801270,0.04775594
1784.14682007,0.04765886
1786.07562744,0.04659593
1788.00443481,0.04951423
1789.93324219,0.04779392
1791.86204956,0.04248271
1793.79085693,0.04485956
1795.71966431,0.04855974
1797.64847168,0.04762691
1799.57727905,0.04684962
1801.50608643,0.04585354
1803.43489380,0.04772060
1805.36370117,0.04902379
1807.29250854,0.04827154
1809.22131592,0.04846943
1811.15012329,0.04682425
1813.07893066,0.04853899
1815.00773804,0.04872248
1816.93654541,0.04820251
1818.86535278,0.04857383
1820.79416016,0.04826220
1822.72296753,0.04916477
1824.65177490,0.04526285
1826.58058228,0.04743410
1828.50938965,0.04726130
1830.43819702,0.04371748
1832.36700439,0.04865823
1834.29581177,0.04817520
1836.22461914,0.04814909
1838.15342651,0.04796130
1840.08223389,0.04836262
1842.01104126,0.04830036
1843.93984863,0.04197290
1845.86865601,0.04554516
1847.79746338,0.04827174
1849.72627075,0.04706448
1851.65507812,0.04888521
1853.58388550,0.04774873
1855.51269287,0.04814909
1857.44150024,0.04785639
1859.37030762,0.04758997
1861.29911499,0.04781882
1863.22792236,0.04739746
1865.15672974,0.04802654
1867.08553711,0.04587388
1869.01434448,0.04355811
1870.94315186,0.04584127
1872.87195923,0.04797868
1874.80076660,0.04690716
1876.72957397,0.04736071
1878.65838135,0.04714976
1880.58718872,0.04677893
1882.51599609,0.04730161
1884.44480347,0.04638971
1886.37361084,0.04732091
1888.30241821,0.04593123
1890.23122559,0.04494791
1892.16003296,0.04691698
1894.08884033,0.04595496
1896.01764771,0.04599448
1897.94645508,0.04655355
1899.87526245,0.04619040
1901.80406982,0.04641517
1903.73287720,0.04610535
1905.66168457,0.04632340
1907.59049194,0.04568591
1909.51929932,0.04545847
1911.44810669,0.04581326
1913.37691406,0.04584020
1915.30572144,0.04633042
1917.23452881,0.04389008
1919.16333618,0.04381783
1921.09214355,0.04576237
1923.02095093,0.04431190
1924.94975830,0.04543827
1926.87856567,0.04589683
1928.80737305,0.04516333
1930.73618042,0.04566968
1932.66498779,0.04504666
1934.59379517,0.04565697
1936.52260254,0.04513589
1938.45140991,0.04534394
1940.38021729,0.04536282
1942.30902466,0.04350396
1944.23783203,0.04464013
1946.16663940,0.04537280
1948.09544678,0.04512897
1950.02425415,0.04525589
1951.95306152,0.04510849
1953.88186890,0.04507810
1955.81067627,0.04476980
1957.73948364,0.04507560
1959.66829102,0.04496618
1961.59709839,0.04477642
1963.52590576,0.04514507
1965.45471313,0.04473947
1967.38352051,0.04405762
1969.31232788,0.04451331
1971.24113525,0.04481184
1973.16994263,0.04460818
1975.09875000,0.04476162
1977.02755737,0.04443217
1978.95636475,0.04466926
1980.88517212,0.04457453
1982.81397949,0.04430082
1984.74278687,0.04453551
1986.67159424,0.04414074
1988.60040161,0.04426157
1990.52920898,0.04376089
1992.45801636,0.04318827
1994.38682373,0.04381857
1996.31563110,0.04399171
1998.24443848,0.04366935
2000.17324585,0.04364018
2002.10205322,0.04364744
2004.03086060,0.04349500
2005.95966797,0.04347030
2007.88847534,0.04327595
2009.81728271,0.04329390
2011.74609009,0.04311866
2013.67489746,0.04298751
2015.60370483,0.04292255
2017.53251221,0.04242664
2019.46131958,0.04269400
2021.39012695,0.04278038
2023.31893433,0.04278637
2025.24774170,0.04269179
2027.17654907,0.04240475
2029.10535645,0.04259481
2031.03416382,0.04226535
2032.96297119,0.04215692
2034.89177856,0.04205700
2036.82058594,0.04198220
2038.74939331,0.04195771
2040.67820068,0.04155169
2042.60700806,0.04165305
2044.53581543,0.04165751
2046.46462280,0.04159022
2048.39343018,0.04153403
2050.32223755,0.04134653
2052.25104492,0.04133869
2054.17985229,0.04132109
2056.10865967,0.04120638
2058.03746704,0.04104591
2059.96627441,0.04094385
2061.89508179,0.04088038
2063.82388916,0.04076943
2065.75269653,0.04051655
2067.68150391,0.04063097
2069.61031128,0.04066395
2071.53911865,0.04044135
2073.46792603,0.04043432
2075.39673340,0.04030786
2077.32554077,0.04018513
2079.25434814,0.04005795
2081.18315552,0.04015971
2083.11196289,0.04002517
2085.04077026,0.03994787
2086.96957764,0.04008649
2088.89838501,0.03963791
2090.82719238,0.03962405
2092.75599976,0.03962620
2094.68480713,0.03948713
2096.61361450,0.03965778
2098.54242187,0.03950127
2100.47122925,0.03935467
2102.40003662,0.03932224
2104.32884399,0.03933181
2106.25765137,0.03926796
2108.18645874,0.03913890
2110.11526611,0.03915307
2112.04407349,0.03910341
2113.97288086,0.03886018
2115.90168823,0.03880127
2117.83049561,0.03889328
2119.75930298,0.03877699
2121.68811035,0.03870489
2123.61691772,0.03865948
2125.54572510,0.03859863
2127.47453247,0.03850489
2129.40333984,0.03839711
2131.33214722,0.03832000
2133.26095459,0.03843758
2135.18976196,0.03844354
2137.11856934,0.03805976
2139.04737671,0.03814846
2140.97618408,0.03825821
2142.90499146,0.03811887
2144.83379883,0.03814214
2146.76260620,0.03806255
2148.69141357,0.03788336
2150.62022095,0.03787784
2152.54902832,0.03800593
2154.47783569,0.03773493
2156.40664307,0.03769983
2158.33545044,0.03775451
2160.26425781,0.03765284
2162.19306519,0.03767686
2164.12187256,0.03752866
2166.05067993,0.03763815
2167.97948730,0.03748576
2169.90829468,0.03735709
2171.83710205,0.03742092
2173.76590942,0.03738659
2175.69471680,0.03747160
2177.62352417,0.03718466
2179.55233154,0.03721068
2181.48113892,0.03729499
2183.40994629,0.03708293
2185.33875366,0.03708554
2187.26756104,0.03713802
2189.19636841,0.03705674
2191.12517578,0.03689820
2193.05398315,0.03693943
2194.98279053,0.03687584
2196.91159790,0.03678336
2198.84040527,0.03670415
2200.76921265,0.03675955
2202.69802002,0.03669212
2204.62682739,0.03644982
2206.55563477,0.03663436
2208.48444214,0.03650194
2210.41324951,0.03644297
2212.34205688,0.03653105
2214.27086426,0.03633422
2216.19967163,0.03634555
2218.12847900,0.03631463
2220.05728638,0.03627212
2221.98609375,0.03621133
2223.91490112,0.03616927
2225.84370850,0.03609546
2227.77251587,0.03596782
2229.70132324,0.03586530
2231.63013062,0.03583203
2233.55893799,0.03590938
2235.48774536,0.03577989
2237.41655273,0.03572390
2239.34536011,0.03569562
2241.27416748,0.03560840
2243.20297485,0.03551358
2245.13178223,0.03542095
2247.06058960,0.03540654
2248.98939697,0.03529154
2250.91820435,0.03526501
2252.84701172,0.03524124
2254.77581909,0.03525401
2256.70462646,0.03522908
2258.63343384,0.03517061
2260.56224121,0.03513429
2262.49104858,0.03501715
2264.41985596,0.03504358
2266.34866333,0.03495304
2268.27747070,0.03489468
2270.20627808,0.03487723
2272.13508545,0.03479538
2274.06389282,0.03476394
2275.99270020,0.03468361
2277.92150757,0.03471461
2279.85031494,0.03466819
2281.77912231,0.03456078
2283.70792969,0.03455536
2285.63673706,0.03450675
2287.56554443,0.03433535
2289.49435181,0.03433967
2291.42315918,0.03430290
2293.35196655,0.03418281
2295.28077393,0.03420030
2297.20958130,0.03383097
2299.13838867,0.03379659
2301.06719604,0.03384361
2302.99600342,0.03352158
2304.92481079,0.03354485
2306.85361816,0.03327683
2308.78242554,0.03297032
2310.71123291,0.03285810
2312.64004028,0.03244213
2314.56884766,0.03200997
2316.49765503,0.03174718
2318.42646240,0.03143261
2320.35526978,0.03097091
2322.28407715,0.03059253
2324.21288452,0.03029486
2326.14169189,0.02998048
2328.07049927,0.02950101
2329.99930664,0.02917300
2331.92811401,0.02907548
2333.85692139,0.02892388
2335.78572876,0.02889016
2337.71453613,0.02886248
2339.64334351,0.02873729
2341.57215088,0.02880961
2343.50095825,0.02927207
2345.42976562,0.02977226
2347.35857300,0.03083959
2349.28738037,0.03177569
2351.21618774,0.03086895
2353.14499512,0.02932508
2355.07380249,0.02820597
2357.00260986,0.02753232
2358.93141724,0.02701601
2360.86022461,0.02662634
2362.78903198,0.02675921
2364.71783936,0.02688637
2366.64664673,0.02711949
2368.57545410,0.02760099
2370.50426147,0.02827069
2372.43306885,0.02892764
2374.36187622,0.02967856
2376.29068359,0.03053723
2378.21949097,0.03098920
2380.14829834,0.03150650
2382.07710571,0.03175257
2384.00591309,0.03188042
2385.93472046,0.03217194
2387.86352783,0.03206868
2389.79233521,0.03197758
2391.72114258,0.03199285
2393.64994995,0.03212227
2395.57875732,0.03202974
2397.50756470,0.03185324
2399.43637207,0.03188122
2401.36517944,0.03172746
2403.29398682,0.03178371
2405.22279419,0.03185897
2407.15160156,0.03175296
2409.08040894,0.03172162
2411.00921631,0.03166873
2412.93802368,0.03152511
2414.86683105,0.03150297
2416.79563843,0.03158895
2418.72444580,0.03139109
2420.65325317,0.03133838
2422.58206055,0.03133499
2424.51086792,0.03123925
2426.43967529,0.03135790
2428.36848267,0.03120455
2430.29729004,0.03108351
2432.22609741,0.03115353
2434.15490479,0.03110069
2436.08371216,0.03110581
2438.01251953,0.03106843
2439.94132690,0.03092701
2441.87013428,0.03079660
2443.79894165,0.03083508
2445.72774902,0.03078946
2447.65655640,0.03072280
2449.58536377,0.03083107
2451.51417114,0.03071017
2453.44297852,0.03065998
2455.37178589,0.03057049
2457.30059326,0.03039900
2459.22940063,0.03045867
2461.15820801,0.03037538
2463.08701538,0.03046385
2465.01582275,0.03044901
2466.94463013,0.03026587
2468.87343750,0.03033795
2470.80224487,0.03017291
2472.73105225,0.03010663
2474.65985962,0.03020196
2476.58866699,0.03024573
2478.51747437,0.03020616
2480.44628174,0.03001842
2482.37508911,0.03009548
2484.30389648,0.03008754
2486.23270386,0.03002729
2488.16151123,0.02999963
2490.09031860,0.02981468
2492.01912598,0.02987548
2493.94793335,0.02988302
2495.87674072,0.02978449
2497.80554810,0.02976401
2499.73435547,0.02972211
2501.66316284,0.02971180
2503.59197021,0.02958065
2505.52077759,0.02952078
2507.44958496,0.02955975
2509.37839233,0.02947778
2511.30719971,0.02940312
2513.23600708,0.02937614
2515.16481445,0.02931745
2517.09362183,0.02927023
2519.02242920,0.02927560
2520.95123657,0.02919559
2522.88004395,0.02916283
2524.80885132,0.02914422
2526.73765869,0.02905441
2528.66646606,0.02910726
2530.59527344,0.02908272
2532.52408081,0.02905978
2534.45288818,0.02902038
2536.38169556,0.02891139
2538.31050293,0.02896428
2540.23931030,0.02890224
2542.16811768,0.02886347
2544.09692505,0.02880873
2546.02573242,0.02874247
2547.95453979,0.02881686
2549.88334717,0.02869382
2551.81215454,0.02859456
2553.74096191,0.02854411
2555.66976929,0.02849186
2557.59857666,0.02850686
2559.52738403,0.02852027
2561.45619141,0.02839551
2563.38499878,0.02819924
2565.31380615,0.02833488
2567.24261353,0.02831300
2569.17142090,0.02822039
2571.10022827,0.02824218
2573.02903564,0.02806392
2574.95784302,0.02811261
2576.88665039,0.02808776
2578.81545776,0.02798731
2580.74426514,0.02804522
2582.67307251,0.02789985
2584.60187988,0.02780204
2586.53068726,0.02783096
2588.45949463,0.02779995
2590.38830200,0.02775523
2592.31710937,0.02769995
2594.24591675,0.02772143
2596.17472412,0.02775789
2598.10353149,0.02761746
2600.03233887,0.02759105
2601.96114624,0.02768270
2603.88995361,0.02759972
2605.81876099,0.02745514
2607.74756836,0.02739942
2609.67637573,0.02743943
2611.60518311,0.02738714
2613.53399048,0.02736679
2615.46279785,0.02731184
2617.39160522,0.02723830
2619.32041260,0.02728757
2621.24921997,0.02713313
2623.17802734,0.02708241
2625.10683472,0.02719411
2627.03564209,0.02715427
2628.96444946,0.02693668
2630.89325684,0.02682747
2632.82206421,0.02693409
2634.75087158,0.02691461
2636.67967895,0.02692018
2638.60848633,0.02677808
2640.53729370,0.02669534
2642.46610107,0.02676274
2644.39490845,0.02660656
2646.32371582,0.02664192
2648.25252319,0.02662493
2650.18133057,0.02652638
2652.11013794,0.02658173
2654.03894531,0.02654182
2655.96775269,0.02650042
2657.89656006,0.02643269
2659.82536743,0.02636354
2661.75417480,0.02636057
2663.68298218,0.02631590
2665.61178955,0.02628995
2667.54059692,0.02627325
2669.46940430,0.02617029
2671.39821167,0.02616426
2673.32701904,0.02613172
2675.25582642,0.02607026
2677.18463379,0.02601891
2679.11344116,0.02588148
2681.04224854,0.02600959
2682.97105591,0.02603588
2684.89986328,0.02587928
2686.82867065,0.02568720
2688.75747803,0.02562377
2690.68628540,0.02583569
2692.61509277,0.02568018
2694.54390015,0.02567337
2696.47270752,0.02566623
2698.40151489,0.02550619
2700.33032227,0.02566331
2702.25912964,0.02551318
2704.18793701,0.02548453
2706.11674438,0.02544518
2708.04555176,0.02532465
2709.97435913,0.02541211
2711.90316650,0.02519780
2713.83197388,0.02527216
2715.76078125,0.02532442
2717.68958862,0.02510090
2719.61839600,0.02521281
2721.54720337,0.02517689
2723.47601074,0.02496992
2725.40481812,0.02487991
2727.33362549,0.02491353
2729.26243286,0.02499259
2731.19124023,0.02488738
2733.12004761,0.02482705
2735.04885498,0.02480665
2736.97766235,0.02474362
2738.90646973,0.02475688
2740.83527710,0.02468147
2742.76408447,0.02460408
2744.69289185,0.02454908
2746.62169922,0.02455642
2748.55050659,0.02456285
2750.47931396,0.02442162
2752.40812134,0.02444714
2754.33692871,0.02442624
2756.26573608,0.02428898
2758.19454346,0.02431240
2760.12335083,0.02430093
2762.05215820,0.02423417
2763.98096558,0.02421500
2765.90977295,0.02416442
2767.83858032,0.02405953
2769.76738770,0.02397616
2771.69619507,0.02398170
2773.62500244,0.02404492
2775.55380981,0.02388791
2777.48261719,0.02386075
2779.41142456,0.02395243
2781.34023193,0.02376805
2783.26903931,0.02382603
2785.19784668,0.02373901
2787.12665405,0.02361973
2789.05546143,0.02366866
2790.98426880,0.02349421
2792.91307617,0.02356349
2794.84188354,0.02342654
2796.77069092,0.02338538
2798.69949829,0.02354428
2800.62830566,0.02331478
2802.55711304,0.02328368
2804.48592041,0.02324052
2806.41472778,0.02317716
2808.34353516,0.02322588
2810.27234253,0.02316143
2812.20114990,0.02307262
2814.12995728,0.02297695
2816.05876465,0.02296256
2817.98757202,0.02292795
2819.91637939,0.02295606
2821.84518677,0.02289679
2823.77399414,0.02273136
2825.70280151,0.02272604
2827.63160889,0.02273165
2829.56041626,0.02266593
2831.48922363,0.02256592
2833.41803101,0.02257311
2835.34683838,0.02252049
2837.27564575,0.02234894
2839.20445312,0.02229076
2841.13326050,0.02225579
2843.06206787,0.02215321
2844.99087524,0.02209705
2846.91968262,0.02207186
2848.84848999,0.02192601
2850.77729736,0.02190677
2852.70610474,0.02187830
2854.63491211,0.02171648
2856.56371948,0.02182380
2858.49252686,0.02191744
2860.42133423,0.02184233
2862.35014160,0.02177456
2864.27894897,0.02160790
2866.20775635,0.02155225
2868.13656372,0.02171297
2870.06537109,0.02163687
2871.99417847,0.02145023
2873.92298584,0.02149301
2875.85179321,0.02144536
2877.78060059,0.02143427
2879.70940796,0.02142749
2881.63821533,0.02128283
2883.56702270,0.02130647
2885.49583008,0.02130834
2887.42463745,0.02125213
2889.35344482,0.02115017
2891.28225220,0.02110475
2893.21105957,0.02121378
2895.13986694,0.02109854
2897.06867432,0.02096135
2898.99748169,0.02094520
2900.92628906,0.02089769
2902.85509644,0.02086215
2904.78390381,0.02081560
2906.71271118,0.02079049
2908.64151855,0.02076499
2910.57032593,0.02067114
2912.49913330,0.02052084
2914.42794067,0.02057382
2916.35674805,0.02060605
2918.28555542,0.02045013
2920.21436279,0.02045309
2922.14317017,0.02039749
2924.07197754,0.02036979
2926.00078491,0.02044610
2927.92959229,0.02044543
2929.85839966,0.02041873
2931.78720703,0.02031772
2933.71601440,0.02030482
2935.64482178,0.02031649
2937.57362915,0.02026895
2939.50243652,0.02021493
2941.43124390,0.02023421
2943.36005127,0.02022755
2945.28885864,0.02012217
2947.21766602,0.02016424
2949.14647339,0.02017944
2951.07528076,0.02011347
2953.00408813,0.02000762
2954.93289551,0.02000122
2956.86170288,0.01994406
2958.79051025,0.01981051
2960.71931763,0.01991758
2962.64812500,0.01982795
2964.57693237,0.01978554
2966.50573975,0.01968941
2968.43454712,0.01964031
2970.36335449,0.01986630
2972.29216187,0.01964933
2974.22096924,0.01966446
2976.14977661,0.01972142
2978.07858398,0.01962410
2980.00739136,0.01979306
2981.93619873,0.01969523
2983.86500610,0.01964161
2985.79381348,0.01959085
2987.72262085,0.01949593
2989.65142822,0.01953549
2991.58023560,0.01957617
2993.50904297,0.01957699
2995.43785034,0.01946034
2997.36665771,0.01943986
2999.29546509,0.01937683
3001.22427246,0.01928136
3003.15307983,0.01930041
3005.08188721,0.01927929
3007.01069458,0.01918438
3008.93950195,0.01914468
3010.86830933,0.01906464
3012.79711670,0.01902625
3014.72592407,0.01912221
3016.65473145,0.01895935
3018.58353882,0.01890296
3020.51234619,0.01887218
3022.44115356,0.01879669
3024.36996094,0.01889164
3026.29876831,0.01879441
3028.22757568,0.01880711
3030.15638306,0.01869875
3032.08519043,0.01855809
3034.01399780,0.01856980
3035.94280518,0.01856626
3037.87161255,0.01863489
3039.80041992,0.01844794
3041.72922729,0.01850054
3043.65803467,0.01852335
3045.58684204,0.01831891
3047.51564941,0.01837842
3049.44445679,0.01827944
3051.37326416,0.01829478
3053.30207153,0.01832172
3055.23087891,0.01813395
3057.15968628,0.01817901
3059.08849365,0.01815476
3061.01730103,0.01806491
3062.94610840,0.01813693
3064.87491577,0.01796385
3066.80372314,0.01788381
3068.73253052,0.01802805
3070.66133789,0.01793537
3072.59014526,0.01796296
3074.51895264,0.01789719
3076.44776001,0.01774314
3078.37656738,0.01779701
3080.30537476,0.01771187
3082.23418213,0.01766315
3084.16298950,0.01766035
3086.09179687,0.01768623
3088.02060425,0.01764332
3089.94941162,0.01752628
3091.87821899,0.01753083
3093.80702637,0.01744683
3095.73583374,0.01745870
3097.66464111,0.01747630
3099.59344849,0.01737073
3101.52225586,0.01734841
3103.45106323,0.01725936
3105.37987061,0.01720590
3107.30867798,0.01720802
3109.23748535,0.01709982
3111.16629272,0.01710192
3113.09510010,0.01710156
3115.02390747,0.01702512
3116.95271484,0.01700182
3118.88152222,0.01687540
3120.81032959,0.01688580
3122.73913696,0.01684485
3124.66794434,0.01668302
3126.59675171,0.01672258
3128.52555908,0.01672171
3130.45436645,0.01665347
3132.38317383,0.01649700
3134.31198120,0.01651986
3136.24078857,0.01657987
3138.16959595,0.01649177
3140.09840332,0.01648401
3142.02721069,0.01637270
3143.95601807,0.01641963
3145.88482544,0.01635031
3147.81363281,0.01626764
3149.74244019,0.01630038
3151.67124756,0.01608048
3153.60005493,0.01607802
3155.52886230,0.01604038
3157.45766968,0.01600315
3159.38647705,0.01605439
3161.31528442,0.01596608
3163.24409180,0.01591338
3165.17289917,0.01585230
3167.10170654,0.01595496
3169.03051392,0.01586111
3170.95932129,0.01570475
3172.88812866,0.01573390
3174.81693604,0.01561793
3176.74574341,0.01559758
3178.67455078,0.01549367
3180.60335815,0.01545078
3182.53216553,0.01556698
3184.46097290,0.01538877
3186.38978027,0.01532882
3188.31858765,0.01544171
3190.24739502,0.01533584
3192.17620239,0.01520911
3194.10500977,0.01522694
3196.03381714,0.01524636
3197.96262451,0.01510076
3199.89143188,0.01504600
3201.82023926,0.01505602
3203.74904663,0.01499993
3205.67785400,0.01506527
3207.60666138,0.01495187
3209.53546875,0.01493671
3211.46427612,0.01498181
3213.39308350,0.01484240
3215.32189087,0.01491963
3217.25069824,0.01482150
3219.17950562,0.01476862
3221.10831299,0.01481589
3223.03712036,0.01469580
3224.96592773,0.01469152
3226.89473511,0.01455657
3228.82354248,0.01453640
3230.75234985,0.01465334
3232.68115723,0.01456775
3234.60996460,0.01448764
3236.53877197,0.01457297
3238.46757935,0.01454423
3240.39638672,0.01444750
3242.32519409,0.01446752
3244.25400146,0.01433199
3246.18280884,0.01440938
3248.11161621,0.01444675
3250.04042358,0.01433882
3251.96923096,0.01441052
3253.89803833,0.01426019
3255.82684570,0.01428562
3257.75565308,0.01434543
3259.68446045,0.01425376
3261.61326782,0.01430607
3263.54207520,0.01422722
3265.47088257,0.01415087
3267.39968994,0.01418440
3269.32849731,0.01418291
3271.25730469,0.01415741
3273.18611206,0.01417609
3275.11491943,0.01408028
3277.04372681,0.01397935
3278.97253418,0.01406054
3280.90134155,0.01406458
3282.83014893,0.01402494
3284.75895630,0.01407226
3286.68776367,0.01400316
3288.61657104,0.01386786
3290.54537842,0.01388803
3292.47418579,0.01387160
3294.40299316,0.01392778
3296.33180054,0.01391497
3298.26060791,0.01383997
3300.18941528,0.01390300
3302.11822266,0.01380589
3304.04703003,0.01389677
3305.97583740,0.01381772
3307.90464478,0.01375221
3309.83345215,0.01386793
3311.76225952,0.01361903
3313.69106689,0.01369494
3315.61987427,0.01369597
3317.54868164,0.01362629
3319.47748901,0.01375690
3321.40629639,0.01367367
3323.33510376,0.01361039
3325.26391113,0.01355441
3327.19271851,0.01359760
3329.12152588,0.01354231
3331.05033325,0.01354725
3332.97914062,0.01357283
3334.90794800,0.01342849
3336.83675537,0.01336462
3338.76556274,0.01337063
3340.69437012,0.01348514
3342.62317749,0.01340475
3344.55198486,0.01340525
3346.48079224,0.01333218
3348.40959961,0.01319553
3350.33840698,0.01333806
3352.26721436,0.01328073
3354.19602173,0.01321450
3356.12482910,0.01315652
3358.05363647,0.01316696
3359.98244385,0.01315197
3361.91125122,0.01307568
3363.84005859,0.01304891
3365.76886597,0.01301405
3367.69767334,0.01309711
3369.62648071,0.01300528
3371.55528809,0.01309499
3373.48409546,0.01309689
3375.41290283,0.01293463
3377.34171020,0.01291511
3379.27051758,0.01286893
3381.19932495,0.01298618
3383.12813232,0.01284778
3385.05693970,0.01282739
3386.98574707,0.01284044
3388.91455444,0.01273109
3390.84336182,0.01282436
3392.77216919,0.01275912
3394.70097656,0.01276512
3396.62978394,0.01265890
3398.55859131,0.01261605
3400.48739868,0.01264547
3402.41620605,0.01255080
3404.34501343,0.01259086
3406.27382080,0.01255364
3408.20262817,0.01249645
3410.13143555,0.01244524
3412.06024292,0.01246081
3413.98905029,0.01242273
3415.91785767,0.01245528
3417.84666504,0.01246700
3419.77547241,0.01230153
3421.70427979,0.01235227
3423.63308716,0.01236532
3425.56189453,0.01230776
3427.49070190,0.01225961
3429.41950928,0.01228639
3431.34831665,0.01227822
3433.27712402,0.01222949
3435.20593140,0.01219205
3437.13473877,0.01202707
3439.06354614,0.01208993
3440.99235352,0.01207836
3442.92116089,0.01209560
3444.84996826,0.01212796
3446.77877563,0.01185180
3448.70758301,0.01186890
3450.63639038,0.01202586
3452.56519775,0.01191794
3454.49400513,0.01194804
3456.42281250,0.01209636
3458.35161987,0.01191421
3460.28042725,0.01190013
3462.20923462,0.01192165
3464.13804199,0.01182297
3466.06684937,0.01184952
3467.99565674,0.01173700
3469.92446411,0.01182865
3471.85327148,0.01180909
3473.78207886,0.01184594
3475.71088623,0.01188492
3477.63969360,0.01175356
3479.56850098,0.01178572
3481.49730835,0.01151989
3483.42611572,0.01157784
3485.35492310,0.01169042
3487.28373047,0.01160810
3489.21253784,0.01162297
3491.14134521,0.01156697
3493.07015259,0.01171707
3494.99895996,0.01162290
3496.92776733,0.01155643
3498.85657471,0.01165288
3500.78538208,0.01157147
3502.71418945,0.01126445
3504.64299683,0.01134130
3506.57180420,0.01178140
3508.50061157,0.01153746
3510.42941895,0.01146053
3512.35822632,0.01153284
3514.28703369,0.01153523
3516.21584106,0.01163673
3518.14464844,0.01144243
3520.07345581,0.01154042
3522.00226318,0.01143070
3523.93107056,0.01120771
3525.85987793,0.01129356
3527.78868530,0.01126175
3529.71749268,0.01134929
3531.64630005,0.01139949
3533.57510742,0.01141164
3535.50391479,0.01139193
3537.43272217,0.01129033
3539.36152954,0.01147829
3541.29033691,0.01150785
3543.21914429,0.01129887
3545.14795166,0.01104215
3547.07675903,0.01085317
3549.00556641,0.01136070
3550.93437378,0.01131848
3552.86318115,0.01094807
3554.79198853,0.01135263
3556.72079590,0.01135092
3558.64960327,0.01133720
3560.57841064,0.01118731
3562.50721802,0.01107033
3564.43602539,0.01117466
3566.36483276,0.01032371
3568.29364014,0.01002628
3570.22244751,0.01085764
3572.15125488,0.01128745
3574.08006226,0.01116527
3576.00886963,0.01120127
3577.93767700,0.01115819
3579.86648437,0.01107960
3581.79529175,0.01114806
3583.72409912,0.01118541
3585.65290649,0.01084123
3587.58171387,0.00977745
3589.51052124,0.01021410
3591.43932861,0.01123950
3593.36813599,0.01083584
3595.29694336,0.01065557
3597.22575073,0.01087766
3599.15455811,0.01090640
3601.08336548,0.01077117
3603.01217285,0.01106901
3604.94098022,0.01122751
3606.86978760,0.01069049
3608.79859497,0.00994395
3610.72740234,0.01022643
3612.65620972,0.01055155
3614.58501709,0.01010631
3616.51382446,0.01101942
3618.44263184,0.00997912
3620.37143921,0.00965582
3622.30024658,0.01117303
3624.22905395,0.01072193
3626.15786133,0.01130344
3628.08666870,0.00917011
3630.01547607,0.00842062
3631.94428345,0.01094078
3633.87309082,0.01043818
3635.80189819,0.01086917
3637.73070557,0.01099443
3639.65951294,0.01090771
3641.58832031,0.01110286
3643.51712769,0.01082615
3645.44593506,0.01089099
3647.37474243,0.00952473
3649.30354980,0.00868062
3651.23235718,0.00879876
3653.16116455,0.01080306
3655.08997192,0.01054471
3657.01877930,0.00924088
3658.94758667,0.01107038
3660.87639404,0.01075845
3662.80520142,0.01098059
3664.73400879,0.01089616
3666.66281616,0.01069951
3668.59162354,0.01037212
3670.52043091,0.00820251
3672.44923828,0.01022565
3674.37804565,0.00965920
3676.30685303,0.00788000
3678.23566040,0.01014436
3680.16446777,0.01040959
3682.09327515,0.01050782
3684.02208252,0.01078576
3685.95088989,0.01066310
3687.87969727,0.00935815
3689.80850464,0.00845152
3691.73731201,0.00989457
3693.66611938,0.01022719
3695.59492676,0.01058205
3697.52373413,0.01047689
3699.45254150,0.01034951
3701.38134888,0.01007131
3703.31015625,0.00969938
3705.23896362,0.01079607
3707.16777100,0.01015811
3709.09657837,0.00995792
3711.02538574,0.00914379
3712.95419312,0.00850636
3714.88300049,0.01029709
3716.81180786,0.01009125
3718.74061523,0.01024967
3720.66942261,0.00992202
3722.59822998,0.00957169
3724.52703735,0.00986850
3726.45584473,0.00895670
3728.38465210,0.00998908
3730.31345947,0.00976080
3732.24226685,0.00890985
3734.17107422,0.00867938
3736.09988159,0.00806028
3738.02868896,0.00873286
3739.95749634,0.00952827
3741.88630371,0.01003465
3743.81511108,0.00761021
3745.74391846,0.00717185
3747.67272583,0.00961972
3749.60153320,0.00800956
3751.53034058,0.00737471
3753.45914795,0.00865539
3755.38795532,0.00926528
3757.31676270,0.00962014
3759.24557007,0.00886963
3761.17437744,0.00939083
3763.10318481,0.00992005
3765.03199219,0.00917868
3766.96079956,0.00954633
3768.88960693,0.00926633
3770.81841431,0.00879070
3772.74722168,0.00972320
3774.67602905,0.00974550
3776.60483643,0.00976759
3778.53364380,0.00939786
3780.46245117,0.00894042
3782.39125854,0.00965054
3784.32006592,0.00937320
3786.24887329,0.00926064
3788.17768066,0.00955692
3790.10648804,0.00952024
3792.03529541,0.00940408
3793.96410278,0.00960745
3795.89291016,0.00896520
3797.82171753,0.00881335
3799.75052490,0.00931522
3801.67933228,0.00718054
3803.60813965,0.00871180
3805.53694702,0.00948815
3807.46575439,0.00747535
3809.39456177,0.00934104
3811.32336914,0.00916203
3813.25217651,0.00946466
3815.18098389,0.00836410
3817.10979126,0.00728592
3819.03859863,0.00942340
3820.96740601,0.00720158
3822.89621338,0.00783439
3824.82502075,0.00938635
3826.75382812,0.00828298
3828.68263550,0.00914503
3830.61144287,0.00867852
3832.54025024,0.00827850
3834.46905762,0.00853708
3836.39786499,0.00809293
3838.32667236,0.00724238
3840.25547974,0.00786541
3842.18428711,0.00850974
3844.11309448,0.00804584
3846.04190186,0.00889025
3847.97070923,0.00882563
3849.89951660,0.00883634
3851.82832397,0.00780655
3853.75713135,0.00549265
3855.68593872,0.00675186
3857.61474609,0.00878960
3859.54355347,0.00854111
3861.47236084,0.00846465
3863.40116821,0.00820285
3865.32997559,0.00748156
3867.25878296,0.00851314
3869.18759033,0.00769146
3871.11639770,0.00699321
3873.04520508,0.00859496
3874.97401245,0.00781859
3876.90281982,0.00847489
3878.83162720,0.00870253
3880.76043457,0.00720127
3882.68924194,0.00851110
3884.61804932,0.00797587
3886.54685669,0.00711218
3888.47566406,0.00863217
3890.40447144,0.00814983
3892.33327881,0.00741494
3894.26208618,0.00827658
3896.19089355,0.00846369
3898.11970093,0.00798559
3900.04850830,0.00757084
3901.97731567,0.00747918
3903.90612305,0.00731759
3905.83493042,0.00742188
3907.76373779,0.00828122
3909.69254517,0.00835169
3911.62135254,0.00826418
3913.55015991,0.00839869
3915.47896728,0.00803424
3917.40777466,0.00769636
3919.33658203,0.00771357
3921.26538940,0.00808896
3923.19419678,0.00794842
3925.12300415,0.00784212
3927.05181152,0.00795607
3928.98061890,0.00796844
3930.90942627,0.00781673
3932.83823364,0.00746987
3934.76704102,0.00790992
3936.69584839,0.00796354
3938.62465576,0.00787299
3940.55346313,0.00806243
3942.48227051,0.00760330
3944.41107788,0.00773797
3946.33988525,0.00795706
3948.26869263,0.00766703
3950.19750000,0.00776427
3952.12630737,0.00787142
3954.05511475,0.00784257
3955.98392212,0.00787569
3957.91272949,0.00773296
3959.84153687,0.00774487
3961.77034424,0.00772907
3963.69915161,0.00761024
3965.62795898,0.00774244
3967.55676636,0.00761817
3969.48557373,0.00759740
3971.41438110,0.00770271
3973.34318848,0.00767508
3975.27199585,0.00764941
3977.20080322,0.00756917
3979.12961060,0.00760593
3981.05841797,0.00756357
3982.98722534,0.00758158
3984.91603271,0.00752566
3986.84484009,0.00756368
3988.77364746,0.00758993
3990.70245483,0.00743483
3992.63126221,0.00756977
3994.56006958,0.00757031
3996.48887695,0.00753781
3998.41768433,0.00749009
4000.34649170,0.00747068
4002.27529907,0.00740529
4004.20410645,0.00734592
4006.13291382,0.00748402
4008.06172119,0.00733290
4009.99052856,0.00737477
4011.91933594,0.00734759
4013.84814331,0.00723807
4015.77695068,0.00729126
4017.70575806,0.00725091
4019.63456543,0.00725241
4021.56337280,0.00719385
4023.49218018,0.00733233
4025.42098755,0.00724470
4027.34979492,0.00718469
4029.27860229,0.00726183
4031.20740967,0.00716398
4033.13621704,0.00723863
4035.06502441,0.00713964
4036.99383179,0.00708887
4038.92263916,0.00704501
4040.85144653,0.00701334
4042.78025391,0.00705661
4044.70906128,0.00704368
4046.63786865,0.00712194
4048.56667603,0.00705250
4050.49548340,0.00698394
4052.42429077,0.00693604
4054.35309814,0.00695566
4056.28190552,0.00694155
4058.21071289,0.00689478
4060.13952026,0.00682805
4062.06832764,0.00677092
4063.99713501,0.00693604
4065.92594238,0.00688354
4067.85474976,0.00683250
4069.78355713,0.00682803
4071.71236450,0.00681193
4073.64117187,0.00682174
4075.56997925,0.00675732
4077.49878662,0.00681690
4079.42759399,0.00680649
4081.35640137,0.00679117
4083.28520874,0.00665079
4085.21401611,0.00658611
4087.14282349,0.00659684
4089.07163086,0.00657690
4091.00043823,0.00667871
4092.92924561,0.00659826
4094.85805298,0.00665040
4096.78686035,0.00657421
4098.71566772,0.00650153
4100.64447510,0.00667708
4102.57328247,0.00660106
4104.50208984,0.00651323
4106.43089722,0.00649493
4108.35970459,0.00650286
4110.28851196,0.00644817
4112.21731934,0.00645300
4114.14612671,0.00645369
4116.07493408,0.00638099
4118.00374145,0.00643140
4119.93254883,0.00635953
4121.86135620,0.00635030
4123.79016357,0.00639739
4125.71897095,0.00636374
4127.64777832,0.00637810
4129.57658569,0.00636743
4131.50539307,0.00630526
4133.43420044,0.00630672
4135.36300781,0.00631489
4137.29181519,0.00620544
4139.22062256,0.00619273
4141.14942993,0.00622519
4143.07823730,0.00624315
4145.00704468,0.00619998
4146.93585205,0.00614718
4148.86465942,0.00618767
4150.79346680,0.00611649
4152.72227417,0.00607307
4154.65108154,0.00606316
4156.57988892,0.00609570
4158.50869629,0.00616933
4160.43750366,0.00609549
4162.36631103,0.00604552
4164.29511841,0.00608719
4166.22392578,0.00605058
4168.15273315,0.00605855
4170.08154053,0.00611114
4172.01034790,0.00599680
4173.93915527,0.00596323
4175.86796265,0.00596018
4177.79677002,0.00599511
4179.72557739,0.00600016
4181.65438477,0.00580531
4183.58319214,0.00583041
4185.51199951,0.00586776
4187.44080688,0.00592340
4189.36961426,0.00597956
4191.29842163,0.00582003
4193.22722900,0.00584642
4195.15603638,0.00592644
4197.08484375,0.00582652
4199.01365112,0.00573689
4200.94245850,0.00582232
4202.87126587,0.00583538
4204.80007324,0.00575604
4206.72888062,0.00575612
4208.65768799,0.00571858
4210.58649536,0.00573464
4212.51530273,0.00578387
4214.44411011,0.00574021
4216.37291748,0.00564284
4218.30172485,0.00563794
4220.23053223,0.00564404
4222.15933960,0.00565262
4224.08814697,0.00560204
4226.01695435,0.00552758
4227.94576172,0.00560783
4229.87456909,0.00553001
4231.80337646,0.00552111
4233.73218384,0.00554654
4235.66099121,0.00545771
4237.58979858,0.00550693
4239.51860596,0.00550277
4241.44741333,0.00549061
4243.37622070,0.00547869
4245.30502808,0.00544212
4247.23383545,0.00536760
4249.16264282,0.00540851
4251.09145020,0.00549997
4253.02025757,0.00541486
4254.94906494,0.00539108
4256.87787231,0.00538925
4258.80667969,0.00538340
4260.73548706,0.00536226
4262.66429443,0.00536373
4264.59310181,0.00531511
4266.52190918,0.00534695
4268.45071655,0.00540814
4270.37952393,0.00524826
4272.30833130,0.00528625
4274.23713867,0.00525187
4276.16594604,0.00524422
4278.09475342,0.00527788
4280.02356079,0.00517404
4281.95236816,0.00523848
4283.88117554,0.00516763
4285.80998291,0.00521206
4287.73879028,0.00517186
4289.66759766,0.00506005
4291.59640503,0.00515010
4293.52521240,0.00514731
4295.45401978,0.00518357
4297.38282715,0.00509960
4299.31163452,0.00510080
4301.24044189,0.00511835
4303.16924927,0.00513187
4305.09805664,0.00522676
4307.02686401,0.00509156
4308.95567139,0.00503509
4310.88447876,0.00502174
4312.81328613,0.00499630
4314.74209351,0.00499717
4316.67090088,0.00506184
4318.59970825,0.00508164
4320.52851562,0.00497164
4322.45732300,0.00497720
4324.38613037,0.00490082
4326.31493774,0.00488647
4328.24374512,0.00489663
4330.17255249,0.00485243
4332.10135986,0.00487562
4334.03016724,0.00482686
4335.95897461,0.00484426
4337.88778198,0.00482242
4339.81658936,0.00482466
4341.74539673,0.00480358
4343.67420410,0.00470849
4345.60301147,0.00480767
4347.53181885,0.00477732
4349.46062622,0.00470047
4351.38943359,0.00479306
4353.31824097,0.00472088
4355.24704834,0.00466529
4357.17585571,0.00473920
4359.10466309,0.00469097
4361.03347046,0.00466197
4362.96227783,0.00467607
4364.89108520,0.00463751
4366.81989258,0.00461739
4368.74869995,0.00461396
4370.67750732,0.00462348
4372.60631470,0.00464791
4374.53512207,0.00464950
4376.46392944,0.00460767
4378.39273682,0.00462379
4380.32154419,0.00456919
4382.25035156,0.00446384
4384.17915894,0.00457045
4386.10796631,0.00459437
4388.03677368,0.00450940
4389.96558105,0.00453659
4391.89438843,0.00444652
4393.82319580,0.00442360
4395.75200317,0.00457586
4397.68081055,0.00456807
4399.60961792,0.00451398
4401.53842529,0.00442558
4403.46723267,0.00441564
4405.39604004,0.00452438
4407.32484741,0.00440647
4409.25365478,0.00433241
4411.18246216,0.00435271
4413.11126953,0.00437963
4415.04007690,0.00436952
4416.96888428,0.00433024
4418.89769165,0.00442348
4420.82649902,0.00438275
4422.75530640,0.00435752
4424.68411377,0.00428379
4426.61292114,0.00426773
4428.54172852,0.00438360
4430.47053589,0.00427472
4432.39934326,0.00426487
4434.32815063,0.00424001
4436.25695801,0.00425499
4438.18576538,0.00425304
4440.11457275,0.00415818
4442.04338013,0.00425190
4443.97218750,0.00419105
4445.90099487,0.00413361
4447.82980225,0.00414152
4449.75860962,0.00417065
4451.68741699,0.00418218
4453.61622437,0.00415138
4455.54503174,0.00415897
4457.47383911,0.00402327
4459.40264648,0.00411494
4461.33145386,0.00413694
4463.26026123,0.00399585
4465.18906860,0.00408234
4467.11787598,0.00410625
4469.04668335,0.00408585
4470.97549072,0.00402684
4472.90429810,0.00406505
4474.83310547,0.00409694
4476.76191284,0.00398921
4478.69072021,0.00404127
4480.61952759,0.00404800
4482.54833496,0.00396442
4484.47714233,0.00398163
4486.40594971,0.00394457
4488.33475708,0.00387142
4490.26356445,0.00394345
4492.19237183,0.00398422
4494.12117920,0.00396588
4496.04998657,0.00397120
4497.97879395,0.00388949
4499.90760132,0.00383927
4501.83640869,0.00385036
4503.76521606,0.00382082
4505.69402344,0.00380682
4507.62283081,0.00385427
4509.55163818,0.00379659
4511.48044556,0.00376270
4513.40925293,0.00384025
4515.33806030,0.00378557
4517.26686768,0.00379370
4519.19567505,0.00381286
4521.12448242,0.00375854
4523.05328979,0.00374221
4524.98209717,0.00372018
4526.91090454,0.00378487
4528.83971191,0.00376512
4530.76851929,0.00372754
4532.69732666,0.00370912
4534.62613403,0.00363956
4536.55494141,0.00367781
4538.48374878,0.00361049
4540.41255615,0.00360305
4542.34136353,0.00368509
4544.27017090,0.00362028
4546.19897827,0.00362813
4548.12778564,0.00362824
4550.05659302,0.00363149
4551.98540039,0.00363067
4553.91420776,0.00358153
4555.84301514,0.00359644
4557.77182251,0.00357570
4559.70062988,0.00359110
4561.62943726,0.00352279
4563.55824463,0.00347777
4565.48705200,0.00356240
4567.41585937,0.00356016
4569.34466675,0.00350920
4571.27347412,0.00338618
4573.20228149,0.00345767
4575.13108887,0.00352819
4577.05989624,0.00341674
4578.98870361,0.00341790
4580.91751099,0.00345719
4582.84631836,0.00355233
4584.77512573,0.00346266
4586.70393311,0.00342445
4588.63274048,0.00351202
4590.56154785,0.00344059
4592.49035522,0.00348529
4594.41916260,0.00343580
4596.34796997,0.00336709
4598.27677734,0.00333794
4600.20558472,0.00333933
4602.13439209,0.00342656
4604.06319946,0.00332446
4605.99200684,0.00335521
4607.92081421,0.00339349
4609.84962158,0.00329174
4611.77842895,0.00333735
4613.70723633,0.00333627
4615.63604370,0.00331811
4617.56485107,0.00335603
4619.49365845,0.00329144
4621.42246582,0.00323297
4623.35127319,0.00322448
4625.28008057,0.00317480
4627.20888794,0.00317672
4629.13769531,0.00319445
4631.06650269,0.00321951
4632.99531006,0.00324346
4634.92411743,0.00321671
4636.85292480,0.00321153
4638.78173218,0.00323461
4640.71053955,0.00324068
4642.63934692,0.00314773
4644.56815430,0.00316243
4646.49696167,0.00324299
4648.42576904,0.00319061
4650.35457642,0.00312635
4652.28338379,0.00312427
4654.21219116,0.00313035
4656.14099853,0.00309154
4658.06980591,0.00315753
4659.99861328,0.00307235
4661.92742065,0.00300189
4663.85622803,0.00310494
4665.78503540,0.00310244
4667.71384277,0.00319708
4669.64265015,0.00308901
4671.57145752,0.00300892
4673.50026489,0.00306732
4675.42907227,0.00299290
4677.35787964,0.00305313
4679.28668701,0.00304124
4681.21549438,0.00301853
4683.14430176,0.00298184
4685.07310913,0.00298059
4687.00191650,0.00300611
4688.93072388,0.00294988
4690.85953125,0.00300331
4692.78833862,0.00303134
4694.71714600,0.00302571
4696.64595337,0.00288729
4698.57476074,0.00291253
4700.50356812,0.00298245
4702.43237549,0.00288541
4704.36118286,0.00297241
4706.28999023,0.00290696
4708.21879761,0.00287638
4710.14760498,0.00289572
4712.07641235,0.00283089
4714.00521973,0.00287797
4715.93402710,0.00287060
4717.86283447,0.00282998
4719.79164185,0.00283269
4721.72044922,0.00293799
4723.64925659,0.00278944
4725.57806396,0.00269712
4727.50687134,0.00288435
4729.43567871,0.00280774
4731.36448608,0.00280380
4733.29329346,0.00284880
4735.22210083,0.00278997
4737.15090820,0.00275903
4739.07971558,0.00271871
4741.00852295,0.00273601
4742.93733032,0.00268145
4744.86613770,0.00273569
4746.79494507,0.00280446
4748.72375244,0.00271404
4750.65255981,0.00273144
4752.58136719,0.00267330
4754.51017456,0.00259774
4756.43898193,0.00266375
4758.36778931,0.00263712
4760.29659668,0.00265754
4762.22540405,0.00271702
4764.15421143,0.00271502
4766.08301880,0.00269153
4768.01182617,0.00263372
4769.94063354,0.00265859
4771.86944092,0.00262411
4773.79824829,0.00261884
4775.72705566,0.00266199
4777.65586304,0.00262620
4779.58467041,0.00264271
4781.51347778,0.00256771
4783.44228516,0.00256315
4785.37109253,0.00261477
4787.29989990,0.00257330
4789.22870728,0.00258766
4791.15751465,0.00250608
4793.08632202,0.00246789
4795.01512939,0.00260352
4796.94393677,0.00260672
4798.87274414,0.00245026
4800.80155151,0.00244182
4802.73035889,0.00250736
4804.65916626,0.00250785
4806.58797363,0.00254085
4808.51678101,0.00252390
4810.44558838,0.00252412
4812.37439575,0.00252432
4814.30320312,0.00249156
4816.23201050,0.00250693
4818.16081787,0.00245562
4820.08962524,0.00240301
4822.01843262,0.00243343
4823.94723999,0.00244245
4825.87604736,0.00243396
4827.80485474,0.00244855
4829.73366211,0.00244441
4831.66246948,0.00243325
4833.59127686,0.00243474
4835.52008423,0.00242720
4837.44889160,0.00235448
4839.37769897,0.00238382
4841.30650635,0.00241038
4843.23531372,0.00227877
4845.16412109,0.00238960
4847.09292847,0.00239837
4849.02173584,0.00227921
4850.95054321,0.00235812
4852.87935059,0.00232583
4854.80815796,0.00235023
4856.73696533,0.00232548
4858.66577270,0.00228266
4860.59458008,0.00230890
4862.52338745,0.00226127
4864.45219482,0.00230667
4866.38100220,0.00231429
4868.30980957,0.00232704
4870.23861694,0.00230453
4872.16742432,0.00231171
4874.09623169,0.00232108
4876.02503906,0.00223708
4877.95384644,0.00226613
4879.88265381,0.00222315
4881.81146118,0.00224369
4883.74026855,0.00224840
4885.66907593,0.00220662
4887.59788330,0.00227384
4889.52669067,0.00220693
4891.45549805,0.00219325
4893.38430542,0.00222373
4895.31311279,0.00225278
4897.24192017,0.00224871
4899.17072754,0.00217237
4901.09953491,0.00218612
4903.02834228,0.00218386
4904.95714966,0.00220597
4906.88595703,0.00218764
4908.81476440,0.00214750
4910.74357178,0.00217025
4912.67237915,0.00212592
4914.60118652,0.00209055
4916.52999390,0.00211303
4918.45880127,0.00215886
4920.38760864,0.00213422
4922.31641602,0.00207093
4924.24522339,0.00206728
4926.17403076,0.00206742
4928.10283813,0.00204635
4930.03164551,0.00206860
4931.96045288,0.00213985
4933.88926025,0.00208246
4935.81806763,0.00200479
4937.74687500,0.00205271
4939.67568237,0.00207870
4941.60448975,0.00209755
4943.53329712,0.00207835
4945.46210449,0.00202563
4947.39091187,0.00204395
4949.31971924,0.00203390
4951.24852661,0.00199493
4953.17733398,0.00201214
4955.10614136,0.00205592
4957.03494873,0.00207940
4958.96375610,0.00205372
4960.89256348,0.00199223
4962.82137085,0.00196601
4964.75017822,0.00198318
4966.67898560,0.00194937
4968.60779297,0.00193846
4970.53660034,0.00198522
4972.46540771,0.00198008
4974.39421509,0.00195665
4976.32302246,0.00192793
4978.25182983,0.00193556
4980.18063721,0.00197050
4982.10944458,0.00196376
4984.03825195,0.00195501
4985.96705933,0.00194489
4987.89586670,0.00190527
4989.82467407,0.00184168
4991.75348145,0.00188524
4993.68228882,0.00193535
4995.61109619,0.00188224
4997.53990356,0.00189421
4999.46871094,0.00186746
5001.39751831,0.00181626
5003.32632568,0.00184951
5005.25513306,0.00188550
5007.18394043,0.00187592
5009.11274780,0.00177189
5011.04155518,0.00175841
5012.97036255,0.00185295
5014.89916992,0.00184478
5016.82797729,0.00183033
5018.75678467,0.00183229
5020.68559204,0.00177440
5022.61439941,0.00179532
5024.54320679,0.00187570
5026.47201416,0.00182707
5028.40082153,0.00176813
5030.32962891,0.00182648
5032.25843628,0.00183362
5034.18724365,0.00176709
5036.11605103,0.00172903
5038.04485840,0.00173495
5039.97366577,0.00175960
5041.90247314,0.00172903
5043.83128052,0.00171526
5045.76008789,0.00176019
5047.68889526,0.00173945
5049.61770264,0.00169034
5051.54651001,0.00174374
5053.47531738,0.00182023
5055.40412476,0.00175147
5057.33293213,0.00169165
5059.26173950,0.00173628
5061.19054687,0.00171946
5063.11935425,0.00169935
5065.04816162,0.00170284
5066.97696899,0.00169595
5068.90577637,0.00168735
5070.83458374,0.00163881
5072.76339111,0.00168995
5074.69219849,0.00173756
5076.62100586,0.00167268
5078.54981323,0.00172160
5080.47862061,0.00168419
5082.40742798,0.00162579
5084.33623535,0.00173486
5086.26504272,0.00164024
5088.19385010,0.00158497
5090.12265747,0.00165252
5092.05146484,0.00159795
5093.98027222,0.00160376
5095.90907959,0.00162562
5097.83788696,0.00161766
5099.76669434,0.00157746
5101.69550171,0.00159725
5103.62430908,0.00156698
5105.55311645,0.00152496
5107.48192383,0.00163571
5109.41073120,0.00161732
5111.33953857,0.00165052
5113.26834595,0.00157765
5115.19715332,0.00150921
5117.12596069,0.00165013
5119.05476807,0.00153750
5120.98357544,0.00153776
5122.91238281,0.00155563
5124.84119019,0.00151766
5126.76999756,0.00156634
5128.69880493,0.00145664
5130.62761230,0.00151400
5132.55641968,0.00157044
5134.48522705,0.00153974
5136.41403442,0.00153867
5138.34284180,0.00149176
5140.27164917,0.00148268
5142.20045654,0.00151226
5144.12926392,0.00155000
5146.05807129,0.00145950
5147.98687866,0.00148101
5149.91568603,0.00152123
5151.84449341,0.00149375
5153.77330078,0.00148347
5155.70210815,0.00137957
5157.63091553,0.00151668
5159.55972290,0.00152254
5161.48853027,0.00142607
5163.41733765,0.00153382
5165.34614502,0.00142955
5167.27495239,0.00138141
5169.20375977,0.00141768
5171.13256714,0.00137665
5173.06137451,0.00136115
5174.99018188,0.00137396
5176.91898926,0.00138018
5178.84779663,0.00131594
5180.77660400,0.00135913
5182.70541138,0.00138841
5184.63421875,0.00134461
5186.56302612,0.00136003
5188.49183350,0.00141567
5190.42064087,0.00140791
5192.34944824,0.00131800
5194.27825562,0.00136022
5196.20706299,0.00133353
5198.13587036,0.00129051
5200.06467773,0.00136682
5201.99348511,0.00137790
5203.92229248,0.00139544
5205.85109985,0.00132363
5207.77990723,0.00129228
5209.70871460,0.00133451
5211.63752197,0.00132255
5213.56632935,0.00132609
5215.49513672,0.00132333
5217.42394409,0.00134859
5219.35275146,0.00128752
5221.28155884,0.00131164
5223.21036621,0.00140048
5225.13917358,0.00133035
5227.06798096,0.00128688
5228.99678833,0.00128104
5230.92559570,0.00129170
5232.85440308,0.00124519
5234.78321045,0.00128844
5236.71201782,0.00136030
5238.64082520,0.00126395
5240.56963257,0.00130102
5242.49843994,0.00126515
5244.42724731,0.00119630
5246.35605469,0.00130357
5248.28486206,0.00122776
5250.21366943,0.00117454
5252.14247681,0.00128490
5254.07128418,0.00125787
5256.00009155,0.00123576
5257.92889893,0.00124146
5259.85770630,0.00122444
5261.78651367,0.00129823
5263.71532104,0.00122830
5265.64412842,0.00116480
5267.57293579,0.00119041
5269.50174316,0.00116726
5271.43055054,0.00125758
5273.35935791,0.00124665
5275.28816528,0.00122082
5277.21697266,0.00121019
5279.14578003,0.00113851
5281.07458740,0.00121646
5283.00339478,0.00120799
5284.93220215,0.00117390
5286.86100952,0.00122969
5288.78981689,0.00120293
5290.71862427,0.00116029
5292.64743164,0.00119375
5294.57623901,0.00120967
5296.50504639,0.00120616
5298.43385376,0.00125234
5300.36266113,0.00120316
5302.29146851,0.00116904
5304.22027588,0.00117459
5306.14908325,0.00114203
5308.07789062,0.00112273
5310.00669800,0.00112522
5311.93550537,0.00119024
5313.86431274,0.00113703
5315.79312012,0.00110313
5317.72192749,0.00112742
5319.65073486,0.00108196
5321.57954224,0.00114354
5323.50834961,0.00112970
5325.43715698,0.00106636
5327.36596436,0.00112070
5329.29477173,0.00111297
5331.22357910,0.00106156
5333.15238647,0.00106818
5335.08119385,0.00112011
5337.01000122,0.00110799
5338.93880859,0.00101119
5340.86761597,0.00107661
5342.79642334,0.00110348
5344.72523071,0.00098915
5346.65403809,0.00105659
5348.58284546,0.00104517
5350.51165283,0.00104496
5352.44046020,0.00109558
5354.36926758,0.00103598
5356.29807495,0.00111302
5358.22688232,0.00103060
5360.15568970,0.00098152
5362.08449707,0.00108311
5364.01330444,0.00100447
5365.94211182,0.00100125
5367.87091919,0.00104141
5369.79972656,0.00103846
5371.72853394,0.00106252
5373.65734131,0.00107627
5375.58614868,0.00101056
5377.51495605,0.00098134
5379.44376343,0.00104400
5381.37257080,0.00100635
5383.30137817,0.00101706
5385.23018555,0.00108618
5387.15899292,0.00106281
5389.08780029,0.00102369
5391.01660767,0.00103388
5392.94541504,0.00100770
5394.87422241,0.00095899
5396.80302978,0.00100923
5398.73183716,0.00100784
5400.66064453,0.00098874
5402.58945190,0.00103276
5404.51825928,0.00100722
5406.44706665,0.00098265
5408.37587402,0.00098814
5410.30468140,0.00096095
5412.23348877,0.00095715
5414.16229614,0.00093223
5416.09110352,0.00092287
5418.01991089,0.00096575
5419.94871826,0.00093643
5421.87752563,0.00093391
5423.80633301,0.00096151
5425.73514038,0.00101821
5427.66394775,0.00100393
5429.59275513,0.00091377
5431.52156250,0.00095910
5433.45036987,0.00091698
5435.37917725,0.00092027
5437.30798462,0.00098149
5439.23679199,0.00092992
5441.16559936,0.00090793
5443.09440674,0.00090041
5445.02321411,0.00093038
5446.95202148,0.00088979
5448.88082886,0.00087047
5450.80963623,0.00088652
5452.73844360,0.00093117
5454.66725098,0.00092718
5456.59605835,0.00084293
5458.52486572,0.00094787
5460.45367310,0.00091976
5462.38248047,0.00083774
5464.31128784,0.00084351
5466.24009521,0.00087905
5468.16890259,0.00092082
5470.09770996,0.00087051
5472.02651733,0.00095119
5473.95532471,0.00090566
5475.88413208,0.00091277
5477.81293945,0.00098692
5479.74174683,0.00087118
5481.67055420,0.00080758
5483.59936157,0.00079724
5485.52816895,0.00088796
5487.45697632,0.00086321
5489.38578369,0.00083633
5491.31459106,0.00081632
5493.24339844,0.00081340
5495.17220581,0.00090436
5497.10101318,0.00078246
5499.02982056,0.00082368
5500.95862793,0.00086018
5502.88743530,0.00082854
5504.81624268,0.00089655
5506.74505005,0.00081960
5508.67385742,0.00081422
5510.60266479,0.00082656
5512.53147217,0.00080672
5514.46027954,0.00078432
5516.38908691,0.00081513
5518.31789429,0.00083022
5520.24670166,0.00076931
5522.17550903,0.00079806
5524.10431641,0.00081033
5526.03312378,0.00083514
5527.96193115,0.00083269
5529.89073853,0.00080972
5531.81954590,0.00077178
5533.74835327,0.00074635
5535.67716064,0.00080403
5537.60596802,0.00079241
5539.53477539,0.00080512
5541.46358276,0.00079934
5543.39239014,0.00075747
5545.32119751,0.00076791
5547.25000488,0.00080264
5549.17881226,0.00084095
5551.10761963,0.00081452
5553.03642700,0.00079974
5554.96523437,0.00079944
5556.89404175,0.00078450
5558.82284912,0.00076369
5560.75165649,0.00070448
5562.68046387,0.00069884
5564.60927124,0.00079477
5566.53807861,0.00081997
5568.46688599,0.00081339
5570.39569336,0.00078912
5572.32450073,0.00069058
5574.25330811,0.00073645
5576.18211548,0.00077612
5578.11092285,0.00074910
5580.03973022,0.00070792
5581.96853760,0.00069625
5583.89734497,0.00076526
5585.82615234,0.00069663
5587.75495972,0.00070724
5589.68376709,0.00075586
5591.61257446,0.00071746
5593.54138184,0.00072476
5595.47018921,0.00073627
5597.39899658,0.00077752
5599.32780395,0.00073924
5601.25661133,0.00069719
5603.18541870,0.00072939
5605.11422607,0.00073998
5607.04303345,0.00068707
5608.97184082,0.00065291
5610.90064819,0.00066002
5612.82945557,0.00069445
5614.75826294,0.00074839
5616.68707031,0.00072273
5618.61587769,0.00073628
5620.54468506,0.00066215
5622.47349243,0.00069442
5624.40229980,0.00075380
5626.33110718,0.00060247
5628.25991455,0.00070958
5630.18872192,0.00071028
5632.11752930,0.00064417
5634.04633667,0.00069203
5635.97514404,0.00065644
5637.90395142,0.00073641
5639.83275879,0.00068114
5641.76156616,0.00066340
5643.69037353,0.00069480
5645.61918091,0.00064188
5647.54798828,0.00066875
5649.47679565,0.00066262
5651.40560303,0.00065879
5653.33441040,0.00063383
5655.26321777,0.00070102
5657.19202515,0.00071249
5659.12083252,0.00060897
5661.04963989,0.00062252
5662.97844727,0.00057637
5664.90725464,0.00060436
5666.83606201,0.00068343
5668.76486938,0.00061688
5670.69367676,0.00064713
5672.62248413,0.00069582
5674.55129150,0.00062392
5676.48009888,0.00060169
5678.40890625,0.00060992
5680.33771362,0.00062976
5682.26652100,0.00064562
5684.19532837,0.00063339
5686.12413574,0.00066635
5688.05294311,0.00064171
5689.98175049,0.00059269
5691.91055786,0.00058891
5693.83936523,0.00061761
5695.76817261,0.00066029
5697.69697998,0.00065485
5699.62578735,0.00063375
5701.55459473,0.00054914
5703.48340210,0.00055534
5705.41220947,0.00064350
5707.34101685,0.00061360
5709.26982422,0.00064763
5711.19863159,0.00064630
5713.12743896,0.00054103
5715.05624634,0.00054529
5716.98505371,0.00055208
5718.91386108,0.00055666
5720.84266846,0.00058800
5722.77147583,0.00057514
5724.70028320,0.00058940
5726.62909058,0.00057003
5728.55789795,0.00054289
5730.48670532,0.00055516
5732.41551270,0.00057746
5734.34432007,0.00059117
5736.27312744,0.00056169
5738.20193481,0.00059953
5740.13074219,0.00058612
5742.05954956,0.00051238
5743.98835693,0.00049920
5745.91716431,0.00052464
5747.84597168,0.00055214
5749.77477905,0.00052090
5751.70358643,0.00057124
5753.63239380,0.00052879
5755.56120117,0.00050289
5757.49000854,0.00059010
5759.41881592,0.00048857
5761.34762329,0.00053835
5763.27643066,0.00058331
5765.20523804,0.00051650
5767.13404541,0.00060961
5769.06285278,0.00054558
5770.99166016,0.00047666
5772.92046753,0.00051998
5774.84927490,0.00047945
5776.77808228,0.00050931
5778.70688965,0.00054085
5780.63569702,0.00053851
5782.56450439,0.00056685
5784.49331177,0.00051127
5786.42211914,0.00052845
5788.35092651,0.00054430
5790.27973389,0.00051164
5792.20854126,0.00052828
5794.13734863,0.00041397
5796.06615601,0.00045439
5797.99496338,0.00053885
5799.92377075,0.00045572
5801.85257812,0.00049863
5803.78138550,0.00051557
5805.71019287,0.00047479
5807.63900024,0.00051248
5809.56780762,0.00055091
5811.49661499,0.00047798
5813.42542236,0.00048315
5815.35422974,0.00049926
5817.28303711,0.00041212
5819.21184448,0.00050898
5821.14065186,0.00050102
5823.06945923,0.00046990
5824.99826660,0.00054546
5826.92707397,0.00048312
5828.85588135,0.00049668
5830.78468872,0.00053308
5832.71349609,0.00051041
5834.64230347,0.00043523
5836.57111084,0.00040107
5838.49991821,0.00049018
5840.42872559,0.00048661
5842.35753296,0.00045060
5844.28634033,0.00048412
5846.21514770,0.00045316
5848.14395508,0.00041671
5850.07276245,0.00045984
5852.00156982,0.00048113
5853.93037720,0.00049070
5855.85918457,0.00044699
5857.78799194,0.00042876
5859.71679932,0.00044527
5861.64560669,0.00042029
5863.57441406,0.00044567
5865.50322144,0.00042622
5867.43202881,0.00047140
5869.36083618,0.00049424
5871.28964355,0.00045521
5873.21845093,0.00045427
5875.14725830,0.00040655
5877.07606567,0.00042758
5879.00487305,0.00042237
5880.93368042,0.00046844
5882.86248779,0.00043535
5884.79129517,0.00038226
5886.72010254,0.00046214
5888.64890991,0.00039756
5890.57771728,0.00044339
5892.50652466,0.00042998
5894.43533203,0.00036577
5896.36413940,0.00041629
5898.29294678,0.00037847
5900.22175415,0.00041536
5902.15056152,0.00043336
5904.07936890,0.00044537
5906.00817627,0.00045779
5907.93698364,0.00043841
5909.86579102,0.00044767
5911.79459839,0.00046483
5913.72340576,0.00040542
5915.65221313,0.00034427
5917.58102051,0.00044508
5919.50982788,0.00038258
5921.43863525,0.00039530
5923.36744263,0.00043229
5925.29625000,0.00029856
5927.22505737,0.00041769
5929.15386475,0.00047266
5931.08267212,0.00042718
5933.01147949,0.00037055
5934.94028686,0.00037830
5936.86909424,0.00048152
5938.79790161,0.00036180
5940.72670898,0.00035495
5942.65551636,0.00040370
5944.58432373,0.00038421
5946.51313110,0.00040826
5948.44193848,0.00037660
5950.37074585,0.00040179
5952.29955322,0.00034208
5954.22836060,0.00038022
5956.15716797,0.00042298
5958.08597534,0.00028343
5960.01478271,0.00040540
5961.94359009,0.00045346
5963.87239746,0.00036672
5965.80120483,0.00040141
5967.73001221,0.00035081
5969.65881958,0.00038595
5971.58762695,0.00040916
5973.51643433,0.00031881
5975.44524170,0.00030203
5977.37404907,0.00034064
5979.30285645,0.00034691
5981.23166382,0.00032740
5983.16047119,0.00033909
5985.08927856,0.00032360
5987.01808594,0.00035938
5988.94689331,0.00032763
5990.87570068,0.00028535
5992.80450806,0.00041466
5994.73331543,0.00038344
5996.66212280,0.00028729
5998.59093018,0.00034661
6000.51973755,0.00039288
