399.26312622,0.00020169
401.19193359,0.00064366
403.12074097,0.00094761
405.04954834,0.00007986
406.97835571,0.00066779
408.90716309,0.00098935
410.83597046,0.00082155
412.76477783,0.00124844
414.69358521,0.00093806
416.62239258,0.00080356
418.55119995,0.00121881
420.48000732,0.00131184
422.40881470,0.00102497
424.33762207,0.00114543
426.26642944,0.00150380
428.19523682,0.00137762
430.12404419,0.00101969
432.05285156,0.00085845
433.98165894,0.00115151
435.91046631,0.00106976
437.83927368,0.00087941
439.76808105,0.00106221
441.69688843,0.00094123
443.62569580,0.00083312
445.55450317,0.00070727
447.48331055,0.00058706
449.41211792,0.00083809
451.34092529,0.00111127
453.26973267,0.00104222
455.19854004,0.00100724
457.12734741,0.00087763
459.05615479,0.00053940
460.98496216,0.00090289
462.91376953,0.00097977
464.84257690,0.00052065
466.77138428,0.00031522
468.70019165,0.00032682
470.62899902,0.00086958
472.55780640,0.00067828
474.48661377,0.00013357
476.41542114,0.00039908
478.34422852,0.00087598
480.27303589,0.00082956
482.20184326,0.00010958
484.13065063,0.00040573
486.05945801,0.00059463
487.98826538,0.00004582
489.91707275,0.00026555
491.84588013,0.00003722
493.77468750,-0.00000450
495.70349487,0.00043918
497.63230225,0.00023289
499.56110962,0.00019381
501.48991699,0.00020574
503.41872437,-0.00001165
505.34753174,0.00014618
507.27633911,0.00057093
509.20514648,0.00077626
511.13395386,0.00029438
513.06276123,0.00002224
514.99156860,0.00043071
516.92037598,0.00004142
518.84918335,-0.00004959
520.77799072,0.00029697
522.70679810,0.00018330
524.63560547,0.00011772
526.56441284,-0.00006451
528.49322021,-0.00003640
530.42202759,0.00010072
532.35083496,0.00026652
534.27964233,-0.00004162
536.20844971,0.00001726
538.13725708,0.00052747
540.06606445,0.00022087
541.99487183,0.00031343
543.92367920,0.00020199
545.85248657,0.00005522
547.78129395,0.00018513
549.71010132,0.00002748
551.63890869,0.00019537
553.56771606,0.00009122
555.49652344,0.00013686
557.42533081,0.00012396
559.35413818,-0.00003256
561.28294556,0.00037913
563.21175293,0.00035710
565.14056030,-0.00017163
567.06936768,0.00002924
568.99817505,0.00034736
570.92698242,0.00024936
572.85578979,0.00029136
574.78459717,-0.00023471
576.71340454,0.00004377
578.64221191,0.00048601
580.57101929,0.00008696
582.49982666,0.00029619
584.42863403,-0.00018482
586.35744141,0.00006124
588.28624878,0.00025915
590.21505615,-0.00015353
592.14386353,0.00047777
594.07267090,-0.00004973
596.00147827,-0.00008889
597.93028564,0.00039298
599.85909302,0.00003354
601.78790039,0.00004254
603.71670776,-0.00024320
605.64551514,-0.00013546
607.57432251,0.00005974
609.50312988,-0.00007026
611.43193726,0.00020599
613.36074463,0.00023986
615.28955200,0.00013283
617.21835938,0.00005299
619.14716675,0.00004190
621.07597412,0.00032255
623.00478149,0.00033969
624.93358887,0.00011449
626.86239624,0.00013212
628.79120361,0.00022898
630.72001099,0.00037941
632.64881836,0.00049364
634.57762573,0.00063368
636.50643311,0.00084067
638.43524048,0.00082423
640.36404785,0.00098439
642.29285522,0.00110511
644.22166260,0.00117982
646.15046997,0.00132761
648.07927734,0.00115024
650.00808472,0.00144127
651.93689209,0.00147640
653.86569946,0.00120971
655.79450684,0.00136294
657.72331421,0.00137689
659.65212158,0.00185340
661.58092896,0.00172815
663.50973633,0.00141274
665.43854370,0.00166365
667.36735107,0.00135726
669.29615845,0.00160000
671.22496582,0.00192342
673.15377319,0.00200725
675.08258057,0.00211957
677.01138794,0.00208403
678.94019531,0.00225570
680.86900269,0.00195700
682.79781006,0.00190893
684.72661743,0.00187622
686.65542480,0.00182570
688.58423218,0.00211575
690.51303955,0.00187222
692.44184692,0.00226701
694.37065430,0.00258589
696.29946167,0.00249510
698.22826904,0.00314701
700.15707642,0.00336886
702.08588379,0.00330619
704.01469116,0.00320480
705.94349854,0.00283367
707.87230591,0.00251207
709.80111328,0.00198194
711.72992065,0.00137568
713.65872803,0.00075907
715.58753540,0.00042985
717.51634277,0.00035134
719.44515015,0.00033212
721.37395752,0.00024639
723.30276489,-0.00011586
725.23157227,0.00012487
727.16037964,0.00025182
729.08918701,-0.00020093
731.01799438,-0.00010135
732.94680176,0.00006923
734.87560913,0.00017388
736.80441650,0.00028901
738.73322388,0.00030299
740.66203125,0.00018006
742.59083862,0.00009489
744.51964600,0.00034868
746.44845337,0.00007730
748.37726074,-0.00010161
750.30606812,0.00016495
752.23487549,0.00020633
754.16368286,0.00006047
756.09249023,-0.00002469
758.02129761,0.00024280
759.95010498,0.00010976
761.87891235,-0.00000487
763.80771973,0.00013009
765.73652710,-0.00005474
767.66533447,0.00013777
769.59414185,0.00057257
771.52294922,0.00058297
773.45175659,0.00033487
775.38056396,0.00027608
777.30937134,0.00024878
779.23817871,0.00030218
781.16698608,0.00048822
783.09579346,0.00037134
785.02460083,0.00008087
786.95340820,0.00005178
788.88221558,0.00041392
790.81102295,0.00049628
792.73983032,0.00019064
794.66863770,0.00008940
796.59744507,0.00039629
798.52625244,0.00062159
800.45505981,0.00050579
802.38386719,0.00037399
804.31267456,0.00023286
806.24148193,0.00047433
808.17028931,0.00051483
810.09909668,0.00026214
812.02790405,0.00033843
813.95671143,0.00027104
815.88551880,0.00039028
817.81432617,0.00037952
819.74313354,0.00022649
821.67194092,0.00038881
823.60074829,0.00024505
825.52955566,0.00033135
827.45836304,0.00050729
829.38717041,0.00030483
831.31597778,0.00048980
833.24478516,0.00078933
835.17359253,0.00076949
837.10239990,0.00067482
839.03120728,0.00073961
840.96001465,0.00066110
842.88882202,0.00043639
844.81762939,0.00070802
846.74643677,0.00065354
848.67524414,0.00048251
850.60405151,0.00079892
852.53285889,0.00065975
854.46166626,0.00050193
856.39047363,0.00048612
858.31928101,0.00036029
860.24808838,0.00021825
862.17689575,0.00024937
864.10570313,0.00048586
866.03451050,0.00042348
867.96331787,0.00042033
869.89212524,0.00010729
871.82093262,0.00012925
873.74973999,0.00039374
875.67854736,-0.00005217
877.60735474,0.00031751
879.53616211,0.00057492
881.46496948,0.00020457
883.39377686,0.00013515
885.32258423,0.00019078
887.25139160,0.00040570
889.18019897,0.00027001
891.10900635,0.00037709
893.03781372,0.00052214
894.96662109,0.00030433
896.89542847,0.00040389
898.82423584,0.00042799
900.75304321,0.00019517
902.68185059,0.00044165
904.61065796,0.00062689
906.53946533,0.00018413
908.46827271,0.00024321
910.39708008,0.00036755
912.32588745,0.00057380
914.25469482,0.00080779
916.18350220,0.00057821
918.11230957,0.00073478
920.04111694,0.00069861
921.96992432,0.00070490
923.89873169,0.00077547
925.82753906,0.00073962
927.75634644,0.00074170
929.68515381,0.00074932
931.61396118,0.00112690
933.54276855,0.00096150
935.47157593,0.00103097
937.40038330,0.00147073
939.32919067,0.00144213
941.25799805,0.00120566
943.18680542,0.00108209
945.11561279,0.00128739
947.04442017,0.00104602
948.97322754,0.00113818
950.90203491,0.00142586
952.83084229,0.00133492
954.75964966,0.00125386
956.68845703,0.00110210
958.61726440,0.00119104
960.54607178,0.00083772
962.47487915,0.00079660
964.40368652,0.00104645
966.33249390,0.00098377
968.26130127,0.00135246
970.19010864,0.00133542
972.11891602,0.00106644
974.04772339,0.00132864
975.97653076,0.00159018
977.90533813,0.00147567
979.83414551,0.00174913
981.76295288,0.00197076
983.69176025,0.00205418
985.62056763,0.00254867
987.54937500,0.00241442
989.47818237,0.00256100
991.40698975,0.00312232
993.33579712,0.00336276
995.26460449,0.00375519
997.19341187,0.00408307
999.12221924,0.00444826
1001.05102661,0.00471371
1002.97983398,0.00505781
1004.90864136,0.00529875
1006.83744873,0.00540479
1008.76625610,0.00601745
1010.69506348,0.00648065
1012.62387085,0.00661544
1014.55267822,0.00688352
1016.48148560,0.00735777
1018.41029297,0.00790109
1020.33910034,0.00825012
1022.26790771,0.00845413
1024.19671509,0.00883871
1026.12552246,0.00925298
1028.05432983,0.00934963
1029.98313721,0.00938805
1031.91194458,0.00986139
1033.84075195,0.01039981
1035.76955933,0.01030098
1037.69836670,0.01031000
1039.62717407,0.01053618
1041.55598145,0.01052905
1043.48478882,0.01046403
1045.41359619,0.01016555
1047.34240356,0.00993358
1049.27121094,0.00973963
1051.20001831,0.00962110
1053.12882568,0.00965219
1055.05763306,0.00946387
1056.98644043,0.00903285
1058.91524780,0.00870618
1060.84405518,0.00857596
1062.77286255,0.00827623
1064.70166992,0.00812826
1066.63047729,0.00780406
1068.55928467,0.00749633
1070.48809204,0.00733599
1072.41689941,0.00685685
1074.34570679,0.00672182
1076.27451416,0.00637818
1078.20332153,0.00599189
1080.13212891,0.00561620
1082.06093628,0.00519369
1083.98974365,0.00520727
1085.91855103,0.00482885
1087.84735840,0.00470501
1089.77616577,0.00466907
1091.70497314,0.00443297
1093.63378052,0.00444626
1095.56258789,0.00416977
1097.49139526,0.00371423
1099.42020264,0.00351922
1101.34901001,0.00388569
1103.27781738,0.00386552
1105.20662476,0.00373810
1107.13543213,0.00375965
1109.06423950,0.00339806
1110.99304687,0.00349949
1112.92185425,0.00341741
1114.85066162,0.00329854
1116.77946899,0.00352351
1118.70827637,0.00355453
1120.63708374,0.00345711
1122.56589111,0.00333368
1124.49469849,0.00365206
1126.42350586,0.00376394
1128.35231323,0.00368769
1130.28112061,0.00377089
1132.20992798,0.00373520
1134.13873535,0.00399198
1136.06754272,0.00421556
1137.99635010,0.00420656
1139.92515747,0.00438853
1141.85396484,0.00486381
1143.78277222,0.00504358
1145.71157959,0.00514048
1147.64038696,0.00568468
1149.56919434,0.00596022
1151.49800171,0.00624189
1153.42680908,0.00668697
1155.35561646,0.00694221
1157.28442383,0.00719004
1159.21323120,0.00732004
1161.14203857,0.00771804
1163.07084595,0.00805650
1164.99965332,0.00817046
1166.92846069,0.00860109
1168.85726807,0.00886685
1170.78607544,0.00913250
1172.71488281,0.00957963
1174.64369019,0.01000628
1176.57249756,0.01033660
1178.50130493,0.01053232
1180.43011230,0.01099696
1182.35891968,0.01137402
1184.28772705,0.01177140
1186.21653442,0.01244182
1188.14534180,0.01304612
1190.07414917,0.01371732
1192.00295654,0.01442571
1193.93176392,0.01508742
1195.86057129,0.01551814
1197.78937866,0.01602542
1199.71818604,0.01694805
1201.64699341,0.01773452
1203.57580078,0.01825864
1205.50460815,0.01918472
1207.43341553,0.02003473
1209.36222290,0.02035447
1211.29103027,0.02114644
1213.21983765,0.02171660
1215.14864502,0.02204791
1217.07745239,0.02274962
1219.00625977,0.02294759
1220.93506714,0.02322597
1222.86387451,0.02373887
1224.79268188,0.02398972
1226.72148926,0.02397932
1228.65029663,0.02411540
1230.57910400,0.02436742
1232.50791138,0.02415835
1234.43671875,0.02413201
1236.36552612,0.02424706
1238.29433350,0.02425416
1240.22314087,0.02414750
1242.15194824,0.02384936
1244.08075562,0.02375801
1246.00956299,0.02385321
1247.93837036,0.02374928
1249.86717773,0.02338834
1251.79598511,0.02325623
1253.72479248,0.02304565
1255.65359985,0.02288086
1257.58240723,0.02259219
1259.51121460,0.02202979
1261.44002197,0.02191708
1263.36882935,0.02149568
1265.29763672,0.02123033
1267.22644409,0.02120411
1269.15525146,0.02070696
1271.08405884,0.02037438
1273.01286621,0.01997786
1274.94167358,0.01955308
1276.87048096,0.01919118
1278.79928833,0.01881887
1280.72809570,0.01861115
1282.65690308,0.01826888
1284.58571045,0.01779196
1286.51451782,0.01750315
1288.44332520,0.01711528
1290.37213257,0.01686188
1292.30093994,0.01701514
1294.22974731,0.01674060
1296.15855469,0.01660381
1298.08736206,0.01660467
1300.01616943,0.01657727
1301.94497681,0.01690986
1303.87378418,0.01688475
1305.80259155,0.01702948
1307.73139893,0.01719405
1309.66020630,0.01739865
1311.58901367,0.01779046
1313.51782104,0.01797947
1315.44662842,0.01856938
1317.37543579,0.01887800
1319.30424316,0.01933367
1321.23305054,0.02015163
1323.16185791,0.02060282
1325.09066528,0.02128620
1327.01947266,0.02181552
1328.94828003,0.02223735
1330.87708740,0.02285451
1332.80589478,0.02331983
1334.73470215,0.02383697
1336.66350952,0.02398569
1338.59231689,0.02351714
1340.52112427,0.02390880
1342.44993164,0.02496381
1344.37873901,0.02516500
1346.30754639,0.02518420
1348.23635376,0.02504612
1350.16516113,0.02501744
1352.09396851,0.02505332
1354.02277588,0.02444543
1355.95158325,0.02443153
1357.88039062,0.02436643
1359.80919800,0.02385050
1361.73800537,0.02262588
1363.66681274,0.02208097
1365.59562012,0.02365998
1367.52442749,0.02318492
1369.45323486,0.02275711
1371.38204224,0.02337357
1373.31084961,0.02192164
1375.23965698,0.02203448
1377.16846436,0.02281679
1379.09727173,0.02262795
1381.02607910,0.02256942
1382.95488647,0.02258867
1384.88369385,0.02255842
1386.81250122,0.02133721
1388.74130859,0.02173599
1390.67011597,0.02385472
1392.59892334,0.02299417
1394.52773071,0.02124466
1396.45653809,0.02267103
1398.38534546,0.02254343
1400.31415283,0.02247671
1402.24296021,0.02463351
1404.17176758,0.02289334
1406.10057495,0.02305662
1408.02938232,0.02396331
1409.95818970,0.02304182
1411.88699707,0.02381442
1413.81580444,0.02272312
1415.74461182,0.02320025
1417.67341919,0.02068132
1419.60222656,0.01825421
1421.53103394,0.02160183
1423.45984131,0.02077548
1425.38864868,0.02012772
1427.31745605,0.02073830
1429.24626343,0.01900421
1431.17507080,0.01831944
1433.10387817,0.01896208
1435.03268555,0.01712907
1436.96149292,0.01407070
1438.89030029,0.01652595
1440.81910767,0.01704169
1442.74791504,0.01565039
1444.67672241,0.01654210
1446.60552979,0.01493712
1448.53433716,0.01527632
1450.46314453,0.01610247
1452.39195190,0.01620091
1454.32075928,0.01664093
1456.24956665,0.01343969
1458.17837402,0.01392236
1460.10718140,0.01928105
1462.03598877,0.02053259
1463.96479614,0.02006752
1465.89360352,0.02090262
1467.82241089,0.02407521
1469.75121826,0.02581500
1471.68002563,0.02219531
1473.60883301,0.02353877
1475.53764038,0.02715993
1477.46644775,0.02934914
1479.39525513,0.03252500
1481.32406250,0.03272694
1483.25286987,0.03503409
1485.18167725,0.03579088
1487.11048462,0.03481987
1489.03929199,0.03436048
1490.96809937,0.03454275
1492.89690674,0.04129907
1494.82571411,0.03960454
1496.75452148,0.03482832
1498.68332886,0.03996450
1500.61213623,0.04139970
1502.54094360,0.04498529
1504.46975098,0.04146284
1506.39855835,0.02836458
1508.32736572,0.03619654
1510.25617310,0.04346895
1512.18498047,0.04224835
1514.11378784,0.04625487
1516.04259521,0.04066312
1517.97140259,0.04280903
1519.90020996,0.04099640
1521.82901733,0.03446152
1523.75782471,0.04393559
1525.68663208,0.04266446
1527.61543945,0.04271907
1529.54424683,0.04840858
1531.47305420,0.04579762
1533.40186157,0.04121406
1535.33066895,0.04438102
1537.25947632,0.04783460
1539.18828369,0.03206397
1541.11709106,0.03423304
1543.04589844,0.04217933
1544.97470581,0.04009818
1546.90351318,0.04911081
1548.83232056,0.04502479
1550.76112793,0.04670862
1552.68993530,0.04641338
1554.61874268,0.04148839
1556.54755005,0.04471610
1558.47635742,0.02919016
1560.40516479,0.03289554
1562.33397217,0.04962219
1564.26277954,0.04616052
1566.19158691,0.04792124
1568.12039429,0.04709198
1570.04920166,0.04094086
1571.97800903,0.04868984
1573.90681641,0.04891199
1575.83562378,0.03730930
1577.76443115,0.04348482
1579.69323853,0.04979513
1581.62204590,0.04736746
1583.55085327,0.04884214
1585.47966064,0.04814323
1587.40846802,0.04845254
1589.33727539,0.04782256
1591.26608276,0.04811875
1593.19489014,0.04808963
1595.12369751,0.04727662
1597.05250488,0.04822689
1598.98131226,0.04798283
1600.91011963,0.04803076
1602.83892700,0.04690387
1604.76773437,0.04797127
1606.69654175,0.04712812
1608.62534912,0.04704497
1610.55415649,0.04699861
1612.48296387,0.04748038
1614.41177124,0.04800761
1616.34057861,0.03788899
1618.26938599,0.04213405
1620.19819336,0.04988775
1622.12700073,0.04315638
1624.05580811,0.04341734
1625.98461548,0.04610015
1627.91342285,0.04569282
1629.84223022,0.04544152
1631.77103760,0.04929633
1633.69984497,0.04432650
1635.62865234,0.03546857
1637.55745972,0.04285530
1639.48626709,0.04758171
1641.41507446,0.04647894
1643.34388184,0.04787730
1645.27268921,0.04207985
1647.20149658,0.03618576
1649.13030396,0.04694854
1651.05911133,0.04376263
1652.98791870,0.02574035
1654.91672607,0.03794750
1656.84553345,0.04904625
1658.77434082,0.04659922
1660.70314819,0.04805987
1662.63195557,0.04279977
1664.56076294,0.04576264
1666.48957031,0.04988624
1668.41837769,0.04222861
1670.34718506,0.04087367
1672.27599243,0.04758710
1674.20479980,0.04297676
1676.13360718,0.04108764
1678.06241455,0.04855749
1679.99122192,0.04642583
1681.92002930,0.04552900
1683.84883667,0.03541571
1685.77764404,0.03581517
1687.70645142,0.05120874
1689.63525879,0.04311778
1691.56406616,0.04885291
1693.49287354,0.04936703
1695.42168091,0.03426690
1697.35048828,0.04414979
1699.27929565,0.03725357
1701.20810303,0.03348064
1703.13691040,0.04815129
1705.06571777,0.04295873
1706.99452515,0.04383301
1708.92333252,0.04826258
1710.85213989,0.04610579
1712.78094727,0.04699738
1714.70975464,0.04285257
1716.63856201,0.03797055
1718.56736938,0.03720941
1720.49617676,0.04564580
1722.42498413,0.04757398
1724.35379150,0.04367858
1726.28259888,0.04857128
1728.21140625,0.04385456
1730.14021362,0.04432695
1732.06902100,0.04311931
1733.99782837,0.03122236
1735.92663574,0.04089619
1737.85544312,0.04547426
1739.78425049,0.03973166
1741.71305786,0.04388677
1743.64186523,0.04434948
1745.57067261,0.04459497
1747.49947998,0.04487641
1749.42828735,0.04233523
1751.35709473,0.04016069
1753.28590210,0.04583804
1755.21470947,0.04791376
1757.14351685,0.04279494
1759.07232422,0.04810387
1761.00113159,0.04429633
1762.92993896,0.04287575
1764.85874634,0.05006433
1766.78755371,0.04406243
1768.71636108,0.04489788
1770.64516846,0.04422502
1772.57397583,0.03911899
1774.50278320,0.04448611
1776.43159058,0.04731423
1778.36039795,0.04672645
1780.28920532,0.04595923
1782.21801270,0.04643595
1784.14682007,0.04624026
1786.07562744,0.04546597
1788.00443481,0.04821508
1789.93324219,0.04637558
1791.86204956,0.04130099
1793.79085693,0.04343525
1795.71966431,0.04712234
1797.64847168,0.04641944
1799.57727905,0.04556149
1801.50608643,0.04454351
1803.43489380,0.04637150
1805.36370117,0.04776026
1807.29250854,0.04694450
1809.22131592,0.04696803
1811.15012329,0.04543478
1813.07893066,0.04723741
1815.00773804,0.04746784
1816.93654541,0.04690303
1818.86535278,0.04741257
1820.79416016,0.04704273
1822.72296753,0.04777823
1824.65177490,0.04402537
1826.58058228,0.04604295
1828.50938965,0.04606670
1830.43819702,0.04266375
1832.36700439,0.04729081
1834.29581177,0.04696949
1836.22461914,0.04697327
1838.15342651,0.04661895
1840.08223389,0.04707193
1842.01104126,0.04696384
1843.93984863,0.04055316
1845.86865601,0.04414104
1847.79746338,0.04698767
1849.72627075,0.04580115
1851.65507812,0.04726667
1853.58388550,0.04614582
1855.51269287,0.04691135
1857.44150024,0.04646465
1859.37030762,0.04616214
1861.29911499,0.04645641
1863.22792236,0.04596825
1865.15672974,0.04651643
1867.08553711,0.04437480
1869.01434448,0.04238039
1870.94315186,0.04436965
1872.87195923,0.04643108
1874.80076660,0.04571846
1876.72957397,0.04594650
1878.65838135,0.04583769
1880.58718872,0.04551890
1882.51599609,0.04593195
1884.44480347,0.04502383
1886.37361084,0.04571163
1888.30241821,0.04446740
1890.23122559,0.04353397
1892.16003296,0.04542052
1894.08884033,0.04464346
1896.01764771,0.04448156
1897.94645508,0.04502018
1899.87526245,0.04488667
1901.80406982,0.04490391
1903.73287720,0.04450428
1905.66168457,0.04481503
1907.59049194,0.04419352
1909.51929932,0.04403641
1911.44810669,0.04439195
1913.37691406,0.04443453
1915.30572144,0.04486082
1917.23452881,0.04241582
1919.16333618,0.04269927
1921.09214355,0.04454610
1923.02095093,0.04259701
1924.94975830,0.04395372
1926.87856567,0.04466202
1928.80737305,0.04375074
1930.73618042,0.04438217
1932.66498779,0.04368139
1934.59379517,0.04421706
1936.52260254,0.04386418
1938.45140991,0.04388473
1940.38021729,0.04387252
1942.30902466,0.04205292
1944.23783203,0.04304450
1946.16663940,0.04370709
1948.09544678,0.04353572
1950.02425415,0.04390736
1951.95306152,0.04363019
1953.88186890,0.04358134
1955.81067627,0.04342095
1957.73948364,0.04345221
1959.66829102,0.04357861
1961.59709839,0.04344971
1963.52590576,0.04343725
1965.45471313,0.04320899
1967.38352051,0.04256767
1969.31232788,0.04309185
1971.24113525,0.04333513
1973.16994263,0.04291894
1975.09875000,0.04333265
1977.02755737,0.04297055
1978.95636475,0.04314197
1980.88517212,0.04309098
1982.81397949,0.04281811
1984.74278687,0.04302509
1986.67159424,0.04251336
1988.60040161,0.04285410
1990.52920898,0.04222142
1992.45801636,0.04157557
1994.38682373,0.04241088
1996.31563110,0.04255990
1998.24443848,0.04231749
2000.17324585,0.04213975
2002.10205322,0.04228074
2004.03086060,0.04220844
2005.95966797,0.04203516
2007.88847534,0.04201305
2009.81728271,0.04177925
2011.74609009,0.04161184
2013.67489746,0.04167055
2015.60370483,0.04136711
2017.53251221,0.04096393
2019.46131958,0.04139012
2021.39012695,0.04134590
2023.31893433,0.04118620
2025.24774170,0.04115326
2027.17654907,0.04095426
2029.10535645,0.04101798
2031.03416382,0.04069680
2032.96297119,0.04073625
2034.89177856,0.04065957
2036.82058594,0.04051462
2038.74939331,0.04058395
2040.67820068,0.04017630
2042.60700806,0.03994122
2044.53581543,0.03995985
2046.46462280,0.04011600
2048.39343018,0.04007603
2050.32223755,0.03992584
2052.25104492,0.03979338
2054.17985229,0.03980763
2056.10865967,0.03969184
2058.03746704,0.03946386
2059.96627441,0.03964677
2061.89508179,0.03936697
2063.82388916,0.03915545
2065.75269653,0.03918534
2067.68150391,0.03926131
2069.61031128,0.03925177
2071.53911865,0.03883851
2073.46792603,0.03897823
2075.39673340,0.03893492
2077.32554077,0.03863121
2079.25434814,0.03870462
2081.18315552,0.03875463
2083.11196289,0.03866764
2085.04077026,0.03857895
2086.96957764,0.03857247
2088.89838501,0.03831569
2090.82719238,0.03817404
2092.75599976,0.03816210
2094.68480713,0.03811817
2096.61361450,0.03809946
2098.54242187,0.03796808
2100.47122925,0.03792715
2102.40003662,0.03795748
2104.32884399,0.03791664
2106.25765137,0.03768127
2108.18645874,0.03761692
2110.11526611,0.03767393
2112.04407349,0.03758329
2113.97288086,0.03749420
2115.90168823,0.03731152
2117.83049561,0.03722174
2119.75930298,0.03728191
2121.68811035,0.03721496
2123.61691772,0.03712272
2125.54572510,0.03712429
2127.47453247,0.03695949
2129.40333984,0.03697807
2131.33214722,0.03700450
2133.26095459,0.03678934
2135.18976196,0.03685488
2137.11856934,0.03683054
2139.04737671,0.03673136
2140.97618408,0.03659043
2142.90499146,0.03650142
2144.83379883,0.03666317
2146.76260620,0.03660029
2148.69141357,0.03648288
2150.62022095,0.03646262
2152.54902832,0.03641402
2154.47783569,0.03625539
2156.40664307,0.03621222
2158.33545044,0.03625596
2160.26425781,0.03611684
2162.19306519,0.03607279
2164.12187256,0.03607550
2166.05067993,0.03593723
2167.97948730,0.03593511
2169.90829468,0.03608667
2171.83710205,0.03594189
2173.76590942,0.03582107
2175.69471680,0.03581310
2177.62352417,0.03577758
2179.55233154,0.03574618
2181.48113892,0.03551899
2183.40994629,0.03551883
2185.33875366,0.03552970
2187.26756104,0.03548414
2189.19636841,0.03548809
2191.12517578,0.03548079
2193.05398315,0.03550752
2194.98279053,0.03542982
2196.91159790,0.03543475
2198.84040527,0.03523603
2200.76921265,0.03530582
2202.69802002,0.03535405
2204.62682739,0.03510813
2206.55563477,0.03519893
2208.48444214,0.03498586
2210.41324951,0.03486666
2212.34205688,0.03491919
2214.27086426,0.03480689
2216.19967163,0.03475163
2218.12847900,0.03472609
2220.05728638,0.03480170
2221.98609375,0.03474610
2223.91490112,0.03461938
2225.84370850,0.03448813
2227.77251587,0.03455470
2229.70132324,0.03455824
2231.63013062,0.03441171
2233.55893799,0.03442694
2235.48774536,0.03439402
2237.41655273,0.03430991
2239.34536011,0.03424443
2241.27416748,0.03425337
2243.20297485,0.03395249
2245.13178223,0.03385985
2247.06058960,0.03395688
2248.98939697,0.03384375
2250.91820435,0.03398948
2252.84701172,0.03379602
2254.77581909,0.03373791
2256.70462646,0.03377445
2258.63343384,0.03360901
2260.56224121,0.03378174
2262.49104858,0.03368768
2264.41985596,0.03353610
2266.34866333,0.03350126
2268.27747070,0.03333742
2270.20627808,0.03329568
2272.13508545,0.03345656
2274.06389282,0.03331526
2275.99270020,0.03308573
2277.92150757,0.03329369
2279.85031494,0.03321219
2281.77912231,0.03306223
2283.70792969,0.03304124
2285.63673706,0.03294737
2287.56554443,0.03302868
2289.49435181,0.03286234
2291.42315918,0.03265435
2293.35196655,0.03270833
2295.28077393,0.03263891
2297.20958130,0.03251966
2299.13838867,0.03238619
2301.06719604,0.03219058
2302.99600342,0.03216229
2304.92481079,0.03205815
2306.85361816,0.03184417
2308.78242554,0.03157791
2310.71123291,0.03120567
2312.64004028,0.03091070
2314.56884766,0.03067624
2316.49765503,0.03045412
2318.42646240,0.03002554
2320.35526978,0.02971209
2322.28407715,0.02932965
2324.21288452,0.02884569
2326.14169189,0.02869621
2328.07049927,0.02825043
2329.99930664,0.02788261
2331.92811401,0.02777575
2333.85692139,0.02760318
2335.78572876,0.02745801
2337.71453613,0.02747044
2339.64334351,0.02751024
2341.57215088,0.02750215
2343.50095825,0.02798091
2345.42976562,0.02840037
2347.35857300,0.02940259
2349.28738037,0.03034643
2351.21618774,0.02937152
2353.14499512,0.02797892
2355.07380249,0.02701677
2357.00260986,0.02630874
2358.93141724,0.02571047
2360.86022461,0.02548017
2362.78903198,0.02561034
2364.71783936,0.02561251
2366.64664673,0.02590497
2368.57545410,0.02628347
2370.50426147,0.02700884
2372.43306885,0.02775157
2374.36187622,0.02837069
2376.29068359,0.02920740
2378.21949097,0.02968154
2380.14829834,0.03009989
2382.07710571,0.03036638
2384.00591309,0.03054711
2385.93472046,0.03066877
2387.86352783,0.03060088
2389.79233521,0.03069447
2391.72114258,0.03070252
2393.64994995,0.03060688
2395.57875732,0.03043706
2397.50756470,0.03044115
2399.43637207,0.03048156
2401.36517944,0.03025902
2403.29398682,0.03021133
2405.22279419,0.03030643
2407.15160156,0.03024444
2409.08040894,0.03016772
2411.00921631,0.03022192
2412.93802368,0.03015723
2414.86683105,0.03003046
2416.79563843,0.03001571
2418.72444580,0.02996281
2420.65325317,0.02989062
2422.58206055,0.02997411
2424.51086792,0.02987040
2426.43967529,0.02963588
2428.36848267,0.02977723
2430.29729004,0.02972794
2432.22609741,0.02965714
2434.15490479,0.02972289
2436.08371216,0.02950656
2438.01251953,0.02954798
2439.94132690,0.02961070
2441.87013428,0.02938718
2443.79894165,0.02929648
2445.72774902,0.02941377
2447.65655640,0.02942762
2449.58536377,0.02928086
2451.51417114,0.02926114
2453.44297852,0.02924393
2455.37178589,0.02911920
2457.30059326,0.02906016
2459.22940063,0.02910745
2461.15820801,0.02912665
2463.08701538,0.02898955
2465.01582275,0.02881937
2466.94463013,0.02892921
2468.87343750,0.02890251
2470.80224487,0.02871805
2472.73105225,0.02885791
2474.65985962,0.02880599
2476.58866699,0.02870487
2478.51747437,0.02865362
2480.44628174,0.02856721
2482.37508911,0.02854620
2484.30389648,0.02844980
2486.23270386,0.02864576
2488.16151123,0.02851372
2490.09031860,0.02829271
2492.01912598,0.02846678
2493.94793335,0.02831338
2495.87674072,0.02832731
2497.80554810,0.02835863
2499.73435547,0.02811417
2501.66316284,0.02817630
2503.59197021,0.02819062
2505.52077759,0.02799639
2507.44958496,0.02797411
2509.37839233,0.02805324
2511.30719971,0.02808067
2513.23600708,0.02802533
2515.16481445,0.02793789
2517.09362183,0.02785227
2519.02242920,0.02776065
2520.95123657,0.02781529
2522.88004395,0.02779579
2524.80885132,0.02766196
2526.73765869,0.02764467
2528.66646606,0.02759719
2530.59527344,0.02754751
2532.52408081,0.02756777
2534.45288818,0.02752185
2536.38169556,0.02737707
2538.31050293,0.02733607
2540.23931030,0.02727995
2542.16811768,0.02720381
2544.09692505,0.02721114
2546.02573242,0.02719995
2547.95453979,0.02728932
2549.88334717,0.02725845
2551.81215454,0.02713852
2553.74096191,0.02702253
2555.66976929,0.02703523
2557.59857666,0.02710268
2559.52738403,0.02690582
2561.45619141,0.02689045
2563.38499878,0.02685137
2565.31380615,0.02680238
2567.24261353,0.02689921
2569.17142090,0.02681416
2571.10022827,0.02684633
2573.02903564,0.02680115
2574.95784302,0.02662226
2576.88665039,0.02662192
2578.81545776,0.02663875
2580.74426514,0.02654068
2582.67307251,0.02646772
2584.60187988,0.02645184
2586.53068726,0.02648297
2588.45949463,0.02652317
2590.38830200,0.02641264
2592.31710937,0.02637716
2594.24591675,0.02631972
2596.17472412,0.02616686
2598.10353149,0.02615373
2600.03233887,0.02615640
2601.96114624,0.02610474
2603.88995361,0.02608568
2605.81876099,0.02605221
2607.74756836,0.02597151
2609.67637573,0.02595701
2611.60518311,0.02589260
2613.53399048,0.02600506
2615.46279785,0.02602217
2617.39160522,0.02576704
2619.32041260,0.02576965
2621.24921997,0.02572924
2623.17802734,0.02577404
2625.10683472,0.02575542
2627.03564209,0.02565832
2628.96444946,0.02572334
2630.89325684,0.02558757
2632.82206421,0.02558190
2634.75087158,0.02552831
2636.67967895,0.02548780
2638.60848633,0.02539557
2640.53729370,0.02514190
2642.46610107,0.02532235
2644.39490845,0.02535379
2646.32371582,0.02518853
2648.25252319,0.02529839
2650.18133057,0.02525702
2652.11013794,0.02513026
2654.03894531,0.02522821
2655.96775269,0.02508980
2657.89656006,0.02491857
2659.82536743,0.02503018
2661.75417480,0.02496011
2663.68298218,0.02492767
2665.61178955,0.02488761
2667.54059692,0.02472053
2669.46940430,0.02470369
2671.39821167,0.02475765
2673.32701904,0.02468472
2675.25582642,0.02465341
2677.18463379,0.02467877
2679.11344116,0.02450153
2681.04224854,0.02452985
2682.97105591,0.02455727
2684.89986328,0.02451485
2686.82867065,0.02440883
2688.75747803,0.02422015
2690.68628540,0.02439019
2692.61509277,0.02433237
2694.54390015,0.02429128
2696.47270752,0.02433810
2698.40151489,0.02424980
2700.33032227,0.02421603
2702.25912964,0.02409719
2704.18793701,0.02416949
2706.11674438,0.02404376
2708.04555176,0.02402525
2709.97435913,0.02405790
2711.90316650,0.02384690
2713.83197388,0.02390618
2715.76078125,0.02377644
2717.68958862,0.02373865
2719.61839600,0.02384281
2721.54720337,0.02370746
2723.47601074,0.02367897
2725.40481812,0.02370524
2727.33362549,0.02366000
2729.26243286,0.02368263
2731.19124023,0.02366655
2733.12004761,0.02346857
2735.04885498,0.02342858
2736.97766235,0.02340433
2738.90646973,0.02333928
2740.83527710,0.02332763
2742.76408447,0.02321661
2744.69289185,0.02325087
2746.62169922,0.02322511
2748.55050659,0.02310834
2750.47931396,0.02317297
2752.40812134,0.02314614
2754.33692871,0.02301076
2756.26573608,0.02302206
2758.19454346,0.02298846
2760.12335083,0.02289081
2762.05215820,0.02282170
2763.98096558,0.02283100
2765.90977295,0.02291256
2767.83858032,0.02276839
2769.76738770,0.02270617
2771.69619507,0.02273158
2773.62500244,0.02268892
2775.55380981,0.02256408
2777.48261719,0.02247902
2779.41142456,0.02263100
2781.34023193,0.02252978
2783.26903931,0.02249588
2785.19784668,0.02241474
2787.12665405,0.02231578
2789.05546143,0.02239757
2790.98426880,0.02221586
2792.91307617,0.02229745
2794.84188354,0.02222148
2796.77069092,0.02204913
2798.69949829,0.02208942
2800.62830566,0.02201538
2802.55711304,0.02205510
2804.48592041,0.02199901
2806.41472778,0.02194958
2808.34353516,0.02184210
2810.27234253,0.02179773
2812.20114990,0.02179894
2814.12995728,0.02172016
2816.05876465,0.02165442
2817.98757202,0.02154799
2819.91637939,0.02161632
2821.84518677,0.02138958
2823.77399414,0.02134283
2825.70280151,0.02153968
2827.63160889,0.02141966
2829.56041626,0.02138470
2831.48922363,0.02132029
2833.41803101,0.02131586
2835.34683838,0.02125715
2837.27564575,0.02117810
2839.20445312,0.02104793
2841.13326050,0.02084047
2843.06206787,0.02094546
2844.99087524,0.02096169
2846.91968262,0.02074886
2848.84848999,0.02057270
2850.77729736,0.02066781
2852.70610474,0.02069151
2854.63491211,0.02057221
2856.56371948,0.02056564
2858.49252686,0.02051012
2860.42133423,0.02057290
2862.35014160,0.02051559
2864.27894897,0.02040189
2866.20775635,0.02039485
2868.13656372,0.02040869
2870.06537109,0.02043447
2871.99417847,0.02029884
2873.92298584,0.02022889
2875.85179321,0.02018692
2877.78060059,0.02015627
2879.70940796,0.02021104
2881.63821533,0.02017286
2883.56702270,0.02007134
2885.49583008,0.02006808
2887.42463745,0.02006974
2889.35344482,0.01997993
2891.28225220,0.01992095
2893.21105957,0.01979768
2895.13986694,0.01980279
2897.06867432,0.01979049
2898.99748169,0.01963929
2900.92628906,0.01968776
2902.85509644,0.01967011
2904.78390381,0.01960028
2906.71271118,0.01958480
2908.64151855,0.01953003
2910.57032593,0.01948204
2912.49913330,0.01936755
2914.42794067,0.01926648
2916.35674805,0.01930163
2918.28555542,0.01928449
2920.21436279,0.01916012
2922.14317017,0.01924150
2924.07197754,0.01927751
2926.00078491,0.01917779
2927.92959229,0.01924660
2929.85839966,0.01917303
2931.78720703,0.01911992
2933.71601440,0.01924375
2935.64482178,0.01909512
2937.57362915,0.01901527
2939.50243652,0.01911408
2941.43124390,0.01909134
2943.36005127,0.01909465
2945.28885864,0.01900633
2947.21766602,0.01898655
2949.14647339,0.01892341
2951.07528076,0.01879471
2953.00408813,0.01888009
2954.93289551,0.01875079
2956.86170288,0.01872266
2958.79051025,0.01875791
2960.71931763,0.01860389
2962.64812500,0.01864701
2964.57693237,0.01863846
2966.50573975,0.01858731
2968.43454712,0.01851586
2970.36335449,0.01851093
2972.29216187,0.01862664
2974.22096924,0.01851195
2976.14977661,0.01845958
2978.07858398,0.01857867
2980.00739136,0.01855406
2981.93619873,0.01856398
2983.86500610,0.01856501
2985.79381348,0.01846306
2987.72262085,0.01848879
2989.65142822,0.01838293
2991.58023560,0.01829266
2993.50904297,0.01830114
2995.43785034,0.01830469
2997.36665771,0.01843768
2999.29546509,0.01828290
3001.22427246,0.01817038
3003.15307983,0.01821810
3005.08188721,0.01807765
3007.01069458,0.01798108
3008.93950195,0.01807088
3010.86830933,0.01805743
3012.79711670,0.01783728
3014.72592407,0.01791530
3016.65473145,0.01787411
3018.58353882,0.01778778
3020.51234619,0.01782058
3022.44115356,0.01771695
3024.36996094,0.01782502
3026.29876831,0.01770214
3028.22757568,0.01760828
3030.15638306,0.01753446
3032.08519043,0.01743755
3034.01399780,0.01754402
3035.94280518,0.01740543
3037.87161255,0.01744979
3039.80041992,0.01740542
3041.72922729,0.01730580
3043.65803467,0.01736711
3045.58684204,0.01732264
3047.51564941,0.01730105
3049.44445679,0.01715932
3051.37326416,0.01724290
3053.30207153,0.01726396
3055.23087891,0.01706758
3057.15968628,0.01705765
3059.08849365,0.01702019
3061.01730103,0.01697731
3062.94610840,0.01697126
3064.87491577,0.01683073
3066.80372314,0.01674995
3068.73253052,0.01687071
3070.66133789,0.01680426
3072.59014526,0.01677425
3074.51895264,0.01671138
3076.44776001,0.01663742
3078.37656738,0.01680522
3080.30537476,0.01664376
3082.23418213,0.01659162
3084.16298950,0.01660986
3086.09179687,0.01648966
3088.02060425,0.01651455
3089.94941162,0.01639674
3091.87821899,0.01634856
3093.80702637,0.01632839
3095.73583374,0.01630942
3097.66464111,0.01626578
3099.59344849,0.01622050
3101.52225586,0.01628813
3103.45106323,0.01622167
3105.37987061,0.01611539
3107.30867798,0.01599671
3109.23748535,0.01602598
3111.16629272,0.01606455
3113.09510010,0.01592622
3115.02390747,0.01590229
3116.95271484,0.01589671
3118.88152222,0.01581617
3120.81032959,0.01572255
3122.73913696,0.01571971
3124.66794434,0.01575864
3126.59675171,0.01566493
3128.52555908,0.01558737
3130.45436645,0.01558490
3132.38317383,0.01553886
3134.31198120,0.01551033
3136.24078857,0.01545143
3138.16959595,0.01540955
3140.09840332,0.01544167
3142.02721069,0.01538493
3143.95601807,0.01536604
3145.88482544,0.01537899
3147.81363281,0.01531194
3149.74244019,0.01518064
3151.67124756,0.01512421
3153.60005493,0.01512599
3155.52886230,0.01505512
3157.45766968,0.01502001
3159.38647705,0.01495228
3161.31528442,0.01497400
3163.24409180,0.01490443
3165.17289917,0.01485602
3167.10170654,0.01492959
3169.03051392,0.01472217
3170.95932129,0.01473318
3172.88812866,0.01472486
3174.81693604,0.01456594
3176.74574341,0.01459911
3178.67455078,0.01456626
3180.60335815,0.01458969
3182.53216553,0.01453183
3184.46097290,0.01449421
3186.38978027,0.01449085
3188.31858765,0.01435329
3190.24739502,0.01431576
3192.17620239,0.01426968
3194.10500977,0.01421367
3196.03381714,0.01424404
3197.96262451,0.01419156
3199.89143188,0.01412875
3201.82023926,0.01414145
3203.74904663,0.01402689
3205.67785400,0.01399520
3207.60666138,0.01403211
3209.53546875,0.01401083
3211.46427612,0.01393694
3213.39308350,0.01382718
3215.32189087,0.01391604
3217.25069824,0.01385941
3219.17950562,0.01382889
3221.10831299,0.01380634
3223.03712036,0.01370531
3224.96592773,0.01380195
3226.89473511,0.01375332
3228.82354248,0.01372206
3230.75234985,0.01365519
3232.68115723,0.01366211
3234.60996460,0.01360339
3236.53877197,0.01348156
3238.46757935,0.01357269
3240.39638672,0.01341750
3242.32519409,0.01347902
3244.25400146,0.01351792
3246.18280884,0.01346153
3248.11161621,0.01353496
3250.04042358,0.01341064
3251.96923096,0.01339053
3253.89803833,0.01335503
3255.82684570,0.01336090
3257.75565308,0.01326256
3259.68446045,0.01334131
3261.61326782,0.01346438
3263.54207520,0.01324230
3265.47088257,0.01332032
3267.39968994,0.01330278
3269.32849731,0.01323764
3271.25730469,0.01322218
3273.18611206,0.01309977
3275.11491943,0.01312824
3277.04372681,0.01316357
3278.97253418,0.01316327
3280.90134155,0.01308324
3282.83014893,0.01311433
3284.75895630,0.01311738
3286.68776367,0.01306482
3288.61657104,0.01303168
3290.54537842,0.01303257
3292.47418579,0.01301846
3294.40299316,0.01289634
3296.33180054,0.01303140
3298.26060791,0.01301755
3300.18941528,0.01292169
3302.11822266,0.01295099
3304.04703003,0.01289274
3305.97583740,0.01281972
3307.90464478,0.01273792
3309.83345215,0.01288802
3311.76225952,0.01288689
3313.69106689,0.01279601
3315.61987427,0.01280271
3317.54868164,0.01275751
3319.47748901,0.01278727
3321.40629639,0.01278811
3323.33510376,0.01276886
3325.26391113,0.01264920
3327.19271851,0.01268177
3329.12152588,0.01268093
3331.05033325,0.01256474
3332.97914062,0.01260108
3334.90794800,0.01253995
3336.83675537,0.01257281
3338.76556274,0.01260424
3340.69437012,0.01252194
3342.62317749,0.01246753
3344.55198486,0.01246056
3346.48079224,0.01244532
3348.40959961,0.01239057
3350.33840698,0.01236022
3352.26721436,0.01233988
3354.19602173,0.01240672
3356.12482910,0.01237928
3358.05363647,0.01231484
3359.98244385,0.01226128
3361.91125122,0.01228688
3363.84005859,0.01227989
3365.76886597,0.01215686
3367.69767334,0.01223925
3369.62648071,0.01214677
3371.55528809,0.01209743
3373.48409546,0.01216925
3375.41290283,0.01209024
3377.34171020,0.01206926
3379.27051758,0.01208783
3381.19932495,0.01209370
3383.12813232,0.01197307
3385.05693970,0.01204614
3386.98574707,0.01201657
3388.91455444,0.01193306
3390.84336182,0.01195529
3392.77216919,0.01168311
3394.70097656,0.01177273
3396.62978394,0.01190872
3398.55859131,0.01171539
3400.48739868,0.01167778
3402.41620605,0.01176671
3404.34501343,0.01179602
3406.27382080,0.01181102
3408.20262817,0.01178494
3410.13143555,0.01165756
3412.06024292,0.01175509
3413.98905029,0.01171184
3415.91785767,0.01164611
3417.84666504,0.01172220
3419.77547241,0.01154930
3421.70427979,0.01146028
3423.63308716,0.01147727
3425.56189453,0.01153288
3427.49070190,0.01149319
3429.41950928,0.01147662
3431.34831665,0.01144648
3433.27712402,0.01136051
3435.20593140,0.01144190
3437.13473877,0.01133173
3439.06354614,0.01128615
3440.99235352,0.01130942
3442.92116089,0.01130263
3444.84996826,0.01130223
3446.77877563,0.01113849
3448.70758301,0.01113902
3450.63639038,0.01120636
3452.56519775,0.01120731
3454.49400513,0.01120915
3456.42281250,0.01118023
3458.35161987,0.01113931
3460.28042725,0.01113420
3462.20923462,0.01108224
3464.13804199,0.01110184
3466.06684937,0.01112496
3467.99565674,0.01096901
3469.92446411,0.01098420
3471.85327148,0.01096881
3473.78207886,0.01099389
3475.71088623,0.01099353
3477.63969360,0.01088827
3479.56850098,0.01094654
3481.49730835,0.01081972
3483.42611572,0.01084539
3485.35492310,0.01091853
3487.28373047,0.01084351
3489.21253784,0.01086120
3491.14134521,0.01084135
3493.07015259,0.01085186
3494.99895996,0.01087383
3496.92776733,0.01088024
3498.85657471,0.01085115
3500.78538208,0.01083755
3502.71418945,0.01058877
3504.64299683,0.01059924
3506.57180420,0.01086225
3508.50061157,0.01064993
3510.42941895,0.01063068
3512.35822632,0.01066672
3514.28703369,0.01069321
3516.21584106,0.01079388
3518.14464844,0.01069503
3520.07345581,0.01074133
3522.00226318,0.01060513
3523.93107056,0.01035530
3525.85987793,0.01045074
3527.78868530,0.01058006
3529.71749268,0.01042905
3531.64630005,0.01057389
3533.57510742,0.01080282
3535.50391479,0.01055159
3537.43272217,0.01054251
3539.36152954,0.01067199
3541.29033691,0.01061661
3543.21914429,0.01058083
3545.14795166,0.01030240
3547.07675903,0.01014926
3549.00556641,0.01058908
3550.93437378,0.01057015
3552.86318115,0.01031338
3554.79198853,0.01061562
3556.72079590,0.01056170
3558.64960327,0.01041346
3560.57841064,0.01029189
3562.50721802,0.01031715
3564.43602539,0.01043581
3566.36483276,0.00964075
3568.29364014,0.00932451
3570.22244751,0.01016838
3572.15125488,0.01051405
3574.08006226,0.01037844
3576.00886963,0.01050103
3577.93767700,0.01035963
3579.86648437,0.01031572
3581.79529175,0.01035008
3583.72409912,0.01038621
3585.65290649,0.01020631
3587.58171387,0.00911071
3589.51052124,0.00951967
3591.43932861,0.01052860
3593.36813599,0.01012708
3595.29694336,0.00996976
3597.22575073,0.01014167
3599.15455811,0.01023316
3601.08336548,0.01006368
3603.01217285,0.01021846
3604.94098022,0.01035234
3606.86978760,0.00988312
3608.79859497,0.00926412
3610.72740234,0.00944917
3612.65620972,0.00979299
3614.58501709,0.00945251
3616.51382446,0.01017244
3618.44263184,0.00927403
3620.37143921,0.00897459
3622.30024658,0.01040054
3624.22905395,0.00999786
3626.15786133,0.01047561
3628.08666870,0.00863648
3630.01547607,0.00775329
3631.94428345,0.01017416
3633.87309082,0.00994466
3635.80189819,0.01005922
3637.73070557,0.01021877
3639.65951294,0.01014701
3641.58832031,0.01021688
3643.51712769,0.01004050
3645.44593506,0.01014350
3647.37474243,0.00894986
3649.30354980,0.00812928
3651.23235718,0.00817464
3653.16116455,0.00988624
3655.08997192,0.00978903
3657.01877930,0.00872306
3658.94758667,0.01021101
3660.87639404,0.00997525
3662.80520142,0.01017635
3664.73400879,0.01015822
3666.66281616,0.01000365
3668.59162354,0.00954326
3670.52043091,0.00756858
3672.44923828,0.00943569
3674.37804565,0.00884742
3676.30685303,0.00717274
3678.23566040,0.00956165
3680.16446777,0.00982182
3682.09327515,0.00966340
3684.02208252,0.01002141
3685.95088989,0.00982484
3687.87969727,0.00872178
3689.80850464,0.00794711
3691.73731201,0.00909770
3693.66611938,0.00943075
3695.59492676,0.00975256
3697.52373413,0.00972979
3699.45254150,0.00963869
3701.38134888,0.00932889
3703.31015625,0.00896439
3705.23896362,0.01006508
3707.16777100,0.00943007
3709.09657837,0.00907254
3711.02538574,0.00852281
3712.95419312,0.00792098
3714.88300049,0.00942937
3716.81180786,0.00932783
3718.74061523,0.00949833
3720.66942261,0.00916091
3722.59822998,0.00879011
3724.52703735,0.00920019
3726.45584473,0.00842309
3728.38465210,0.00933020
3730.31345947,0.00913351
3732.24226685,0.00830043
3734.17107422,0.00807311
3736.09988159,0.00748791
3738.02868896,0.00810543
3739.95749634,0.00889714
3741.88630371,0.00936646
3743.81511108,0.00699915
3745.74391846,0.00661071
3747.67272583,0.00896889
3749.60153320,0.00742495
3751.53034058,0.00677729
3753.45914795,0.00794313
3755.38795532,0.00869560
3757.31676270,0.00904245
3759.24557007,0.00807937
3761.17437744,0.00862675
3763.10318481,0.00928926
3765.03199219,0.00849178
3766.96079956,0.00873424
3768.88960693,0.00856699
3770.81841431,0.00813647
3772.74722168,0.00899593
3774.67602905,0.00906599
3776.60483643,0.00904969
3778.53364380,0.00873007
3780.46245117,0.00832673
3782.39125854,0.00892912
3784.32006592,0.00869782
3786.24887329,0.00866709
3788.17768066,0.00884041
3790.10648804,0.00875982
3792.03529541,0.00877974
3793.96410278,0.00890455
3795.89291016,0.00822052
3797.82171753,0.00817903
3799.75052490,0.00866686
3801.67933228,0.00655628
3803.60813965,0.00798495
3805.53694702,0.00878398
3807.46575439,0.00690972
3809.39456177,0.00862184
3811.32336914,0.00845152
3813.25217651,0.00885615
3815.18098389,0.00780954
3817.10979126,0.00666172
3819.03859863,0.00869961
3820.96740601,0.00673191
3822.89621338,0.00731924
3824.82502075,0.00876638
3826.75382812,0.00771896
3828.68263550,0.00842956
3830.61144287,0.00810717
3832.54025024,0.00772999
3834.46905762,0.00789382
3836.39786499,0.00748018
3838.32667236,0.00660621
3840.25547974,0.00733376
3842.18428711,0.00791026
3844.11309448,0.00748205
3846.04190186,0.00827191
3847.97070923,0.00802289
3849.89951660,0.00813156
3851.82832397,0.00718584
3853.75713135,0.00511729
3855.68593872,0.00632925
3857.61474609,0.00813531
3859.54355347,0.00787088
3861.47236084,0.00777694
3863.40116821,0.00763877
3865.32997559,0.00689832
3867.25878296,0.00795122
3869.18759033,0.00718772
3871.11639770,0.00646457
3873.04520508,0.00794522
3874.97401245,0.00713859
3876.90281982,0.00797278
3878.83162720,0.00799440
3880.76043457,0.00661482
3882.68924194,0.00798662
3884.61804932,0.00722090
3886.54685669,0.00657889
3888.47566406,0.00791327
3890.40447144,0.00743486
3892.33327881,0.00696959
3894.26208618,0.00771674
3896.19089355,0.00791080
3898.11970093,0.00737075
3900.04850830,0.00687476
3901.97731567,0.00683610
3903.90612305,0.00677235
3905.83493042,0.00690913
3907.76373779,0.00769762
3909.69254517,0.00767497
3911.62135254,0.00754933
3913.55015991,0.00772900
3915.47896728,0.00741765
3917.40777466,0.00719730
3919.33658203,0.00713470
3921.26538940,0.00749123
3923.19419678,0.00745222
3925.12300415,0.00724624
3927.05181152,0.00742147
3928.98061890,0.00744617
3930.90942627,0.00726837
3932.83823364,0.00700807
3934.76704102,0.00730404
3936.69584839,0.00734695
3938.62465576,0.00736518
3940.55346313,0.00739968
3942.48227051,0.00701113
3944.41107788,0.00727201
3946.33988525,0.00738509
3948.26869263,0.00707877
3950.19750000,0.00704561
3952.12630737,0.00720877
3954.05511475,0.00723727
3955.98392212,0.00720577
3957.91272949,0.00724581
3959.84153687,0.00718159
3961.77034424,0.00715807
3963.69915161,0.00703959
3965.62795898,0.00710281
3967.55676636,0.00721649
3969.48557373,0.00718956
3971.41438110,0.00709031
3973.34318848,0.00701998
3975.27199585,0.00708028
3977.20080322,0.00688974
3979.12961060,0.00698065
3981.05841797,0.00706799
3982.98722534,0.00690067
3984.91603271,0.00698434
3986.84484009,0.00699976
3988.77364746,0.00694917
3990.70245483,0.00690139
3992.63126221,0.00684973
3994.56006958,0.00685375
3996.48887695,0.00689375
3998.41768433,0.00683760
4000.34649170,0.00689215
4002.27529907,0.00692828
4004.20410645,0.00679857
4006.13291382,0.00680823
4008.06172119,0.00673188
4009.99052856,0.00680029
4011.91933594,0.00679514
4013.84814331,0.00666268
4015.77695068,0.00673759
4017.70575806,0.00671577
4019.63456543,0.00673538
4021.56337280,0.00671625
4023.49218018,0.00661434
4025.42098755,0.00657478
4027.34979492,0.00659952
4029.27860229,0.00659485
4031.20740967,0.00659860
4033.13621704,0.00660599
4035.06502441,0.00656853
4036.99383179,0.00662575
4038.92263916,0.00653234
4040.85144653,0.00650403
4042.78025391,0.00650214
4044.70906128,0.00644783
4046.63786865,0.00650271
4048.56667603,0.00646066
4050.49548340,0.00646008
4052.42429077,0.00639633
4054.35309814,0.00636135
4056.28190552,0.00638933
4058.21071289,0.00638965
4060.13952026,0.00635205
4062.06832764,0.00628826
4063.99713501,0.00638670
4065.92594238,0.00639803
4067.85474976,0.00631707
4069.78355713,0.00629568
4071.71236450,0.00636652
4073.64117187,0.00628575
4075.56997925,0.00622154
4077.49878662,0.00631271
4079.42759399,0.00621641
4081.35640137,0.00625777
4083.28520874,0.00623021
4085.21401611,0.00617806
4087.14282349,0.00624999
4089.07163086,0.00614579
4091.00043823,0.00613562
4092.92924561,0.00615270
4094.85805298,0.00608895
4096.78686035,0.00606288
4098.71566772,0.00608160
4100.64447510,0.00603906
4102.57328247,0.00606756
4104.50208984,0.00608690
4106.43089722,0.00599185
4108.35970459,0.00600859
4110.28851196,0.00598941
4112.21731934,0.00600846
4114.14612671,0.00599003
4116.07493408,0.00595645
4118.00374145,0.00601633
4119.93254883,0.00595114
4121.86135620,0.00586651
4123.79016357,0.00587777
4125.71897095,0.00592764
4127.64777832,0.00591805
4129.57658569,0.00592120
4131.50539307,0.00589596
4133.43420044,0.00589853
4135.36300781,0.00582974
4137.29181519,0.00575770
4139.22062256,0.00586368
4141.14942993,0.00574652
4143.07823730,0.00567323
4145.00704468,0.00573011
4146.93585205,0.00574426
4148.86465942,0.00574115
4150.79346680,0.00572789
4152.72227417,0.00570379
4154.65108154,0.00559716
4156.57988892,0.00569147
4158.50869629,0.00563688
4160.43750366,0.00558466
4162.36631103,0.00568963
4164.29511841,0.00559092
4166.22392578,0.00557717
4168.15273315,0.00556530
4170.08154053,0.00555171
4172.01034790,0.00550610
4173.93915527,0.00546298
4175.86796265,0.00549545
4177.79677002,0.00554230
4179.72557739,0.00555484
4181.65438477,0.00547145
4183.58319214,0.00548930
4185.51199951,0.00544467
4187.44080688,0.00543649
4189.36961426,0.00540000
4191.29842163,0.00536404
4193.22722900,0.00542299
4195.15603638,0.00532317
4197.08484375,0.00533868
4199.01365112,0.00538312
4200.94245850,0.00535531
4202.87126587,0.00528097
4204.80007324,0.00528686
4206.72888062,0.00529076
4208.65768799,0.00525308
4210.58649536,0.00532933
4212.51530273,0.00527629
4214.44411011,0.00533158
4216.37291748,0.00526617
4218.30172485,0.00519085
4220.23053223,0.00523178
4222.15933960,0.00514863
4224.08814697,0.00520324
4226.01695435,0.00510511
4227.94576172,0.00510348
4229.87456909,0.00517239
4231.80337646,0.00513917
4233.73218384,0.00514015
4235.66099121,0.00508190
4237.58979858,0.00511018
4239.51860596,0.00504513
4241.44741333,0.00505063
4243.37622070,0.00505989
4245.30502808,0.00501080
4247.23383545,0.00504269
4249.16264282,0.00502673
4251.09145020,0.00501796
4253.02025757,0.00497130
4254.94906494,0.00497121
4256.87787231,0.00496495
4258.80667969,0.00499145
4260.73548706,0.00491147
4262.66429443,0.00479631
4264.59310181,0.00488773
4266.52190918,0.00489013
4268.45071655,0.00487075
4270.37952393,0.00484462
4272.30833130,0.00483026
4274.23713867,0.00482849
4276.16594604,0.00485424
4278.09475342,0.00484506
4280.02356079,0.00474051
4281.95236816,0.00479174
4283.88117554,0.00476072
4285.80998291,0.00475491
4287.73879028,0.00478962
4289.66759766,0.00469455
4291.59640503,0.00473081
4293.52521240,0.00475944
4295.45401978,0.00469671
4297.38282715,0.00469349
4299.31163452,0.00473483
4301.24044189,0.00472107
4303.16924927,0.00467004
4305.09805664,0.00462488
4307.02686401,0.00463585
4308.95567139,0.00460007
4310.88447876,0.00454706
4312.81328613,0.00458739
4314.74209351,0.00457463
4316.67090088,0.00454603
4318.59970825,0.00456636
4320.52851562,0.00467085
4322.45732300,0.00454774
4324.38613037,0.00447321
4326.31493774,0.00464760
4328.24374512,0.00447233
4330.17255249,0.00444492
4332.10135986,0.00459147
4334.03016724,0.00449250
4335.95897461,0.00444750
4337.88778198,0.00446949
4339.81658936,0.00443765
4341.74539673,0.00442197
4343.67420410,0.00446031
4345.60301147,0.00442971
4347.53181885,0.00439550
4349.46062622,0.00434527
4351.38943359,0.00445021
4353.31824097,0.00445975
4355.24704834,0.00430018
4357.17585571,0.00435782
4359.10466309,0.00424961
4361.03347046,0.00428592
4362.96227783,0.00437509
4364.89108520,0.00427699
4366.81989258,0.00430573
4368.74869995,0.00422383
4370.67750732,0.00419675
4372.60631470,0.00426188
4374.53512207,0.00426832
4376.46392944,0.00416822
4378.39273682,0.00422654
4380.32154419,0.00425884
4382.25035156,0.00415825
4384.17915894,0.00427546
4386.10796631,0.00414083
4388.03677368,0.00410368
4389.96558105,0.00415171
4391.89438843,0.00405668
4393.82319580,0.00414545
4395.75200317,0.00410144
4397.68081055,0.00407460
4399.60961792,0.00406859
4401.53842529,0.00407986
4403.46723267,0.00410266
4405.39604004,0.00409431
4407.32484741,0.00409474
4409.25365478,0.00398026
4411.18246216,0.00402680
4413.11126953,0.00401807
4415.04007690,0.00398438
4416.96888428,0.00406592
4418.89769165,0.00401270
4420.82649902,0.00396646
4422.75530640,0.00394408
4424.68411377,0.00398029
4426.61292114,0.00399393
4428.54172852,0.00393592
4430.47053589,0.00393990
4432.39934326,0.00387993
4434.32815063,0.00386915
4436.25695801,0.00394011
4438.18576538,0.00384845
4440.11457275,0.00385160
4442.04338013,0.00391615
4443.97218750,0.00381716
4445.90099487,0.00380791
4447.82980225,0.00381415
4449.75860962,0.00382183
4451.68741699,0.00385960
4453.61622437,0.00389086
4455.54503174,0.00387658
4457.47383911,0.00378286
4459.40264648,0.00377092
4461.33145386,0.00367818
4463.26026123,0.00366922
4465.18906860,0.00378574
4467.11787598,0.00377331
4469.04668335,0.00376123
4470.97549072,0.00378054
4472.90429810,0.00378601
4474.83310547,0.00370848
4476.76191284,0.00369814
4478.69072021,0.00370684
4480.61952759,0.00363811
4482.54833496,0.00364927
4484.47714233,0.00361820
4486.40594971,0.00357703
4488.33475708,0.00364004
4490.26356445,0.00365746
4492.19237183,0.00358145
4494.12117920,0.00355860
4496.04998657,0.00353725
4497.97879395,0.00351196
4499.90760132,0.00348261
4501.83640869,0.00349644
4503.76521606,0.00356398
4505.69402344,0.00349648
4507.62283081,0.00355385
4509.55163818,0.00360015
4511.48044556,0.00353616
4513.40925293,0.00347972
4515.33806030,0.00339409
4517.26686768,0.00353844
4519.19567505,0.00354754
4521.12448242,0.00345919
4523.05328979,0.00350178
4524.98209717,0.00346863
4526.91090454,0.00348468
4528.83971191,0.00346260
4530.76851929,0.00340846
4532.69732666,0.00335415
4534.62613403,0.00335123
4536.55494141,0.00341896
4538.48374878,0.00334140
4540.41255615,0.00327034
4542.34136353,0.00337491
4544.27017090,0.00340926
4546.19897827,0.00334634
4548.12778564,0.00333327
4550.05659302,0.00326543
4551.98540039,0.00329966
4553.91420776,0.00336711
4555.84301514,0.00335126
4557.77182251,0.00335908
4559.70062988,0.00326124
4561.62943726,0.00324047
4563.55824463,0.00328103
4565.48705200,0.00325181
4567.41585937,0.00324910
4569.34466675,0.00323413
4571.27347412,0.00322543
4573.20228149,0.00321552
4575.13108887,0.00319647
4577.05989624,0.00319130
4578.98870361,0.00315118
4580.91751099,0.00313844
4582.84631836,0.00321734
4584.77512573,0.00321077
4586.70393311,0.00316183
4588.63274048,0.00311905
4590.56154785,0.00309688
4592.49035522,0.00312550
4594.41916260,0.00308417
4596.34796997,0.00308929
4598.27677734,0.00306988
4600.20558472,0.00309772
4602.13439209,0.00308445
4604.06319946,0.00303117
4605.99200684,0.00313701
4607.92081421,0.00307305
4609.84962158,0.00305108
4611.77842895,0.00305293
4613.70723633,0.00303992
4615.63604370,0.00307356
4617.56485107,0.00300109
4619.49365845,0.00299734
4621.42246582,0.00295386
4623.35127319,0.00301431
4625.28008057,0.00299037
4627.20888794,0.00294887
4629.13769531,0.00299698
4631.06650269,0.00293322
4632.99531006,0.00301470
4634.92411743,0.00289012
4636.85292480,0.00286070
4638.78173218,0.00298386
4640.71053955,0.00291154
4642.63934692,0.00289795
4644.56815430,0.00284432
4646.49696167,0.00286743
4648.42576904,0.00285586
4650.35457642,0.00287237
4652.28338379,0.00288891
4654.21219116,0.00282000
4656.14099853,0.00287602
4658.06980591,0.00282981
4659.99861328,0.00280999
4661.92742065,0.00286506
4663.85622803,0.00289648
4665.78503540,0.00284088
4667.71384277,0.00279348
4669.64265015,0.00284422
4671.57145752,0.00280164
4673.50026489,0.00280155
4675.42907227,0.00276602
4677.35787964,0.00276065
4679.28668701,0.00278299
4681.21549438,0.00271152
4683.14430176,0.00277146
4685.07310913,0.00278085
4687.00191650,0.00270640
4688.93072388,0.00273913
4690.85953125,0.00276652
4692.78833862,0.00272299
4694.71714600,0.00270515
4696.64595337,0.00268952
4698.57476074,0.00268890
4700.50356812,0.00274711
4702.43237549,0.00273625
4704.36118286,0.00267115
4706.28999023,0.00267396
4708.21879761,0.00272224
4710.14760498,0.00263000
4712.07641235,0.00257163
4714.00521973,0.00266489
4715.93402710,0.00263579
4717.86283447,0.00263369
4719.79164185,0.00266726
4721.72044922,0.00259780
4723.64925659,0.00264343
4725.57806396,0.00267438
4727.50687134,0.00256203
4729.43567871,0.00252335
4731.36448608,0.00253350
4733.29329346,0.00256234
4735.22210083,0.00258795
4737.15090820,0.00256696
4739.07971558,0.00251856
4741.00852295,0.00246170
4742.93733032,0.00250082
4744.86613770,0.00247674
4746.79494507,0.00244328
4748.72375244,0.00244234
4750.65255981,0.00247449
4752.58136719,0.00252694
4754.51017456,0.00239692
4756.43898193,0.00248951
4758.36778931,0.00249352
4760.29659668,0.00239088
4762.22540405,0.00253094
4764.15421143,0.00238510
4766.08301880,0.00237987
4768.01182617,0.00247374
4769.94063354,0.00239254
4771.86944092,0.00243133
4773.79824829,0.00244984
4775.72705566,0.00245887
4777.65586304,0.00240907
4779.58467041,0.00244012
4781.51347778,0.00240017
4783.44228516,0.00228348
4785.37109253,0.00231737
4787.29989990,0.00231505
4789.22870728,0.00237854
4791.15751465,0.00234501
4793.08632202,0.00231131
4795.01512939,0.00234243
4796.94393677,0.00227449
4798.87274414,0.00233771
4800.80155151,0.00231389
4802.73035889,0.00227691
4804.65916626,0.00232961
4806.58797363,0.00226854
4808.51678101,0.00228197
4810.44558838,0.00228273
4812.37439575,0.00225365
4814.30320312,0.00227550
4816.23201050,0.00223965
4818.16081787,0.00227147
4820.08962524,0.00231972
4822.01843262,0.00227440
4823.94723999,0.00220084
4825.87604736,0.00219707
4827.80485474,0.00222873
4829.73366211,0.00221395
4831.66246948,0.00226108
4833.59127686,0.00221189
4835.52008423,0.00214567
4837.44889160,0.00221997
4839.37769897,0.00218519
4841.30650635,0.00215029
4843.23531372,0.00218363
4845.16412109,0.00215917
4847.09292847,0.00216606
4849.02173584,0.00219274
4850.95054321,0.00210937
4852.87935059,0.00211747
4854.80815796,0.00216794
4856.73696533,0.00210122
4858.66577270,0.00213166
4860.59458008,0.00208978
4862.52338745,0.00210767
4864.45219482,0.00216437
4866.38100220,0.00207433
4868.30980957,0.00208459
4870.23861694,0.00207815
4872.16742432,0.00207202
4874.09623169,0.00202732
4876.02503906,0.00207057
4877.95384644,0.00206591
4879.88265381,0.00197061
4881.81146118,0.00211374
4883.74026855,0.00202821
4885.66907593,0.00204435
4887.59788330,0.00211845
4889.52669067,0.00193607
4891.45549805,0.00202137
4893.38430542,0.00207282
4895.31311279,0.00206856
4897.24192017,0.00204946
4899.17072754,0.00196395
4901.09953491,0.00201447
4903.02834228,0.00202222
4904.95714966,0.00197919
4906.88595703,0.00193915
4908.81476440,0.00193108
4910.74357178,0.00193062
4912.67237915,0.00192718
4914.60118652,0.00195217
4916.52999390,0.00195476
4918.45880127,0.00192448
4920.38760864,0.00194911
4922.31641602,0.00196844
4924.24522339,0.00187148
4926.17403076,0.00187503
4928.10283813,0.00191065
4930.03164551,0.00192355
4931.96045288,0.00196170
4933.88926025,0.00190831
4935.81806763,0.00189335
4937.74687500,0.00189101
4939.67568237,0.00187396
4941.60448975,0.00187241
4943.53329712,0.00184566
4945.46210449,0.00187817
4947.39091187,0.00191238
4949.31971924,0.00186297
4951.24852661,0.00184682
4953.17733398,0.00188066
4955.10614136,0.00185926
4957.03494873,0.00180961
4958.96375610,0.00183728
4960.89256348,0.00190015
4962.82137085,0.00181479
4964.75017822,0.00178447
4966.67898560,0.00183081
4968.60779297,0.00174869
4970.53660034,0.00176197
4972.46540771,0.00181516
4974.39421509,0.00182615
4976.32302246,0.00180793
4978.25182983,0.00173837
4980.18063721,0.00175574
4982.10944458,0.00180779
4984.03825195,0.00179599
4985.96705933,0.00175762
4987.89586670,0.00174466
4989.82467407,0.00171567
4991.75348145,0.00173737
4993.68228882,0.00174636
4995.61109619,0.00170953
4997.53990356,0.00171835
4999.46871094,0.00172414
5001.39751831,0.00177283
5003.32632568,0.00173792
5005.25513306,0.00169773
5007.18394043,0.00174079
5009.11274780,0.00173315
5011.04155518,0.00166716
5012.97036255,0.00161783
5014.89916992,0.00168833
5016.82797729,0.00170691
5018.75678467,0.00168502
5020.68559204,0.00169412
5022.61439941,0.00172800
5024.54320679,0.00169881
5026.47201416,0.00165606
5028.40082153,0.00170317
5030.32962891,0.00161637
5032.25843628,0.00162991
5034.18724365,0.00159885
5036.11605103,0.00151856
5038.04485840,0.00161226
5039.97366577,0.00162642
5041.90247314,0.00166979
5043.83128052,0.00159322
5045.76008789,0.00155740
5047.68889526,0.00156924
5049.61770264,0.00152488
5051.54651001,0.00162375
5053.47531738,0.00156900
5055.40412476,0.00154842
5057.33293213,0.00161685
5059.26173950,0.00157635
5061.19054687,0.00155000
5063.11935425,0.00161672
5065.04816162,0.00157015
5066.97696899,0.00149116
5068.90577637,0.00160862
5070.83458374,0.00158219
5072.76339111,0.00155900
5074.69219849,0.00149891
5076.62100586,0.00146531
5078.54981323,0.00156345
5080.47862061,0.00150635
5082.40742798,0.00153633
5084.33623535,0.00150709
5086.26504272,0.00154011
5088.19385010,0.00151893
5090.12265747,0.00139500
5092.05146484,0.00148863
5093.98027222,0.00144609
5095.90907959,0.00146609
5097.83788696,0.00145528
5099.76669434,0.00140459
5101.69550171,0.00146444
5103.62430908,0.00144685
5105.55311645,0.00151105
5107.48192383,0.00148673
5109.41073120,0.00143518
5111.33953857,0.00144476
5113.26834595,0.00145972
5115.19715332,0.00143465
5117.12596069,0.00143417
5119.05476807,0.00147013
5120.98357544,0.00136200
5122.91238281,0.00142476
5124.84119019,0.00146052
5126.76999756,0.00139569
5128.69880493,0.00139377
5130.62761230,0.00135858
5132.55641968,0.00143034
5134.48522705,0.00138658
5136.41403442,0.00138047
5138.34284180,0.00142492
5140.27164917,0.00137639
5142.20045654,0.00139623
5144.12926392,0.00135610
5146.05807129,0.00138071
5147.98687866,0.00141291
5149.91568603,0.00137868
5151.84449341,0.00134467
5153.77330078,0.00130617
5155.70210815,0.00132043
5157.63091553,0.00135796
5159.55972290,0.00139512
5161.48853027,0.00129510
5163.41733765,0.00127745
5165.34614502,0.00131051
5167.27495239,0.00124899
5169.20375977,0.00132523
5171.13256714,0.00130415
5173.06137451,0.00126385
5174.99018188,0.00131809
5176.91898926,0.00132309
5178.84779663,0.00134052
5180.77660400,0.00131221
5182.70541138,0.00132479
5184.63421875,0.00127699
5186.56302612,0.00119253
5188.49183350,0.00127737
5190.42064087,0.00128745
5192.34944824,0.00125759
5194.27825562,0.00132421
5196.20706299,0.00126444
5198.13587036,0.00121449
5200.06467773,0.00127077
5201.99348511,0.00123924
5203.92229248,0.00126529
5205.85109985,0.00127307
5207.77990723,0.00123696
5209.70871460,0.00122339
5211.63752197,0.00115883
5213.56632935,0.00126070
5215.49513672,0.00128788
5217.42394409,0.00126111
5219.35275146,0.00128326
5221.28155884,0.00120110
5223.21036621,0.00123475
5225.13917358,0.00120487
5227.06798096,0.00121963
5228.99678833,0.00125537
5230.92559570,0.00118948
5232.85440308,0.00119375
5234.78321045,0.00112698
5236.71201782,0.00117234
5238.64082520,0.00116008
5240.56963257,0.00106621
5242.49843994,0.00107035
5244.42724731,0.00109263
5246.35605469,0.00117744
5248.28486206,0.00112534
5250.21366943,0.00114037
5252.14247681,0.00119665
5254.07128418,0.00115294
5256.00009155,0.00114206
5257.92889893,0.00111193
5259.85770630,0.00115780
5261.78651367,0.00112677
5263.71532104,0.00106907
5265.64412842,0.00111517
5267.57293579,0.00117778
5269.50174316,0.00114440
5271.43055054,0.00105333
5273.35935791,0.00113138
5275.28816528,0.00111225
5277.21697266,0.00107572
5279.14578003,0.00114307
5281.07458740,0.00111423
5283.00339478,0.00115574
5284.93220215,0.00108905
5286.86100952,0.00100813
5288.78981689,0.00114086
5290.71862427,0.00107283
5292.64743164,0.00099128
5294.57623901,0.00113090
5296.50504639,0.00108996
5298.43385376,0.00105569
5300.36266113,0.00111893
5302.29146851,0.00101674
5304.22027588,0.00104886
5306.14908325,0.00114582
5308.07789062,0.00100399
5310.00669800,0.00099304
5311.93550537,0.00109321
5313.86431274,0.00100561
5315.79312012,0.00103177
5317.72192749,0.00104510
5319.65073486,0.00098347
5321.57954224,0.00103187
5323.50834961,0.00097250
5325.43715698,0.00099993
5327.36596436,0.00099019
5329.29477173,0.00094416
5331.22357910,0.00105483
5333.15238647,0.00098469
5335.08119385,0.00099615
5337.01000122,0.00107557
5338.93880859,0.00096239
5340.86761597,0.00096547
5342.79642334,0.00097359
5344.72523071,0.00085214
5346.65403809,0.00093660
5348.58284546,0.00100566
5350.51165283,0.00091834
5352.44046020,0.00092463
5354.36926758,0.00087378
5356.29807495,0.00097144
5358.22688232,0.00100281
5360.15568970,0.00091335
5362.08449707,0.00098812
5364.01330444,0.00088629
5365.94211182,0.00090603
5367.87091919,0.00097212
5369.79972656,0.00094807
5371.72853394,0.00093464
5373.65734131,0.00089920
5375.58614868,0.00096174
5377.51495605,0.00087475
5379.44376343,0.00093001
5381.37257080,0.00094514
5383.30137817,0.00089511
5385.23018555,0.00098032
5387.15899292,0.00086177
5389.08780029,0.00088166
5391.01660767,0.00087356
5392.94541504,0.00085503
5394.87422241,0.00088713
5396.80302978,0.00083324
5398.73183716,0.00092234
5400.66064453,0.00089936
5402.58945190,0.00086380
5404.51825928,0.00087174
5406.44706665,0.00087252
5408.37587402,0.00086880
5410.30468140,0.00088076
5412.23348877,0.00090607
5414.16229614,0.00081408
5416.09110352,0.00086162
5418.01991089,0.00088631
5419.94871826,0.00084408
5421.87752563,0.00084804
5423.80633301,0.00086560
5425.73514038,0.00089897
5427.66394775,0.00084230
5429.59275513,0.00083836
5431.52156250,0.00079882
5433.45036987,0.00085116
5435.37917725,0.00091425
5437.30798462,0.00086350
5439.23679199,0.00087414
5441.16559936,0.00078455
5443.09440674,0.00082400
5445.02321411,0.00085647
5446.95202148,0.00079752
5448.88082886,0.00080852
5450.80963623,0.00073959
5452.73844360,0.00076129
5454.66725098,0.00078457
5456.59605835,0.00083214
5458.52486572,0.00086398
5460.45367310,0.00081957
5462.38248047,0.00087652
5464.31128784,0.00080090
5466.24009521,0.00079647
5468.16890259,0.00086839
5470.09770996,0.00077974
5472.02651733,0.00082204
5473.95532471,0.00079922
5475.88413208,0.00076272
5477.81293945,0.00086077
5479.74174683,0.00077980
5481.67055420,0.00076761
5483.59936157,0.00077668
5485.52816895,0.00075518
5487.45697632,0.00086262
5489.38578369,0.00078209
5491.31459106,0.00074775
5493.24339844,0.00081240
5495.17220581,0.00074829
5497.10101318,0.00073035
5499.02982056,0.00074448
5500.95862793,0.00078323
5502.88743530,0.00077648
5504.81624268,0.00072855
5506.74505005,0.00073910
5508.67385742,0.00076585
5510.60266479,0.00077382
5512.53147217,0.00076899
5514.46027954,0.00075359
5516.38908691,0.00073117
5518.31789429,0.00080161
5520.24670166,0.00079690
5522.17550903,0.00072957
5524.10431641,0.00074895
5526.03312378,0.00072098
5527.96193115,0.00072653
5529.89073853,0.00074415
5531.81954590,0.00075232
5533.74835327,0.00075026
5535.67716064,0.00069697
5537.60596802,0.00070676
5539.53477539,0.00075534
5541.46358276,0.00077554
5543.39239014,0.00076976
5545.32119751,0.00077806
5547.25000488,0.00071540
5549.17881226,0.00070169
5551.10761963,0.00075319
5553.03642700,0.00067403
5554.96523437,0.00067438
5556.89404175,0.00073432
5558.82284912,0.00070422
5560.75165649,0.00062160
5562.68046387,0.00063914
5564.60927124,0.00072707
5566.53807861,0.00068961
5568.46688599,0.00066952
5570.39569336,0.00062431
5572.32450073,0.00061950
5574.25330811,0.00067903
5576.18211548,0.00064618
5578.11092285,0.00064390
5580.03973022,0.00064932
5581.96853760,0.00066590
5583.89734497,0.00068405
5585.82615234,0.00073615
5587.75495972,0.00072673
5589.68376709,0.00066681
5591.61257446,0.00072665
5593.54138184,0.00066622
5595.47018921,0.00064635
5597.39899658,0.00065332
5599.32780395,0.00061098
5601.25661133,0.00070241
5603.18541870,0.00061050
5605.11422607,0.00052291
5607.04303345,0.00063019
5608.97184082,0.00066307
5610.90064819,0.00062952
5612.82945557,0.00060404
5614.75826294,0.00062293
5616.68707031,0.00063024
5618.61587769,0.00059668
5620.54468506,0.00063409
5622.47349243,0.00068390
5624.40229980,0.00061531
5626.33110718,0.00066097
5628.25991455,0.00070254
5630.18872192,0.00057101
5632.11752930,0.00059026
5634.04633667,0.00061716
5635.97514404,0.00060021
5637.90395142,0.00063703
5639.83275879,0.00060862
5641.76156616,0.00056169
5643.69037353,0.00057191
5645.61918091,0.00063750
5647.54798828,0.00060937
5649.47679565,0.00057924
5651.40560303,0.00059362
5653.33441040,0.00063662
5655.26321777,0.00069270
5657.19202515,0.00064099
5659.12083252,0.00064540
5661.04963989,0.00062390
5662.97844727,0.00059845
5664.90725464,0.00060297
5666.83606201,0.00052474
5668.76486938,0.00053222
5670.69367676,0.00054600
5672.62248413,0.00054962
5674.55129150,0.00056634
5676.48009888,0.00057808
5678.40890625,0.00060702
5680.33771362,0.00060695
5682.26652100,0.00059245
5684.19532837,0.00055512
5686.12413574,0.00057435
5688.05294311,0.00055790
5689.98175049,0.00052801
5691.91055786,0.00060028
5693.83936523,0.00061409
5695.76817261,0.00058420
5697.69697998,0.00056461
5699.62578735,0.00052964
5701.55459473,0.00053795
5703.48340210,0.00056669
5705.41220947,0.00051581
5707.34101685,0.00051895
5709.26982422,0.00058759
5711.19863159,0.00055413
5713.12743896,0.00056906
5715.05624634,0.00058888
5716.98505371,0.00048858
5718.91386108,0.00048049
5720.84266846,0.00051921
5722.77147583,0.00047483
5724.70028320,0.00057176
5726.62909058,0.00064205
5728.55789795,0.00049411
5730.48670532,0.00049581
5732.41551270,0.00055335
5734.34432007,0.00050896
5736.27312744,0.00051905
5738.20193481,0.00049644
5740.13074219,0.00048273
5742.05954956,0.00053603
5743.98835693,0.00051848
5745.91716431,0.00053814
5747.84597168,0.00063079
5749.77477905,0.00055913
5751.70358643,0.00047790
5753.63239380,0.00048528
5755.56120117,0.00049458
5757.49000854,0.00049861
5759.41881592,0.00046104
5761.34762329,0.00051347
5763.27643066,0.00048502
5765.20523804,0.00042832
5767.13404541,0.00048130
5769.06285278,0.00049258
5770.99166016,0.00052110
5772.92046753,0.00047683
5774.84927490,0.00046857
5776.77808228,0.00045774
5778.70688965,0.00041965
5780.63569702,0.00050232
5782.56450439,0.00052670
5784.49331177,0.00050686
5786.42211914,0.00047191
5788.35092651,0.00053563
5790.27973389,0.00052517
5792.20854126,0.00043386
5794.13734863,0.00046490
5796.06615601,0.00041567
5797.99496338,0.00046654
5799.92377075,0.00046142
5801.85257812,0.00041517
5803.78138550,0.00046716
5805.71019287,0.00042461
5807.63900024,0.00051477
5809.56780762,0.00046136
5811.49661499,0.00035862
5813.42542236,0.00049199
5815.35422974,0.00050353
5817.28303711,0.00049029
5819.21184448,0.00050545
5821.14065186,0.00046556
5823.06945923,0.00041796
5824.99826660,0.00041299
5826.92707397,0.00046897
5828.85588135,0.00042695
5830.78468872,0.00040259
5832.71349609,0.00043978
5834.64230347,0.00036220
5836.57111084,0.00039912
5838.49991821,0.00049467
5840.42872559,0.00041167
5842.35753296,0.00042716
5844.28634033,0.00046266
5846.21514770,0.00039899
5848.14395508,0.00041179
5850.07276245,0.00040600
5852.00156982,0.00040429
5853.93037720,0.00043605
5855.85918457,0.00042158
5857.78799194,0.00039670
5859.71679932,0.00036786
5861.64560669,0.00034570
5863.57441406,0.00036793
5865.50322144,0.00036047
5867.43202881,0.00040135
5869.36083618,0.00049232
5871.28964355,0.00040713
5873.21845093,0.00039182
5875.14725830,0.00043166
5877.07606567,0.00036713
5879.00487305,0.00040116
5880.93368042,0.00035690
5882.86248779,0.00033792
5884.79129517,0.00040790
5886.72010254,0.00032874
5888.64890991,0.00032557
5890.57771728,0.00040017
5892.50652466,0.00035832
5894.43533203,0.00038787
5896.36413940,0.00044296
5898.29294678,0.00037970
5900.22175415,0.00038795
5902.15056152,0.00039486
5904.07936890,0.00041901
5906.00817627,0.00040540
5907.93698364,0.00033010
5909.86579102,0.00043414
5911.79459839,0.00040649
5913.72340576,0.00039068
5915.65221313,0.00041164
5917.58102051,0.00033293
5919.50982788,0.00040649
5921.43863525,0.00036346
5923.36744263,0.00037603
5925.29625000,0.00039433
5927.22505737,0.00035222
5929.15386475,0.00040573
5931.08267212,0.00036065
5933.01147949,0.00040539
5934.94028686,0.00034888
5936.86909424,0.00034201
5938.79790161,0.00043869
5940.72670898,0.00034766
5942.65551636,0.00031568
5944.58432373,0.00028775
5946.51313110,0.00032132
5948.44193848,0.00034071
5950.37074585,0.00034315
5952.29955322,0.00034808
5954.22836060,0.00029641
5956.15716797,0.00039011
5958.08597534,0.00038704
5960.01478271,0.00034936
5961.94359009,0.00033930
5963.87239746,0.00032950
5965.80120483,0.00032837
5967.73001221,0.00024315
5969.65881958,0.00029758
5971.58762695,0.00033734
5973.51643433,0.00033598
5975.44524170,0.00032303
5977.37404907,0.00030086
5979.30285645,0.00035800
5981.23166382,0.00034856
5983.16047119,0.00034547
5985.08927856,0.00031771
5987.01808594,0.00033783
5988.94689331,0.00034271
5990.87570068,0.00025164
5992.80450806,0.00028820
5994.73331543,0.00034041
5996.66212280,0.00033540
5998.59093018,0.00034439
6000.51973755,0.00036918
