399.26312622,0.00000985
401.19193359,0.00023292
403.12074097,0.00036222
405.04954834,0.00043402
406.97835571,0.00052129
408.90716309,0.00071701
410.83597046,0.00036521
412.76477783,0.00038237
414.69358521,0.00002502
416.62239258,-0.00009456
418.55119995,0.00059754
420.48000732,0.00029613
422.40881470,0.00023645
424.33762207,0.00044665
426.26642944,0.00040077
428.19523682,0.00056463
430.12404419,0.00023554
432.05285156,0.00006198
433.98165894,0.00027971
435.91046631,0.00034507
437.83927368,0.00050923
439.76808105,0.00041849
441.69688843,0.00021132
443.62569580,0.00038270
445.55450317,0.00049660
447.48331055,0.00054648
449.41211792,0.00033927
451.34092529,0.00015217
453.26973267,0.00022587
455.19854004,0.00010067
457.12734741,0.00021752
459.05615479,0.00033707
460.98496216,0.00009376
462.91376953,0.00000094
464.84257690,0.00018783
466.77138428,0.00034280
468.70019165,0.00030254
470.62899902,0.00000700
472.55780640,0.00010400
474.48661377,0.00003222
476.41542114,0.00009029
478.34422852,0.00016662
480.27303589,0.00006930
482.20184326,0.00047527
484.13065063,0.00022619
486.05945801,-0.00001055
487.98826538,0.00019148
489.91707275,0.00002301
491.84588013,0.00014010
493.77468750,0.00027909
495.70349487,0.00023359
497.63230225,0.00027697
499.56110962,0.00014867
501.48991699,-0.00007279
503.41872437,0.00000329
505.34753174,0.00009824
507.27633911,0.00018878
509.20514648,0.00024233
511.13395386,0.00012961
513.06276123,0.00027837
514.99156860,0.00020376
516.92037598,0.00013038
518.84918335,0.00035777
520.77799072,0.00041592
522.70679810,0.00037137
524.63560547,0.00010997
526.56441284,0.00006022
528.49322021,-0.00001505
530.42202759,-0.00016017
532.35083496,0.00024177
534.27964233,0.00005888
536.20844971,-0.00020216
538.13725708,0.00021594
540.06606445,0.00010612
541.99487183,0.00008985
543.92367920,0.00031813
545.85248657,0.00011494
547.78129395,0.00006274
549.71010132,-0.00002721
551.63890869,-0.00017737
553.56771606,0.00007301
555.49652344,0.00018028
557.42533081,0.00014468
559.35413818,0.00030310
561.28294556,0.00010396
563.21175293,-0.00011202
565.14056030,0.00010929
567.06936768,0.00022950
568.99817505,0.00037963
570.92698242,0.00037071
572.85578979,0.00002476
574.78459717,0.00016882
576.71340454,0.00002182
578.64221191,-0.00015654
580.57101929,0.00035780
582.49982666,-0.00000854
584.42863403,-0.00003777
586.35744141,0.00022936
588.28624878,-0.00021690
590.21505615,0.00011836
592.14386353,0.00022474
594.07267090,0.00001608
596.00147827,0.00007145
597.93028564,0.00016600
599.85909302,0.00044270
601.78790039,0.00003264
603.71670776,-0.00004359
605.64551514,0.00028898
607.57432251,0.00030548
609.50312988,0.00032173
611.43193726,-0.00001737
613.36074463,0.00003471
615.28955200,0.00020826
617.21835938,0.00034739
619.14716675,0.00018770
621.07597412,-0.00005536
623.00478149,0.00043386
624.93358887,0.00020028
626.86239624,0.00010564
628.79120361,0.00020951
630.72001099,0.00026588
632.64881836,0.00039526
634.57762573,-0.00008865
636.50643311,0.00023050
638.43524048,0.00025653
640.36404785,0.00014949
642.29285522,0.00022026
644.22166260,0.00030986
646.15046997,0.00078942
648.07927734,0.00025189
650.00808472,0.00038714
651.93689209,0.00082758
653.86569946,0.00048583
655.79450684,0.00031050
657.72331421,0.00023421
659.65212158,0.00060986
661.58092896,0.00059331
663.50973633,0.00053997
665.43854370,0.00060605
667.36735107,0.00047280
669.29615845,0.00061609
671.22496582,0.00053717
673.15377319,0.00068860
675.08258057,0.00069547
677.01138794,0.00057045
678.94019531,0.00079133
680.86900269,0.00057832
682.79781006,0.00054689
684.72661743,0.00074592
686.65542480,0.00069738
688.58423218,0.00074661
690.51303955,0.00066309
692.44184692,0.00061399
694.37065430,0.00080356
696.29946167,0.00097143
698.22826904,0.00095922
700.15707642,0.00100439
702.08588379,0.00123370
704.01469116,0.00096387
705.94349854,0.00089003
707.87230591,0.00112529
709.80111328,0.00078268
711.72992065,0.00063844
713.65872803,0.00034951
715.58753540,0.00016834
717.51634277,0.00041001
719.44515015,0.00024236
721.37395752,0.00034634
723.30276489,0.00024886
725.23157227,0.00003679
727.16037964,0.00023812
729.08918701,0.00010267
731.01799438,0.00000675
732.94680176,0.00006841
734.87560913,0.00028588
736.80441650,0.00030752
738.73322388,0.00004310
740.66203125,0.00013223
742.59083862,0.00024140
744.51964600,0.00021047
746.44845337,0.00016373
748.37726074,0.00021404
750.30606812,0.00023866
752.23487549,0.00035407
754.16368286,0.00038954
756.09249023,0.00020186
758.02129761,0.00015809
759.95010498,0.00005018
761.87891235,0.00010302
763.80771973,0.00021005
765.73652710,0.00026600
767.66533447,0.00026344
769.59414185,0.00025754
771.52294922,0.00039700
773.45175659,0.00021447
775.38056396,0.00027922
777.30937134,0.00036276
779.23817871,0.00008985
781.16698608,0.00008610
783.09579346,0.00021970
785.02460083,0.00032806
786.95340820,0.00017758
788.88221558,0.00016421
790.81102295,0.00026594
792.73983032,0.00012288
794.66863770,0.00017894
796.59744507,0.00009569
798.52625244,0.00013455
800.45505981,0.00030755
802.38386719,0.00008672
804.31267456,0.00016680
806.24148193,0.00033275
808.17028931,0.00035618
810.09909668,0.00031690
812.02790405,0.00015279
813.95671143,0.00036662
815.88551880,0.00041661
817.81432617,0.00023966
819.74313354,0.00017765
821.67194092,0.00018493
823.60074829,0.00030233
825.52955566,0.00018804
827.45836304,0.00035776
829.38717041,0.00054810
831.31597778,0.00041278
833.24478516,0.00041040
835.17359253,0.00046589
837.10239990,0.00066021
839.03120728,0.00050283
840.96001465,0.00035007
842.88882202,0.00047749
844.81762939,0.00039298
846.74643677,0.00034843
848.67524414,0.00026921
850.60405151,0.00034346
852.53285889,0.00037568
854.46166626,0.00023199
856.39047363,0.00021291
858.31928101,0.00018923
860.24808838,0.00030431
862.17689575,0.00042535
864.10570313,0.00036927
866.03451050,0.00033447
867.96331787,0.00037497
869.89212524,0.00035599
871.82093262,0.00031941
873.74973999,0.00024364
875.67854736,0.00018444
877.60735474,0.00018647
879.53616211,0.00018219
881.46496948,0.00041461
883.39377686,0.00048867
885.32258423,0.00035903
887.25139160,0.00025710
889.18019897,0.00025516
891.10900635,0.00043773
893.03781372,0.00037641
894.96662109,0.00039257
896.89542847,0.00030297
898.82423584,0.00035468
900.75304321,0.00067769
902.68185059,0.00048166
904.61065796,0.00043844
906.53946533,0.00043893
908.46827271,0.00042712
910.39708008,0.00042656
912.32588745,0.00043945
914.25469482,0.00062679
916.18350220,0.00027652
918.11230957,0.00041977
920.04111694,0.00070988
921.96992432,0.00036385
923.89873169,0.00047231
925.82753906,0.00057940
927.75634644,0.00045570
929.68515381,0.00060347
931.61396118,0.00063645
933.54276855,0.00055056
935.47157593,0.00073124
937.40038330,0.00063010
939.32919067,0.00057493
941.25799805,0.00072450
943.18680542,0.00058425
945.11561279,0.00087119
947.04442017,0.00094020
948.97322754,0.00066532
950.90203491,0.00066970
952.83084229,0.00070611
954.75964966,0.00073341
956.68845703,0.00056319
958.61726440,0.00075972
960.54607178,0.00069499
962.47487915,0.00039256
964.40368652,0.00064159
966.33249390,0.00059017
968.26130127,0.00088557
970.19010864,0.00108514
972.11891602,0.00070032
974.04772339,0.00087053
975.97653076,0.00091859
977.90533813,0.00087038
979.83414551,0.00103595
981.76295288,0.00102635
983.69176025,0.00103908
985.62056763,0.00125151
987.54937500,0.00148164
989.47818237,0.00116507
991.40698975,0.00126649
993.33579712,0.00166082
995.26460449,0.00143611
997.19341187,0.00166956
999.12221924,0.00178602
1001.05102661,0.00167646
1002.97983398,0.00195269
1004.90864136,0.00211518
1006.83744873,0.00220613
1008.76625610,0.00221441
1010.69506348,0.00244163
1012.62387085,0.00239565
1014.55267822,0.00253824
1016.48148560,0.00299240
1018.41029297,0.00275458
1020.33910034,0.00291286
1022.26790771,0.00315069
1024.19671509,0.00326681
1026.12552246,0.00345575
1028.05432983,0.00334609
1029.98313721,0.00355026
1031.91194458,0.00366351
1033.84075195,0.00375081
1035.76955933,0.00381180
1037.69836670,0.00396895
1039.62717407,0.00408628
1041.55598145,0.00365224
1043.48478882,0.00363196
1045.41359619,0.00379544
1047.34240356,0.00377353
1049.27121094,0.00381771
1051.20001831,0.00383946
1053.12882568,0.00361813
1055.05763306,0.00341537
1056.98644043,0.00357458
1058.91524780,0.00348478
1060.84405518,0.00340127
1062.77286255,0.00327358
1064.70166992,0.00317994
1066.63047729,0.00319936
1068.55928467,0.00286066
1070.48809204,0.00281127
1072.41689941,0.00286577
1074.34570679,0.00273066
1076.27451416,0.00248434
1078.20332153,0.00235515
1080.13212891,0.00232068
1082.06093628,0.00213621
1083.98974365,0.00220559
1085.91855103,0.00205271
1087.84735840,0.00194086
1089.77616577,0.00192897
1091.70497314,0.00171972
1093.63378052,0.00182781
1095.56258789,0.00184478
1097.49139526,0.00190805
1099.42020264,0.00189983
1101.34901001,0.00173565
1103.27781738,0.00178963
1105.20662476,0.00165136
1107.13543213,0.00169219
1109.06423950,0.00167905
1110.99304687,0.00151371
1112.92185425,0.00176021
1114.85066162,0.00163035
1116.77946899,0.00159758
1118.70827637,0.00190602
1120.63708374,0.00169050
1122.56589111,0.00176598
1124.49469849,0.00192132
1126.42350586,0.00179285
1128.35231323,0.00178102
1130.28112061,0.00178763
1132.20992798,0.00188727
1134.13873535,0.00174064
1136.06754272,0.00198612
1137.99635010,0.00218742
1139.92515747,0.00190032
1141.85396484,0.00218095
1143.78277222,0.00215326
1145.71157959,0.00224051
1147.64038696,0.00257750
1149.56919434,0.00237418
1151.49800171,0.00253903
1153.42680908,0.00265055
1155.35561646,0.00271774
1157.28442383,0.00300501
1159.21323120,0.00303293
1161.14203857,0.00307052
1163.07084595,0.00320055
1164.99965332,0.00327790
1166.92846069,0.00334986
1168.85726807,0.00353526
1170.78607544,0.00355141
1172.71488281,0.00376081
1174.64369019,0.00408617
1176.57249756,0.00402142
1178.50130493,0.00413328
1180.43011230,0.00421129
1182.35891968,0.00441533
1184.28772705,0.00476128
1186.21653442,0.00469361
1188.14534180,0.00475536
1190.07414917,0.00505466
1192.00295654,0.00548102
1193.93176392,0.00575636
1195.86057129,0.00580670
1197.78937866,0.00609445
1199.71818604,0.00635124
1201.64699341,0.00653135
1203.57580078,0.00678158
1205.50460815,0.00702599
1207.43341553,0.00729875
1209.36222290,0.00744095
1211.29103027,0.00754150
1213.21983765,0.00770328
1215.14864502,0.00791677
1217.07745239,0.00826057
1219.00625977,0.00843200
1220.93506714,0.00844453
1222.86387451,0.00846860
1224.79268188,0.00851592
1226.72148926,0.00877915
1228.65029663,0.00886857
1230.57910400,0.00875639
1232.50791138,0.00876170
1234.43671875,0.00880766
1236.36552612,0.00882945
1238.29433350,0.00863492
1240.22314087,0.00858598
1242.15194824,0.00862548
1244.08075562,0.00859687
1246.00956299,0.00876749
1247.93837036,0.00871251
1249.86717773,0.00859929
1251.79598511,0.00853437
1253.72479248,0.00854151
1255.65359985,0.00849500
1257.58240723,0.00804978
1259.51121460,0.00809363
1261.44002197,0.00814372
1263.36882935,0.00781428
1265.29763672,0.00782982
1267.22644409,0.00767823
1269.15525146,0.00757777
1271.08405884,0.00754746
1273.01286621,0.00734139
1274.94167358,0.00734997
1276.87048096,0.00724069
1278.79928833,0.00709524
1280.72809570,0.00701217
1282.65690308,0.00674825
1284.58571045,0.00665539
1286.51451782,0.00668858
1288.44332520,0.00653321
1290.37213257,0.00649295
1292.30093994,0.00639305
1294.22974731,0.00620137
1296.15855469,0.00624987
1298.08736206,0.00611602
1300.01616943,0.00621991
1301.94497681,0.00641851
1303.87378418,0.00621777
1305.80259155,0.00638204
1307.73139893,0.00654260
1309.66020630,0.00656258
1311.58901367,0.00673711
1313.51782104,0.00677587
1315.44662842,0.00689350
1317.37543579,0.00714887
1319.30424316,0.00734002
1321.23305054,0.00744002
1323.16185791,0.00768409
1325.09066528,0.00781664
1327.01947266,0.00790010
1328.94828003,0.00826799
1330.87708740,0.00852411
1332.80589478,0.00863413
1334.73470215,0.00862126
1336.66350952,0.00878609
1338.59231689,0.00880801
1340.52112427,0.00874969
1342.44993164,0.00926488
1344.37873901,0.00924743
1346.30754639,0.00909758
1348.23635376,0.00919351
1350.16516113,0.00902218
1352.09396851,0.00910952
1354.02277588,0.00904528
1355.95158325,0.00911446
1357.88039062,0.00911461
1359.80919800,0.00872390
1361.73800537,0.00842481
1363.66681274,0.00823334
1365.59562012,0.00856324
1367.52442749,0.00848161
1369.45323486,0.00829144
1371.38204224,0.00854189
1373.31084961,0.00824701
1375.23965698,0.00811373
1377.16846436,0.00831195
1379.09727173,0.00831990
1381.02607910,0.00814282
1382.95488647,0.00838656
1384.88369385,0.00851131
1386.81250122,0.00787699
1388.74130859,0.00808437
1390.67011597,0.00866268
1392.59892334,0.00825097
1394.52773071,0.00786200
1396.45653809,0.00834475
1398.38534546,0.00822350
1400.31415283,0.00828841
1402.24296021,0.00906662
1404.17176758,0.00840940
1406.10057495,0.00853196
1408.02938232,0.00886432
1409.95818970,0.00849381
1411.88699707,0.00865083
1413.81580444,0.00823431
1415.74461182,0.00858719
1417.67341919,0.00760643
1419.60222656,0.00672684
1421.53103394,0.00800702
1423.45984131,0.00762978
1425.38864868,0.00754009
1427.31745605,0.00769264
1429.24626343,0.00706422
1431.17507080,0.00707623
1433.10387817,0.00708094
1435.03268555,0.00642367
1436.96149292,0.00556681
1438.89030029,0.00628850
1440.81910767,0.00655362
1442.74791504,0.00609465
1444.67672241,0.00624369
1446.60552979,0.00580928
1448.53433716,0.00597725
1450.46314453,0.00625887
1452.39195190,0.00631328
1454.32075928,0.00633107
1456.24956665,0.00520102
1458.17837402,0.00539897
1460.10718140,0.00737528
1462.03598877,0.00784307
1463.96479614,0.00748047
1465.89360352,0.00782651
1467.82241089,0.00878284
1469.75121826,0.00920297
1471.68002563,0.00822076
1473.60883301,0.00866238
1475.53764038,0.00971357
1477.46644775,0.01051089
1479.39525513,0.01166377
1481.32406250,0.01166512
1483.25286987,0.01241635
1485.18167725,0.01250936
1487.11048462,0.01208834
1489.03929199,0.01218650
1490.96809937,0.01213716
1492.89690674,0.01435861
1494.82571411,0.01388922
1496.75452148,0.01239007
1498.68332886,0.01422403
1500.61213623,0.01436729
1502.54094360,0.01559218
1504.46975098,0.01448463
1506.39855835,0.01013000
1508.32736572,0.01277530
1510.25617310,0.01492877
1512.18498047,0.01464850
1514.11378784,0.01595588
1516.04259521,0.01424337
1517.97140259,0.01498938
1519.90020996,0.01404818
1521.82901733,0.01212815
1523.75782471,0.01526980
1525.68663208,0.01483177
1527.61543945,0.01500381
1529.54424683,0.01681142
1531.47305420,0.01580601
1533.40186157,0.01435150
1535.33066895,0.01556390
1537.25947632,0.01646135
1539.18828369,0.01150246
1541.11709106,0.01224420
1543.04589844,0.01456530
1544.97470581,0.01420003
1546.90351318,0.01691969
1548.83232056,0.01546304
1550.76112793,0.01626280
1552.68993530,0.01608090
1554.61874268,0.01459015
1556.54755005,0.01548941
1558.47635742,0.01036112
1560.40516479,0.01189270
1562.33397217,0.01713115
1564.26277954,0.01597836
1566.19158691,0.01669067
1568.12039429,0.01612150
1570.04920166,0.01431145
1571.97800903,0.01689819
1573.90681641,0.01674471
1575.83562378,0.01317711
1577.76443115,0.01516047
1579.69323853,0.01720924
1581.62204590,0.01646018
1583.55085327,0.01671882
1585.47966064,0.01644045
1587.40846802,0.01669908
1589.33727539,0.01650172
1591.26608276,0.01634675
1593.19489014,0.01648803
1595.12369751,0.01640659
1597.05250488,0.01653935
1598.98131226,0.01640155
1600.91011963,0.01639000
1602.83892700,0.01620848
1604.76773437,0.01657943
1606.69654175,0.01611050
1608.62534912,0.01622322
1610.55415649,0.01613162
1612.48296387,0.01609958
1614.41177124,0.01644135
1616.34057861,0.01332147
1618.26938599,0.01465941
1620.19819336,0.01706298
1622.12700073,0.01491433
1624.05580811,0.01503797
1625.98461548,0.01585333
1627.91342285,0.01580206
1629.84223022,0.01572681
1631.77103760,0.01691727
1633.69984497,0.01535719
1635.62865234,0.01246349
1637.55745972,0.01482105
1639.48626709,0.01624908
1641.41507446,0.01590181
1643.34388184,0.01652806
1645.27268921,0.01456932
1647.20149658,0.01267179
1649.13030396,0.01602532
1651.05911133,0.01484032
1652.98791870,0.00933984
1654.91672607,0.01312474
1656.84553345,0.01665066
1658.77434082,0.01610103
1660.70314819,0.01628698
1662.63195557,0.01465136
1664.56076294,0.01572403
1666.48957031,0.01694763
1668.41837769,0.01452622
1670.34718506,0.01419795
1672.27599243,0.01638393
1674.20479980,0.01471352
1676.13360718,0.01422559
1678.06241455,0.01658506
1679.99122192,0.01583760
1681.92002930,0.01563019
1683.84883667,0.01230717
1685.77764404,0.01272698
1687.70645142,0.01748024
1689.63525879,0.01473091
1691.56406616,0.01668435
1693.49287354,0.01660069
1695.42168091,0.01198774
1697.35048828,0.01518215
1699.27929565,0.01281333
1701.20810303,0.01173682
1703.13691040,0.01633135
1705.06571777,0.01466154
1706.99452515,0.01511623
1708.92333252,0.01643547
1710.85213989,0.01563828
1712.78094727,0.01598355
1714.70975464,0.01443738
1716.63856201,0.01293368
1718.56736938,0.01288798
1720.49617676,0.01545174
1722.42498413,0.01611913
1724.35379150,0.01483722
1726.28259888,0.01629050
1728.21140625,0.01499875
1730.14021362,0.01527418
1732.06902100,0.01459011
1733.99782837,0.01089432
1735.92663574,0.01411456
1737.85544312,0.01535745
1739.78425049,0.01371804
1741.71305786,0.01490833
1743.64186523,0.01500359
1745.57067261,0.01515670
1747.49947998,0.01502042
1749.42828735,0.01436113
1751.35709473,0.01376122
1753.28590210,0.01550430
1755.21470947,0.01600247
1757.14351685,0.01452880
1759.07232422,0.01619794
1761.00113159,0.01483322
1762.92993896,0.01482240
1764.85874634,0.01683691
1766.78755371,0.01474561
1768.71636108,0.01518299
1770.64516846,0.01480934
1772.57397583,0.01335426
1774.50278320,0.01510689
1776.43159058,0.01595752
1778.36039795,0.01565672
1780.28920532,0.01541212
1782.21801270,0.01569973
1784.14682007,0.01548895
1786.07562744,0.01520042
1788.00443481,0.01607125
1789.93324219,0.01549341
1791.86204956,0.01398072
1793.79085693,0.01470155
1795.71966431,0.01590025
1797.64847168,0.01565716
1799.57727905,0.01525812
1801.50608643,0.01493689
1803.43489380,0.01557051
1805.36370117,0.01595636
1807.29250854,0.01568398
1809.22131592,0.01563301
1811.15012329,0.01523405
1813.07893066,0.01585679
1815.00773804,0.01589632
1816.93654541,0.01557209
1818.86535278,0.01561606
1820.79416016,0.01576615
1822.72296753,0.01587406
1824.65177490,0.01475286
1826.58058228,0.01548695
1828.50938965,0.01513298
1830.43819702,0.01431931
1832.36700439,0.01586083
1834.29581177,0.01563203
1836.22461914,0.01567471
1838.15342651,0.01541677
1840.08223389,0.01549598
1842.01104126,0.01541924
1843.93984863,0.01359419
1845.86865601,0.01467910
1847.79746338,0.01537131
1849.72627075,0.01524622
1851.65507812,0.01580849
1853.58388550,0.01530167
1855.51269287,0.01544935
1857.44150024,0.01532131
1859.37030762,0.01519866
1861.29911499,0.01525846
1863.22792236,0.01513883
1865.15672974,0.01530477
1867.08553711,0.01462530
1869.01434448,0.01397782
1870.94315186,0.01466031
1872.87195923,0.01530882
1874.80076660,0.01499921
1876.72957397,0.01513371
1878.65838135,0.01508979
1880.58718872,0.01496214
1882.51599609,0.01514227
1884.44480347,0.01482452
1886.37361084,0.01507323
1888.30241821,0.01457610
1890.23122559,0.01417234
1892.16003296,0.01488194
1894.08884033,0.01462642
1896.01764771,0.01465018
1897.94645508,0.01485834
1899.87526245,0.01473597
1901.80406982,0.01471068
1903.73287720,0.01444586
1905.66168457,0.01464150
1907.59049194,0.01454977
1909.51929932,0.01437867
1911.44810669,0.01440534
1913.37691406,0.01451150
1915.30572144,0.01477945
1917.23452881,0.01394055
1919.16333618,0.01408197
1921.09214355,0.01464152
1923.02095093,0.01401590
1924.94975830,0.01442332
1926.87856567,0.01438431
1928.80737305,0.01418153
1930.73618042,0.01446533
1932.66498779,0.01425335
1934.59379517,0.01446363
1936.52260254,0.01430586
1938.45140991,0.01436208
1940.38021729,0.01427290
1942.30902466,0.01371479
1944.23783203,0.01394990
1946.16663940,0.01405823
1948.09544678,0.01416308
1950.02425415,0.01419677
1951.95306152,0.01400174
1953.88186890,0.01403710
1955.81067627,0.01413830
1957.73948364,0.01422307
1959.66829102,0.01412477
1961.59709839,0.01406206
1963.52590576,0.01407206
1965.45471313,0.01394408
1967.38352051,0.01373593
1969.31232788,0.01391012
1971.24113525,0.01401809
1973.16994263,0.01394433
1975.09875000,0.01399448
1977.02755737,0.01387440
1978.95636475,0.01399742
1980.88517212,0.01382395
1982.81397949,0.01365089
1984.74278687,0.01379495
1986.67159424,0.01370433
1988.60040161,0.01367653
1990.52920898,0.01344250
1992.45801636,0.01338376
1994.38682373,0.01345525
1996.31563110,0.01346643
1998.24443848,0.01352513
2000.17324585,0.01346490
2002.10205322,0.01354424
2004.03086060,0.01356555
2005.95966797,0.01353701
2007.88847534,0.01333855
2009.81728271,0.01329344
2011.74609009,0.01344093
2013.67489746,0.01335608
2015.60370483,0.01318486
2017.53251221,0.01297051
2019.46131958,0.01306591
2021.39012695,0.01317885
2023.31893433,0.01315928
2025.24774170,0.01308536
2027.17654907,0.01300064
2029.10535645,0.01301514
2031.03416382,0.01290963
2032.96297119,0.01291403
2034.89177856,0.01289340
2036.82058594,0.01282907
2038.74939331,0.01273099
2040.67820068,0.01277720
2042.60700806,0.01283581
2044.53581543,0.01265831
2046.46462280,0.01276464
2048.39343018,0.01273314
2050.32223755,0.01262757
2052.25104492,0.01257994
2054.17985229,0.01250939
2056.10865967,0.01261502
2058.03746704,0.01251593
2059.96627441,0.01239158
2061.89508179,0.01241772
2063.82388916,0.01246269
2065.75269653,0.01227394
2067.68150391,0.01229316
2069.61031128,0.01246555
2071.53911865,0.01226022
2073.46792603,0.01234643
2075.39673340,0.01241340
2077.32554077,0.01225313
2079.25434814,0.01219735
2081.18315552,0.01216787
2083.11196289,0.01221903
2085.04077026,0.01214512
2086.96957764,0.01199142
2088.89838501,0.01198032
2090.82719238,0.01203793
2092.75599976,0.01192601
2094.68480713,0.01197896
2096.61361450,0.01206659
2098.54242187,0.01193681
2100.47122925,0.01197736
2102.40003662,0.01189299
2104.32884399,0.01188560
2106.25765137,0.01200952
2108.18645874,0.01183621
2110.11526611,0.01171366
2112.04407349,0.01178459
2113.97288086,0.01178890
2115.90168823,0.01172630
2117.83049561,0.01169774
2119.75930298,0.01166113
2121.68811035,0.01177550
2123.61691772,0.01173475
2125.54572510,0.01158836
2127.47453247,0.01167186
2129.40333984,0.01150421
2131.33214722,0.01147371
2133.26095459,0.01157503
2135.18976196,0.01141870
2137.11856934,0.01147929
2139.04737671,0.01144551
2140.97618408,0.01137072
2142.90499146,0.01148012
2144.83379883,0.01142461
2146.76260620,0.01143547
2148.69141357,0.01134832
2150.62022095,0.01125579
2152.54902832,0.01137263
2154.47783569,0.01124376
2156.40664307,0.01119970
2158.33545044,0.01121013
2160.26425781,0.01111464
2162.19306519,0.01121387
2164.12187256,0.01121636
2166.05067993,0.01117765
2167.97948730,0.01117343
2169.90829468,0.01115083
2171.83710205,0.01113300
2173.76590942,0.01110958
2175.69471680,0.01117495
2177.62352417,0.01113012
2179.55233154,0.01108216
2181.48113892,0.01105461
2183.40994629,0.01091322
2185.33875366,0.01092059
2187.26756104,0.01098849
2189.19636841,0.01097017
2191.12517578,0.01097587
2193.05398315,0.01090713
2194.98279053,0.01083203
2196.91159790,0.01082695
2198.84040527,0.01082061
2200.76921265,0.01083251
2202.69802002,0.01076104
2204.62682739,0.01079580
2206.55563477,0.01080386
2208.48444214,0.01079830
2210.41324951,0.01089680
2212.34205688,0.01069113
2214.27086426,0.01068472
2216.19967163,0.01072296
2218.12847900,0.01062106
2220.05728638,0.01070782
2221.98609375,0.01065981
2223.91490112,0.01068299
2225.84370850,0.01053961
2227.77251587,0.01038900
2229.70132324,0.01042971
2231.63013062,0.01047303
2233.55893799,0.01054938
2235.48774536,0.01035482
2237.41655273,0.01045839
2239.34536011,0.01055259
2241.27416748,0.01034852
2243.20297485,0.01033807
2245.13178223,0.01027834
2247.06058960,0.01025645
2248.98939697,0.01029527
2250.91820435,0.01043430
2252.84701172,0.01038433
2254.77581909,0.01027926
2256.70462646,0.01036125
2258.63343384,0.01026110
2260.56224121,0.01023231
2262.49104858,0.01016119
2264.41985596,0.01011710
2266.34866333,0.01011015
2268.27747070,0.01015057
2270.20627808,0.01023878
2272.13508545,0.01004556
2274.06389282,0.01011305
2275.99270020,0.01013060
2277.92150757,0.01000720
2279.85031494,0.01006470
2281.77912231,0.00996749
2283.70792969,0.00994067
2285.63673706,0.00994342
2287.56554443,0.01003003
2289.49435181,0.01005194
2291.42315918,0.00989907
2293.35196655,0.00984400
2295.28077393,0.00978630
2297.20958130,0.00985364
2299.13838867,0.00980001
2301.06719604,0.00967742
2302.99600342,0.00968165
2304.92481079,0.00954337
2306.85361816,0.00950709
2308.78242554,0.00952827
2310.71123291,0.00944034
2312.64004028,0.00939819
2314.56884766,0.00932575
2316.49765503,0.00917509
2318.42646240,0.00901611
2320.35526978,0.00888367
2322.28407715,0.00883689
2324.21288452,0.00874354
2326.14169189,0.00853295
2328.07049927,0.00841570
2329.99930664,0.00842313
2331.92811401,0.00847332
2333.85692139,0.00833011
2335.78572876,0.00827929
2337.71453613,0.00840010
2339.64334351,0.00821465
2341.57215088,0.00825018
2343.50095825,0.00835004
2345.42976562,0.00845455
2347.35857300,0.00889882
2349.28738037,0.00895388
2351.21618774,0.00880169
2353.14499512,0.00845069
2355.07380249,0.00806920
2357.00260986,0.00804336
2358.93141724,0.00785172
2360.86022461,0.00777458
2362.78903198,0.00766244
2364.71783936,0.00750791
2366.64664673,0.00768617
2368.57545410,0.00787537
2370.50426147,0.00812655
2372.43306885,0.00833180
2374.36187622,0.00848398
2376.29068359,0.00862695
2378.21949097,0.00876132
2380.14829834,0.00896002
2382.07710571,0.00903970
2384.00591309,0.00910109
2385.93472046,0.00908625
2387.86352783,0.00902739
2389.79233521,0.00902413
2391.72114258,0.00901205
2393.64994995,0.00907375
2395.57875732,0.00901604
2397.50756470,0.00890547
2399.43637207,0.00896735
2401.36517944,0.00897446
2403.29398682,0.00895513
2405.22279419,0.00896989
2407.15160156,0.00880052
2409.08040894,0.00884035
2411.00921631,0.00901990
2412.93802368,0.00883560
2414.86683105,0.00875490
2416.79563843,0.00881732
2418.72444580,0.00881111
2420.65325317,0.00879930
2422.58206055,0.00877051
2424.51086792,0.00885773
2426.43967529,0.00875026
2428.36848267,0.00861187
2430.29729004,0.00864834
2432.22609741,0.00861920
2434.15490479,0.00871194
2436.08371216,0.00869811
2438.01251953,0.00860696
2439.94132690,0.00864539
2441.87013428,0.00860422
2443.79894165,0.00859536
2445.72774902,0.00859626
2447.65655640,0.00859783
2449.58536377,0.00851803
2451.51417114,0.00845886
2453.44297852,0.00856116
2455.37178589,0.00845397
2457.30059326,0.00841711
2459.22940063,0.00854002
2461.15820801,0.00854330
2463.08701538,0.00853796
2465.01582275,0.00844727
2466.94463013,0.00837110
2468.87343750,0.00837719
2470.80224487,0.00837916
2472.73105225,0.00838078
2474.65985962,0.00835100
2476.58866699,0.00826822
2478.51747437,0.00826008
2480.44628174,0.00826161
2482.37508911,0.00820969
2484.30389648,0.00831387
2486.23270386,0.00822561
2488.16151123,0.00813105
2490.09031860,0.00821351
2492.01912598,0.00813870
2493.94793335,0.00818526
2495.87674072,0.00814253
2497.80554810,0.00809541
2499.73435547,0.00819728
2501.66316284,0.00813764
2503.59197021,0.00804887
2505.52077759,0.00802688
2507.44958496,0.00804275
2509.37839233,0.00798271
2511.30719971,0.00806461
2513.23600708,0.00810088
2515.16481445,0.00796131
2517.09362183,0.00798501
2519.02242920,0.00795108
2520.95123657,0.00790507
2522.88004395,0.00793861
2524.80885132,0.00798036
2526.73765869,0.00792983
2528.66646606,0.00787229
2530.59527344,0.00789282
2532.52408081,0.00786402
2534.45288818,0.00789051
2536.38169556,0.00782852
2538.31050293,0.00780894
2540.23931030,0.00785902
2542.16811768,0.00778724
2544.09692505,0.00771389
2546.02573242,0.00776924
2547.95453979,0.00787620
2549.88334717,0.00781451
2551.81215454,0.00770874
2553.74096191,0.00761883
2555.66976929,0.00768659
2557.59857666,0.00762963
2559.52738403,0.00757729
2561.45619141,0.00771666
2563.38499878,0.00751070
2565.31380615,0.00759947
2567.24261353,0.00771400
2569.17142090,0.00759889
2571.10022827,0.00767685
2573.02903564,0.00757813
2574.95784302,0.00755092
2576.88665039,0.00753209
2578.81545776,0.00754418
2580.74426514,0.00750100
2582.67307251,0.00739113
2584.60187988,0.00750190
2586.53068726,0.00748607
2588.45949463,0.00739603
2590.38830200,0.00735144
2592.31710937,0.00739858
2594.24591675,0.00742660
2596.17472412,0.00742778
2598.10353149,0.00733893
2600.03233887,0.00730125
2601.96114624,0.00740657
2603.88995361,0.00725841
2605.81876099,0.00731518
2607.74756836,0.00732778
2609.67637573,0.00728168
2611.60518311,0.00741499
2613.53399048,0.00730414
2615.46279785,0.00727592
2617.39160522,0.00723998
2619.32041260,0.00727579
2621.24921997,0.00724364
2623.17802734,0.00708363
2625.10683472,0.00717783
2627.03564209,0.00719013
2628.96444946,0.00715405
2630.89325684,0.00714573
2632.82206421,0.00707016
2634.75087158,0.00700333
2636.67967895,0.00706918
2638.60848633,0.00704061
2640.53729370,0.00703704
2642.46610107,0.00714117
2644.39490845,0.00702885
2646.32371582,0.00707092
2648.25252319,0.00700947
2650.18133057,0.00691873
2652.11013794,0.00698433
2654.03894531,0.00694669
2655.96775269,0.00702771
2657.89656006,0.00695645
2659.82536743,0.00692128
2661.75417480,0.00701350
2663.68298218,0.00694981
2665.61178955,0.00687000
2667.54059692,0.00691722
2669.46940430,0.00693689
2671.39821167,0.00680671
2673.32701904,0.00683148
2675.25582642,0.00687520
2677.18463379,0.00685460
2679.11344116,0.00679690
2681.04224854,0.00678151
2682.97105591,0.00675660
2684.89986328,0.00672844
2686.82867065,0.00687119
2688.75747803,0.00674158
2690.68628540,0.00672576
2692.61509277,0.00674747
2694.54390015,0.00656031
2696.47270752,0.00667066
2698.40151489,0.00668721
2700.33032227,0.00663530
2702.25912964,0.00664399
2704.18793701,0.00660585
2706.11674438,0.00659238
2708.04555176,0.00653735
2709.97435913,0.00650492
2711.90316650,0.00658480
2713.83197388,0.00661664
2715.76078125,0.00653071
2717.68958862,0.00657750
2719.61839600,0.00653404
2721.54720337,0.00652259
2723.47601074,0.00659249
2725.40481812,0.00653471
2727.33362549,0.00649505
2729.26243286,0.00646994
2731.19124023,0.00652318
2733.12004761,0.00639073
2735.04885498,0.00639565
2736.97766235,0.00645876
2738.90646973,0.00634327
2740.83527710,0.00647377
2742.76408447,0.00641833
2744.69289185,0.00630150
2746.62169922,0.00628267
2748.55050659,0.00635432
2750.47931396,0.00640462
2752.40812134,0.00628972
2754.33692871,0.00633957
2756.26573608,0.00629673
2758.19454346,0.00621495
2760.12335083,0.00615250
2762.05215820,0.00631086
2763.98096558,0.00636910
2765.90977295,0.00614674
2767.83858032,0.00622022
2769.76738770,0.00612742
2771.69619507,0.00616125
2773.62500244,0.00617703
2775.55380981,0.00603527
2777.48261719,0.00612834
2779.41142456,0.00603298
2781.34023193,0.00605690
2783.26903931,0.00601092
2785.19784668,0.00603632
2787.12665405,0.00614359
2789.05546143,0.00600426
2790.98426880,0.00602901
2792.91307617,0.00596405
2794.84188354,0.00603144
2796.77069092,0.00600757
2798.69949829,0.00584709
2800.62830566,0.00599100
2802.55711304,0.00593424
2804.48592041,0.00587148
2806.41472778,0.00589904
2808.34353516,0.00588109
2810.27234253,0.00584053
2812.20114990,0.00577353
2814.12995728,0.00579252
2816.05876465,0.00574419
2817.98757202,0.00582735
2819.91637939,0.00584242
2821.84518677,0.00573028
2823.77399414,0.00583004
2825.70280151,0.00575427
2827.63160889,0.00565287
2829.56041626,0.00569927
2831.48922363,0.00565731
2833.41803101,0.00571568
2835.34683838,0.00571511
2837.27564575,0.00562902
2839.20445312,0.00563328
2841.13326050,0.00563673
2843.06206787,0.00564624
2844.99087524,0.00558636
2846.91968262,0.00562740
2848.84848999,0.00568228
2850.77729736,0.00552327
2852.70610474,0.00550482
2854.63491211,0.00559155
2856.56371948,0.00551556
2858.49252686,0.00539866
2860.42133423,0.00539939
2862.35014160,0.00538325
2864.27894897,0.00538283
2866.20775635,0.00545323
2868.13656372,0.00535849
2870.06537109,0.00529679
2871.99417847,0.00534795
2873.92298584,0.00542432
2875.85179321,0.00541309
2877.78060059,0.00527939
2879.70940796,0.00530611
2881.63821533,0.00537475
2883.56702270,0.00539217
2885.49583008,0.00525650
2887.42463745,0.00523486
2889.35344482,0.00535282
2891.28225220,0.00516379
2893.21105957,0.00517265
2895.13986694,0.00519492
2897.06867432,0.00512362
2898.99748169,0.00524818
2900.92628906,0.00515964
2902.85509644,0.00514423
2904.78390381,0.00519615
2906.71271118,0.00510894
2908.64151855,0.00506476
2910.57032593,0.00506835
2912.49913330,0.00505006
2914.42794067,0.00505163
2916.35674805,0.00513091
2918.28555542,0.00506431
2920.21436279,0.00508519
2922.14317017,0.00507763
2924.07197754,0.00499074
2926.00078491,0.00505087
2927.92959229,0.00497662
2929.85839966,0.00499325
2931.78720703,0.00495612
2933.71601440,0.00495615
2935.64482178,0.00503249
2937.57362915,0.00494114
2939.50243652,0.00507154
2941.43124390,0.00497318
2943.36005127,0.00480736
2945.28885864,0.00496222
2947.21766602,0.00497483
2949.14647339,0.00490918
2951.07528076,0.00492293
2953.00408813,0.00496601
2954.93289551,0.00496503
2956.86170288,0.00494819
2958.79051025,0.00480199
2960.71931763,0.00475712
2962.64812500,0.00482211
2964.57693237,0.00479264
2966.50573975,0.00485453
2968.43454712,0.00471707
2970.36335449,0.00470866
2972.29216187,0.00483580
2974.22096924,0.00477083
2976.14977661,0.00483628
2978.07858398,0.00478934
2980.00739136,0.00470819
2981.93619873,0.00476041
2983.86500610,0.00478516
2985.79381348,0.00475498
2987.72262085,0.00469231
2989.65142822,0.00464156
2991.58023560,0.00470536
2993.50904297,0.00475691
2995.43785034,0.00457786
2997.36665771,0.00462472
2999.29546509,0.00467110
3001.22427246,0.00459571
3003.15307983,0.00470731
3005.08188721,0.00469084
3007.01069458,0.00471325
3008.93950195,0.00465332
3010.86830933,0.00456723
3012.79711670,0.00461716
3014.72592407,0.00464987
3016.65473145,0.00478093
3018.58353882,0.00466846
3020.51234619,0.00451887
3022.44115356,0.00451367
3024.36996094,0.00443036
3026.29876831,0.00453825
3028.22757568,0.00456726
3030.15638306,0.00439048
3032.08519043,0.00447125
3034.01399780,0.00446715
3035.94280518,0.00433694
3037.87161255,0.00439174
3039.80041992,0.00427653
3041.72922729,0.00441817
3043.65803467,0.00451250
3045.58684204,0.00425585
3047.51564941,0.00443127
3049.44445679,0.00446880
3051.37326416,0.00436655
3053.30207153,0.00432276
3055.23087891,0.00423794
3057.15968628,0.00436446
3059.08849365,0.00428564
3061.01730103,0.00428224
3062.94610840,0.00429370
3064.87491577,0.00425683
3066.80372314,0.00435134
3068.73253052,0.00425630
3070.66133789,0.00427895
3072.59014526,0.00423682
3074.51895264,0.00421675
3076.44776001,0.00431083
3078.37656738,0.00422965
3080.30537476,0.00426698
3082.23418213,0.00419500
3084.16298950,0.00418424
3086.09179687,0.00426075
3088.02060425,0.00418289
3089.94941162,0.00426758
3091.87821899,0.00417401
3093.80702637,0.00408261
3095.73583374,0.00422203
3097.66464111,0.00414530
3099.59344849,0.00403322
3101.52225586,0.00404847
3103.45106323,0.00409774
3105.37987061,0.00407045
3107.30867798,0.00403171
3109.23748535,0.00406794
3111.16629272,0.00406381
3113.09510010,0.00403541
3115.02390747,0.00399491
3116.95271484,0.00403244
3118.88152222,0.00404071
3120.81032959,0.00400216
3122.73913696,0.00396718
3124.66794434,0.00387476
3126.59675171,0.00384320
3128.52555908,0.00378700
3130.45436645,0.00387496
3132.38317383,0.00393787
3134.31198120,0.00385776
3136.24078857,0.00393423
3138.16959595,0.00383172
3140.09840332,0.00375372
3142.02721069,0.00388780
3143.95601807,0.00385717
3145.88482544,0.00377731
3147.81363281,0.00385804
3149.74244019,0.00386634
3151.67124756,0.00378661
3153.60005493,0.00387437
3155.52886230,0.00379595
3157.45766968,0.00370002
3159.38647705,0.00371975
3161.31528442,0.00368857
3163.24409180,0.00376746
3165.17289917,0.00370130
3167.10170654,0.00368459
3169.03051392,0.00370166
3170.95932129,0.00363985
3172.88812866,0.00371511
3174.81693604,0.00369827
3176.74574341,0.00365427
3178.67455078,0.00356294
3180.60335815,0.00352101
3182.53216553,0.00358776
3184.46097290,0.00355022
3186.38978027,0.00353672
3188.31858765,0.00355752
3190.24739502,0.00352906
3192.17620239,0.00344200
3194.10500977,0.00345700
3196.03381714,0.00350320
3197.96262451,0.00347242
3199.89143188,0.00355880
3201.82023926,0.00356184
3203.74904663,0.00337106
3205.67785400,0.00335152
3207.60666138,0.00345456
3209.53546875,0.00339930
3211.46427612,0.00340668
3213.39308350,0.00344522
3215.32189087,0.00341244
3217.25069824,0.00342038
3219.17950562,0.00341116
3221.10831299,0.00343521
3223.03712036,0.00338509
3224.96592773,0.00340027
3226.89473511,0.00342173
3228.82354248,0.00327762
3230.75234985,0.00333563
3232.68115723,0.00337877
3234.60996460,0.00329374
3236.53877197,0.00331231
3238.46757935,0.00335037
3240.39638672,0.00338002
3242.32519409,0.00333110
3244.25400146,0.00329501
3246.18280884,0.00332385
3248.11161621,0.00329362
3250.04042358,0.00329270
3251.96923096,0.00329927
3253.89803833,0.00325739
3255.82684570,0.00325207
3257.75565308,0.00323365
3259.68446045,0.00326486
3261.61326782,0.00330229
3263.54207520,0.00321863
3265.47088257,0.00322181
3267.39968994,0.00331839
3269.32849731,0.00331560
3271.25730469,0.00324566
3273.18611206,0.00323571
3275.11491943,0.00321907
3277.04372681,0.00321164
3278.97253418,0.00321813
3280.90134155,0.00317297
3282.83014893,0.00327213
3284.75895630,0.00324955
3286.68776367,0.00310449
3288.61657104,0.00318213
3290.54537842,0.00317483
3292.47418579,0.00307342
3294.40299316,0.00307374
3296.33180054,0.00312655
3298.26060791,0.00316828
3300.18941528,0.00315356
3302.11822266,0.00312454
3304.04703003,0.00310647
3305.97583740,0.00307945
3307.90464478,0.00306664
3309.83345215,0.00314081
3311.76225952,0.00321008
3313.69106689,0.00318474
3315.61987427,0.00307194
3317.54868164,0.00306695
3319.47748901,0.00316799
3321.40629639,0.00312339
3323.33510376,0.00309394
3325.26391113,0.00308681
3327.19271851,0.00308214
3329.12152588,0.00309779
3331.05033325,0.00305461
3332.97914062,0.00310349
3334.90794800,0.00311592
3336.83675537,0.00301837
3338.76556274,0.00300837
3340.69437012,0.00309448
3342.62317749,0.00304430
3344.55198486,0.00298203
3346.48079224,0.00309833
3348.40959961,0.00306863
3350.33840698,0.00299472
3352.26721436,0.00303724
3354.19602173,0.00305613
3356.12482910,0.00301728
3358.05363647,0.00297706
3359.98244385,0.00302301
3361.91125122,0.00294580
3363.84005859,0.00294609
3365.76886597,0.00305132
3367.69767334,0.00295971
3369.62648071,0.00300127
3371.55528809,0.00298081
3373.48409546,0.00291468
3375.41290283,0.00305274
3377.34171020,0.00296080
3379.27051758,0.00291205
3381.19932495,0.00291583
3383.12813232,0.00285801
3385.05693970,0.00299550
3386.98574707,0.00291889
3388.91455444,0.00278044
3390.84336182,0.00277500
3392.77216919,0.00282112
3394.70097656,0.00292625
3396.62978394,0.00286335
3398.55859131,0.00286682
3400.48739868,0.00289696
3402.41620605,0.00283314
3404.34501343,0.00282239
3406.27382080,0.00280157
3408.20262817,0.00283709
3410.13143555,0.00290630
3412.06024292,0.00283077
3413.98905029,0.00276099
3415.91785767,0.00289627
3417.84666504,0.00285976
3419.77547241,0.00277423
3421.70427979,0.00281107
3423.63308716,0.00278662
3425.56189453,0.00280162
3427.49070190,0.00265369
3429.41950928,0.00274664
3431.34831665,0.00285521
3433.27712402,0.00267749
3435.20593140,0.00278195
3437.13473877,0.00269587
3439.06354614,0.00264814
3440.99235352,0.00273261
3442.92116089,0.00265933
3444.84996826,0.00274571
3446.77877563,0.00262357
3448.70758301,0.00264609
3450.63639038,0.00275887
3452.56519775,0.00258360
3454.49400513,0.00267786
3456.42281250,0.00273930
3458.35161987,0.00264811
3460.28042725,0.00266138
3462.20923462,0.00267007
3464.13804199,0.00269759
3466.06684937,0.00262202
3467.99565674,0.00262099
3469.92446411,0.00270701
3471.85327148,0.00265535
3473.78207886,0.00260839
3475.71088623,0.00262358
3477.63969360,0.00274240
3479.56850098,0.00263482
3481.49730835,0.00244227
3483.42611572,0.00260221
3485.35492310,0.00258870
3487.28373047,0.00250210
3489.21253784,0.00260274
3491.14134521,0.00258718
3493.07015259,0.00255052
3494.99895996,0.00264574
3496.92776733,0.00267759
3498.85657471,0.00255667
3500.78538208,0.00256449
3502.71418945,0.00248250
3504.64299683,0.00246962
3506.57180420,0.00266185
3508.50061157,0.00259021
3510.42941895,0.00257275
3512.35822632,0.00257751
3514.28703369,0.00253880
3516.21584106,0.00257518
3518.14464844,0.00255365
3520.07345581,0.00257064
3522.00226318,0.00247331
3523.93107056,0.00244501
3525.85987793,0.00249535
3527.78868530,0.00251631
3529.71749268,0.00256208
3531.64630005,0.00252974
3533.57510742,0.00261494
3535.50391479,0.00258181
3537.43272217,0.00253307
3539.36152954,0.00267742
3541.29033691,0.00257850
3543.21914429,0.00251740
3545.14795166,0.00252867
3547.07675903,0.00241884
3549.00556641,0.00255594
3550.93437378,0.00254642
3552.86318115,0.00237585
3554.79198853,0.00251133
3556.72079590,0.00260506
3558.64960327,0.00259958
3560.57841064,0.00248622
3562.50721802,0.00240660
3564.43602539,0.00247075
3566.36483276,0.00228353
3568.29364014,0.00220639
3570.22244751,0.00241213
3572.15125488,0.00253038
3574.08006226,0.00249090
3576.00886963,0.00244714
3577.93767700,0.00249395
3579.86648437,0.00250426
3581.79529175,0.00249602
3583.72409912,0.00245936
3585.65290649,0.00239098
3587.58171387,0.00224381
3589.51052124,0.00229871
3591.43932861,0.00252336
3593.36813599,0.00237333
3595.29694336,0.00237367
3597.22575073,0.00248228
3599.15455811,0.00236053
3601.08336548,0.00243552
3603.01217285,0.00248539
3604.94098022,0.00253369
3606.86978760,0.00241684
3608.79859497,0.00217440
3610.72740234,0.00235170
3612.65620972,0.00229382
3614.58501709,0.00227284
3616.51382446,0.00246076
3618.44263184,0.00215633
3620.37143921,0.00218840
3622.30024658,0.00232054
3624.22905395,0.00238233
3626.15786133,0.00252442
3628.08666870,0.00196577
3630.01547607,0.00195767
3631.94428345,0.00243254
3633.87309082,0.00243289
3635.80189819,0.00247718
3637.73070557,0.00241650
3639.65951294,0.00244477
3641.58832031,0.00244117
3643.51712769,0.00244588
3645.44593506,0.00243582
3647.37474243,0.00211397
3649.30354980,0.00191686
3651.23235718,0.00199861
3653.16116455,0.00240590
3655.08997192,0.00222192
3657.01877930,0.00200203
3658.94758667,0.00238937
3660.87639404,0.00239164
3662.80520142,0.00250415
3664.73400879,0.00239966
3666.66281616,0.00231711
3668.59162354,0.00221081
3670.52043091,0.00185901
3672.44923828,0.00236021
3674.37804565,0.00209018
3676.30685303,0.00169479
3678.23566040,0.00218571
3680.16446777,0.00215428
3682.09327515,0.00235422
3684.02208252,0.00246233
3685.95088989,0.00220768
3687.87969727,0.00205191
3689.80850464,0.00196915
3691.73731201,0.00213360
3693.66611938,0.00223716
3695.59492676,0.00234838
3697.52373413,0.00226927
3699.45254150,0.00228388
3701.38134888,0.00215061
3703.31015625,0.00201551
3705.23896362,0.00237271
3707.16777100,0.00220561
3709.09657837,0.00212895
3711.02538574,0.00201441
3712.95419312,0.00193833
3714.88300049,0.00227297
3716.81180786,0.00212586
3718.74061523,0.00227131
3720.66942261,0.00217008
3722.59822998,0.00210832
3724.52703735,0.00231753
3726.45584473,0.00199193
3728.38465210,0.00220769
3730.31345947,0.00217912
3732.24226685,0.00191395
3734.17107422,0.00190509
3736.09988159,0.00170625
3738.02868896,0.00185768
3739.95749634,0.00213306
3741.88630371,0.00215343
3743.81511108,0.00163714
3745.74391846,0.00159961
3747.67272583,0.00206288
3749.60153320,0.00173463
3751.53034058,0.00155007
3753.45914795,0.00184916
3755.38795532,0.00208574
3757.31676270,0.00208925
3759.24557007,0.00190795
3761.17437744,0.00205517
3763.10318481,0.00220219
3765.03199219,0.00199848
3766.96079956,0.00207456
3768.88960693,0.00210004
3770.81841431,0.00186435
3772.74722168,0.00210993
3774.67602905,0.00220565
3776.60483643,0.00203839
3778.53364380,0.00200510
3780.46245117,0.00199624
3782.39125854,0.00209618
3784.32006592,0.00204315
3786.24887329,0.00205250
3788.17768066,0.00209886
3790.10648804,0.00208863
3792.03529541,0.00214950
3793.96410278,0.00218561
3795.89291016,0.00198787
3797.82171753,0.00194829
3799.75052490,0.00204657
3801.67933228,0.00156617
3803.60813965,0.00183251
3805.53694702,0.00205116
3807.46575439,0.00165002
3809.39456177,0.00199762
3811.32336914,0.00202610
3813.25217651,0.00205257
3815.18098389,0.00177214
3817.10979126,0.00155892
3819.03859863,0.00193012
3820.96740601,0.00153480
3822.89621338,0.00176384
3824.82502075,0.00200279
3826.75382812,0.00179383
3828.68263550,0.00205492
3830.61144287,0.00191660
3832.54025024,0.00179530
3834.46905762,0.00182881
3836.39786499,0.00178025
3838.32667236,0.00166683
3840.25547974,0.00181776
3842.18428711,0.00200179
3844.11309448,0.00182415
3846.04190186,0.00192952
3847.97070923,0.00193721
3849.89951660,0.00188021
3851.82832397,0.00171298
3853.75713135,0.00130133
3855.68593872,0.00155683
3857.61474609,0.00195061
3859.54355347,0.00183095
3861.47236084,0.00179789
3863.40116821,0.00169153
3865.32997559,0.00156370
3867.25878296,0.00186200
3869.18759033,0.00166130
3871.11639770,0.00150450
3873.04520508,0.00183368
3874.97401245,0.00171127
3876.90281982,0.00189211
3878.83162720,0.00192421
3880.76043457,0.00164009
3882.68924194,0.00186982
3884.61804932,0.00172101
3886.54685669,0.00157312
3888.47566406,0.00186319
3890.40447144,0.00177724
3892.33327881,0.00165260
3894.26208618,0.00180794
3896.19089355,0.00183828
3898.11970093,0.00173798
3900.04850830,0.00167583
3901.97731567,0.00165145
3903.90612305,0.00158617
3905.83493042,0.00162875
3907.76373779,0.00178459
3909.69254517,0.00180212
3911.62135254,0.00178812
3913.55015991,0.00175996
3915.47896728,0.00171825
3917.40777466,0.00163066
3919.33658203,0.00167317
3921.26538940,0.00183220
3923.19419678,0.00172819
3925.12300415,0.00171402
3927.05181152,0.00173127
3928.98061890,0.00171652
3930.90942627,0.00172516
3932.83823364,0.00169851
3934.76704102,0.00178238
3936.69584839,0.00164677
3938.62465576,0.00166187
3940.55346313,0.00165941
3942.48227051,0.00145204
3944.41107788,0.00164570
3946.33988525,0.00172870
3948.26869263,0.00161263
3950.19750000,0.00165104
3952.12630737,0.00169055
3954.05511475,0.00165451
3955.98392212,0.00165289
3957.91272949,0.00167547
3959.84153687,0.00167673
3961.77034424,0.00169895
3963.69915161,0.00163914
3965.62795898,0.00165420
3967.55676636,0.00169222
3969.48557373,0.00171561
3971.41438110,0.00169229
3973.34318848,0.00163243
3975.27199585,0.00174212
3977.20080322,0.00166708
3979.12961060,0.00155689
3981.05841797,0.00160100
3982.98722534,0.00159916
3984.91603271,0.00161698
3986.84484009,0.00164294
3988.77364746,0.00164274
3990.70245483,0.00158131
3992.63126221,0.00157303
3994.56006958,0.00155923
3996.48887695,0.00157427
3998.41768433,0.00161953
4000.34649170,0.00155355
4002.27529907,0.00158380
4004.20410645,0.00165673
4006.13291382,0.00161889
4008.06172119,0.00152886
4009.99052856,0.00155442
4011.91933594,0.00157918
4013.84814331,0.00150533
4015.77695068,0.00152663
4017.70575806,0.00153530
4019.63456543,0.00148113
4021.56337280,0.00147040
4023.49218018,0.00153620
4025.42098755,0.00155551
4027.34979492,0.00156512
4029.27860229,0.00156920
4031.20740967,0.00148523
4033.13621704,0.00148163
4035.06502441,0.00149668
4036.99383179,0.00154113
4038.92263916,0.00152981
4040.85144653,0.00145785
4042.78025391,0.00150500
4044.70906128,0.00148124
4046.63786865,0.00144004
4048.56667603,0.00153143
4050.49548340,0.00156487
4052.42429077,0.00150894
4054.35309814,0.00154792
4056.28190552,0.00150863
4058.21071289,0.00149539
4060.13952026,0.00154607
4062.06832764,0.00148874
4063.99713501,0.00156011
4065.92594238,0.00148030
4067.85474976,0.00141810
4069.78355713,0.00150020
4071.71236450,0.00147103
4073.64117187,0.00145475
4075.56997925,0.00139142
4077.49878662,0.00149734
4079.42759399,0.00147102
4081.35640137,0.00138380
4083.28520874,0.00144644
4085.21401611,0.00140300
4087.14282349,0.00146078
4089.07163086,0.00139111
4091.00043823,0.00144732
4092.92924561,0.00154236
4094.85805298,0.00144431
4096.78686035,0.00141667
4098.71566772,0.00133936
4100.64447510,0.00143021
4102.57328247,0.00140421
4104.50208984,0.00136144
4106.43089722,0.00141072
4108.35970459,0.00133680
4110.28851196,0.00140775
4112.21731934,0.00139326
4114.14612671,0.00138439
4116.07493408,0.00138468
4118.00374145,0.00138872
4119.93254883,0.00140870
4121.86135620,0.00136257
4123.79016357,0.00142497
4125.71897095,0.00133742
4127.64777832,0.00128778
4129.57658569,0.00132282
4131.50539307,0.00135279
4133.43420044,0.00137704
4135.36300781,0.00130687
4137.29181519,0.00137655
4139.22062256,0.00138010
4141.14942993,0.00134236
4143.07823730,0.00130025
4145.00704468,0.00127019
4146.93585205,0.00137947
4148.86465942,0.00136494
4150.79346680,0.00125670
4152.72227417,0.00128726
4154.65108154,0.00139069
4156.57988892,0.00124847
4158.50869629,0.00124928
4160.43750366,0.00137286
4162.36631103,0.00124901
4164.29511841,0.00125528
4166.22392578,0.00126691
4168.15273315,0.00129407
4170.08154053,0.00133091
4172.01034790,0.00130639
4173.93915527,0.00126063
4175.86796265,0.00119467
4177.79677002,0.00125077
4179.72557739,0.00118408
4181.65438477,0.00124583
4183.58319214,0.00129814
4185.51199951,0.00120936
4187.44080688,0.00126493
4189.36961426,0.00125583
4191.29842163,0.00124156
4193.22722900,0.00114719
4195.15603638,0.00130485
4197.08484375,0.00138380
4199.01365112,0.00111860
4200.94245850,0.00124207
4202.87126587,0.00123991
4204.80007324,0.00112890
4206.72888062,0.00122832
4208.65768799,0.00125658
4210.58649536,0.00125874
4212.51530273,0.00122168
4214.44411011,0.00125225
4216.37291748,0.00123708
4218.30172485,0.00122073
4220.23053223,0.00118638
4222.15933960,0.00111898
4224.08814697,0.00120997
4226.01695435,0.00119125
4227.94576172,0.00114458
4229.87456909,0.00119683
4231.80337646,0.00114509
4233.73218384,0.00111546
4235.66099121,0.00118772
4237.58979858,0.00116360
4239.51860596,0.00111965
4241.44741333,0.00112731
4243.37622070,0.00114917
4245.30502808,0.00119968
4247.23383545,0.00113243
4249.16264282,0.00111351
4251.09145020,0.00110349
4253.02025757,0.00107679
4254.94906494,0.00111004
4256.87787231,0.00101594
4258.80667969,0.00106439
4260.73548706,0.00114256
4262.66429443,0.00112242
4264.59310181,0.00111945
4266.52190918,0.00106299
4268.45071655,0.00109639
4270.37952393,0.00109462
4272.30833130,0.00106279
4274.23713867,0.00109656
4276.16594604,0.00117115
4278.09475342,0.00116997
4280.02356079,0.00108578
4281.95236816,0.00112344
4283.88117554,0.00109058
4285.80998291,0.00106033
4287.73879028,0.00105140
4289.66759766,0.00102129
4291.59640503,0.00113755
4293.52521240,0.00112816
4295.45401978,0.00107543
4297.38282715,0.00110918
4299.31163452,0.00108256
4301.24044189,0.00103903
4303.16924927,0.00102725
4305.09805664,0.00106771
4307.02686401,0.00103170
4308.95567139,0.00102659
4310.88447876,0.00113545
4312.81328613,0.00107549
4314.74209351,0.00103608
4316.67090088,0.00115462
4318.59970825,0.00107989
4320.52851562,0.00097616
4322.45732300,0.00101568
4324.38613037,0.00105831
4326.31493774,0.00106479
4328.24374512,0.00095048
4330.17255249,0.00100723
4332.10135986,0.00112750
4334.03016724,0.00103141
4335.95897461,0.00104120
4337.88778198,0.00104810
4339.81658936,0.00103212
4341.74539673,0.00103728
4343.67420410,0.00098595
4345.60301147,0.00100336
4347.53181885,0.00096513
4349.46062622,0.00101214
4351.38943359,0.00103229
4353.31824097,0.00094495
4355.24704834,0.00103086
4357.17585571,0.00103096
4359.10466309,0.00095142
4361.03347046,0.00094868
4362.96227783,0.00099876
4364.89108520,0.00105327
4366.81989258,0.00101044
4368.74869995,0.00095850
4370.67750732,0.00092850
4372.60631470,0.00098486
4374.53512207,0.00098846
4376.46392944,0.00093511
4378.39273682,0.00096118
4380.32154419,0.00093828
4382.25035156,0.00097027
4384.17915894,0.00095899
4386.10796631,0.00091249
4388.03677368,0.00100396
4389.96558105,0.00100909
4391.89438843,0.00091205
4393.82319580,0.00093255
4395.75200317,0.00095837
4397.68081055,0.00083603
4399.60961792,0.00088643
4401.53842529,0.00100636
4403.46723267,0.00098052
4405.39604004,0.00100277
4407.32484741,0.00096578
4409.25365478,0.00095295
4411.18246216,0.00095029
4413.11126953,0.00089891
4415.04007690,0.00089915
4416.96888428,0.00085307
4418.89769165,0.00090108
4420.82649902,0.00094769
4422.75530640,0.00087577
4424.68411377,0.00087833
4426.61292114,0.00089266
4428.54172852,0.00086414
4430.47053589,0.00086458
4432.39934326,0.00084360
4434.32815063,0.00082025
4436.25695801,0.00088846
4438.18576538,0.00089676
4440.11457275,0.00085065
4442.04338013,0.00090260
4443.97218750,0.00085815
4445.90099487,0.00076955
4447.82980225,0.00086733
4449.75860962,0.00090782
4451.68741699,0.00084252
4453.61622437,0.00088464
4455.54503174,0.00095648
4457.47383911,0.00091894
4459.40264648,0.00083952
4461.33145386,0.00092720
4463.26026123,0.00091709
4465.18906860,0.00079583
4467.11787598,0.00087365
4469.04668335,0.00086481
4470.97549072,0.00083838
4472.90429810,0.00081992
4474.83310547,0.00079876
4476.76191284,0.00090704
4478.69072021,0.00087621
4480.61952759,0.00089529
4482.54833496,0.00092910
4484.47714233,0.00083283
4486.40594971,0.00080505
4488.33475708,0.00081193
4490.26356445,0.00087430
4492.19237183,0.00084980
4494.12117920,0.00074439
4496.04998657,0.00076925
4497.97879395,0.00084990
4499.90760132,0.00083464
4501.83640869,0.00076613
4503.76521606,0.00078753
4505.69402344,0.00085032
4507.62283081,0.00079624
4509.55163818,0.00074130
4511.48044556,0.00085838
4513.40925293,0.00084997
4515.33806030,0.00074778
4517.26686768,0.00081659
4519.19567505,0.00088271
4521.12448242,0.00085741
4523.05328979,0.00082800
4524.98209717,0.00083568
4526.91090454,0.00077327
4528.83971191,0.00078434
4530.76851929,0.00086323
4532.69732666,0.00082825
4534.62613403,0.00077139
4536.55494141,0.00072378
4538.48374878,0.00080364
4540.41255615,0.00084504
4542.34136353,0.00081053
4544.27017090,0.00078842
4546.19897827,0.00074072
4548.12778564,0.00077439
4550.05659302,0.00073777
4551.98540039,0.00076376
4553.91420776,0.00078908
4555.84301514,0.00071653
4557.77182251,0.00071921
4559.70062988,0.00071177
4561.62943726,0.00078192
4563.55824463,0.00072852
4565.48705200,0.00067561
4567.41585937,0.00076432
4569.34466675,0.00070146
4571.27347412,0.00073173
4573.20228149,0.00072478
4575.13108887,0.00067120
4577.05989624,0.00076938
4578.98870361,0.00071695
4580.91751099,0.00069415
4582.84631836,0.00072915
4584.77512573,0.00074367
4586.70393311,0.00079888
4588.63274048,0.00074097
4590.56154785,0.00073489
4592.49035522,0.00064357
4594.41916260,0.00065729
4596.34796997,0.00079858
4598.27677734,0.00066090
4600.20558472,0.00072218
4602.13439209,0.00071886
4604.06319946,0.00064715
4605.99200684,0.00074236
4607.92081421,0.00061975
4609.84962158,0.00071537
4611.77842895,0.00075383
4613.70723633,0.00065164
4615.63604370,0.00070897
4617.56485107,0.00066232
4619.49365845,0.00067510
4621.42246582,0.00067655
4623.35127319,0.00067925
4625.28008057,0.00065590
4627.20888794,0.00062871
4629.13769531,0.00070640
4631.06650269,0.00070163
4632.99531006,0.00071050
4634.92411743,0.00069173
4636.85292480,0.00063159
4638.78173218,0.00066058
4640.71053955,0.00071550
4642.63934692,0.00065352
4644.56815430,0.00063729
4646.49696167,0.00066381
4648.42576904,0.00060279
4650.35457642,0.00066062
4652.28338379,0.00062237
4654.21219116,0.00062685
4656.14099853,0.00072736
4658.06980591,0.00065320
4659.99861328,0.00064368
4661.92742065,0.00060861
4663.85622803,0.00054766
4665.78503540,0.00058081
4667.71384277,0.00064336
4669.64265015,0.00068238
4671.57145752,0.00066415
4673.50026489,0.00064637
4675.42907227,0.00064757
4677.35787964,0.00062210
4679.28668701,0.00057939
4681.21549438,0.00068466
4683.14430176,0.00068584
4685.07310913,0.00058369
4687.00191650,0.00062493
4688.93072388,0.00063279
4690.85953125,0.00064001
4692.78833862,0.00059932
4694.71714600,0.00058718
4696.64595337,0.00065024
4698.57476074,0.00064269
4700.50356812,0.00062115
4702.43237549,0.00061771
4704.36118286,0.00063110
4706.28999023,0.00058013
4708.21879761,0.00057341
4710.14760498,0.00060318
4712.07641235,0.00058795
4714.00521973,0.00059236
4715.93402710,0.00060824
4717.86283447,0.00060965
4719.79164185,0.00056710
4721.72044922,0.00060474
4723.64925659,0.00054684
4725.57806396,0.00046750
4727.50687134,0.00055209
4729.43567871,0.00056935
4731.36448608,0.00059543
4733.29329346,0.00059796
4735.22210083,0.00059791
4737.15090820,0.00058854
4739.07971558,0.00055152
4741.00852295,0.00061702
4742.93733032,0.00061662
4744.86613770,0.00060674
4746.79494507,0.00056304
4748.72375244,0.00052892
4750.65255981,0.00058582
4752.58136719,0.00050343
4754.51017456,0.00051523
4756.43898193,0.00064682
4758.36778931,0.00060370
4760.29659668,0.00055059
4762.22540405,0.00055335
4764.15421143,0.00055328
4766.08301880,0.00059002
4768.01182617,0.00053019
4769.94063354,0.00053181
4771.86944092,0.00066458
4773.79824829,0.00058544
4775.72705566,0.00055501
4777.65586304,0.00059691
4779.58467041,0.00050577
4781.51347778,0.00062116
4783.44228516,0.00062640
4785.37109253,0.00050971
4787.29989990,0.00055993
4789.22870728,0.00052813
4791.15751465,0.00057282
4793.08632202,0.00052903
4795.01512939,0.00043549
4796.94393677,0.00049905
4798.87274414,0.00053617
4800.80155151,0.00059132
4802.73035889,0.00051010
4804.65916626,0.00053654
4806.58797363,0.00054043
4808.51678101,0.00045743
4810.44558838,0.00056462
4812.37439575,0.00047249
4814.30320312,0.00051884
4816.23201050,0.00058607
4818.16081787,0.00052061
4820.08962524,0.00058747
4822.01843262,0.00054615
4823.94723999,0.00056119
4825.87604736,0.00046791
4827.80485474,0.00046702
4829.73366211,0.00056351
4831.66246948,0.00051326
4833.59127686,0.00056504
4835.52008423,0.00046910
4837.44889160,0.00046939
4839.37769897,0.00052979
4841.30650635,0.00048322
4843.23531372,0.00053274
4845.16412109,0.00051326
4847.09292847,0.00051632
4849.02173584,0.00054366
4850.95054321,0.00055151
4852.87935059,0.00049083
4854.80815796,0.00050113
4856.73696533,0.00056622
4858.66577270,0.00048756
4860.59458008,0.00050427
4862.52338745,0.00050406
4864.45219482,0.00051099
4866.38100220,0.00054554
4868.30980957,0.00047816
4870.23861694,0.00049248
4872.16742432,0.00048216
4874.09623169,0.00046597
4876.02503906,0.00050567
4877.95384644,0.00051994
4879.88265381,0.00053549
4881.81146118,0.00048567
4883.74026855,0.00044727
4885.66907593,0.00044394
4887.59788330,0.00040196
4889.52669067,0.00045064
4891.45549805,0.00048104
4893.38430542,0.00044340
4895.31311279,0.00046366
4897.24192017,0.00043402
4899.17072754,0.00043971
4901.09953491,0.00046833
4903.02834228,0.00043278
4904.95714966,0.00041028
4906.88595703,0.00045194
4908.81476440,0.00052809
4910.74357178,0.00043372
4912.67237915,0.00041984
4914.60118652,0.00051819
4916.52999390,0.00046430
4918.45880127,0.00045562
4920.38760864,0.00041759
4922.31641602,0.00038414
4924.24522339,0.00041024
4926.17403076,0.00039042
4928.10283813,0.00047710
4930.03164551,0.00050938
4931.96045288,0.00046567
4933.88926025,0.00050955
4935.81806763,0.00046726
4937.74687500,0.00040891
4939.67568237,0.00042011
4941.60448975,0.00039953
4943.53329712,0.00042125
4945.46210449,0.00040964
4947.39091187,0.00036982
4949.31971924,0.00038142
4951.24852661,0.00038013
4953.17733398,0.00040654
4955.10614136,0.00035720
4957.03494873,0.00033385
4958.96375610,0.00045241
4960.89256348,0.00045573
4962.82137085,0.00042930
4964.75017822,0.00044694
4966.67898560,0.00037550
4968.60779297,0.00036638
4970.53660034,0.00038583
4972.46540771,0.00038138
4974.39421509,0.00043481
4976.32302246,0.00041254
4978.25182983,0.00042763
4980.18063721,0.00044206
4982.10944458,0.00039041
4984.03825195,0.00042247
4985.96705933,0.00040224
4987.89586670,0.00045213
4989.82467407,0.00051511
4991.75348145,0.00044747
4993.68228882,0.00041389
4995.61109619,0.00041956
4997.53990356,0.00042920
4999.46871094,0.00039651
5001.39751831,0.00043520
5003.32632568,0.00042465
5005.25513306,0.00039575
5007.18394043,0.00048845
5009.11274780,0.00041465
5011.04155518,0.00036734
5012.97036255,0.00043247
5014.89916992,0.00039090
5016.82797729,0.00037528
5018.75678467,0.00043409
5020.68559204,0.00045756
5022.61439941,0.00045946
5024.54320679,0.00039194
5026.47201416,0.00033958
5028.40082153,0.00041960
5030.32962891,0.00038093
5032.25843628,0.00043464
5034.18724365,0.00048728
5036.11605103,0.00036340
5038.04485840,0.00041389
5039.97366577,0.00038793
5041.90247314,0.00036459
5043.83128052,0.00036015
5045.76008789,0.00030823
5047.68889526,0.00037100
5049.61770264,0.00036578
5051.54651001,0.00038930
5053.47531738,0.00036060
5055.40412476,0.00033227
5057.33293213,0.00033957
5059.26173950,0.00032172
5061.19054687,0.00035661
5063.11935425,0.00037373
5065.04816162,0.00040437
5066.97696899,0.00031432
5068.90577637,0.00035401
5070.83458374,0.00039998
5072.76339111,0.00032865
5074.69219849,0.00041718
5076.62100586,0.00036557
5078.54981323,0.00036509
5080.47862061,0.00040614
5082.40742798,0.00037595
5084.33623535,0.00035360
5086.26504272,0.00031991
5088.19385010,0.00040628
5090.12265747,0.00037958
5092.05146484,0.00039682
5093.98027222,0.00036197
5095.90907959,0.00028597
5097.83788696,0.00036821
5099.76669434,0.00032294
5101.69550171,0.00035891
5103.62430908,0.00033997
5105.55311645,0.00030422
5107.48192383,0.00033672
5109.41073120,0.00024832
5111.33953857,0.00030533
5113.26834595,0.00034713
5115.19715332,0.00035505
5117.12596069,0.00036493
5119.05476807,0.00036199
5120.98357544,0.00041382
5122.91238281,0.00033715
5124.84119019,0.00028514
5126.76999756,0.00033229
5128.69880493,0.00043062
5130.62761230,0.00042097
5132.55641968,0.00031671
5134.48522705,0.00034147
5136.41403442,0.00031394
5138.34284180,0.00029498
5140.27164917,0.00036565
5142.20045654,0.00036706
5144.12926392,0.00031165
5146.05807129,0.00032638
5147.98687866,0.00036681
5149.91568603,0.00031361
5151.84449341,0.00028663
5153.77330078,0.00028856
5155.70210815,0.00032561
5157.63091553,0.00032195
5159.55972290,0.00026876
5161.48853027,0.00033014
5163.41733765,0.00034788
5165.34614502,0.00029660
5167.27495239,0.00024925
5169.20375977,0.00027927
5171.13256714,0.00031771
5173.06137451,0.00028013
5174.99018188,0.00032956
5176.91898926,0.00034443
5178.84779663,0.00032769
5180.77660400,0.00030956
5182.70541138,0.00029726
5184.63421875,0.00030383
5186.56302612,0.00027663
5188.49183350,0.00036158
5190.42064087,0.00034552
5192.34944824,0.00031881
5194.27825562,0.00034028
5196.20706299,0.00022121
5198.13587036,0.00022415
5200.06467773,0.00025621
5201.99348511,0.00027999
5203.92229248,0.00028708
5205.85109985,0.00026948
5207.77990723,0.00033700
5209.70871460,0.00030021
5211.63752197,0.00029448
5213.56632935,0.00031282
5215.49513672,0.00029134
5217.42394409,0.00030675
5219.35275146,0.00025271
5221.28155884,0.00032362
5223.21036621,0.00037574
5225.13917358,0.00025056
5227.06798096,0.00027834
5228.99678833,0.00034477
5230.92559570,0.00031951
5232.85440308,0.00028793
5234.78321045,0.00025364
5236.71201782,0.00030957
5238.64082520,0.00029617
5240.56963257,0.00025610
5242.49843994,0.00032688
5244.42724731,0.00028847
5246.35605469,0.00027058
5248.28486206,0.00031750
5250.21366943,0.00028382
5252.14247681,0.00025187
5254.07128418,0.00023699
5256.00009155,0.00024826
5257.92889893,0.00025075
5259.85770630,0.00024121
5261.78651367,0.00022599
5263.71532104,0.00023690
5265.64412842,0.00027986
5267.57293579,0.00022657
5269.50174316,0.00021630
5271.43055054,0.00030109
5273.35935791,0.00030670
5275.28816528,0.00024486
5277.21697266,0.00021458
5279.14578003,0.00024325
5281.07458740,0.00023185
5283.00339478,0.00021831
5284.93220215,0.00024139
5286.86100952,0.00021189
5288.78981689,0.00025378
5290.71862427,0.00032794
5292.64743164,0.00026590
5294.57623901,0.00024857
5296.50504639,0.00031248
5298.43385376,0.00030186
5300.36266113,0.00025967
5302.29146851,0.00023030
5304.22027588,0.00025886
5306.14908325,0.00025977
5308.07789062,0.00021449
5310.00669800,0.00028608
5311.93550537,0.00025120
5313.86431274,0.00019100
5315.79312012,0.00030438
5317.72192749,0.00027341
5319.65073486,0.00027317
5321.57954224,0.00033498
5323.50834961,0.00024360
5325.43715698,0.00028025
5327.36596436,0.00028644
5329.29477173,0.00018087
5331.22357910,0.00023295
5333.15238647,0.00026053
5335.08119385,0.00022380
5337.01000122,0.00022692
5338.93880859,0.00023089
5340.86761597,0.00029628
5342.79642334,0.00031015
5344.72523071,0.00026372
5346.65403809,0.00025856
5348.58284546,0.00021193
5350.51165283,0.00024986
5352.44046020,0.00025193
5354.36926758,0.00016868
5356.29807495,0.00024377
5358.22688232,0.00028061
5360.15568970,0.00027608
5362.08449707,0.00022512
5364.01330444,0.00018849
5365.94211182,0.00026719
5367.87091919,0.00021097
5369.79972656,0.00022742
5371.72853394,0.00022819
5373.65734131,0.00018667
5375.58614868,0.00024976
5377.51495605,0.00019383
5379.44376343,0.00024760
5381.37257080,0.00027843
5383.30137817,0.00021435
5385.23018555,0.00026649
5387.15899292,0.00024459
5389.08780029,0.00021853
5391.01660767,0.00027907
5392.94541504,0.00028082
5394.87422241,0.00019684
5396.80302978,0.00022563
5398.73183716,0.00028261
5400.66064453,0.00021681
5402.58945190,0.00022502
5404.51825928,0.00031263
5406.44706665,0.00026443
5408.37587402,0.00019173
5410.30468140,0.00028517
5412.23348877,0.00025271
5414.16229614,0.00018934
5416.09110352,0.00024616
5418.01991089,0.00023218
5419.94871826,0.00023914
5421.87752563,0.00021614
5423.80633301,0.00021041
5425.73514038,0.00018467
5427.66394775,0.00017503
5429.59275513,0.00024925
5431.52156250,0.00020793
5433.45036987,0.00023271
5435.37917725,0.00023872
5437.30798462,0.00020383
5439.23679199,0.00024098
5441.16559936,0.00018998
5443.09440674,0.00020327
5445.02321411,0.00022074
5446.95202148,0.00018590
5448.88082886,0.00020126
5450.80963623,0.00018747
5452.73844360,0.00019913
5454.66725098,0.00021184
5456.59605835,0.00021165
5458.52486572,0.00022956
5460.45367310,0.00021119
5462.38248047,0.00021198
5464.31128784,0.00016802
5466.24009521,0.00014935
5468.16890259,0.00026042
5470.09770996,0.00024438
5472.02651733,0.00017274
5473.95532471,0.00022741
5475.88413208,0.00024741
5477.81293945,0.00020990
5479.74174683,0.00022947
5481.67055420,0.00023255
5483.59936157,0.00018466
5485.52816895,0.00018716
5487.45697632,0.00016862
5489.38578369,0.00019700
5491.31459106,0.00022951
5493.24339844,0.00015873
5495.17220581,0.00017563
5497.10101318,0.00020467
5499.02982056,0.00021548
5500.95862793,0.00023825
5502.88743530,0.00017729
5504.81624268,0.00014141
5506.74505005,0.00018956
5508.67385742,0.00019996
5510.60266479,0.00019870
5512.53147217,0.00021352
5514.46027954,0.00016449
5516.38908691,0.00016857
5518.31789429,0.00016494
5520.24670166,0.00018613
5522.17550903,0.00021253
5524.10431641,0.00018375
5526.03312378,0.00022074
5527.96193115,0.00015741
5529.89073853,0.00020364
5531.81954590,0.00021305
5533.74835327,0.00014877
5535.67716064,0.00022087
5537.60596802,0.00017346
5539.53477539,0.00020031
5541.46358276,0.00014072
5543.39239014,0.00015294
5545.32119751,0.00021213
5547.25000488,0.00009713
5549.17881226,0.00024488
5551.10761963,0.00028436
5553.03642700,0.00019046
5554.96523437,0.00015171
5556.89404175,0.00014823
5558.82284912,0.00020442
5560.75165649,0.00023301
5562.68046387,0.00021827
5564.60927124,0.00010894
5566.53807861,0.00024147
5568.46688599,0.00025809
5570.39569336,0.00015383
5572.32450073,0.00021242
5574.25330811,0.00015926
5576.18211548,0.00020750
5578.11092285,0.00018484
5580.03973022,0.00013800
5581.96853760,0.00017165
5583.89734497,0.00021507
5585.82615234,0.00022047
5587.75495972,0.00013160
5589.68376709,0.00020337
5591.61257446,0.00013958
5593.54138184,0.00008165
5595.47018921,0.00017403
5597.39899658,0.00015917
5599.32780395,0.00018502
5601.25661133,0.00022117
5603.18541870,0.00021015
5605.11422607,0.00017890
5607.04303345,0.00020985
5608.97184082,0.00018168
5610.90064819,0.00012697
5612.82945557,0.00015426
5614.75826294,0.00015209
5616.68707031,0.00015669
5618.61587769,0.00013563
5620.54468506,0.00016676
5622.47349243,0.00022048
5624.40229980,0.00019483
5626.33110718,0.00013965
5628.25991455,0.00016239
5630.18872192,0.00016251
5632.11752930,0.00013539
5634.04633667,0.00025270
5635.97514404,0.00020255
5637.90395142,0.00015716
5639.83275879,0.00017960
5641.76156616,0.00004923
5643.69037353,0.00009738
5645.61918091,0.00013834
5647.54798828,0.00009847
5649.47679565,0.00018270
5651.40560303,0.00022108
5653.33441040,0.00019659
5655.26321777,0.00016301
5657.19202515,0.00016559
5659.12083252,0.00022651
5661.04963989,0.00015939
5662.97844727,0.00011472
5664.90725464,0.00017755
5666.83606201,0.00011337
5668.76486938,0.00014190
5670.69367676,0.00017174
5672.62248413,0.00014610
5674.55129150,0.00020096
5676.48009888,0.00015611
5678.40890625,0.00016326
5680.33771362,0.00018281
5682.26652100,0.00012661
5684.19532837,0.00012156
5686.12413574,0.00018498
5688.05294311,0.00012460
5689.98175049,0.00008439
5691.91055786,0.00023120
5693.83936523,0.00016318
5695.76817261,0.00015286
5697.69697998,0.00022302
5699.62578735,0.00013160
5701.55459473,0.00011907
5703.48340210,0.00011355
5705.41220947,0.00013810
5707.34101685,0.00013917
5709.26982422,0.00008863
5711.19863159,0.00008896
5713.12743896,0.00015049
5715.05624634,0.00014377
5716.98505371,0.00010193
5718.91386108,0.00018994
5720.84266846,0.00022322
5722.77147583,0.00021684
5724.70028320,0.00014342
5726.62909058,0.00011833
5728.55789795,0.00016990
5730.48670532,0.00013199
5732.41551270,0.00016684
5734.34432007,0.00008826
5736.27312744,0.00002061
5738.20193481,0.00012578
5740.13074219,0.00013438
5742.05954956,0.00016108
5743.98835693,0.00020652
5745.91716431,0.00009450
5747.84597168,0.00009884
5749.77477905,0.00015966
5751.70358643,0.00009544
5753.63239380,0.00017188
5755.56120117,0.00011270
5757.49000854,0.00007432
5759.41881592,0.00016478
5761.34762329,0.00008421
5763.27643066,0.00012806
5765.20523804,0.00015450
5767.13404541,0.00017173
5769.06285278,0.00012865
5770.99166016,0.00010313
5772.92046753,0.00021806
5774.84927490,0.00012695
5776.77808228,0.00013153
5778.70688965,0.00014936
5780.63569702,0.00015381
5782.56450439,0.00020060
5784.49331177,0.00011633
5786.42211914,0.00007598
5788.35092651,0.00008772
5790.27973389,0.00014248
5792.20854126,0.00004904
5794.13734863,0.00007671
5796.06615601,0.00016398
5797.99496338,0.00008064
5799.92377075,0.00010064
5801.85257812,0.00007164
5803.78138550,0.00013893
5805.71019287,0.00018619
5807.63900024,0.00012440
5809.56780762,0.00011364
5811.49661499,0.00012345
5813.42542236,0.00016010
5815.35422974,0.00005520
5817.28303711,0.00008631
5819.21184448,0.00013204
5821.14065186,0.00008943
5823.06945923,0.00013158
5824.99826660,0.00013735
5826.92707397,0.00016275
5828.85588135,0.00010949
5830.78468872,0.00015278
5832.71349609,0.00014627
5834.64230347,0.00007177
5836.57111084,0.00017470
5838.49991821,0.00013235
5840.42872559,0.00011633
5842.35753296,0.00010071
5844.28634033,0.00004859
5846.21514770,0.00014463
5848.14395508,0.00011621
5850.07276245,0.00007056
5852.00156982,0.00010205
5853.93037720,0.00011393
5855.85918457,0.00011334
5857.78799194,0.00006771
5859.71679932,0.00006466
5861.64560669,0.00006613
5863.57441406,0.00008835
5865.50322144,0.00017224
5867.43202881,0.00010972
5869.36083618,0.00006061
5871.28964355,0.00011918
5873.21845093,0.00010154
5875.14725830,0.00012214
5877.07606567,0.00014966
5879.00487305,0.00015796
5880.93368042,0.00012317
5882.86248779,0.00007793
5884.79129517,0.00011721
5886.72010254,0.00008155
5888.64890991,0.00010901
5890.57771728,0.00017377
5892.50652466,0.00013838
5894.43533203,0.00015760
5896.36413940,0.00013501
5898.29294678,0.00009706
5900.22175415,0.00017798
5902.15056152,0.00014827
5904.07936890,0.00005059
5906.00817627,0.00008197
5907.93698364,0.00004576
5909.86579102,0.00006933
5911.79459839,0.00016945
5913.72340576,0.00013947
5915.65221313,0.00014431
5917.58102051,0.00006388
5919.50982788,0.00002632
5921.43863525,0.00017343
5923.36744263,0.00013633
5925.29625000,0.00005537
5927.22505737,0.00010253
5929.15386475,0.00011811
5931.08267212,0.00014164
5933.01147949,0.00016501
5934.94028686,0.00010488
5936.86909424,0.00004364
5938.79790161,0.00009278
5940.72670898,0.00014540
5942.65551636,0.00012034
5944.58432373,0.00012079
5946.51313110,0.00009936
5948.44193848,0.00009424
5950.37074585,0.00012142
5952.29955322,0.00009278
5954.22836060,0.00012645
5956.15716797,0.00013631
5958.08597534,0.00013477
5960.01478271,0.00014813
5961.94359009,0.00009717
5963.87239746,0.00011555
5965.80120483,0.00011967
5967.73001221,0.00012836
5969.65881958,0.00008148
5971.58762695,0.00001826
5973.51643433,0.00010034
5975.44524170,0.00012448
5977.37404907,0.00012255
5979.30285645,0.00005869
5981.23166382,0.00004423
5983.16047119,0.00010909
5985.08927856,0.00009192
5987.01808594,0.00015837
5988.94689331,0.00012164
5990.87570068,0.00008162
5992.80450806,0.00014672
5994.73331543,0.00013873
5996.66212280,0.00011034
5998.59093018,0.00001716
6000.51973755,0.00005618
