399.26312622,0.00058438
401.19193359,0.00048923
403.12074097,0.00037119
405.04954834,0.00057087
406.97835571,0.00060665
408.90716309,0.00008193
410.83597046,0.00030735
412.76477783,0.00075714
414.69358521,0.00036460
416.62239258,-0.00007583
418.55119995,0.00030453
420.48000732,0.00099671
422.40881470,0.00077259
424.33762207,0.00071696
426.26642944,0.00060816
428.19523682,0.00055123
430.12404419,0.00115374
432.05285156,0.00074275
433.98165894,0.00056807
435.91046631,0.00084067
437.83927368,0.00048810
439.76808105,0.00067420
441.69688843,0.00089205
443.62569580,0.00084056
445.55450317,0.00102506
447.48331055,0.00060305
449.41211792,0.00039809
451.34092529,0.00074555
453.26973267,0.00059888
455.19854004,0.00061412
457.12734741,0.00061972
459.05615479,0.00061960
460.98496216,0.00054418
462.91376953,0.00040520
464.84257690,0.00037372
466.77138428,0.00001191
468.70019165,0.00066339
470.62899902,0.00087696
472.55780640,0.00033874
474.48661377,0.00067404
476.41542114,0.00052935
478.34422852,0.00039827
480.27303589,0.00067408
482.20184326,0.00045395
484.13065063,-0.00002626
486.05945801,0.00009968
487.98826538,0.00020152
489.91707275,-0.00004305
491.84588013,0.00024053
493.77468750,0.00046018
495.70349487,0.00063896
497.63230225,0.00035254
499.56110962,0.00032410
501.48991699,0.00048687
503.41872437,-0.00015330
505.34753174,-0.00008628
507.27633911,0.00024121
509.20514648,0.00015305
511.13395386,0.00013743
513.06276123,0.00056738
514.99156860,0.00049726
516.92037598,0.00011760
518.84918335,0.00055065
520.77799072,0.00035921
522.70679810,0.00007673
524.63560547,0.00023136
526.56441284,0.00008616
528.49322021,0.00011872
530.42202759,0.00017771
532.35083496,0.00010730
534.27964233,0.00029153
536.20844971,0.00025284
538.13725708,-0.00005200
540.06606445,0.00035100
541.99487183,0.00015272
543.92367920,-0.00011912
545.85248657,0.00034724
547.78129395,0.00014335
549.71010132,0.00035308
551.63890869,0.00021121
553.56771606,-0.00028719
555.49652344,0.00039883
557.42533081,0.00060512
559.35413818,0.00047930
561.28294556,0.00030802
563.21175293,-0.00006758
565.14056030,-0.00009056
567.06936768,0.00001693
568.99817505,0.00020315
570.92698242,0.00039140
572.85578979,0.00039322
574.78459717,-0.00013241
576.71340454,-0.00004108
578.64221191,0.00024511
580.57101929,0.00000478
582.49982666,0.00003315
584.42863403,0.00008525
586.35744141,0.00038729
588.28624878,0.00016023
590.21505615,0.00015361
592.14386353,0.00025414
594.07267090,-0.00005181
596.00147827,0.00050907
597.93028564,0.00045341
599.85909302,0.00043374
601.78790039,0.00046481
603.71670776,0.00003904
605.64551514,0.00020198
607.57432251,0.00015887
609.50312988,0.00044361
611.43193726,0.00045062
613.36074463,0.00012154
615.28955200,0.00020730
617.21835938,-0.00002081
619.14716675,0.00017699
621.07597412,0.00030430
623.00478149,-0.00010328
624.93358887,-0.00005940
626.86239624,0.00012206
628.79120361,0.00001312
630.72001099,0.00020176
632.64881836,0.00055459
634.57762573,0.00039689
636.50643311,0.00060877
638.43524048,0.00074730
640.36404785,0.00051698
642.29285522,0.00115202
644.22166260,0.00109723
646.15046997,0.00092367
648.07927734,0.00144396
650.00808472,0.00099237
651.93689209,0.00099075
653.86569946,0.00127517
655.79450684,0.00105547
657.72331421,0.00119399
659.65212158,0.00119019
661.58092896,0.00115236
663.50973633,0.00140313
665.43854370,0.00157758
667.36735107,0.00151724
669.29615845,0.00155359
671.22496582,0.00168008
673.15377319,0.00192582
675.08258057,0.00163734
677.01138794,0.00140550
678.94019531,0.00202903
680.86900269,0.00181296
682.79781006,0.00166746
684.72661743,0.00184994
686.65542480,0.00169590
688.58423218,0.00167958
690.51303955,0.00157516
692.44184692,0.00193825
694.37065430,0.00211861
696.29946167,0.00237984
698.22826904,0.00265967
700.15707642,0.00282591
702.08588379,0.00308139
704.01469116,0.00242406
705.94349854,0.00223191
707.87230591,0.00203920
709.80111328,0.00126851
711.72992065,0.00110144
713.65872803,0.00088868
715.58753540,0.00036934
717.51634277,0.00025971
719.44515015,0.00036796
721.37395752,0.00004646
723.30276489,0.00016963
725.23157227,0.00016300
727.16037964,-0.00003343
729.08918701,0.00043800
731.01799438,0.00042858
732.94680176,-0.00002082
734.87560913,-0.00007449
736.80441650,0.00011815
738.73322388,-0.00002536
740.66203125,0.00012542
742.59083862,0.00020415
744.51964600,0.00005623
746.44845337,0.00007392
748.37726074,-0.00001687
750.30606812,0.00025985
752.23487549,0.00035145
754.16368286,0.00019460
756.09249023,0.00023356
758.02129761,0.00045892
759.95010498,0.00051164
761.87891235,0.00014938
763.80771973,0.00012256
765.73652710,0.00016290
767.66533447,0.00013115
769.59414185,0.00024303
771.52294922,0.00041230
773.45175659,0.00044276
775.38056396,0.00039533
777.30937134,0.00062827
779.23817871,0.00035788
781.16698608,0.00035227
783.09579346,0.00047011
785.02460083,0.00014307
786.95340820,0.00025514
788.88221558,0.00013857
790.81102295,0.00018076
792.73983032,0.00045586
794.66863770,0.00065002
796.59744507,0.00048687
798.52625244,0.00017928
800.45505981,0.00054942
802.38386719,0.00052287
804.31267456,0.00050510
806.24148193,0.00034601
808.17028931,0.00021811
810.09909668,0.00042283
812.02790405,0.00004939
813.95671143,0.00009407
815.88551880,-0.00003141
817.81432617,0.00011007
819.74313354,0.00038952
821.67194092,0.00010681
823.60074829,0.00043258
825.52955566,0.00036901
827.45836304,0.00039648
829.38717041,0.00057532
831.31597778,0.00045344
833.24478516,0.00064658
835.17359253,0.00069166
837.10239990,0.00085801
839.03120728,0.00078671
840.96001465,0.00056619
842.88882202,0.00059901
844.81762939,0.00067424
846.74643677,0.00074789
848.67524414,0.00060788
850.60405151,0.00037922
852.53285889,0.00031979
854.46166626,0.00040235
856.39047363,0.00033690
858.31928101,0.00042147
860.24808838,0.00037727
862.17689575,0.00032238
864.10570313,0.00041948
866.03451050,0.00017151
867.96331787,0.00023669
869.89212524,0.00023170
871.82093262,0.00020901
873.74973999,0.00037938
875.67854736,0.00034451
877.60735474,0.00035981
879.53616211,0.00022916
881.46496948,0.00023665
883.39377686,0.00013708
885.32258423,0.00007538
887.25139160,0.00016953
889.18019897,0.00023401
891.10900635,0.00045841
893.03781372,0.00034703
894.96662109,0.00026480
896.89542847,0.00026225
898.82423584,0.00036552
900.75304321,0.00048170
902.68185059,0.00032755
904.61065796,0.00020011
906.53946533,0.00035077
908.46827271,0.00045981
910.39708008,0.00032115
912.32588745,0.00051183
914.25469482,0.00030866
916.18350220,0.00041604
918.11230957,0.00076664
920.04111694,0.00047879
921.96992432,0.00073649
923.89873169,0.00066687
925.82753906,0.00050099
927.75634644,0.00080563
929.68515381,0.00099062
931.61396118,0.00099920
933.54276855,0.00085926
935.47157593,0.00103783
937.40038330,0.00112151
939.32919067,0.00122736
941.25799805,0.00117077
943.18680542,0.00117279
945.11561279,0.00135908
947.04442017,0.00112923
948.97322754,0.00103124
950.90203491,0.00106538
952.83084229,0.00115765
954.75964966,0.00079960
956.68845703,0.00084974
958.61726440,0.00141983
960.54607178,0.00125531
962.47487915,0.00119319
964.40368652,0.00110674
966.33249390,0.00113871
968.26130127,0.00119886
970.19010864,0.00114226
972.11891602,0.00130195
974.04772339,0.00117852
975.97653076,0.00134346
977.90533813,0.00156401
979.83414551,0.00167048
981.76295288,0.00196428
983.69176025,0.00215745
985.62056763,0.00213142
987.54937500,0.00220169
989.47818237,0.00268942
991.40698975,0.00295075
993.33579712,0.00310324
995.26460449,0.00342160
997.19341187,0.00370360
999.12221924,0.00412129
1001.05102661,0.00456645
1002.97983398,0.00466354
1004.90864136,0.00480717
1006.83744873,0.00521432
1008.76625610,0.00550477
1010.69506348,0.00603644
1012.62387085,0.00636599
1014.55267822,0.00670852
1016.48148560,0.00710036
1018.41029297,0.00714661
1020.33910034,0.00751494
1022.26790771,0.00766785
1024.19671509,0.00798471
1026.12552246,0.00834657
1028.05432983,0.00860312
1029.98313721,0.00901084
1031.91194458,0.00893766
1033.84075195,0.00932097
1035.76955933,0.00976307
1037.69836670,0.00973214
1039.62717407,0.00971842
1041.55598145,0.00984682
1043.48478882,0.00985329
1045.41359619,0.00953107
1047.34240356,0.00941641
1049.27121094,0.00925562
1051.20001831,0.00925461
1053.12882568,0.00910099
1055.05763306,0.00884727
1056.98644043,0.00873158
1058.91524780,0.00835071
1060.84405518,0.00814680
1062.77286255,0.00781885
1064.70166992,0.00772587
1066.63047729,0.00742910
1068.55928467,0.00705467
1070.48809204,0.00700244
1072.41689941,0.00654442
1074.34570679,0.00635770
1076.27451416,0.00595542
1078.20332153,0.00574517
1080.13212891,0.00566928
1082.06093628,0.00512107
1083.98974365,0.00501148
1085.91855103,0.00485934
1087.84735840,0.00457540
1089.77616577,0.00437115
1091.70497314,0.00425784
1093.63378052,0.00404173
1095.56258789,0.00395536
1097.49139526,0.00393058
1099.42020264,0.00357475
1101.34901001,0.00349929
1103.27781738,0.00348618
1105.20662476,0.00357076
1107.13543213,0.00350982
1109.06423950,0.00342968
1110.99304687,0.00337894
1112.92185425,0.00319586
1114.85066162,0.00323662
1116.77946899,0.00299138
1118.70827637,0.00321421
1120.63708374,0.00337425
1122.56589111,0.00326708
1124.49469849,0.00345725
1126.42350586,0.00342501
1128.35231323,0.00364731
1130.28112061,0.00350330
1132.20992798,0.00353518
1134.13873535,0.00376037
1136.06754272,0.00374479
1137.99635010,0.00416465
1139.92515747,0.00433739
1141.85396484,0.00467061
1143.78277222,0.00494340
1145.71157959,0.00514418
1147.64038696,0.00546828
1149.56919434,0.00564286
1151.49800171,0.00616471
1153.42680908,0.00634113
1155.35561646,0.00644439
1157.28442383,0.00676952
1159.21323120,0.00721519
1161.14203857,0.00756579
1163.07084595,0.00757716
1164.99965332,0.00799593
1166.92846069,0.00828607
1168.85726807,0.00864978
1170.78607544,0.00914539
1172.71488281,0.00924554
1174.64369019,0.00962990
1176.57249756,0.00997168
1178.50130493,0.01024305
1180.43011230,0.01061963
1182.35891968,0.01093686
1184.28772705,0.01152110
1186.21653442,0.01215138
1188.14534180,0.01275855
1190.07414917,0.01336783
1192.00295654,0.01378133
1193.93176392,0.01440812
1195.86057129,0.01532893
1197.78937866,0.01597247
1199.71818604,0.01655272
1201.64699341,0.01740979
1203.57580078,0.01803528
1205.50460815,0.01853367
1207.43341553,0.01927214
1209.36222290,0.01984061
1211.29103027,0.02042084
1213.21983765,0.02111946
1215.14864502,0.02154576
1217.07745239,0.02206057
1219.00625977,0.02247869
1220.93506714,0.02266833
1222.86387451,0.02311946
1224.79268188,0.02335069
1226.72148926,0.02339839
1228.65029663,0.02363138
1230.57910400,0.02364299
1232.50791138,0.02370427
1234.43671875,0.02393696
1236.36552612,0.02400255
1238.29433350,0.02395858
1240.22314087,0.02387215
1242.15194824,0.02380569
1244.08075562,0.02373068
1246.00956299,0.02377984
1247.93837036,0.02353885
1249.86717773,0.02313231
1251.79598511,0.02333831
1253.72479248,0.02314953
1255.65359985,0.02265981
1257.58240723,0.02244877
1259.51121460,0.02196263
1261.44002197,0.02181889
1263.36882935,0.02170994
1265.29763672,0.02127302
1267.22644409,0.02104273
1269.15525146,0.02076933
1271.08405884,0.02046425
1273.01286621,0.02020285
1274.94167358,0.01995194
1276.87048096,0.01965727
1278.79928833,0.01916132
1280.72809570,0.01871869
1282.65690308,0.01848295
1284.58571045,0.01816471
1286.51451782,0.01779411
1288.44332520,0.01759550
1290.37213257,0.01732808
1292.30093994,0.01711988
1294.22974731,0.01705991
1296.15855469,0.01683915
1298.08736206,0.01687645
1300.01616943,0.01705090
1301.94497681,0.01697830
1303.87378418,0.01724929
1305.80259155,0.01751779
1307.73139893,0.01757898
1309.66020630,0.01782716
1311.58901367,0.01803521
1313.51782104,0.01857024
1315.44662842,0.01904590
1317.37543579,0.01929621
1319.30424316,0.01986712
1321.23305054,0.02038506
1323.16185791,0.02110852
1325.09066528,0.02188538
1327.01947266,0.02248215
1328.94828003,0.02303678
1330.87708740,0.02347464
1332.80589478,0.02410037
1334.73470215,0.02460860
1336.66350952,0.02478580
1338.59231689,0.02442561
1340.52112427,0.02462166
1342.44993164,0.02580819
1344.37873901,0.02615444
1346.30754639,0.02611138
1348.23635376,0.02590189
1350.16516113,0.02579926
1352.09396851,0.02595724
1354.02277588,0.02538204
1355.95158325,0.02530446
1357.88039062,0.02514555
1359.80919800,0.02455043
1361.73800537,0.02353508
1363.66681274,0.02314852
1365.59562012,0.02460525
1367.52442749,0.02388243
1369.45323486,0.02339787
1371.38204224,0.02430927
1373.31084961,0.02295590
1375.23965698,0.02273938
1377.16846436,0.02355367
1379.09727173,0.02360898
1381.02607910,0.02355494
1382.95488647,0.02389868
1384.88369385,0.02380697
1386.81250122,0.02227620
1388.74130859,0.02275228
1390.67011597,0.02480243
1392.59892334,0.02412662
1394.52773071,0.02232043
1396.45653809,0.02348521
1398.38534546,0.02338457
1400.31415283,0.02336610
1402.24296021,0.02573150
1404.17176758,0.02381164
1406.10057495,0.02406123
1408.02938232,0.02537017
1409.95818970,0.02424865
1411.88699707,0.02474295
1413.81580444,0.02379267
1415.74461182,0.02456340
1417.67341919,0.02161795
1419.60222656,0.01900239
1421.53103394,0.02274171
1423.45984131,0.02194566
1425.38864868,0.02122899
1427.31745605,0.02156265
1429.24626343,0.01993240
1431.17507080,0.01928742
1433.10387817,0.01980115
1435.03268555,0.01812929
1436.96149292,0.01474723
1438.89030029,0.01746682
1440.81910767,0.01819884
1442.74791504,0.01657134
1444.67672241,0.01764924
1446.60552979,0.01588779
1448.53433716,0.01621775
1450.46314453,0.01685429
1452.39195190,0.01699621
1454.32075928,0.01784363
1456.24956665,0.01409395
1458.17837402,0.01448954
1460.10718140,0.02036003
1462.03598877,0.02174644
1463.96479614,0.02118752
1465.89360352,0.02197722
1467.82241089,0.02555605
1469.75121826,0.02762225
1471.68002563,0.02386265
1473.60883301,0.02506215
1475.53764038,0.02880569
1477.46644775,0.03111800
1479.39525513,0.03472384
1481.32406250,0.03519318
1483.25286987,0.03750458
1485.18167725,0.03868568
1487.11048462,0.03761183
1489.03929199,0.03699446
1490.96809937,0.03716177
1492.89690674,0.04443279
1494.82571411,0.04330219
1496.75452148,0.03766330
1498.68332886,0.04319145
1500.61213623,0.04500318
1502.54094360,0.04863780
1504.46975098,0.04584375
1506.39855835,0.03092370
1508.32736572,0.03869062
1510.25617310,0.04738398
1512.18498047,0.04564665
1514.11378784,0.05022203
1516.04259521,0.04422391
1517.97140259,0.04627991
1519.90020996,0.04498421
1521.82901733,0.03744680
1523.75782471,0.04771508
1525.68663208,0.04681503
1527.61543945,0.04612690
1529.54424683,0.05227493
1531.47305420,0.05014361
1533.40186157,0.04495271
1535.33066895,0.04794007
1537.25947632,0.05249469
1539.18828369,0.03525914
1541.11709106,0.03667909
1543.04589844,0.04577262
1544.97470581,0.04367761
1546.90351318,0.05389182
1548.83232056,0.04944993
1550.76112793,0.05113102
1552.68993530,0.05124208
1554.61874268,0.04517425
1556.54755005,0.04939797
1558.47635742,0.03248855
1560.40516479,0.03537273
1562.33397217,0.05445397
1564.26277954,0.05080779
1566.19158691,0.05255774
1568.12039429,0.05194213
1570.04920166,0.04466242
1571.97800903,0.05308059
1573.90681641,0.05439850
1575.83562378,0.04143408
1577.76443115,0.04745065
1579.69323853,0.05511827
1581.62204590,0.05256158
1583.55085327,0.05409254
1585.47966064,0.05333034
1587.40846802,0.05380717
1589.33727539,0.05330838
1591.26608276,0.05328175
1593.19489014,0.05354130
1595.12369751,0.05252803
1597.05250488,0.05345035
1598.98131226,0.05337965
1600.91011963,0.05359293
1602.83892700,0.05244660
1604.76773437,0.05351704
1606.69654175,0.05272547
1608.62534912,0.05245710
1610.55415649,0.05259123
1612.48296387,0.05307580
1614.41177124,0.05405539
1616.34057861,0.04265970
1618.26938599,0.04646697
1620.19819336,0.05619957
1622.12700073,0.04862222
1624.05580811,0.04855577
1625.98461548,0.05197403
1627.91342285,0.05139605
1629.84223022,0.05115715
1631.77103760,0.05529115
1633.69984497,0.05041469
1635.62865234,0.03974102
1637.55745972,0.04744011
1639.48626709,0.05383443
1641.41507446,0.05218334
1643.34388184,0.05376978
1645.27268921,0.04777934
1647.20149658,0.04048833
1649.13030396,0.05247535
1651.05911133,0.05011676
1652.98791870,0.02909687
1654.91672607,0.04176073
1656.84553345,0.05532117
1658.77434082,0.05271161
1660.70314819,0.05452123
1662.63195557,0.04859440
1664.56076294,0.05156748
1666.48957031,0.05661125
1668.41837769,0.04794743
1670.34718506,0.04613525
1672.27599243,0.05388001
1674.20479980,0.04893064
1676.13360718,0.04631787
1678.06241455,0.05515387
1679.99122192,0.05285822
1681.92002930,0.05189597
1683.84883667,0.04086374
1685.77764404,0.04001817
1687.70645142,0.05849838
1689.63525879,0.04969981
1691.56406616,0.05504206
1693.49287354,0.05706613
1695.42168091,0.03912497
1697.35048828,0.05008399
1699.27929565,0.04329486
1701.20810303,0.03757256
1703.13691040,0.05480120
1705.06571777,0.04960983
1706.99452515,0.05001871
1708.92333252,0.05566031
1710.85213989,0.05304734
1712.78094727,0.05404500
1714.70975464,0.04944307
1716.63856201,0.04357846
1718.56736938,0.04259963
1720.49617676,0.05213948
1722.42498413,0.05518132
1724.35379150,0.05021179
1726.28259888,0.05568776
1728.21140625,0.05111460
1730.14021362,0.05102950
1732.06902100,0.05005848
1733.99782837,0.03569887
1735.92663574,0.04661030
1737.85544312,0.05300198
1739.78425049,0.04563487
1741.71305786,0.05069129
1743.64186523,0.05132671
1745.57067261,0.05125653
1747.49947998,0.05185363
1749.42828735,0.04914640
1751.35709473,0.04658006
1753.28590210,0.05253518
1755.21470947,0.05559339
1757.14351685,0.04964401
1759.07232422,0.05592545
1761.00113159,0.05183513
1762.92993896,0.04926776
1764.85874634,0.05858576
1766.78755371,0.05159849
1768.71636108,0.05190535
1770.64516846,0.05169365
1772.57397583,0.04532600
1774.50278320,0.05184476
1776.43159058,0.05540702
1778.36039795,0.05448363
1780.28920532,0.05378429
1782.21801270,0.05435565
1784.14682007,0.05413800
1786.07562744,0.05294507
1788.00443481,0.05632033
1789.93324219,0.05453315
1791.86204956,0.04824793
1793.79085693,0.05068893
1795.71966431,0.05522178
1797.64847168,0.05444443
1799.57727905,0.05344629
1801.50608643,0.05215856
1803.43489380,0.05427410
1805.36370117,0.05593216
1807.29250854,0.05500773
1809.22131592,0.05520435
1811.15012329,0.05341604
1813.07893066,0.05557750
1815.00773804,0.05603153
1816.93654541,0.05518938
1818.86535278,0.05567992
1820.79416016,0.05544825
1822.72296753,0.05651554
1824.65177490,0.05187913
1826.58058228,0.05412178
1828.50938965,0.05443221
1830.43819702,0.05013409
1832.36700439,0.05575533
1834.29581177,0.05559291
1836.22461914,0.05533806
1838.15342651,0.05521324
1840.08223389,0.05558000
1842.01104126,0.05569305
1843.93984863,0.04818152
1845.86865601,0.05193805
1847.79746338,0.05556956
1849.72627075,0.05415134
1851.65507812,0.05626202
1853.58388550,0.05483789
1855.51269287,0.05543749
1857.44150024,0.05530427
1859.37030762,0.05470265
1861.29911499,0.05523244
1863.22792236,0.05461692
1865.15672974,0.05526265
1867.08553711,0.05312382
1869.01434448,0.05038107
1870.94315186,0.05274310
1872.87195923,0.05522074
1874.80076660,0.05420160
1876.72957397,0.05467825
1878.65838135,0.05458577
1880.58718872,0.05414975
1882.51599609,0.05477407
1884.44480347,0.05372128
1886.37361084,0.05479039
1888.30241821,0.05339851
1890.23122559,0.05186773
1892.16003296,0.05450960
1894.08884033,0.05367824
1896.01764771,0.05331156
1897.94645508,0.05417300
1899.87526245,0.05373782
1901.80406982,0.05407485
1903.73287720,0.05371194
1905.66168457,0.05389574
1907.59049194,0.05317752
1909.51929932,0.05264378
1911.44810669,0.05311428
1913.37691406,0.05329894
1915.30572144,0.05406193
1917.23452881,0.05111746
1919.16333618,0.05107525
1921.09214355,0.05355417
1923.02095093,0.05143188
1924.94975830,0.05282333
1926.87856567,0.05362456
1928.80737305,0.05280630
1930.73618042,0.05364066
1932.66498779,0.05269003
1934.59379517,0.05326605
1936.52260254,0.05293778
1938.45140991,0.05317460
1940.38021729,0.05314642
1942.30902466,0.05098616
1944.23783203,0.05209888
1946.16663940,0.05289850
1948.09544678,0.05280051
1950.02425415,0.05300819
1951.95306152,0.05279031
1953.88186890,0.05289613
1955.81067627,0.05272570
1957.73948364,0.05297366
1959.66829102,0.05281236
1961.59709839,0.05256770
1963.52590576,0.05280707
1965.45471313,0.05246054
1967.38352051,0.05179693
1969.31232788,0.05242179
1971.24113525,0.05292175
1973.16994263,0.05250373
1975.09875000,0.05264378
1977.02755737,0.05237558
1978.95636475,0.05267643
1980.88517212,0.05250010
1982.81397949,0.05208167
1984.74278687,0.05256321
1986.67159424,0.05202306
1988.60040161,0.05206382
1990.52920898,0.05163473
1992.45801636,0.05096708
1994.38682373,0.05180559
1996.31563110,0.05193637
1998.24443848,0.05179251
2000.17324585,0.05192254
2002.10205322,0.05174119
2004.03086060,0.05171788
2005.95966797,0.05159228
2007.88847534,0.05136605
2009.81728271,0.05137874
2011.74609009,0.05119605
2013.67489746,0.05122753
2015.60370483,0.05081652
2017.53251221,0.05025381
2019.46131958,0.05087252
2021.39012695,0.05084299
2023.31893433,0.05057905
2025.24774170,0.05076151
2027.17654907,0.05062080
2029.10535645,0.05056408
2031.03416382,0.05044846
2032.96297119,0.05039105
2034.89177856,0.05026652
2036.82058594,0.05021011
2038.74939331,0.05004451
2040.67820068,0.04973575
2042.60700806,0.04971728
2044.53581543,0.04977717
2046.46462280,0.04966839
2048.39343018,0.04954208
2050.32223755,0.04966779
2052.25104492,0.04945809
2054.17985229,0.04940113
2056.10865967,0.04944297
2058.03746704,0.04917740
2059.96627441,0.04912678
2061.89508179,0.04902887
2063.82388916,0.04883395
2065.75269653,0.04863954
2067.68150391,0.04878363
2069.61031128,0.04867288
2071.53911865,0.04852109
2073.46792603,0.04858797
2075.39673340,0.04836327
2077.32554077,0.04852676
2079.25434814,0.04833224
2081.18315552,0.04810204
2083.11196289,0.04824618
2085.04077026,0.04809551
2086.96957764,0.04802456
2088.89838501,0.04795106
2090.82719238,0.04787323
2092.75599976,0.04779897
2094.68480713,0.04775270
2096.61361450,0.04763087
2098.54242187,0.04761901
2100.47122925,0.04763624
2102.40003662,0.04745699
2104.32884399,0.04743475
2106.25765137,0.04745929
2108.18645874,0.04743965
2110.11526611,0.04727601
2112.04407349,0.04722599
2113.97288086,0.04699901
2115.90168823,0.04691260
2117.83049561,0.04718735
2119.75930298,0.04691169
2121.68811035,0.04674497
2123.61691772,0.04680612
2125.54572510,0.04682836
2127.47453247,0.04677914
2129.40333984,0.04667785
2131.33214722,0.04667102
2133.26095459,0.04651589
2135.18976196,0.04649657
2137.11856934,0.04644486
2139.04737671,0.04648319
2140.97618408,0.04644886
2142.90499146,0.04621082
2144.83379883,0.04623915
2146.76260620,0.04622726
2148.69141357,0.04620134
2150.62022095,0.04621374
2152.54902832,0.04614948
2154.47783569,0.04605362
2156.40664307,0.04601391
2158.33545044,0.04596512
2160.26425781,0.04592003
2162.19306519,0.04588756
2164.12187256,0.04578203
2166.05067993,0.04572239
2167.97948730,0.04562873
2169.90829468,0.04573140
2171.83710205,0.04575096
2173.76590942,0.04562453
2175.69471680,0.04565348
2177.62352417,0.04548631
2179.55233154,0.04540949
2181.48113892,0.04551622
2183.40994629,0.04542971
2185.33875366,0.04528942
2187.26756104,0.04529367
2189.19636841,0.04524965
2191.12517578,0.04523272
2193.05398315,0.04520826
2194.98279053,0.04511592
2196.91159790,0.04505515
2198.84040527,0.04492320
2200.76921265,0.04503425
2202.69802002,0.04496801
2204.62682739,0.04476022
2206.55563477,0.04485132
2208.48444214,0.04483456
2210.41324951,0.04478121
2212.34205688,0.04478207
2214.27086426,0.04471244
2216.19967163,0.04456156
2218.12847900,0.04460820
2220.05728638,0.04460340
2221.98609375,0.04455150
2223.91490112,0.04455087
2225.84370850,0.04440243
2227.77251587,0.04439878
2229.70132324,0.04425433
2231.63013062,0.04426030
2233.55893799,0.04428589
2235.48774536,0.04412855
2237.41655273,0.04407445
2239.34536011,0.04400166
2241.27416748,0.04403085
2243.20297485,0.04388533
2245.13178223,0.04386227
2247.06058960,0.04380329
2248.98939697,0.04378311
2250.91820435,0.04373888
2252.84701172,0.04347324
2254.77581909,0.04357144
2256.70462646,0.04334432
2258.63343384,0.04325931
2260.56224121,0.04341003
2262.49104858,0.04335806
2264.41985596,0.04328265
2266.34866333,0.04310961
2268.27747070,0.04318720
2270.20627808,0.04308880
2272.13508545,0.04305167
2274.06389282,0.04303634
2275.99270020,0.04299995
2277.92150757,0.04308945
2279.85031494,0.04301735
2281.77912231,0.04296863
2283.70792969,0.04287627
2285.63673706,0.04301021
2287.56554443,0.04285210
2289.49435181,0.04256438
2291.42315918,0.04254922
2293.35196655,0.04245263
2295.28077393,0.04228111
2297.20958130,0.04217663
2299.13838867,0.04224468
2301.06719604,0.04190212
2302.99600342,0.04178669
2304.92481079,0.04162158
2306.85361816,0.04130071
2308.78242554,0.04123274
2310.71123291,0.04075731
2312.64004028,0.04051545
2314.56884766,0.04008988
2316.49765503,0.03958634
2318.42646240,0.03912386
2320.35526978,0.03855425
2322.28407715,0.03815480
2324.21288452,0.03766739
2326.14169189,0.03746109
2328.07049927,0.03693623
2329.99930664,0.03653625
2331.92811401,0.03628056
2333.85692139,0.03599947
2335.78572876,0.03595854
2337.71453613,0.03588986
2339.64334351,0.03612469
2341.57215088,0.03602862
2343.50095825,0.03640127
2345.42976562,0.03718481
2347.35857300,0.03854169
2349.28738037,0.03978576
2351.21618774,0.03844155
2353.14499512,0.03662435
2355.07380249,0.03536279
2357.00260986,0.03443278
2358.93141724,0.03395753
2360.86022461,0.03346546
2362.78903198,0.03346894
2364.71783936,0.03360526
2366.64664673,0.03402036
2368.57545410,0.03462826
2370.50426147,0.03542293
2372.43306885,0.03634000
2374.36187622,0.03724008
2376.29068359,0.03829338
2378.21949097,0.03905547
2380.14829834,0.03968150
2382.07710571,0.03998661
2384.00591309,0.04027310
2385.93472046,0.04045328
2387.86352783,0.04030436
2389.79233521,0.04044202
2391.72114258,0.04045623
2393.64994995,0.04033444
2395.57875732,0.04031526
2397.50756470,0.04027874
2399.43637207,0.04023894
2401.36517944,0.04020379
2403.29398682,0.04009642
2405.22279419,0.03999108
2407.15160156,0.03993378
2409.08040894,0.03997155
2411.00921631,0.04001889
2412.93802368,0.03981551
2414.86683105,0.03987306
2416.79563843,0.03993530
2418.72444580,0.03977589
2420.65325317,0.03978912
2422.58206055,0.03974306
2424.51086792,0.03958365
2426.43967529,0.03950314
2428.36848267,0.03953855
2430.29729004,0.03946409
2432.22609741,0.03955762
2434.15490479,0.03955699
2436.08371216,0.03943658
2438.01251953,0.03936549
2439.94132690,0.03914828
2441.87013428,0.03930029
2443.79894165,0.03920713
2445.72774902,0.03908572
2447.65655640,0.03910365
2449.58536377,0.03899102
2451.51417114,0.03909560
2453.44297852,0.03885549
2455.37178589,0.03892766
2457.30059326,0.03904781
2459.22940063,0.03875545
2461.15820801,0.03871071
2463.08701538,0.03876802
2465.01582275,0.03878884
2466.94463013,0.03859747
2468.87343750,0.03856602
2470.80224487,0.03856988
2472.73105225,0.03848222
2474.65985962,0.03842207
2476.58866699,0.03841181
2478.51747437,0.03852929
2480.44628174,0.03832103
2482.37508911,0.03828549
2484.30389648,0.03830054
2486.23270386,0.03817407
2488.16151123,0.03821351
2490.09031860,0.03806923
2492.01912598,0.03803142
2493.94793335,0.03808151
2495.87674072,0.03807066
2497.80554810,0.03803447
2499.73435547,0.03792917
2501.66316284,0.03786916
2503.59197021,0.03779844
2505.52077759,0.03772273
2507.44958496,0.03771034
2509.37839233,0.03771605
2511.30719971,0.03760782
2513.23600708,0.03758098
2515.16481445,0.03766746
2517.09362183,0.03762071
2519.02242920,0.03743937
2520.95123657,0.03740976
2522.88004395,0.03745130
2524.80885132,0.03733522
2526.73765869,0.03736594
2528.66646606,0.03730559
2530.59527344,0.03725889
2532.52408081,0.03729623
2534.45288818,0.03712103
2536.38169556,0.03713868
2538.31050293,0.03707174
2540.23931030,0.03704712
2542.16811768,0.03718401
2544.09692505,0.03701437
2546.02573242,0.03693444
2547.95453979,0.03689652
2549.88334717,0.03679106
2551.81215454,0.03679006
2553.74096191,0.03679928
2555.66976929,0.03680110
2557.59857666,0.03669965
2559.52738403,0.03658882
2561.45619141,0.03654901
2563.38499878,0.03655504
2565.31380615,0.03649048
2567.24261353,0.03637961
2569.17142090,0.03643808
2571.10022827,0.03646384
2573.02903564,0.03639096
2574.95784302,0.03631224
2576.88665039,0.03620664
2578.81545776,0.03623228
2580.74426514,0.03628534
2582.67307251,0.03616570
2584.60187988,0.03615034
2586.53068726,0.03610707
2588.45949463,0.03585733
2590.38830200,0.03592564
2592.31710937,0.03595323
2594.24591675,0.03582246
2596.17472412,0.03586471
2598.10353149,0.03579252
2600.03233887,0.03581750
2601.96114624,0.03571370
2603.88995361,0.03561097
2605.81876099,0.03568078
2607.74756836,0.03557400
2609.67637573,0.03550593
2611.60518311,0.03539864
2613.53399048,0.03543740
2615.46279785,0.03536089
2617.39160522,0.03530842
2619.32041260,0.03542746
2621.24921997,0.03524506
2623.17802734,0.03531170
2625.10683472,0.03523809
2627.03564209,0.03509618
2628.96444946,0.03514738
2630.89325684,0.03506416
2632.82206421,0.03508447
2634.75087158,0.03492408
2636.67967895,0.03485197
2638.60848633,0.03484676
2640.53729370,0.03489231
2642.46610107,0.03496635
2644.39490845,0.03477624
2646.32371582,0.03472137
2648.25252319,0.03464615
2650.18133057,0.03465528
2652.11013794,0.03470062
2654.03894531,0.03456935
2655.96775269,0.03450725
2657.89656006,0.03456155
2659.82536743,0.03449792
2661.75417480,0.03426611
2663.68298218,0.03427548
2665.61178955,0.03425492
2667.54059692,0.03425901
2669.46940430,0.03425705
2671.39821167,0.03404830
2673.32701904,0.03408507
2675.25582642,0.03407449
2677.18463379,0.03394940
2679.11344116,0.03395942
2681.04224854,0.03395138
2682.97105591,0.03391560
2684.89986328,0.03392834
2686.82867065,0.03381577
2688.75747803,0.03376419
2690.68628540,0.03376266
2692.61509277,0.03355551
2694.54390015,0.03358049
2696.47270752,0.03359014
2698.40151489,0.03357793
2700.33032227,0.03354505
2702.25912964,0.03335658
2704.18793701,0.03341684
2706.11674438,0.03344055
2708.04555176,0.03346121
2709.97435913,0.03331735
2711.90316650,0.03312599
2713.83197388,0.03319110
2715.76078125,0.03317956
2717.68958862,0.03311142
2719.61839600,0.03304408
2721.54720337,0.03303776
2723.47601074,0.03292546
2725.40481812,0.03299289
2727.33362549,0.03300793
2729.26243286,0.03276550
2731.19124023,0.03278697
2733.12004761,0.03269373
2735.04885498,0.03263851
2736.97766235,0.03268278
2738.90646973,0.03255514
2740.83527710,0.03247623
2742.76408447,0.03259783
2744.69289185,0.03262670
2746.62169922,0.03247038
2748.55050659,0.03243161
2750.47931396,0.03230349
2752.40812134,0.03236920
2754.33692871,0.03228995
2756.26573608,0.03208926
2758.19454346,0.03222276
2760.12335083,0.03212311
2762.05215820,0.03205118
2763.98096558,0.03190692
2765.90977295,0.03185097
2767.83858032,0.03200697
2769.76738770,0.03192207
2771.69619507,0.03185023
2773.62500244,0.03175866
2775.55380981,0.03160965
2777.48261719,0.03150478
2779.41142456,0.03160171
2781.34023193,0.03154198
2783.26903931,0.03149906
2785.19784668,0.03156738
2787.12665405,0.03135205
2789.05546143,0.03141711
2790.98426880,0.03131294
2792.91307617,0.03114584
2794.84188354,0.03121497
2796.77069092,0.03107105
2798.69949829,0.03103941
2800.62830566,0.03098850
2802.55711304,0.03095906
2804.48592041,0.03097069
2806.41472778,0.03092560
2808.34353516,0.03082415
2810.27234253,0.03071418
2812.20114990,0.03073091
2814.12995728,0.03064401
2816.05876465,0.03056617
2817.98757202,0.03047665
2819.91637939,0.03042435
2821.84518677,0.03034613
2823.77399414,0.03024264
2825.70280151,0.03034387
2827.63160889,0.03024222
2829.56041626,0.03006717
2831.48922363,0.03007448
2833.41803101,0.03004546
2835.34683838,0.02996388
2837.27564575,0.02989737
2839.20445312,0.02973950
2841.13326050,0.02960692
2843.06206787,0.02957093
2844.99087524,0.02936086
2846.91968262,0.02909508
2848.84848999,0.02886897
2850.77729736,0.02894859
2852.70610474,0.02901803
2854.63491211,0.02882915
2856.56371948,0.02903550
2858.49252686,0.02907654
2860.42133423,0.02893710
2862.35014160,0.02899541
2864.27894897,0.02888174
2866.20775635,0.02890848
2868.13656372,0.02894335
2870.06537109,0.02878531
2871.99417847,0.02865430
2873.92298584,0.02867969
2875.85179321,0.02876158
2877.78060059,0.02863347
2879.70940796,0.02855946
2881.63821533,0.02856961
2883.56702270,0.02845073
2885.49583008,0.02831619
2887.42463745,0.02828731
2889.35344482,0.02828189
2891.28225220,0.02825888
2893.21105957,0.02824343
2895.13986694,0.02799958
2897.06867432,0.02793027
2898.99748169,0.02807041
2900.92628906,0.02785319
2902.85509644,0.02777153
2904.78390381,0.02781680
2906.71271118,0.02767975
2908.64151855,0.02750930
2910.57032593,0.02733979
2912.49913330,0.02730397
2914.42794067,0.02705415
2916.35674805,0.02686818
2918.28555542,0.02698041
2920.21436279,0.02695665
2922.14317017,0.02696681
2924.07197754,0.02692578
2926.00078491,0.02697636
2927.92959229,0.02712816
2929.85839966,0.02712394
2931.78720703,0.02714543
2933.71601440,0.02714958
2935.64482178,0.02722802
2937.57362915,0.02719123
2939.50243652,0.02718524
2941.43124390,0.02728540
2943.36005127,0.02711504
2945.28885864,0.02707633
2947.21766602,0.02708939
2949.14647339,0.02708806
2951.07528076,0.02702659
2953.00408813,0.02684245
2954.93289551,0.02692282
2956.86170288,0.02683375
2958.79051025,0.02669223
2960.71931763,0.02668274
2962.64812500,0.02662770
2964.57693237,0.02667946
2966.50573975,0.02663350
2968.43454712,0.02667562
2970.36335449,0.02666708
2972.29216187,0.02663768
2974.22096924,0.02677395
2976.14977661,0.02672481
2978.07858398,0.02670577
2980.00739136,0.02667265
2981.93619873,0.02670837
2983.86500610,0.02674345
2985.79381348,0.02661076
2987.72262085,0.02664991
2989.65142822,0.02656717
2991.58023560,0.02654048
2993.50904297,0.02655899
2995.43785034,0.02640685
2997.36665771,0.02645012
2999.29546509,0.02636361
3001.22427246,0.02621973
3003.15307983,0.02631070
3005.08188721,0.02633911
3007.01069458,0.02620201
3008.93950195,0.02615013
3010.86830933,0.02616891
3012.79711670,0.02595524
3014.72592407,0.02586447
3016.65473145,0.02594231
3018.58353882,0.02588811
3020.51234619,0.02586756
3022.44115356,0.02578196
3024.36996094,0.02567730
3026.29876831,0.02565532
3028.22757568,0.02560603
3030.15638306,0.02556485
3032.08519043,0.02548344
3034.01399780,0.02545192
3035.94280518,0.02546920
3037.87161255,0.02543058
3039.80041992,0.02544318
3041.72922729,0.02543382
3043.65803467,0.02529719
3045.58684204,0.02518813
3047.51564941,0.02524034
3049.44445679,0.02509300
3051.37326416,0.02491452
3053.30207153,0.02503160
3055.23087891,0.02486677
3057.15968628,0.02481372
3059.08849365,0.02489654
3061.01730103,0.02473048
3062.94610840,0.02484812
3064.87491577,0.02474042
3066.80372314,0.02458281
3068.73253052,0.02475177
3070.66133789,0.02466838
3072.59014526,0.02456257
3074.51895264,0.02456814
3076.44776001,0.02449743
3078.37656738,0.02434680
3080.30537476,0.02431866
3082.23418213,0.02431333
3084.16298950,0.02432307
3086.09179687,0.02431881
3088.02060425,0.02417363
3089.94941162,0.02425680
3091.87821899,0.02413788
3093.80702637,0.02400022
3095.73583374,0.02405124
3097.66464111,0.02395099
3099.59344849,0.02399968
3101.52225586,0.02385334
3103.45106323,0.02377839
3105.37987061,0.02378361
3107.30867798,0.02360973
3109.23748535,0.02363728
3111.16629272,0.02358220
3113.09510010,0.02345930
3115.02390747,0.02338994
3116.95271484,0.02340408
3118.88152222,0.02332292
3120.81032959,0.02323363
3122.73913696,0.02325079
3124.66794434,0.02315743
3126.59675171,0.02326405
3128.52555908,0.02319143
3130.45436645,0.02301754
3132.38317383,0.02300371
3134.31198120,0.02291866
3136.24078857,0.02292544
3138.16959595,0.02282059
3140.09840332,0.02279753
3142.02721069,0.02274926
3143.95601807,0.02257047
3145.88482544,0.02258002
3147.81363281,0.02257362
3149.74244019,0.02253139
3151.67124756,0.02243859
3153.60005493,0.02237887
3155.52886230,0.02231795
3157.45766968,0.02220416
3159.38647705,0.02217237
3161.31528442,0.02211492
3163.24409180,0.02209282
3165.17289917,0.02209564
3167.10170654,0.02202450
3169.03051392,0.02193627
3170.95932129,0.02187461
3172.88812866,0.02183098
3174.81693604,0.02181775
3176.74574341,0.02171230
3178.67455078,0.02159971
3180.60335815,0.02162453
3182.53216553,0.02155231
3184.46097290,0.02149069
3186.38978027,0.02144942
3188.31858765,0.02137579
3190.24739502,0.02131946
3192.17620239,0.02121811
3194.10500977,0.02119572
3196.03381714,0.02110217
3197.96262451,0.02106948
3199.89143188,0.02114301
3201.82023926,0.02099513
3203.74904663,0.02091720
3205.67785400,0.02101335
3207.60666138,0.02088038
3209.53546875,0.02075443
3211.46427612,0.02088379
3213.39308350,0.02082879
3215.32189087,0.02074973
3217.25069824,0.02074938
3219.17950562,0.02061459
3221.10831299,0.02058157
3223.03712036,0.02058855
3224.96592773,0.02058272
3226.89473511,0.02052002
3228.82354248,0.02043272
3230.75234985,0.02043911
3232.68115723,0.02037549
3234.60996460,0.02034098
3236.53877197,0.02039103
3238.46757935,0.02035322
3240.39638672,0.02029880
3242.32519409,0.02028868
3244.25400146,0.02022648
3246.18280884,0.02017755
3248.11161621,0.02012851
3250.04042358,0.02015258
3251.96923096,0.02017022
3253.89803833,0.02011206
3255.82684570,0.02018058
3257.75565308,0.02007673
3259.68446045,0.02005133
3261.61326782,0.02008237
3263.54207520,0.01990250
3265.47088257,0.01998310
3267.39968994,0.01997702
3269.32849731,0.01990401
3271.25730469,0.01993030
3273.18611206,0.01983993
3275.11491943,0.01986342
3277.04372681,0.01981129
3278.97253418,0.01973414
3280.90134155,0.01985962
3282.83014893,0.01984160
3284.75895630,0.01968184
3286.68776367,0.01966259
3288.61657104,0.01965925
3290.54537842,0.01967318
3292.47418579,0.01959304
3294.40299316,0.01954805
3296.33180054,0.01963981
3298.26060791,0.01951541
3300.18941528,0.01957471
3302.11822266,0.01958767
3304.04703003,0.01945670
3305.97583740,0.01947974
3307.90464478,0.01938767
3309.83345215,0.01945124
3311.76225952,0.01938960
3313.69106689,0.01931350
3315.61987427,0.01944521
3317.54868164,0.01938500
3319.47748901,0.01935546
3321.40629639,0.01935869
3323.33510376,0.01928918
3325.26391113,0.01922145
3327.19271851,0.01916676
3329.12152588,0.01915715
3331.05033325,0.01919518
3332.97914062,0.01912644
3334.90794800,0.01918278
3336.83675537,0.01919013
3338.76556274,0.01899618
3340.69437012,0.01908227
3342.62317749,0.01904974
3344.55198486,0.01905917
3346.48079224,0.01896261
3348.40959961,0.01883878
3350.33840698,0.01898628
3352.26721436,0.01879246
3354.19602173,0.01891821
3356.12482910,0.01890726
3358.05363647,0.01870034
3359.98244385,0.01881616
3361.91125122,0.01874180
3363.84005859,0.01878187
3365.76886597,0.01868341
3367.69767334,0.01859117
3369.62648071,0.01860779
3371.55528809,0.01860809
3373.48409546,0.01859275
3375.41290283,0.01847023
3377.34171020,0.01849741
3379.27051758,0.01839628
3381.19932495,0.01838033
3383.12813232,0.01842104
3385.05693970,0.01837102
3386.98574707,0.01830740
3388.91455444,0.01830815
3390.84336182,0.01833838
3392.77216919,0.01813889
3394.70097656,0.01813096
3396.62978394,0.01820349
3398.55859131,0.01819953
3400.48739868,0.01801233
3402.41620605,0.01793115
3404.34501343,0.01810181
3406.27382080,0.01806881
3408.20262817,0.01799476
3410.13143555,0.01787717
3412.06024292,0.01795701
3413.98905029,0.01785858
3415.91785767,0.01780583
3417.84666504,0.01784300
3419.77547241,0.01753929
3421.70427979,0.01761561
3423.63308716,0.01766507
3425.56189453,0.01773972
3427.49070190,0.01771486
3429.41950928,0.01760607
3431.34831665,0.01759725
3433.27712402,0.01740331
3435.20593140,0.01753321
3437.13473877,0.01742842
3439.06354614,0.01745141
3440.99235352,0.01746863
3442.92116089,0.01724260
3444.84996826,0.01735837
3446.77877563,0.01712425
3448.70758301,0.01714173
3450.63639038,0.01742621
3452.56519775,0.01732587
3454.49400513,0.01722333
3456.42281250,0.01728342
3458.35161987,0.01727800
3460.28042725,0.01718532
3462.20923462,0.01718138
3464.13804199,0.01709791
3466.06684937,0.01707549
3467.99565674,0.01709763
3469.92446411,0.01714514
3471.85327148,0.01710172
3473.78207886,0.01697202
3475.71088623,0.01694289
3477.63969360,0.01701573
3479.56850098,0.01701770
3481.49730835,0.01676440
3483.42611572,0.01686878
3485.35492310,0.01692842
3487.28373047,0.01685731
3489.21253784,0.01694532
3491.14134521,0.01688785
3493.07015259,0.01692716
3494.99895996,0.01686730
3496.92776733,0.01684271
3498.85657471,0.01685386
3500.78538208,0.01684226
3502.71418945,0.01657628
3504.64299683,0.01655374
3506.57180420,0.01695486
3508.50061157,0.01670250
3510.42941895,0.01662037
3512.35822632,0.01673994
3514.28703369,0.01685162
3516.21584106,0.01685879
3518.14464844,0.01663401
3520.07345581,0.01685680
3522.00226318,0.01663624
3523.93107056,0.01633985
3525.85987793,0.01644304
3527.78868530,0.01642411
3529.71749268,0.01649410
3531.64630005,0.01672703
3533.57510742,0.01682770
3535.50391479,0.01654926
3537.43272217,0.01652622
3539.36152954,0.01678205
3541.29033691,0.01680046
3543.21914429,0.01664707
3545.14795166,0.01616848
3547.07675903,0.01577211
3549.00556641,0.01647373
3550.93437378,0.01662627
3552.86318115,0.01608967
3554.79198853,0.01657341
3556.72079590,0.01660258
3558.64960327,0.01659440
3560.57841064,0.01644149
3562.50721802,0.01622748
3564.43602539,0.01650754
3566.36483276,0.01511016
3568.29364014,0.01460044
3570.22244751,0.01613568
3572.15125488,0.01668506
3574.08006226,0.01646695
3576.00886963,0.01654096
3577.93767700,0.01645610
3579.86648437,0.01640246
3581.79529175,0.01649476
3583.72409912,0.01645704
3585.65290649,0.01598527
3587.58171387,0.01449210
3589.51052124,0.01499818
3591.43932861,0.01660016
3593.36813599,0.01607906
3595.29694336,0.01572197
3597.22575073,0.01599677
3599.15455811,0.01618109
3601.08336548,0.01597608
3603.01217285,0.01617915
3604.94098022,0.01662781
3606.86978760,0.01584303
3608.79859497,0.01476272
3610.72740234,0.01523177
3612.65620972,0.01558863
3614.58501709,0.01500928
3616.51382446,0.01625493
3618.44263184,0.01480103
3620.37143921,0.01417721
3622.30024658,0.01644488
3624.22905395,0.01595760
3626.15786133,0.01678750
3628.08666870,0.01377794
3630.01547607,0.01229837
3631.94428345,0.01634687
3633.87309082,0.01580913
3635.80189819,0.01599401
3637.73070557,0.01642492
3639.65951294,0.01616469
3641.58832031,0.01639236
3643.51712769,0.01613548
3645.44593506,0.01624393
3647.37474243,0.01429039
3649.30354980,0.01295201
3651.23235718,0.01314553
3653.16116455,0.01607012
3655.08997192,0.01586501
3657.01877930,0.01395815
3658.94758667,0.01646795
3660.87639404,0.01601218
3662.80520142,0.01628976
3664.73400879,0.01625276
3666.66281616,0.01604133
3668.59162354,0.01553346
3670.52043091,0.01220935
3672.44923828,0.01529560
3674.37804565,0.01440624
3676.30685303,0.01146145
3678.23566040,0.01511025
3680.16446777,0.01557586
3682.09327515,0.01566758
3684.02208252,0.01621615
3685.95088989,0.01583869
3687.87969727,0.01402600
3689.80850464,0.01271318
3691.73731201,0.01475970
3693.66611938,0.01536833
3695.59492676,0.01582545
3697.52373413,0.01576633
3699.45254150,0.01571315
3701.38134888,0.01516188
3703.31015625,0.01447235
3705.23896362,0.01625611
3707.16777100,0.01528668
3709.09657837,0.01483582
3711.02538574,0.01384853
3712.95419312,0.01278225
3714.88300049,0.01536613
3716.81180786,0.01516791
3718.74061523,0.01524093
3720.66942261,0.01485895
3722.59822998,0.01436459
3724.52703735,0.01490074
3726.45584473,0.01360130
3728.38465210,0.01501992
3730.31345947,0.01490525
3732.24226685,0.01344530
3734.17107422,0.01299717
3736.09988159,0.01228488
3738.02868896,0.01311242
3739.95749634,0.01444954
3741.88630371,0.01529183
3743.81511108,0.01139151
3745.74391846,0.01060877
3747.67272583,0.01430675
3749.60153320,0.01207527
3751.53034058,0.01104416
3753.45914795,0.01295678
3755.38795532,0.01411895
3757.31676270,0.01477589
3759.24557007,0.01351602
3761.17437744,0.01404071
3763.10318481,0.01511099
3765.03199219,0.01400305
3766.96079956,0.01435027
3768.88960693,0.01420797
3770.81841431,0.01332118
3772.74722168,0.01463739
3774.67602905,0.01478414
3776.60483643,0.01472966
3778.53364380,0.01420845
3780.46245117,0.01354938
3782.39125854,0.01471311
3784.32006592,0.01424548
3786.24887329,0.01418168
3788.17768066,0.01470688
3790.10648804,0.01448155
3792.03529541,0.01437111
3793.96410278,0.01467227
3795.89291016,0.01364721
3797.82171753,0.01341994
3799.75052490,0.01426097
3801.67933228,0.01093851
3803.60813965,0.01309871
3805.53694702,0.01440178
3807.46575439,0.01139363
3809.39456177,0.01423350
3811.32336914,0.01384221
3813.25217651,0.01442930
3815.18098389,0.01295166
3817.10979126,0.01109558
3819.03859863,0.01450374
3820.96740601,0.01122368
3822.89621338,0.01199623
3824.82502075,0.01439185
3826.75382812,0.01272615
3828.68263550,0.01399637
3830.61144287,0.01330001
3832.54025024,0.01278814
3834.46905762,0.01317421
3836.39786499,0.01235640
3838.32667236,0.01107216
3840.25547974,0.01212386
3842.18428711,0.01318652
3844.11309448,0.01256239
3846.04190186,0.01370205
3847.97070923,0.01346773
3849.89951660,0.01355863
3851.82832397,0.01197664
3853.75713135,0.00848329
3855.68593872,0.01038279
3857.61474609,0.01347660
3859.54355347,0.01312031
3861.47236084,0.01294783
3863.40116821,0.01263786
3865.32997559,0.01156878
3867.25878296,0.01317144
3869.18759033,0.01194516
3871.11639770,0.01089474
3873.04520508,0.01328273
3874.97401245,0.01198240
3876.90281982,0.01312884
3878.83162720,0.01341354
3880.76043457,0.01113469
3882.68924194,0.01327201
3884.61804932,0.01229030
3886.54685669,0.01099222
3888.47566406,0.01323184
3890.40447144,0.01244899
3892.33327881,0.01156399
3894.26208618,0.01291168
3896.19089355,0.01317365
3898.11970093,0.01237037
3900.04850830,0.01156705
3901.97731567,0.01138827
3903.90612305,0.01130345
3905.83493042,0.01161885
3907.76373779,0.01285624
3909.69254517,0.01285907
3911.62135254,0.01273512
3913.55015991,0.01296747
3915.47896728,0.01244457
3917.40777466,0.01199246
3919.33658203,0.01200433
3921.26538940,0.01265915
3923.19419678,0.01255379
3925.12300415,0.01220703
3927.05181152,0.01245034
3928.98061890,0.01262957
3930.90942627,0.01228062
3932.83823364,0.01178048
3934.76704102,0.01242580
3936.69584839,0.01258939
3938.62465576,0.01244444
3940.55346313,0.01247189
3942.48227051,0.01188616
3944.41107788,0.01203141
3946.33988525,0.01231885
3948.26869263,0.01208440
3950.19750000,0.01198301
3952.12630737,0.01216254
3954.05511475,0.01228556
3955.98392212,0.01220079
3957.91272949,0.01223059
3959.84153687,0.01226188
3961.77034424,0.01203792
3963.69915161,0.01202081
3965.62795898,0.01218846
3967.55676636,0.01205107
3969.48557373,0.01206763
3971.41438110,0.01201562
3973.34318848,0.01201369
3975.27199585,0.01201500
3977.20080322,0.01191084
3979.12961060,0.01204960
3981.05841797,0.01192512
3982.98722534,0.01195462
3984.91603271,0.01190902
3986.84484009,0.01190380
3988.77364746,0.01193761
3990.70245483,0.01170158
3992.63126221,0.01185510
3994.56006958,0.01180866
3996.48887695,0.01173474
3998.41768433,0.01176681
4000.34649170,0.01174041
4002.27529907,0.01175658
4004.20410645,0.01165194
4006.13291382,0.01159828
4008.06172119,0.01160705
4009.99052856,0.01158545
4011.91933594,0.01144448
4013.84814331,0.01159450
4015.77695068,0.01155019
4017.70575806,0.01142057
4019.63456543,0.01145901
4021.56337280,0.01136611
4023.49218018,0.01147498
4025.42098755,0.01137462
4027.34979492,0.01140614
4029.27860229,0.01142962
4031.20740967,0.01136055
4033.13621704,0.01139011
4035.06502441,0.01135357
4036.99383179,0.01133229
4038.92263916,0.01114710
4040.85144653,0.01128837
4042.78025391,0.01120093
4044.70906128,0.01109786
4046.63786865,0.01111326
4048.56667603,0.01103176
4050.49548340,0.01121939
4052.42429077,0.01106378
4054.35309814,0.01110533
4056.28190552,0.01107976
4058.21071289,0.01103391
4060.13952026,0.01105890
4062.06832764,0.01090217
4063.99713501,0.01104343
4065.92594238,0.01089817
4067.85474976,0.01093199
4069.78355713,0.01099024
4071.71236450,0.01088690
4073.64117187,0.01091832
4075.56997925,0.01081737
4077.49878662,0.01075289
4079.42759399,0.01072580
4081.35640137,0.01085394
4083.28520874,0.01077191
4085.21401611,0.01073274
4087.14282349,0.01069644
4089.07163086,0.01059077
4091.00043823,0.01068326
4092.92924561,0.01054259
4094.85805298,0.01051461
4096.78686035,0.01057157
4098.71566772,0.01057837
4100.64447510,0.01052587
4102.57328247,0.01049615
4104.50208984,0.01050157
4106.43089722,0.01044662
4108.35970459,0.01049969
4110.28851196,0.01046989
4112.21731934,0.01049793
4114.14612671,0.01045077
4116.07493408,0.01038122
4118.00374145,0.01037284
4119.93254883,0.01039429
4121.86135620,0.01036622
4123.79016357,0.01023206
4125.71897095,0.01032564
4127.64777832,0.01029541
4129.57658569,0.01025564
4131.50539307,0.01025240
4133.43420044,0.01025057
4135.36300781,0.01020164
4137.29181519,0.01007687
4139.22062256,0.01014603
4141.14942993,0.01007238
4143.07823730,0.01004972
4145.00704468,0.01004651
4146.93585205,0.01010118
4148.86465942,0.01001827
4150.79346680,0.00989385
4152.72227417,0.01002510
4154.65108154,0.00991959
4156.57988892,0.00995777
4158.50869629,0.00993636
4160.43750366,0.00997418
4162.36631103,0.00998294
4164.29511841,0.00982899
4166.22392578,0.00986797
4168.15273315,0.00976662
4170.08154053,0.00984563
4172.01034790,0.00969997
4173.93915527,0.00968236
4175.86796265,0.00981493
4177.79677002,0.00970962
4179.72557739,0.00984374
4181.65438477,0.00969695
4183.58319214,0.00957877
4185.51199951,0.00955947
4187.44080688,0.00961424
4189.36961426,0.00965390
4191.29842163,0.00953948
4193.22722900,0.00958216
4195.15603638,0.00948921
4197.08484375,0.00947204
4199.01365112,0.00938421
4200.94245850,0.00941865
4202.87126587,0.00951201
4204.80007324,0.00936651
4206.72888062,0.00938613
4208.65768799,0.00940351
4210.58649536,0.00944122
4212.51530273,0.00934601
4214.44411011,0.00923292
4216.37291748,0.00924642
4218.30172485,0.00922116
4220.23053223,0.00920355
4222.15933960,0.00918582
4224.08814697,0.00924446
4226.01695435,0.00922270
4227.94576172,0.00917922
4229.87456909,0.00913075
4231.80337646,0.00912680
4233.73218384,0.00920059
4235.66099121,0.00917117
4237.58979858,0.00907321
4239.51860596,0.00898279
4241.44741333,0.00898643
4243.37622070,0.00899369
4245.30502808,0.00896135
4247.23383545,0.00897172
4249.16264282,0.00899564
4251.09145020,0.00890023
4253.02025757,0.00889173
4254.94906494,0.00889118
4256.87787231,0.00886727
4258.80667969,0.00893174
4260.73548706,0.00880670
4262.66429443,0.00883034
4264.59310181,0.00878720
4266.52190918,0.00876350
4268.45071655,0.00884661
4270.37952393,0.00873494
4272.30833130,0.00879627
4274.23713867,0.00870078
4276.16594604,0.00871548
4278.09475342,0.00874800
4280.02356079,0.00863730
4281.95236816,0.00867250
4283.88117554,0.00857554
4285.80998291,0.00862154
4287.73879028,0.00856878
4289.66759766,0.00851762
4291.59640503,0.00856666
4293.52521240,0.00849981
4295.45401978,0.00850148
4297.38282715,0.00846460
4299.31163452,0.00849429
4301.24044189,0.00848864
4303.16924927,0.00840670
4305.09805664,0.00838070
4307.02686401,0.00841406
4308.95567139,0.00835312
4310.88447876,0.00832427
4312.81328613,0.00833794
4314.74209351,0.00827257
4316.67090088,0.00831430
4318.59970825,0.00821521
4320.52851562,0.00823995
4322.45732300,0.00827681
4324.38613037,0.00819302
4326.31493774,0.00826874
4328.24374512,0.00822128
4330.17255249,0.00815802
4332.10135986,0.00814898
4334.03016724,0.00818545
4335.95897461,0.00812446
4337.88778198,0.00810203
4339.81658936,0.00812792
4341.74539673,0.00803743
4343.67420410,0.00803281
4345.60301147,0.00808371
4347.53181885,0.00812519
4349.46062622,0.00794634
4351.38943359,0.00798377
4353.31824097,0.00805039
4355.24704834,0.00796785
4357.17585571,0.00801793
4359.10466309,0.00787750
4361.03347046,0.00789766
4362.96227783,0.00781652
4364.89108520,0.00780205
4366.81989258,0.00789681
4368.74869995,0.00774885
4370.67750732,0.00784309
4372.60631470,0.00783954
4374.53512207,0.00775120
4376.46392944,0.00773491
4378.39273682,0.00771142
4380.32154419,0.00771467
4382.25035156,0.00770026
4384.17915894,0.00763925
4386.10796631,0.00766080
4388.03677368,0.00770880
4389.96558105,0.00753767
4391.89438843,0.00766566
4393.82319580,0.00768943
4395.75200317,0.00754797
4397.68081055,0.00761789
4399.60961792,0.00758988
4401.53842529,0.00762268
4403.46723267,0.00754529
4405.39604004,0.00754225
4407.32484741,0.00754837
4409.25365478,0.00748750
4411.18246216,0.00749841
4413.11126953,0.00742913
4415.04007690,0.00742105
4416.96888428,0.00740021
4418.89769165,0.00742394
4420.82649902,0.00737262
4422.75530640,0.00739222
4424.68411377,0.00742984
4426.61292114,0.00737647
4428.54172852,0.00737245
4430.47053589,0.00726438
4432.39934326,0.00726518
4434.32815063,0.00723950
4436.25695801,0.00725458
4438.18576538,0.00723961
4440.11457275,0.00719437
4442.04338013,0.00721029
4443.97218750,0.00716040
4445.90099487,0.00727322
4447.82980225,0.00720874
4449.75860962,0.00717197
4451.68741699,0.00714446
4453.61622437,0.00705234
4455.54503174,0.00714365
4457.47383911,0.00707874
4459.40264648,0.00705298
4461.33145386,0.00708010
4463.26026123,0.00706822
4465.18906860,0.00704328
4467.11787598,0.00708509
4469.04668335,0.00702797
4470.97549072,0.00688943
4472.90429810,0.00697887
4474.83310547,0.00691664
4476.76191284,0.00682753
4478.69072021,0.00687849
4480.61952759,0.00692731
4482.54833496,0.00685526
4484.47714233,0.00676080
4486.40594971,0.00680586
4488.33475708,0.00685190
4490.26356445,0.00686724
4492.19237183,0.00674542
4494.12117920,0.00673889
4496.04998657,0.00679052
4497.97879395,0.00681166
4499.90760132,0.00678829
4501.83640869,0.00670236
4503.76521606,0.00672755
4505.69402344,0.00666391
4507.62283081,0.00669204
4509.55163818,0.00665882
4511.48044556,0.00667865
4513.40925293,0.00673723
4515.33806030,0.00663300
4517.26686768,0.00669493
4519.19567505,0.00659590
4521.12448242,0.00656346
4523.05328979,0.00657207
4524.98209717,0.00653469
4526.91090454,0.00660515
4528.83971191,0.00649992
4530.76851929,0.00650993
4532.69732666,0.00654281
4534.62613403,0.00645562
4536.55494141,0.00641352
4538.48374878,0.00645372
4540.41255615,0.00646544
4542.34136353,0.00641761
4544.27017090,0.00638809
4546.19897827,0.00639548
4548.12778564,0.00642322
4550.05659302,0.00633059
4551.98540039,0.00635245
4553.91420776,0.00635922
4555.84301514,0.00629903
4557.77182251,0.00627280
4559.70062988,0.00621451
4561.62943726,0.00627503
4563.55824463,0.00622530
4565.48705200,0.00618489
4567.41585937,0.00620783
4569.34466675,0.00618127
4571.27347412,0.00618664
4573.20228149,0.00619831
4575.13108887,0.00618058
4577.05989624,0.00614347
4578.98870361,0.00615684
4580.91751099,0.00614067
4582.84631836,0.00617597
4584.77512573,0.00612394
4586.70393311,0.00612648
4588.63274048,0.00610970
4590.56154785,0.00599950
4592.49035522,0.00613206
4594.41916260,0.00602657
4596.34796997,0.00594477
4598.27677734,0.00601577
4600.20558472,0.00598636
4602.13439209,0.00598385
4604.06319946,0.00590427
4605.99200684,0.00592272
4607.92081421,0.00590136
4609.84962158,0.00587046
4611.77842895,0.00584885
4613.70723633,0.00581860
4615.63604370,0.00583618
4617.56485107,0.00581935
4619.49365845,0.00585206
4621.42246582,0.00588366
4623.35127319,0.00589647
4625.28008057,0.00580892
4627.20888794,0.00579865
4629.13769531,0.00574856
4631.06650269,0.00574719
4632.99531006,0.00582660
4634.92411743,0.00572194
4636.85292480,0.00573688
4638.78173218,0.00564976
4640.71053955,0.00565621
4642.63934692,0.00567582
4644.56815430,0.00562267
4646.49696167,0.00570677
4648.42576904,0.00561097
4650.35457642,0.00563309
4652.28338379,0.00559189
4654.21219116,0.00561111
4656.14099853,0.00565525
4658.06980591,0.00556992
4659.99861328,0.00562846
4661.92742065,0.00548943
4663.85622803,0.00545125
4665.78503540,0.00543768
4667.71384277,0.00541123
4669.64265015,0.00550537
4671.57145752,0.00548289
4673.50026489,0.00549372
4675.42907227,0.00546636
4677.35787964,0.00546082
4679.28668701,0.00542358
4681.21549438,0.00538988
4683.14430176,0.00541190
4685.07310913,0.00538381
4687.00191650,0.00538390
4688.93072388,0.00537452
4690.85953125,0.00536675
4692.78833862,0.00536651
4694.71714600,0.00536044
4696.64595337,0.00528985
4698.57476074,0.00530508
4700.50356812,0.00533630
4702.43237549,0.00524083
4704.36118286,0.00520394
4706.28999023,0.00522176
4708.21879761,0.00522474
4710.14760498,0.00521001
4712.07641235,0.00527464
4714.00521973,0.00524268
4715.93402710,0.00517686
4717.86283447,0.00519923
4719.79164185,0.00518473
4721.72044922,0.00520092
4723.64925659,0.00512784
4725.57806396,0.00509288
4727.50687134,0.00518186
4729.43567871,0.00518500
4731.36448608,0.00507218
4733.29329346,0.00511758
4735.22210083,0.00514821
4737.15090820,0.00502614
4739.07971558,0.00507880
4741.00852295,0.00498905
4742.93733032,0.00497681
4744.86613770,0.00508462
4746.79494507,0.00502151
4748.72375244,0.00506102
4750.65255981,0.00504200
4752.58136719,0.00500229
4754.51017456,0.00499150
4756.43898193,0.00496386
4758.36778931,0.00493704
4760.29659668,0.00495434
4762.22540405,0.00495463
4764.15421143,0.00491305
4766.08301880,0.00497115
4768.01182617,0.00491795
4769.94063354,0.00488451
4771.86944092,0.00486983
4773.79824829,0.00487943
4775.72705566,0.00488170
4777.65586304,0.00484789
4779.58467041,0.00491231
4781.51347778,0.00476025
4783.44228516,0.00476180
4785.37109253,0.00480265
4787.29989990,0.00473629
4789.22870728,0.00480514
4791.15751465,0.00471739
4793.08632202,0.00471915
4795.01512939,0.00474320
4796.94393677,0.00476807
4798.87274414,0.00472834
4800.80155151,0.00459859
4802.73035889,0.00468262
4804.65916626,0.00467118
4806.58797363,0.00464021
4808.51678101,0.00463295
4810.44558838,0.00457948
4812.37439575,0.00461337
4814.30320312,0.00464891
4816.23201050,0.00461945
4818.16081787,0.00455150
4820.08962524,0.00458804
4822.01843262,0.00455970
4823.94723999,0.00449328
4825.87604736,0.00451276
4827.80485474,0.00449598
4829.73366211,0.00452362
4831.66246948,0.00451703
4833.59127686,0.00452721
4835.52008423,0.00455159
4837.44889160,0.00445776
4839.37769897,0.00445353
4841.30650635,0.00448008
4843.23531372,0.00447577
4845.16412109,0.00447917
4847.09292847,0.00445663
4849.02173584,0.00444947
4850.95054321,0.00437051
4852.87935059,0.00441750
4854.80815796,0.00448689
4856.73696533,0.00439220
4858.66577270,0.00434685
4860.59458008,0.00432704
4862.52338745,0.00442214
4864.45219482,0.00446363
4866.38100220,0.00436399
4868.30980957,0.00429770
4870.23861694,0.00427033
4872.16742432,0.00430051
4874.09623169,0.00427477
4876.02503906,0.00425639
4877.95384644,0.00421705
4879.88265381,0.00421856
4881.81146118,0.00424105
4883.74026855,0.00418123
4885.66907593,0.00420053
4887.59788330,0.00420201
4889.52669067,0.00416106
4891.45549805,0.00416652
4893.38430542,0.00424038
4895.31311279,0.00417233
4897.24192017,0.00418193
4899.17072754,0.00420487
4901.09953491,0.00402922
4903.02834228,0.00416536
4904.95714966,0.00411330
4906.88595703,0.00404982
4908.81476440,0.00417598
4910.74357178,0.00403756
4912.67237915,0.00411025
4914.60118652,0.00408456
4916.52999390,0.00401788
4918.45880127,0.00406033
4920.38760864,0.00398026
4922.31641602,0.00402202
4924.24522339,0.00398792
4926.17403076,0.00398024
4928.10283813,0.00406779
4930.03164551,0.00406504
4931.96045288,0.00399081
4933.88926025,0.00394255
4935.81806763,0.00397752
4937.74687500,0.00394856
4939.67568237,0.00393768
4941.60448975,0.00398200
4943.53329712,0.00390147
4945.46210449,0.00386831
4947.39091187,0.00392793
4949.31971924,0.00387054
4951.24852661,0.00385563
4953.17733398,0.00384247
4955.10614136,0.00386645
4957.03494873,0.00385927
4958.96375610,0.00375309
4960.89256348,0.00389160
4962.82137085,0.00390502
4964.75017822,0.00381771
4966.67898560,0.00384561
4968.60779297,0.00380796
4970.53660034,0.00372356
4972.46540771,0.00367796
4974.39421509,0.00377404
4976.32302246,0.00374581
4978.25182983,0.00378967
4980.18063721,0.00381585
4982.10944458,0.00372595
4984.03825195,0.00372721
4985.96705933,0.00366048
4987.89586670,0.00374982
4989.82467407,0.00369805
4991.75348145,0.00367680
4993.68228882,0.00376135
4995.61109619,0.00362807
4997.53990356,0.00367677
4999.46871094,0.00365530
5001.39751831,0.00361866
5003.32632568,0.00366951
5005.25513306,0.00362630
5007.18394043,0.00363001
5009.11274780,0.00361550
5011.04155518,0.00361358
5012.97036255,0.00362596
5014.89916992,0.00362440
5016.82797729,0.00357381
5018.75678467,0.00354219
5020.68559204,0.00352946
5022.61439941,0.00351152
5024.54320679,0.00353975
5026.47201416,0.00353362
5028.40082153,0.00353808
5030.32962891,0.00355176
5032.25843628,0.00352515
5034.18724365,0.00344332
5036.11605103,0.00342582
5038.04485840,0.00346161
5039.97366577,0.00348443
5041.90247314,0.00351067
5043.83128052,0.00350077
5045.76008789,0.00350050
5047.68889526,0.00340844
5049.61770264,0.00339850
5051.54651001,0.00348917
5053.47531738,0.00341261
5055.40412476,0.00331961
5057.33293213,0.00335055
5059.26173950,0.00334658
5061.19054687,0.00332068
5063.11935425,0.00342441
5065.04816162,0.00336588
5066.97696899,0.00329839
5068.90577637,0.00334206
5070.83458374,0.00327213
5072.76339111,0.00333359
5074.69219849,0.00337632
5076.62100586,0.00331572
5078.54981323,0.00329329
5080.47862061,0.00329703
5082.40742798,0.00327524
5084.33623535,0.00318810
5086.26504272,0.00318872
5088.19385010,0.00326134
5090.12265747,0.00327595
5092.05146484,0.00324747
5093.98027222,0.00326032
5095.90907959,0.00316494
5097.83788696,0.00315824
5099.76669434,0.00323409
5101.69550171,0.00314979
5103.62430908,0.00320748
5105.55311645,0.00317952
5107.48192383,0.00314736
5109.41073120,0.00319093
5111.33953857,0.00310513
5113.26834595,0.00315011
5115.19715332,0.00315596
5117.12596069,0.00315446
5119.05476807,0.00313159
5120.98357544,0.00308393
5122.91238281,0.00316602
5124.84119019,0.00313375
5126.76999756,0.00306365
5128.69880493,0.00303629
5130.62761230,0.00307479
5132.55641968,0.00310005
5134.48522705,0.00303813
5136.41403442,0.00307129
5138.34284180,0.00304554
5140.27164917,0.00302910
5142.20045654,0.00309396
5144.12926392,0.00298589
5146.05807129,0.00295562
5147.98687866,0.00306006
5149.91568603,0.00303577
5151.84449341,0.00296405
5153.77330078,0.00292847
5155.70210815,0.00296119
5157.63091553,0.00297507
5159.55972290,0.00299702
5161.48853027,0.00303807
5163.41733765,0.00295469
5165.34614502,0.00293039
5167.27495239,0.00298528
5169.20375977,0.00295232
5171.13256714,0.00290969
5173.06137451,0.00292418
5174.99018188,0.00291708
5176.91898926,0.00294949
5178.84779663,0.00294736
5180.77660400,0.00287092
5182.70541138,0.00290942
5184.63421875,0.00287212
5186.56302612,0.00284634
5188.49183350,0.00285688
5190.42064087,0.00278509
5192.34944824,0.00281589
5194.27825562,0.00283552
5196.20706299,0.00284872
5198.13587036,0.00283071
5200.06467773,0.00283284
5201.99348511,0.00284817
5203.92229248,0.00280008
5205.85109985,0.00282728
5207.77990723,0.00275824
5209.70871460,0.00271186
5211.63752197,0.00280258
5213.56632935,0.00282732
5215.49513672,0.00280261
5217.42394409,0.00279406
5219.35275146,0.00272815
5221.28155884,0.00273029
5223.21036621,0.00278661
5225.13917358,0.00265469
5227.06798096,0.00263355
5228.99678833,0.00267892
5230.92559570,0.00266860
5232.85440308,0.00268056
5234.78321045,0.00268057
5236.71201782,0.00272491
5238.64082520,0.00267016
5240.56963257,0.00273933
5242.49843994,0.00270255
5244.42724731,0.00257214
5246.35605469,0.00265692
5248.28486206,0.00250206
5250.21366943,0.00246990
5252.14247681,0.00265766
5254.07128418,0.00259395
5256.00009155,0.00255247
5257.92889893,0.00268419
5259.85770630,0.00266832
5261.78651367,0.00252873
5263.71532104,0.00253309
5265.64412842,0.00262543
5267.57293579,0.00264205
5269.50174316,0.00253400
5271.43055054,0.00261645
5273.35935791,0.00265269
5275.28816528,0.00250429
5277.21697266,0.00259483
5279.14578003,0.00260681
5281.07458740,0.00256724
5283.00339478,0.00257517
5284.93220215,0.00250779
5286.86100952,0.00254140
5288.78981689,0.00253642
5290.71862427,0.00249881
5292.64743164,0.00257232
5294.57623901,0.00257253
5296.50504639,0.00247434
5298.43385376,0.00254014
5300.36266113,0.00254742
5302.29146851,0.00246792
5304.22027588,0.00250555
5306.14908325,0.00241921
5308.07789062,0.00237508
5310.00669800,0.00246354
5311.93550537,0.00247798
5313.86431274,0.00245262
5315.79312012,0.00245769
5317.72192749,0.00247477
5319.65073486,0.00243411
5321.57954224,0.00239491
5323.50834961,0.00239752
5325.43715698,0.00239170
5327.36596436,0.00239200
5329.29477173,0.00238801
5331.22357910,0.00233681
5333.15238647,0.00232777
5335.08119385,0.00235512
5337.01000122,0.00230585
5338.93880859,0.00224801
5340.86761597,0.00233651
5342.79642334,0.00231728
5344.72523071,0.00219111
5346.65403809,0.00230045
5348.58284546,0.00228836
5350.51165283,0.00232916
5352.44046020,0.00235338
5354.36926758,0.00219017
5356.29807495,0.00237069
5358.22688232,0.00239607
5360.15568970,0.00237398
5362.08449707,0.00237112
5364.01330444,0.00216246
5365.94211182,0.00221166
5367.87091919,0.00229760
5369.79972656,0.00234321
5371.72853394,0.00228549
5373.65734131,0.00224822
5375.58614868,0.00226221
5377.51495605,0.00221877
5379.44376343,0.00227455
5381.37257080,0.00222807
5383.30137817,0.00221595
5385.23018555,0.00219627
5387.15899292,0.00218611
5389.08780029,0.00222789
5391.01660767,0.00223546
5392.94541504,0.00221567
5394.87422241,0.00217317
5396.80302978,0.00225953
5398.73183716,0.00217026
5400.66064453,0.00212772
5402.58945190,0.00220620
5404.51825928,0.00221428
5406.44706665,0.00222355
5408.37587402,0.00212549
5410.30468140,0.00215460
5412.23348877,0.00214369
5414.16229614,0.00207813
5416.09110352,0.00205041
5418.01991089,0.00208733
5419.94871826,0.00211623
5421.87752563,0.00204607
5423.80633301,0.00215888
5425.73514038,0.00215929
5427.66394775,0.00216042
5429.59275513,0.00210750
5431.52156250,0.00200147
5433.45036987,0.00206605
5435.37917725,0.00194430
5437.30798462,0.00202728
5439.23679199,0.00212360
5441.16559936,0.00200410
5443.09440674,0.00203750
5445.02321411,0.00201299
5446.95202148,0.00194344
5448.88082886,0.00196771
5450.80963623,0.00202862
5452.73844360,0.00207903
5454.66725098,0.00205178
5456.59605835,0.00199943
5458.52486572,0.00205760
5460.45367310,0.00192970
5462.38248047,0.00187645
5464.31128784,0.00205753
5466.24009521,0.00196831
5468.16890259,0.00195725
5470.09770996,0.00198605
5472.02651733,0.00197674
5473.95532471,0.00201021
5475.88413208,0.00191948
5477.81293945,0.00190253
5479.74174683,0.00191162
5481.67055420,0.00198764
5483.59936157,0.00196095
5485.52816895,0.00191690
5487.45697632,0.00196634
5489.38578369,0.00192247
5491.31459106,0.00196344
5493.24339844,0.00188964
5495.17220581,0.00183517
5497.10101318,0.00192435
5499.02982056,0.00187072
5500.95862793,0.00180061
5502.88743530,0.00186768
5504.81624268,0.00192658
5506.74505005,0.00187371
5508.67385742,0.00189222
5510.60266479,0.00189676
5512.53147217,0.00190000
5514.46027954,0.00194273
5516.38908691,0.00185126
5518.31789429,0.00182326
5520.24670166,0.00187937
5522.17550903,0.00186365
5524.10431641,0.00187965
5526.03312378,0.00191684
5527.96193115,0.00182187
5529.89073853,0.00179039
5531.81954590,0.00190994
5533.74835327,0.00189274
5535.67716064,0.00179179
5537.60596802,0.00179411
5539.53477539,0.00183386
5541.46358276,0.00183786
5543.39239014,0.00181785
5545.32119751,0.00177833
5547.25000488,0.00177526
5549.17881226,0.00178044
5551.10761963,0.00179838
5553.03642700,0.00185200
5554.96523437,0.00181764
5556.89404175,0.00179681
5558.82284912,0.00179818
5560.75165649,0.00176383
5562.68046387,0.00180274
5564.60927124,0.00179892
5566.53807861,0.00169371
5568.46688599,0.00169747
5570.39569336,0.00174370
5572.32450073,0.00169691
5574.25330811,0.00174689
5576.18211548,0.00177791
5578.11092285,0.00170334
5580.03973022,0.00169714
5581.96853760,0.00171181
5583.89734497,0.00167014
5585.82615234,0.00166105
5587.75495972,0.00173073
5589.68376709,0.00168696
5591.61257446,0.00166286
5593.54138184,0.00166223
5595.47018921,0.00161660
5597.39899658,0.00172329
5599.32780395,0.00170416
5601.25661133,0.00163001
5603.18541870,0.00167568
5605.11422607,0.00168872
5607.04303345,0.00169166
5608.97184082,0.00165119
5610.90064819,0.00162561
5612.82945557,0.00166661
5614.75826294,0.00169727
5616.68707031,0.00163495
5618.61587769,0.00161826
5620.54468506,0.00166137
5622.47349243,0.00165585
5624.40229980,0.00165918
5626.33110718,0.00160092
5628.25991455,0.00158519
5630.18872192,0.00159262
5632.11752930,0.00157492
5634.04633667,0.00162275
5635.97514404,0.00163011
5637.90395142,0.00161704
5639.83275879,0.00157564
5641.76156616,0.00154010
5643.69037353,0.00158626
5645.61918091,0.00165149
5647.54798828,0.00165453
5649.47679565,0.00156314
5651.40560303,0.00153546
5653.33441040,0.00160276
5655.26321777,0.00160806
5657.19202515,0.00155071
5659.12083252,0.00150189
5661.04963989,0.00151646
5662.97844727,0.00157326
5664.90725464,0.00152575
5666.83606201,0.00151389
5668.76486938,0.00158684
5670.69367676,0.00154337
5672.62248413,0.00155699
5674.55129150,0.00155662
5676.48009888,0.00146269
5678.40890625,0.00149757
5680.33771362,0.00150583
5682.26652100,0.00147316
5684.19532837,0.00148606
5686.12413574,0.00149538
5688.05294311,0.00153260
5689.98175049,0.00151617
5691.91055786,0.00149227
5693.83936523,0.00148560
5695.76817261,0.00142766
5697.69697998,0.00139977
5699.62578735,0.00141465
5701.55459473,0.00144095
5703.48340210,0.00143076
5705.41220947,0.00144163
5707.34101685,0.00146358
5709.26982422,0.00143307
5711.19863159,0.00146192
5713.12743896,0.00145840
5715.05624634,0.00144798
5716.98505371,0.00145699
5718.91386108,0.00145315
5720.84266846,0.00147839
5722.77147583,0.00142245
5724.70028320,0.00142634
5726.62909058,0.00139703
5728.55789795,0.00135634
5730.48670532,0.00143046
5732.41551270,0.00139704
5734.34432007,0.00139684
5736.27312744,0.00139204
5738.20193481,0.00138578
5740.13074219,0.00139328
5742.05954956,0.00134958
5743.98835693,0.00142082
5745.91716431,0.00137911
5747.84597168,0.00135163
5749.77477905,0.00140947
5751.70358643,0.00133679
5753.63239380,0.00136889
5755.56120117,0.00137863
5757.49000854,0.00136001
5759.41881592,0.00143085
5761.34762329,0.00134943
5763.27643066,0.00133280
5765.20523804,0.00133826
5767.13404541,0.00128331
5769.06285278,0.00139140
5770.99166016,0.00130637
5772.92046753,0.00128836
5774.84927490,0.00143362
5776.77808228,0.00129891
5778.70688965,0.00126954
5780.63569702,0.00133933
5782.56450439,0.00133673
5784.49331177,0.00130989
5786.42211914,0.00128645
5788.35092651,0.00128924
5790.27973389,0.00123361
5792.20854126,0.00126845
5794.13734863,0.00124680
5796.06615601,0.00127318
5797.99496338,0.00134157
5799.92377075,0.00127731
5801.85257812,0.00132785
5803.78138550,0.00130415
5805.71019287,0.00122367
5807.63900024,0.00123927
5809.56780762,0.00124678
5811.49661499,0.00121992
5813.42542236,0.00125552
5815.35422974,0.00125380
5817.28303711,0.00115244
5819.21184448,0.00123763
5821.14065186,0.00121531
5823.06945923,0.00120617
5824.99826660,0.00130676
5826.92707397,0.00117699
5828.85588135,0.00120227
5830.78468872,0.00127233
5832.71349609,0.00123733
5834.64230347,0.00123327
5836.57111084,0.00120099
5838.49991821,0.00119517
5840.42872559,0.00118106
5842.35753296,0.00115310
5844.28634033,0.00116200
5846.21514770,0.00122284
5848.14395508,0.00114277
5850.07276245,0.00113823
5852.00156982,0.00119507
5853.93037720,0.00110226
5855.85918457,0.00123330
5857.78799194,0.00122369
5859.71679932,0.00111109
5861.64560669,0.00120326
5863.57441406,0.00112193
5865.50322144,0.00109439
5867.43202881,0.00115921
5869.36083618,0.00113561
5871.28964355,0.00112845
5873.21845093,0.00108761
5875.14725830,0.00106855
5877.07606567,0.00113676
5879.00487305,0.00114590
5880.93368042,0.00114109
5882.86248779,0.00118714
5884.79129517,0.00112004
5886.72010254,0.00113327
5888.64890991,0.00118120
5890.57771728,0.00110285
5892.50652466,0.00113270
5894.43533203,0.00117095
5896.36413940,0.00114128
5898.29294678,0.00112956
5900.22175415,0.00114281
5902.15056152,0.00106919
5904.07936890,0.00105572
5906.00817627,0.00115951
5907.93698364,0.00102541
5909.86579102,0.00102301
5911.79459839,0.00113198
5913.72340576,0.00105524
5915.65221313,0.00108093
5917.58102051,0.00106737
5919.50982788,0.00104872
5921.43863525,0.00107615
5923.36744263,0.00107280
5925.29625000,0.00106015
5927.22505737,0.00102509
5929.15386475,0.00105483
5931.08267212,0.00104382
5933.01147949,0.00104029
5934.94028686,0.00106276
5936.86909424,0.00108644
5938.79790161,0.00105754
5940.72670898,0.00098962
5942.65551636,0.00101119
5944.58432373,0.00099614
5946.51313110,0.00106290
5948.44193848,0.00107734
5950.37074585,0.00104155
5952.29955322,0.00108069
5954.22836060,0.00098515
5956.15716797,0.00098278
5958.08597534,0.00099910
5960.01478271,0.00099063
5961.94359009,0.00100641
5963.87239746,0.00096378
5965.80120483,0.00102936
5967.73001221,0.00101643
5969.65881958,0.00095511
5971.58762695,0.00096938
5973.51643433,0.00096388
5975.44524170,0.00099457
5977.37404907,0.00099858
5979.30285645,0.00095444
5981.23166382,0.00095280
5983.16047119,0.00097352
5985.08927856,0.00099433
5987.01808594,0.00097532
5988.94689331,0.00092723
5990.87570068,0.00099345
5992.80450806,0.00099686
5994.73331543,0.00095440
5996.66212280,0.00096326
5998.59093018,0.00092335
6000.51973755,0.00099122
