399.26312622,0.00013883
401.19193359,0.00045648
403.12074097,0.00063070
405.04954834,0.00048967
406.97835571,0.00089328
408.90716309,0.00082684
410.83597046,0.00039521
412.76477783,0.00053680
414.69358521,0.00089041
416.62239258,0.00056277
418.55119995,0.00012784
420.48000732,0.00017722
422.40881470,0.00049626
424.33762207,0.00110811
426.26642944,0.00103621
428.19523682,0.00071512
430.12404419,0.00076039
432.05285156,0.00080652
433.98165894,0.00084678
435.91046631,0.00064189
437.83927368,0.00082258
439.76808105,0.00066256
441.69688843,0.00044609
443.62569580,0.00113413
445.55450317,0.00078209
447.48331055,0.00048399
449.41211792,0.00081075
451.34092529,0.00050349
453.26973267,0.00071472
455.19854004,0.00051920
457.12734741,-0.00000975
459.05615479,0.00012482
460.98496216,0.00000736
462.91376953,0.00023699
464.84257690,0.00039453
466.77138428,0.00027762
468.70019165,0.00043498
470.62899902,0.00010598
472.55780640,0.00016747
474.48661377,0.00051222
476.41542114,0.00043680
478.34422852,0.00053409
480.27303589,0.00042003
482.20184326,0.00037371
484.13065063,0.00020197
486.05945801,0.00028168
487.98826538,0.00029484
489.91707275,-0.00009493
491.84588013,0.00057338
493.77468750,0.00091274
495.70349487,0.00018718
497.63230225,0.00034903
499.56110962,0.00054550
501.48991699,-0.00002971
503.41872437,0.00010268
505.34753174,0.00048585
507.27633911,0.00022875
509.20514648,0.00030125
511.13395386,0.00032075
513.06276123,0.00019108
514.99156860,0.00063787
516.92037598,0.00059701
518.84918335,0.00027501
520.77799072,0.00022049
522.70679810,-0.00002616
524.63560547,0.00006705
526.56441284,0.00010014
528.49322021,0.00037854
530.42202759,0.00075440
532.35083496,0.00028404
534.27964233,0.00019473
536.20844971,0.00027657
538.13725708,0.00028961
540.06606445,0.00026770
541.99487183,-0.00009448
543.92367920,0.00009590
545.85248657,0.00015319
547.78129395,0.00009889
549.71010132,0.00036602
551.63890869,0.00034772
553.56771606,0.00038275
555.49652344,0.00060727
557.42533081,0.00058979
559.35413818,0.00023384
561.28294556,0.00023455
563.21175293,0.00027717
565.14056030,0.00021162
567.06936768,0.00028780
568.99817505,-0.00011735
570.92698242,-0.00009077
572.85578979,0.00026997
574.78459717,0.00020308
576.71340454,-0.00001162
578.64221191,-0.00021804
580.57101929,0.00008455
582.49982666,0.00033040
584.42863403,0.00009663
586.35744141,-0.00005820
588.28624878,0.00036659
590.21505615,0.00043539
592.14386353,0.00020072
594.07267090,0.00077530
596.00147827,0.00085043
597.93028564,0.00039671
599.85909302,0.00012661
601.78790039,0.00005427
603.71670776,0.00042643
605.64551514,0.00061268
607.57432251,0.00017803
609.50312988,0.00017402
611.43193726,0.00050227
613.36074463,0.00004413
615.28955200,0.00023708
617.21835938,0.00021116
619.14716675,-0.00020708
621.07597412,0.00041681
623.00478149,0.00019191
624.93358887,0.00003746
626.86239624,0.00003893
628.79120361,0.00029620
630.72001099,0.00051116
632.64881836,0.00012703
634.57762573,0.00028780
636.50643311,0.00055245
638.43524048,0.00085075
640.36404785,0.00099230
642.29285522,0.00058728
644.22166260,0.00061835
646.15046997,0.00076274
648.07927734,0.00067184
650.00808472,0.00082714
651.93689209,0.00085295
653.86569946,0.00099505
655.79450684,0.00115643
657.72331421,0.00111515
659.65212158,0.00127130
661.58092896,0.00119284
663.50973633,0.00117500
665.43854370,0.00138992
667.36735107,0.00130253
669.29615845,0.00146145
671.22496582,0.00171174
673.15377319,0.00162951
675.08258057,0.00177907
677.01138794,0.00200808
678.94019531,0.00187923
680.86900269,0.00169861
682.79781006,0.00170546
684.72661743,0.00179571
686.65542480,0.00162412
688.58423218,0.00146953
690.51303955,0.00174230
692.44184692,0.00183348
694.37065430,0.00218667
696.29946167,0.00247072
698.22826904,0.00236169
700.15707642,0.00280304
702.08588379,0.00269753
704.01469116,0.00259512
705.94349854,0.00239085
707.87230591,0.00164838
709.80111328,0.00166712
711.72992065,0.00091485
713.65872803,0.00033552
715.58753540,0.00044823
717.51634277,0.00012393
719.44515015,0.00019757
721.37395752,0.00009439
723.30276489,0.00001470
725.23157227,0.00005648
727.16037964,0.00030133
729.08918701,0.00021304
731.01799438,-0.00002714
732.94680176,0.00023778
734.87560913,-0.00005630
736.80441650,-0.00003590
738.73322388,0.00021665
740.66203125,0.00001687
742.59083862,0.00005126
744.51964600,0.00006470
746.44845337,0.00003163
748.37726074,0.00041973
750.30606812,0.00028636
752.23487549,-0.00009905
754.16368286,-0.00012248
756.09249023,0.00013452
758.02129761,0.00028760
759.95010498,0.00016438
761.87891235,0.00028820
763.80771973,0.00035954
765.73652710,0.00023676
767.66533447,0.00034027
769.59414185,0.00025856
771.52294922,0.00037023
773.45175659,0.00055467
775.38056396,0.00040498
777.30937134,0.00045207
779.23817871,0.00025754
781.16698608,0.00039073
783.09579346,0.00033848
785.02460083,0.00021172
786.95340820,0.00048953
788.88221558,0.00015965
790.81102295,0.00027074
792.73983032,0.00008994
794.66863770,0.00010678
796.59744507,0.00050443
798.52625244,0.00020799
800.45505981,0.00042565
802.38386719,0.00058942
804.31267456,0.00048799
806.24148193,0.00030528
808.17028931,0.00038361
810.09909668,0.00038584
812.02790405,0.00007612
813.95671143,0.00025966
815.88551880,0.00012126
817.81432617,-0.00006903
819.74313354,0.00015473
821.67194092,0.00036337
823.60074829,0.00019524
825.52955566,0.00021014
827.45836304,0.00038930
829.38717041,0.00020577
831.31597778,0.00042048
833.24478516,0.00052699
835.17359253,0.00026352
837.10239990,0.00047057
839.03120728,0.00102424
840.96001465,0.00053503
842.88882202,0.00015331
844.81762939,0.00064615
846.74643677,0.00031501
848.67524414,0.00038096
850.60405151,0.00040397
852.53285889,0.00038594
854.46166626,0.00061147
856.39047363,0.00033420
858.31928101,0.00045028
860.24808838,0.00008859
862.17689575,0.00027427
864.10570313,0.00058179
866.03451050,0.00041165
867.96331787,0.00041061
869.89212524,0.00001965
871.82093262,0.00026088
873.74973999,0.00014029
875.67854736,0.00006264
877.60735474,0.00027452
879.53616211,0.00008347
881.46496948,0.00004767
883.39377686,0.00014673
885.32258423,0.00051212
887.25139160,0.00020983
889.18019897,0.00018998
891.10900635,0.00051922
893.03781372,0.00038511
894.96662109,0.00027779
896.89542847,0.00018813
898.82423584,0.00036008
900.75304321,0.00017068
902.68185059,0.00028646
904.61065796,0.00052549
906.53946533,0.00031806
908.46827271,0.00037673
910.39708008,0.00033072
912.32588745,0.00027262
914.25469482,0.00041896
916.18350220,0.00063719
918.11230957,0.00065927
920.04111694,0.00068632
921.96992432,0.00060054
923.89873169,0.00061439
925.82753906,0.00072844
927.75634644,0.00063477
929.68515381,0.00078416
931.61396118,0.00086850
933.54276855,0.00100429
935.47157593,0.00083008
937.40038330,0.00092563
939.32919067,0.00129589
941.25799805,0.00103132
943.18680542,0.00102087
945.11561279,0.00091978
947.04442017,0.00110728
948.97322754,0.00129176
950.90203491,0.00101013
952.83084229,0.00111340
954.75964966,0.00095452
956.68845703,0.00101202
958.61726440,0.00130849
960.54607178,0.00110850
962.47487915,0.00094462
964.40368652,0.00115573
966.33249390,0.00129138
968.26130127,0.00102735
970.19010864,0.00114082
972.11891602,0.00154846
974.04772339,0.00148785
975.97653076,0.00141848
977.90533813,0.00156879
979.83414551,0.00176284
981.76295288,0.00197427
983.69176025,0.00197305
985.62056763,0.00229289
987.54937500,0.00263289
989.47818237,0.00280214
991.40698975,0.00319098
993.33579712,0.00324680
995.26460449,0.00374383
997.19341187,0.00410835
999.12221924,0.00402634
1001.05102661,0.00451438
1002.97983398,0.00471075
1004.90864136,0.00502989
1006.83744873,0.00554027
1008.76625610,0.00573994
1010.69506348,0.00611642
1012.62387085,0.00642981
1014.55267822,0.00670684
1016.48148560,0.00718045
1018.41029297,0.00751068
1020.33910034,0.00770149
1022.26790771,0.00815578
1024.19671509,0.00855343
1026.12552246,0.00865263
1028.05432983,0.00876654
1029.98313721,0.00933182
1031.91194458,0.00967460
1033.84075195,0.00969735
1035.76955933,0.01017486
1037.69836670,0.01003595
1039.62717407,0.00984113
1041.55598145,0.01008901
1043.48478882,0.00993132
1045.41359619,0.00973426
1047.34240356,0.00960843
1049.27121094,0.00959957
1051.20001831,0.00948668
1053.12882568,0.00925815
1055.05763306,0.00886836
1056.98644043,0.00880543
1058.91524780,0.00878115
1060.84405518,0.00820663
1062.77286255,0.00804535
1064.70166992,0.00780284
1066.63047729,0.00759885
1068.55928467,0.00728648
1070.48809204,0.00685151
1072.41689941,0.00674035
1074.34570679,0.00632283
1076.27451416,0.00624598
1078.20332153,0.00575738
1080.13212891,0.00529892
1082.06093628,0.00535759
1083.98974365,0.00507842
1085.91855103,0.00505095
1087.84735840,0.00465426
1089.77616577,0.00447311
1091.70497314,0.00441078
1093.63378052,0.00393141
1095.56258789,0.00404849
1097.49139526,0.00396895
1099.42020264,0.00367307
1101.34901001,0.00372622
1103.27781738,0.00372553
1105.20662476,0.00361054
1107.13543213,0.00352546
1109.06423950,0.00349782
1110.99304687,0.00340414
1112.92185425,0.00333374
1114.85066162,0.00338863
1116.77946899,0.00337383
1118.70827637,0.00346213
1120.63708374,0.00353132
1122.56589111,0.00322269
1124.49469849,0.00343061
1126.42350586,0.00382335
1128.35231323,0.00376097
1130.28112061,0.00377746
1132.20992798,0.00375398
1134.13873535,0.00398289
1136.06754272,0.00413632
1137.99635010,0.00406936
1139.92515747,0.00438525
1141.85396484,0.00471296
1143.78277222,0.00497811
1145.71157959,0.00535061
1147.64038696,0.00560259
1149.56919434,0.00582985
1151.49800171,0.00619830
1153.42680908,0.00647068
1155.35561646,0.00678175
1157.28442383,0.00694185
1159.21323120,0.00721779
1161.14203857,0.00768511
1163.07084595,0.00764227
1164.99965332,0.00798305
1166.92846069,0.00838001
1168.85726807,0.00868616
1170.78607544,0.00922005
1172.71488281,0.00932206
1174.64369019,0.00989667
1176.57249756,0.01030540
1178.50130493,0.01048594
1180.43011230,0.01103058
1182.35891968,0.01118544
1184.28772705,0.01190071
1186.21653442,0.01261118
1188.14534180,0.01282676
1190.07414917,0.01359186
1192.00295654,0.01424342
1193.93176392,0.01485287
1195.86057129,0.01575033
1197.78937866,0.01635890
1199.71818604,0.01695774
1201.64699341,0.01772152
1203.57580078,0.01851385
1205.50460815,0.01917210
1207.43341553,0.01965661
1209.36222290,0.02049059
1211.29103027,0.02118880
1213.21983765,0.02153908
1215.14864502,0.02219947
1217.07745239,0.02275673
1219.00625977,0.02319709
1220.93506714,0.02365018
1222.86387451,0.02381893
1224.79268188,0.02391220
1226.72148926,0.02399320
1228.65029663,0.02426416
1230.57910400,0.02459441
1232.50791138,0.02455761
1234.43671875,0.02455139
1236.36552612,0.02459351
1238.29433350,0.02445033
1240.22314087,0.02451503
1242.15194824,0.02455896
1244.08075562,0.02440620
1246.00956299,0.02435493
1247.93837036,0.02422299
1249.86717773,0.02410295
1251.79598511,0.02395053
1253.72479248,0.02375376
1255.65359985,0.02361905
1257.58240723,0.02323364
1259.51121460,0.02286666
1261.44002197,0.02246427
1263.36882935,0.02219840
1265.29763672,0.02204397
1267.22644409,0.02153041
1269.15525146,0.02150323
1271.08405884,0.02126940
1273.01286621,0.02065216
1274.94167358,0.02051233
1276.87048096,0.01995767
1278.79928833,0.01954458
1280.72809570,0.01933297
1282.65690308,0.01888497
1284.58571045,0.01862768
1286.51451782,0.01823433
1288.44332520,0.01804467
1290.37213257,0.01788747
1292.30093994,0.01774886
1294.22974731,0.01764123
1296.15855469,0.01725463
1298.08736206,0.01740684
1300.01616943,0.01757462
1301.94497681,0.01737953
1303.87378418,0.01759568
1305.80259155,0.01781291
1307.73139893,0.01798875
1309.66020630,0.01848210
1311.58901367,0.01869832
1313.51782104,0.01894690
1315.44662842,0.01954192
1317.37543579,0.01985284
1319.30424316,0.02031991
1321.23305054,0.02115487
1323.16185791,0.02190215
1325.09066528,0.02237612
1327.01947266,0.02303668
1328.94828003,0.02373057
1330.87708740,0.02398164
1332.80589478,0.02473823
1334.73470215,0.02539801
1336.66350952,0.02541881
1338.59231689,0.02507573
1340.52112427,0.02525828
1342.44993164,0.02659714
1344.37873901,0.02689224
1346.30754639,0.02678300
1348.23635376,0.02671735
1350.16516113,0.02641633
1352.09396851,0.02660087
1354.02277588,0.02606799
1355.95158325,0.02592218
1357.88039062,0.02590733
1359.80919800,0.02541938
1361.73800537,0.02410980
1363.66681274,0.02357721
1365.59562012,0.02541207
1367.52442749,0.02463373
1369.45323486,0.02415479
1371.38204224,0.02494298
1373.31084961,0.02338097
1375.23965698,0.02345443
1377.16846436,0.02413407
1379.09727173,0.02440327
1381.02607910,0.02444588
1382.95488647,0.02431591
1384.88369385,0.02416885
1386.81250122,0.02260216
1388.74130859,0.02326683
1390.67011597,0.02561455
1392.59892334,0.02497648
1394.52773071,0.02297297
1396.45653809,0.02425808
1398.38534546,0.02427380
1400.31415283,0.02378500
1402.24296021,0.02641517
1404.17176758,0.02458952
1406.10057495,0.02457145
1408.02938232,0.02607663
1409.95818970,0.02484884
1411.88699707,0.02551481
1413.81580444,0.02446458
1415.74461182,0.02509164
1417.67341919,0.02239996
1419.60222656,0.01959247
1421.53103394,0.02332713
1423.45984131,0.02248533
1425.38864868,0.02187858
1427.31745605,0.02237571
1429.24626343,0.02036637
1431.17507080,0.01970442
1433.10387817,0.02033850
1435.03268555,0.01851300
1436.96149292,0.01506203
1438.89030029,0.01777266
1440.81910767,0.01848952
1442.74791504,0.01703112
1444.67672241,0.01810808
1446.60552979,0.01625856
1448.53433716,0.01665523
1450.46314453,0.01713428
1452.39195190,0.01738382
1454.32075928,0.01833492
1456.24956665,0.01457004
1458.17837402,0.01498312
1460.10718140,0.02078588
1462.03598877,0.02239961
1463.96479614,0.02180115
1465.89360352,0.02257388
1467.82241089,0.02635444
1469.75121826,0.02830857
1471.68002563,0.02432501
1473.60883301,0.02554040
1475.53764038,0.02959204
1477.46644775,0.03217798
1479.39525513,0.03573641
1481.32406250,0.03589970
1483.25286987,0.03846081
1485.18167725,0.03963255
1487.11048462,0.03828767
1489.03929199,0.03794314
1490.96809937,0.03801256
1492.89690674,0.04535555
1494.82571411,0.04425881
1496.75452148,0.03871689
1498.68332886,0.04438590
1500.61213623,0.04606926
1502.54094360,0.05003909
1504.46975098,0.04682030
1506.39855835,0.03163476
1508.32736572,0.03988917
1510.25617310,0.04847374
1512.18498047,0.04673363
1514.11378784,0.05149695
1516.04259521,0.04525786
1517.97140259,0.04738329
1519.90020996,0.04624617
1521.82901733,0.03815785
1523.75782471,0.04874276
1525.68663208,0.04806547
1527.61543945,0.04717106
1529.54424683,0.05386890
1531.47305420,0.05140200
1533.40186157,0.04610153
1535.33066895,0.04939000
1537.25947632,0.05379549
1539.18828369,0.03628986
1541.11709106,0.03754324
1543.04589844,0.04699417
1544.97470581,0.04464142
1546.90351318,0.05491577
1548.83232056,0.05072152
1550.76112793,0.05217413
1552.68993530,0.05253636
1554.61874268,0.04648649
1556.54755005,0.05052691
1558.47635742,0.03311029
1560.40516479,0.03601072
1562.33397217,0.05584509
1564.26277954,0.05211463
1566.19158691,0.05388093
1568.12039429,0.05337968
1570.04920166,0.04578782
1571.97800903,0.05449247
1573.90681641,0.05560604
1575.83562378,0.04218215
1577.76443115,0.04869153
1579.69323853,0.05636395
1581.62204590,0.05376317
1583.55085327,0.05549639
1585.47966064,0.05462978
1587.40846802,0.05513035
1589.33727539,0.05460491
1591.26608276,0.05461444
1593.19489014,0.05477183
1595.12369751,0.05399346
1597.05250488,0.05491230
1598.98131226,0.05452552
1600.91011963,0.05497116
1602.83892700,0.05383933
1604.76773437,0.05493276
1606.69654175,0.05400610
1608.62534912,0.05374785
1610.55415649,0.05387511
1612.48296387,0.05432947
1614.41177124,0.05539627
1616.34057861,0.04351868
1618.26938599,0.04747142
1620.19819336,0.05731157
1622.12700073,0.04980499
1624.05580811,0.04986781
1625.98461548,0.05309683
1627.91342285,0.05266974
1629.84223022,0.05236916
1631.77103760,0.05674613
1633.69984497,0.05164493
1635.62865234,0.04080532
1637.55745972,0.04880159
1639.48626709,0.05513866
1641.41507446,0.05371357
1643.34388184,0.05514411
1645.27268921,0.04899384
1647.20149658,0.04151338
1649.13030396,0.05368502
1651.05911133,0.05137327
1652.98791870,0.02981927
1654.91672607,0.04285120
1656.84553345,0.05651224
1658.77434082,0.05401287
1660.70314819,0.05588939
1662.63195557,0.04966071
1664.56076294,0.05277254
1666.48957031,0.05792174
1668.41837769,0.04913031
1670.34718506,0.04693447
1672.27599243,0.05506546
1674.20479980,0.05033828
1676.13360718,0.04740886
1678.06241455,0.05648987
1679.99122192,0.05420936
1681.92002930,0.05303624
1683.84883667,0.04178794
1685.77764404,0.04115041
1687.70645142,0.05974501
1689.63525879,0.05082583
1691.56406616,0.05652284
1693.49287354,0.05824877
1695.42168091,0.04013346
1697.35048828,0.05160807
1699.27929565,0.04429844
1701.20810303,0.03831816
1703.13691040,0.05629947
1705.06571777,0.05084913
1706.99452515,0.05098172
1708.92333252,0.05693609
1710.85213989,0.05427881
1712.78094727,0.05530584
1714.70975464,0.05065187
1716.63856201,0.04470871
1718.56736938,0.04371008
1720.49617676,0.05334910
1722.42498413,0.05642829
1724.35379150,0.05139794
1726.28259888,0.05700827
1728.21140625,0.05225056
1730.14021362,0.05208499
1732.06902100,0.05127332
1733.99782837,0.03691695
1735.92663574,0.04764651
1737.85544312,0.05402808
1739.78425049,0.04697809
1741.71305786,0.05195138
1743.64186523,0.05258925
1745.57067261,0.05269399
1747.49947998,0.05306681
1749.42828735,0.05024719
1751.35709473,0.04768686
1753.28590210,0.05371030
1755.21470947,0.05696959
1757.14351685,0.05084892
1759.07232422,0.05705407
1761.00113159,0.05320632
1762.92993896,0.05065764
1764.85874634,0.05997791
1766.78755371,0.05287729
1768.71636108,0.05316097
1770.64516846,0.05286541
1772.57397583,0.04641231
1774.50278320,0.05316550
1776.43159058,0.05670983
1778.36039795,0.05579385
1780.28920532,0.05487707
1782.21801270,0.05549331
1784.14682007,0.05552174
1786.07562744,0.05405284
1788.00443481,0.05756033
1789.93324219,0.05583923
1791.86204956,0.04952528
1793.79085693,0.05204881
1795.71966431,0.05650976
1797.64847168,0.05568107
1799.57727905,0.05465087
1801.50608643,0.05348794
1803.43489380,0.05566961
1805.36370117,0.05733414
1807.29250854,0.05623148
1809.22131592,0.05650614
1811.15012329,0.05473392
1813.07893066,0.05670679
1815.00773804,0.05729239
1816.93654541,0.05632650
1818.86535278,0.05692116
1820.79416016,0.05678941
1822.72296753,0.05779472
1824.65177490,0.05323108
1826.58058228,0.05553225
1828.50938965,0.05579189
1830.43819702,0.05131744
1832.36700439,0.05708387
1834.29581177,0.05671139
1836.22461914,0.05647447
1838.15342651,0.05646168
1840.08223389,0.05668902
1842.01104126,0.05702319
1843.93984863,0.04924563
1845.86865601,0.05309387
1847.79746338,0.05693748
1849.72627075,0.05535911
1851.65507812,0.05753593
1853.58388550,0.05614110
1855.51269287,0.05679352
1857.44150024,0.05650000
1859.37030762,0.05592273
1861.29911499,0.05655995
1863.22792236,0.05589533
1865.15672974,0.05658228
1867.08553711,0.05437262
1869.01434448,0.05142082
1870.94315186,0.05390050
1872.87195923,0.05661146
1874.80076660,0.05539346
1876.72957397,0.05600016
1878.65838135,0.05587728
1880.58718872,0.05538587
1882.51599609,0.05611533
1884.44480347,0.05484160
1886.37361084,0.05602320
1888.30241821,0.05439694
1890.23122559,0.05292556
1892.16003296,0.05581216
1894.08884033,0.05473974
1896.01764771,0.05446201
1897.94645508,0.05532081
1899.87526245,0.05503095
1901.80406982,0.05532877
1903.73287720,0.05465680
1905.66168457,0.05500633
1907.59049194,0.05453791
1909.51929932,0.05403262
1911.44810669,0.05444173
1913.37691406,0.05462197
1915.30572144,0.05527049
1917.23452881,0.05224258
1919.16333618,0.05229747
1921.09214355,0.05483986
1923.02095093,0.05258175
1924.94975830,0.05394165
1926.87856567,0.05479686
1928.80737305,0.05401229
1930.73618042,0.05494978
1932.66498779,0.05391698
1934.59379517,0.05451249
1936.52260254,0.05407882
1938.45140991,0.05431682
1940.38021729,0.05438983
1942.30902466,0.05216643
1944.23783203,0.05347427
1946.16663940,0.05413672
1948.09544678,0.05392319
1950.02425415,0.05424353
1951.95306152,0.05406695
1953.88186890,0.05403598
1955.81067627,0.05379645
1957.73948364,0.05420865
1959.66829102,0.05387763
1961.59709839,0.05376801
1963.52590576,0.05397532
1965.45471313,0.05351781
1967.38352051,0.05297252
1969.31232788,0.05345140
1971.24113525,0.05404436
1973.16994263,0.05350272
1975.09875000,0.05384175
1977.02755737,0.05366909
1978.95636475,0.05363440
1980.88517212,0.05363914
1982.81397949,0.05331010
1984.74278687,0.05376795
1986.67159424,0.05305734
1988.60040161,0.05322842
1990.52920898,0.05296636
1992.45801636,0.05205228
1994.38682373,0.05307400
1996.31563110,0.05313653
1998.24443848,0.05270794
2000.17324585,0.05291529
2002.10205322,0.05271796
2004.03086060,0.05287440
2005.95966797,0.05295601
2007.88847534,0.05246700
2009.81728271,0.05251479
2011.74609009,0.05245683
2013.67489746,0.05227767
2015.60370483,0.05188401
2017.53251221,0.05139954
2019.46131958,0.05199413
2021.39012695,0.05186819
2023.31893433,0.05178366
2025.24774170,0.05192677
2027.17654907,0.05155278
2029.10535645,0.05168109
2031.03416382,0.05140198
2032.96297119,0.05141085
2034.89177856,0.05141480
2036.82058594,0.05122115
2038.74939331,0.05113435
2040.67820068,0.05074288
2042.60700806,0.05077481
2044.53581543,0.05088060
2046.46462280,0.05092022
2048.39343018,0.05069994
2050.32223755,0.05052170
2052.25104492,0.05045594
2054.17985229,0.05023975
2056.10865967,0.05029578
2058.03746704,0.05027913
2059.96627441,0.05011854
2061.89508179,0.05008486
2063.82388916,0.05003781
2065.75269653,0.04969517
2067.68150391,0.04969106
2069.61031128,0.04982381
2071.53911865,0.04972059
2073.46792603,0.04960388
2075.39673340,0.04953836
2077.32554077,0.04957881
2079.25434814,0.04924092
2081.18315552,0.04934497
2083.11196289,0.04936165
2085.04077026,0.04903060
2086.96957764,0.04908296
2088.89838501,0.04885881
2090.82719238,0.04883325
2092.75599976,0.04888631
2094.68480713,0.04883500
2096.61361450,0.04871965
2098.54242187,0.04859725
2100.47122925,0.04856269
2102.40003662,0.04845008
2104.32884399,0.04846882
2106.25765137,0.04835671
2108.18645874,0.04829404
2110.11526611,0.04814593
2112.04407349,0.04810770
2113.97288086,0.04814078
2115.90168823,0.04801939
2117.83049561,0.04791510
2119.75930298,0.04783797
2121.68811035,0.04802614
2123.61691772,0.04783441
2125.54572510,0.04778554
2127.47453247,0.04779226
2129.40333984,0.04755159
2131.33214722,0.04755732
2133.26095459,0.04752748
2135.18976196,0.04757124
2137.11856934,0.04729651
2139.04737671,0.04726350
2140.97618408,0.04728657
2142.90499146,0.04726718
2144.83379883,0.04740462
2146.76260620,0.04707517
2148.69141357,0.04716818
2150.62022095,0.04714003
2152.54902832,0.04693609
2154.47783569,0.04701556
2156.40664307,0.04684348
2158.33545044,0.04679701
2160.26425781,0.04685231
2162.19306519,0.04676966
2164.12187256,0.04681402
2166.05067993,0.04680721
2167.97948730,0.04652796
2169.90829468,0.04666375
2171.83710205,0.04661718
2173.76590942,0.04653537
2175.69471680,0.04661615
2177.62352417,0.04627343
2179.55233154,0.04632964
2181.48113892,0.04625989
2183.40994629,0.04632300
2185.33875366,0.04636656
2187.26756104,0.04607225
2189.19636841,0.04602214
2191.12517578,0.04591434
2193.05398315,0.04613753
2194.98279053,0.04606264
2196.91159790,0.04599485
2198.84040527,0.04606827
2200.76921265,0.04591206
2202.69802002,0.04592948
2204.62682739,0.04582993
2206.55563477,0.04582947
2208.48444214,0.04568919
2210.41324951,0.04567526
2212.34205688,0.04562421
2214.27086426,0.04551307
2216.19967163,0.04551745
2218.12847900,0.04539954
2220.05728638,0.04549340
2221.98609375,0.04522939
2223.91490112,0.04525437
2225.84370850,0.04543696
2227.77251587,0.04523612
2229.70132324,0.04514062
2231.63013062,0.04505576
2233.55893799,0.04506836
2235.48774536,0.04496299
2237.41655273,0.04495282
2239.34536011,0.04484418
2241.27416748,0.04477144
2243.20297485,0.04464015
2245.13178223,0.04451162
2247.06058960,0.04476472
2248.98939697,0.04457569
2250.91820435,0.04453850
2252.84701172,0.04445960
2254.77581909,0.04430633
2256.70462646,0.04441685
2258.63343384,0.04420604
2260.56224121,0.04417180
2262.49104858,0.04413484
2264.41985596,0.04415020
2266.34866333,0.04420621
2268.27747070,0.04413335
2270.20627808,0.04405625
2272.13508545,0.04389334
2274.06389282,0.04389015
2275.99270020,0.04384604
2277.92150757,0.04387475
2279.85031494,0.04387929
2281.77912231,0.04371044
2283.70792969,0.04365154
2285.63673706,0.04361444
2287.56554443,0.04351229
2289.49435181,0.04340237
2291.42315918,0.04335972
2293.35196655,0.04332395
2295.28077393,0.04318696
2297.20958130,0.04303967
2299.13838867,0.04296504
2301.06719604,0.04272168
2302.99600342,0.04260878
2304.92481079,0.04249138
2306.85361816,0.04207952
2308.78242554,0.04183595
2310.71123291,0.04150068
2312.64004028,0.04115610
2314.56884766,0.04090098
2316.49765503,0.04043944
2318.42646240,0.03987013
2320.35526978,0.03940453
2322.28407715,0.03892840
2324.21288452,0.03835122
2326.14169189,0.03798786
2328.07049927,0.03764791
2329.99930664,0.03734775
2331.92811401,0.03702290
2333.85692139,0.03679462
2335.78572876,0.03669249
2337.71453613,0.03657179
2339.64334351,0.03663868
2341.57215088,0.03669023
2343.50095825,0.03721129
2345.42976562,0.03788225
2347.35857300,0.03919617
2349.28738037,0.04046144
2351.21618774,0.03919277
2353.14499512,0.03738334
2355.07380249,0.03620865
2357.00260986,0.03505870
2358.93141724,0.03442413
2360.86022461,0.03407899
2362.78903198,0.03409827
2364.71783936,0.03428897
2366.64664673,0.03465190
2368.57545410,0.03535060
2370.50426147,0.03613133
2372.43306885,0.03694627
2374.36187622,0.03802879
2376.29068359,0.03897520
2378.21949097,0.03958607
2380.14829834,0.04027095
2382.07710571,0.04072647
2384.00591309,0.04106241
2385.93472046,0.04110413
2387.86352783,0.04114502
2389.79233521,0.04138526
2391.72114258,0.04120377
2393.64994995,0.04118107
2395.57875732,0.04108748
2397.50756470,0.04083201
2399.43637207,0.04095428
2401.36517944,0.04102118
2403.29398682,0.04085397
2405.22279419,0.04071243
2407.15160156,0.04074216
2409.08040894,0.04075924
2411.00921631,0.04064544
2412.93802368,0.04056815
2414.86683105,0.04061337
2416.79563843,0.04058111
2418.72444580,0.04051163
2420.65325317,0.04039910
2422.58206055,0.04034645
2424.51086792,0.04041604
2426.43967529,0.04035008
2428.36848267,0.04038815
2430.29729004,0.04026617
2432.22609741,0.04016596
2434.15490479,0.04023114
2436.08371216,0.04005525
2438.01251953,0.03998715
2439.94132690,0.03995344
2441.87013428,0.04000458
2443.79894165,0.03996023
2445.72774902,0.03978347
2447.65655640,0.03973871
2449.58536377,0.03961301
2451.51417114,0.03967480
2453.44297852,0.03974006
2455.37178589,0.03963280
2457.30059326,0.03948691
2459.22940063,0.03945731
2461.15820801,0.03955644
2463.08701538,0.03941949
2465.01582275,0.03935416
2466.94463013,0.03939327
2468.87343750,0.03931531
2470.80224487,0.03929321
2472.73105225,0.03925265
2474.65985962,0.03918532
2476.58866699,0.03912798
2478.51747437,0.03907225
2480.44628174,0.03909680
2482.37508911,0.03907456
2484.30389648,0.03897646
2486.23270386,0.03896187
2488.16151123,0.03891296
2490.09031860,0.03875657
2492.01912598,0.03877816
2493.94793335,0.03886234
2495.87674072,0.03862923
2497.80554810,0.03859834
2499.73435547,0.03873875
2501.66316284,0.03855637
2503.59197021,0.03845334
2505.52077759,0.03841550
2507.44958496,0.03838364
2509.37839233,0.03838094
2511.30719971,0.03837932
2513.23600708,0.03831909
2515.16481445,0.03817918
2517.09362183,0.03817045
2519.02242920,0.03808670
2520.95123657,0.03813563
2522.88004395,0.03810817
2524.80885132,0.03799075
2526.73765869,0.03805871
2528.66646606,0.03790902
2530.59527344,0.03789376
2532.52408081,0.03787339
2534.45288818,0.03777842
2536.38169556,0.03779758
2538.31050293,0.03771396
2540.23931030,0.03771532
2542.16811768,0.03765786
2544.09692505,0.03761429
2546.02573242,0.03761604
2547.95453979,0.03752554
2549.88334717,0.03747814
2551.81215454,0.03746872
2553.74096191,0.03739401
2555.66976929,0.03728914
2557.59857666,0.03736307
2559.52738403,0.03740924
2561.45619141,0.03724401
2563.38499878,0.03709852
2565.31380615,0.03704971
2567.24261353,0.03705297
2569.17142090,0.03706606
2571.10022827,0.03693709
2573.02903564,0.03688722
2574.95784302,0.03686918
2576.88665039,0.03679454
2578.81545776,0.03693219
2580.74426514,0.03689425
2582.67307251,0.03678815
2584.60187988,0.03668910
2586.53068726,0.03666440
2588.45949463,0.03670222
2590.38830200,0.03655757
2592.31710937,0.03659807
2594.24591675,0.03642767
2596.17472412,0.03651390
2598.10353149,0.03659870
2600.03233887,0.03627566
2601.96114624,0.03637216
2603.88995361,0.03625225
2605.81876099,0.03623119
2607.74756836,0.03620635
2609.67637573,0.03606666
2611.60518311,0.03622261
2613.53399048,0.03599807
2615.46279785,0.03589127
2617.39160522,0.03594654
2619.32041260,0.03589276
2621.24921997,0.03589763
2623.17802734,0.03590811
2625.10683472,0.03576633
2627.03564209,0.03566408
2628.96444946,0.03569388
2630.89325684,0.03555226
2632.82206421,0.03568311
2634.75087158,0.03559926
2636.67967895,0.03542003
2638.60848633,0.03546792
2640.53729370,0.03521560
2642.46610107,0.03524034
2644.39490845,0.03543561
2646.32371582,0.03541322
2648.25252319,0.03524901
2650.18133057,0.03523168
2652.11013794,0.03522801
2654.03894531,0.03509795
2655.96775269,0.03508773
2657.89656006,0.03503978
2659.82536743,0.03511991
2661.75417480,0.03494742
2663.68298218,0.03477343
2665.61178955,0.03487887
2667.54059692,0.03472975
2669.46940430,0.03463541
2671.39821167,0.03465926
2673.32701904,0.03463109
2675.25582642,0.03462110
2677.18463379,0.03469688
2679.11344116,0.03454178
2681.04224854,0.03446612
2682.97105591,0.03458245
2684.89986328,0.03440635
2686.82867065,0.03440050
2688.75747803,0.03429502
2690.68628540,0.03414150
2692.61509277,0.03416756
2694.54390015,0.03402998
2696.47270752,0.03402252
2698.40151489,0.03409472
2700.33032227,0.03414728
2702.25912964,0.03408664
2704.18793701,0.03401925
2706.11674438,0.03398266
2708.04555176,0.03385960
2709.97435913,0.03388331
2711.90316650,0.03383608
2713.83197388,0.03373613
2715.76078125,0.03375974
2717.68958862,0.03365588
2719.61839600,0.03354728
2721.54720337,0.03356404
2723.47601074,0.03343456
2725.40481812,0.03337146
2727.33362549,0.03344251
2729.26243286,0.03335528
2731.19124023,0.03329753
2733.12004761,0.03325927
2735.04885498,0.03317288
2736.97766235,0.03312057
2738.90646973,0.03311256
2740.83527710,0.03310215
2742.76408447,0.03297879
2744.69289185,0.03290483
2746.62169922,0.03297222
2748.55050659,0.03294779
2750.47931396,0.03287233
2752.40812134,0.03281741
2754.33692871,0.03266427
2756.26573608,0.03262071
2758.19454346,0.03258418
2760.12335083,0.03258542
2762.05215820,0.03257164
2763.98096558,0.03238505
2765.90977295,0.03244564
2767.83858032,0.03240917
2769.76738770,0.03234012
2771.69619507,0.03239172
2773.62500244,0.03225439
2775.55380981,0.03217704
2777.48261719,0.03214425
2779.41142456,0.03208682
2781.34023193,0.03203166
2783.26903931,0.03213142
2785.19784668,0.03204157
2787.12665405,0.03185708
2789.05546143,0.03180907
2790.98426880,0.03168801
2792.91307617,0.03181454
2794.84188354,0.03169243
2796.77069092,0.03158366
2798.69949829,0.03162847
2800.62830566,0.03147545
2802.55711304,0.03145026
2804.48592041,0.03125816
2806.41472778,0.03125587
2808.34353516,0.03132882
2810.27234253,0.03121562
2812.20114990,0.03108128
2814.12995728,0.03100757
2816.05876465,0.03111237
2817.98757202,0.03096528
2819.91637939,0.03090424
2821.84518677,0.03090541
2823.77399414,0.03078252
2825.70280151,0.03071983
2827.63160889,0.03066283
2829.56041626,0.03068004
2831.48922363,0.03057034
2833.41803101,0.03045228
2835.34683838,0.03036903
2837.27564575,0.03026380
2839.20445312,0.03017003
2841.13326050,0.03012074
2843.06206787,0.02996444
2844.99087524,0.02975379
2846.91968262,0.02961420
2848.84848999,0.02932815
2850.77729736,0.02930775
2852.70610474,0.02936821
2854.63491211,0.02942119
2856.56371948,0.02945758
2858.49252686,0.02938710
2860.42133423,0.02946329
2862.35014160,0.02936238
2864.27894897,0.02947153
2866.20775635,0.02944003
2868.13656372,0.02930306
2870.06537109,0.02938835
2871.99417847,0.02919088
2873.92298584,0.02917645
2875.85179321,0.02909781
2877.78060059,0.02902057
2879.70940796,0.02906999
2881.63821533,0.02905431
2883.56702270,0.02896086
2885.49583008,0.02875395
2887.42463745,0.02881403
2889.35344482,0.02865046
2891.28225220,0.02860589
2893.21105957,0.02860952
2895.13986694,0.02841256
2897.06867432,0.02850524
2898.99748169,0.02832782
2900.92628906,0.02829716
2902.85509644,0.02833246
2904.78390381,0.02811737
2906.71271118,0.02805084
2908.64151855,0.02791753
2910.57032593,0.02780473
2912.49913330,0.02766054
2914.42794067,0.02754535
2916.35674805,0.02747989
2918.28555542,0.02728889
2920.21436279,0.02722917
2922.14317017,0.02738482
2924.07197754,0.02738893
2926.00078491,0.02734038
2927.92959229,0.02741213
2929.85839966,0.02743079
2931.78720703,0.02761399
2933.71601440,0.02754803
2935.64482178,0.02743734
2937.57362915,0.02760256
2939.50243652,0.02757837
2941.43124390,0.02768414
2943.36005127,0.02763907
2945.28885864,0.02756089
2947.21766602,0.02756089
2949.14647339,0.02738852
2951.07528076,0.02739540
2953.00408813,0.02725947
2954.93289551,0.02722870
2956.86170288,0.02721332
2958.79051025,0.02705172
2960.71931763,0.02705922
2962.64812500,0.02699912
2964.57693237,0.02705537
2966.50573975,0.02696864
2968.43454712,0.02695806
2970.36335449,0.02711454
2972.29216187,0.02702029
2974.22096924,0.02707118
2976.14977661,0.02709750
2978.07858398,0.02718655
2980.00739136,0.02723850
2981.93619873,0.02708271
2983.86500610,0.02707879
2985.79381348,0.02699721
2987.72262085,0.02697262
2989.65142822,0.02698259
2991.58023560,0.02691536
2993.50904297,0.02693517
2995.43785034,0.02686992
2997.36665771,0.02679676
2999.29546509,0.02687225
3001.22427246,0.02684569
3003.15307983,0.02667285
3005.08188721,0.02664260
3007.01069458,0.02662398
3008.93950195,0.02659154
3010.86830933,0.02643439
3012.79711670,0.02633970
3014.72592407,0.02640979
3016.65473145,0.02622385
3018.58353882,0.02631092
3020.51234619,0.02634932
3022.44115356,0.02613410
3024.36996094,0.02606849
3026.29876831,0.02597171
3028.22757568,0.02602955
3030.15638306,0.02585247
3032.08519043,0.02579451
3034.01399780,0.02588260
3035.94280518,0.02571478
3037.87161255,0.02579303
3039.80041992,0.02573309
3041.72922729,0.02562459
3043.65803467,0.02563452
3045.58684204,0.02555157
3047.51564941,0.02550917
3049.44445679,0.02549464
3051.37326416,0.02541800
3053.30207153,0.02530572
3055.23087891,0.02530354
3057.15968628,0.02522568
3059.08849365,0.02521520
3061.01730103,0.02519770
3062.94610840,0.02513032
3064.87491577,0.02506557
3066.80372314,0.02494346
3068.73253052,0.02502543
3070.66133789,0.02501403
3072.59014526,0.02497366
3074.51895264,0.02483421
3076.44776001,0.02473236
3078.37656738,0.02471589
3080.30537476,0.02452026
3082.23418213,0.02458376
3084.16298950,0.02454084
3086.09179687,0.02455170
3088.02060425,0.02453363
3089.94941162,0.02444341
3091.87821899,0.02456027
3093.80702637,0.02431694
3095.73583374,0.02427891
3097.66464111,0.02429235
3099.59344849,0.02419578
3101.52225586,0.02419419
3103.45106323,0.02408092
3105.37987061,0.02410287
3107.30867798,0.02396158
3109.23748535,0.02397895
3111.16629272,0.02399219
3113.09510010,0.02382317
3115.02390747,0.02389624
3116.95271484,0.02377010
3118.88152222,0.02367428
3120.81032959,0.02366080
3122.73913696,0.02347416
3124.66794434,0.02347359
3126.59675171,0.02345264
3128.52555908,0.02342175
3130.45436645,0.02349951
3132.38317383,0.02323085
3134.31198120,0.02316203
3136.24078857,0.02322403
3138.16959595,0.02303195
3140.09840332,0.02308515
3142.02721069,0.02297056
3143.95601807,0.02294344
3145.88482544,0.02293816
3147.81363281,0.02286325
3149.74244019,0.02294834
3151.67124756,0.02264130
3153.60005493,0.02260763
3155.52886230,0.02264171
3157.45766968,0.02251716
3159.38647705,0.02247252
3161.31528442,0.02238912
3163.24409180,0.02244160
3165.17289917,0.02225195
3167.10170654,0.02230074
3169.03051392,0.02227107
3170.95932129,0.02211771
3172.88812866,0.02217802
3174.81693604,0.02188007
3176.74574341,0.02188310
3178.67455078,0.02192863
3180.60335815,0.02177587
3182.53216553,0.02178301
3184.46097290,0.02173362
3186.38978027,0.02170907
3188.31858765,0.02166781
3190.24739502,0.02158036
3192.17620239,0.02145856
3194.10500977,0.02154780
3196.03381714,0.02152279
3197.96262451,0.02127831
3199.89143188,0.02126021
3201.82023926,0.02123583
3203.74904663,0.02120357
3205.67785400,0.02119510
3207.60666138,0.02124009
3209.53546875,0.02126836
3211.46427612,0.02107188
3213.39308350,0.02092277
3215.32189087,0.02097306
3217.25069824,0.02100227
3219.17950562,0.02093413
3221.10831299,0.02089607
3223.03712036,0.02090636
3224.96592773,0.02089470
3226.89473511,0.02079625
3228.82354248,0.02072785
3230.75234985,0.02067967
3232.68115723,0.02065050
3234.60996460,0.02062518
3236.53877197,0.02059752
3238.46757935,0.02059460
3240.39638672,0.02047590
3242.32519409,0.02052160
3244.25400146,0.02046770
3246.18280884,0.02034610
3248.11161621,0.02042007
3250.04042358,0.02040192
3251.96923096,0.02042419
3253.89803833,0.02025048
3255.82684570,0.02029236
3257.75565308,0.02039772
3259.68446045,0.02017876
3261.61326782,0.02023005
3263.54207520,0.02013266
3265.47088257,0.02011698
3267.39968994,0.02026995
3269.32849731,0.02018181
3271.25730469,0.02017133
3273.18611206,0.02014323
3275.11491943,0.02007176
3277.04372681,0.02004304
3278.97253418,0.02001860
3280.90134155,0.01998154
3282.83014893,0.02002114
3284.75895630,0.02002870
3286.68776367,0.01998950
3288.61657104,0.02003641
3290.54537842,0.01996986
3292.47418579,0.01986500
3294.40299316,0.01986795
3296.33180054,0.01992864
3298.26060791,0.01986776
3300.18941528,0.01972482
3302.11822266,0.01968762
3304.04703003,0.01979554
3305.97583740,0.01981417
3307.90464478,0.01962039
3309.83345215,0.01959097
3311.76225952,0.01960240
3313.69106689,0.01961294
3315.61987427,0.01969057
3317.54868164,0.01962480
3319.47748901,0.01949709
3321.40629639,0.01952458
3323.33510376,0.01960698
3325.26391113,0.01941025
3327.19271851,0.01936610
3329.12152588,0.01943421
3331.05033325,0.01932524
3332.97914062,0.01936265
3334.90794800,0.01935476
3336.83675537,0.01927208
3338.76556274,0.01931403
3340.69437012,0.01931316
3342.62317749,0.01916206
3344.55198486,0.01920819
3346.48079224,0.01928629
3348.40959961,0.01917753
3350.33840698,0.01910459
3352.26721436,0.01904661
3354.19602173,0.01907298
3356.12482910,0.01900842
3358.05363647,0.01899002
3359.98244385,0.01891214
3361.91125122,0.01879761
3363.84005859,0.01890988
3365.76886597,0.01887261
3367.69767334,0.01884880
3369.62648071,0.01878253
3371.55528809,0.01879987
3373.48409546,0.01881015
3375.41290283,0.01869246
3377.34171020,0.01878071
3379.27051758,0.01863549
3381.19932495,0.01851569
3383.12813232,0.01859667
3385.05693970,0.01861194
3386.98574707,0.01855481
3388.91455444,0.01850536
3390.84336182,0.01844715
3392.77216919,0.01833732
3394.70097656,0.01840680
3396.62978394,0.01829096
3398.55859131,0.01821389
3400.48739868,0.01826532
3402.41620605,0.01817095
3404.34501343,0.01819123
3406.27382080,0.01812293
3408.20262817,0.01809374
3410.13143555,0.01815823
3412.06024292,0.01813391
3413.98905029,0.01811485
3415.91785767,0.01804676
3417.84666504,0.01792471
3419.77547241,0.01791152
3421.70427979,0.01783559
3423.63308716,0.01784527
3425.56189453,0.01794902
3427.49070190,0.01778304
3429.41950928,0.01787254
3431.34831665,0.01779895
3433.27712402,0.01768759
3435.20593140,0.01781610
3437.13473877,0.01763675
3439.06354614,0.01772234
3440.99235352,0.01763161
3442.92116089,0.01755678
3444.84996826,0.01756067
3446.77877563,0.01724176
3448.70758301,0.01739834
3450.63639038,0.01756330
3452.56519775,0.01750949
3454.49400513,0.01748636
3456.42281250,0.01743485
3458.35161987,0.01734727
3460.28042725,0.01731635
3462.20923462,0.01731791
3464.13804199,0.01724428
3466.06684937,0.01729235
3467.99565674,0.01729748
3469.92446411,0.01729466
3471.85327148,0.01725587
3473.78207886,0.01726346
3475.71088623,0.01719523
3477.63969360,0.01718146
3479.56850098,0.01718419
3481.49730835,0.01685805
3483.42611572,0.01700207
3485.35492310,0.01713736
3487.28373047,0.01707461
3489.21253784,0.01709448
3491.14134521,0.01706962
3493.07015259,0.01712682
3494.99895996,0.01694635
3496.92776733,0.01697834
3498.85657471,0.01710300
3500.78538208,0.01709059
3502.71418945,0.01672302
3504.64299683,0.01668028
3506.57180420,0.01713047
3508.50061157,0.01682289
3510.42941895,0.01677213
3512.35822632,0.01690523
3514.28703369,0.01691744
3516.21584106,0.01701439
3518.14464844,0.01691055
3520.07345581,0.01703570
3522.00226318,0.01676187
3523.93107056,0.01641845
3525.85987793,0.01654064
3527.78868530,0.01664836
3529.71749268,0.01658005
3531.64630005,0.01675209
3533.57510742,0.01694826
3535.50391479,0.01670760
3537.43272217,0.01675366
3539.36152954,0.01687930
3541.29033691,0.01689335
3543.21914429,0.01680586
3545.14795166,0.01622189
3547.07675903,0.01599434
3549.00556641,0.01669142
3550.93437378,0.01674576
3552.86318115,0.01631103
3554.79198853,0.01670800
3556.72079590,0.01674971
3558.64960327,0.01674853
3560.57841064,0.01665634
3562.50721802,0.01645561
3564.43602539,0.01655472
3566.36483276,0.01528156
3568.29364014,0.01482486
3570.22244751,0.01635573
3572.15125488,0.01689853
3574.08006226,0.01658948
3576.00886963,0.01668967
3577.93767700,0.01660893
3579.86648437,0.01652349
3581.79529175,0.01652366
3583.72409912,0.01667727
3585.65290649,0.01623682
3587.58171387,0.01455015
3589.51052124,0.01513503
3591.43932861,0.01668085
3593.36813599,0.01616974
3595.29694336,0.01580799
3597.22575073,0.01608171
3599.15455811,0.01638046
3601.08336548,0.01621320
3603.01217285,0.01637254
3604.94098022,0.01670351
3606.86978760,0.01603542
3608.79859497,0.01492742
3610.72740234,0.01531986
3612.65620972,0.01565530
3614.58501709,0.01498758
3616.51382446,0.01636744
3618.44263184,0.01494633
3620.37143921,0.01436110
3622.30024658,0.01663493
3624.22905395,0.01611838
3626.15786133,0.01700361
3628.08666870,0.01399119
3630.01547607,0.01242313
3631.94428345,0.01630183
3633.87309082,0.01591971
3635.80189819,0.01623215
3637.73070557,0.01658819
3639.65951294,0.01632443
3641.58832031,0.01652116
3643.51712769,0.01631677
3645.44593506,0.01642706
3647.37474243,0.01440071
3649.30354980,0.01300787
3651.23235718,0.01318706
3653.16116455,0.01616343
3655.08997192,0.01600852
3657.01877930,0.01399177
3658.94758667,0.01645846
3660.87639404,0.01617379
3662.80520142,0.01641115
3664.73400879,0.01632358
3666.66281616,0.01612792
3668.59162354,0.01556867
3670.52043091,0.01234503
3672.44923828,0.01551128
3674.37804565,0.01446015
3676.30685303,0.01152313
3678.23566040,0.01537520
3680.16446777,0.01571326
3682.09327515,0.01572776
3684.02208252,0.01626560
3685.95088989,0.01593085
3687.87969727,0.01422183
3689.80850464,0.01275657
3691.73731201,0.01489051
3693.66611938,0.01547101
3695.59492676,0.01587728
3697.52373413,0.01590858
3699.45254150,0.01565474
3701.38134888,0.01518746
3703.31015625,0.01454978
3705.23896362,0.01624146
3707.16777100,0.01543797
3709.09657837,0.01497168
3711.02538574,0.01380227
3712.95419312,0.01279883
3714.88300049,0.01552279
3716.81180786,0.01531487
3718.74061523,0.01547753
3720.66942261,0.01508279
3722.59822998,0.01445926
3724.52703735,0.01503771
3726.45584473,0.01377702
3728.38465210,0.01519726
3730.31345947,0.01507676
3732.24226685,0.01366734
3734.17107422,0.01316027
3736.09988159,0.01228756
3738.02868896,0.01322051
3739.95749634,0.01460060
3741.88630371,0.01538799
3743.81511108,0.01153035
3745.74391846,0.01071949
3747.67272583,0.01451445
3749.60153320,0.01216982
3751.53034058,0.01101663
3753.45914795,0.01312184
3755.38795532,0.01420694
3757.31676270,0.01486812
3759.24557007,0.01359345
3761.17437744,0.01408084
3763.10318481,0.01522878
3765.03199219,0.01395640
3766.96079956,0.01440111
3768.88960693,0.01432573
3770.81841431,0.01345225
3772.74722168,0.01480159
3774.67602905,0.01485625
3776.60483643,0.01490446
3778.53364380,0.01433618
3780.46245117,0.01367857
3782.39125854,0.01479796
3784.32006592,0.01433571
3786.24887329,0.01433311
3788.17768066,0.01463700
3790.10648804,0.01457095
3792.03529541,0.01459378
3793.96410278,0.01479652
3795.89291016,0.01374994
3797.82171753,0.01349989
3799.75052490,0.01438455
3801.67933228,0.01101102
3803.60813965,0.01322823
3805.53694702,0.01453583
3807.46575439,0.01141327
3809.39456177,0.01434129
3811.32336914,0.01407330
3813.25217651,0.01463575
3815.18098389,0.01302447
3817.10979126,0.01109455
3819.03859863,0.01459583
3820.96740601,0.01139355
3822.89621338,0.01203884
3824.82502075,0.01441322
3826.75382812,0.01276505
3828.68263550,0.01402565
3830.61144287,0.01347308
3832.54025024,0.01290647
3834.46905762,0.01321391
3836.39786499,0.01242281
3838.32667236,0.01108592
3840.25547974,0.01215008
3842.18428711,0.01325404
3844.11309448,0.01256026
3846.04190186,0.01370081
3847.97070923,0.01366441
3849.89951660,0.01367011
3851.82832397,0.01188236
3853.75713135,0.00853553
3855.68593872,0.01057022
3857.61474609,0.01361796
3859.54355347,0.01322271
3861.47236084,0.01304451
3863.40116821,0.01267569
3865.32997559,0.01166111
3867.25878296,0.01333691
3869.18759033,0.01192847
3871.11639770,0.01082742
3873.04520508,0.01332036
3874.97401245,0.01203611
3876.90281982,0.01322369
3878.83162720,0.01345822
3880.76043457,0.01109890
3882.68924194,0.01325631
3884.61804932,0.01234377
3886.54685669,0.01114861
3888.47566406,0.01335297
3890.40447144,0.01246540
3892.33327881,0.01159723
3894.26208618,0.01303835
3896.19089355,0.01331034
3898.11970093,0.01243756
3900.04850830,0.01171968
3901.97731567,0.01157125
3903.90612305,0.01131000
3905.83493042,0.01162951
3907.76373779,0.01298480
3909.69254517,0.01293362
3911.62135254,0.01279299
3913.55015991,0.01307742
3915.47896728,0.01259747
3917.40777466,0.01218215
3919.33658203,0.01204061
3921.26538940,0.01257326
3923.19419678,0.01249662
3925.12300415,0.01216296
3927.05181152,0.01242133
3928.98061890,0.01262851
3930.90942627,0.01228540
3932.83823364,0.01177910
3934.76704102,0.01251903
3936.69584839,0.01262830
3938.62465576,0.01244503
3940.55346313,0.01260054
3942.48227051,0.01195296
3944.41107788,0.01209975
3946.33988525,0.01238954
3948.26869263,0.01210914
3950.19750000,0.01204711
3952.12630737,0.01218870
3954.05511475,0.01232944
3955.98392212,0.01231572
3957.91272949,0.01228028
3959.84153687,0.01224993
3961.77034424,0.01216735
3963.69915161,0.01215790
3965.62795898,0.01226922
3967.55676636,0.01210139
3969.48557373,0.01205704
3971.41438110,0.01213917
3973.34318848,0.01210011
3975.27199585,0.01204588
3977.20080322,0.01195839
3979.12961060,0.01207333
3981.05841797,0.01201775
3982.98722534,0.01201533
3984.91603271,0.01201527
3986.84484009,0.01197913
3988.77364746,0.01191885
3990.70245483,0.01176089
3992.63126221,0.01188900
3994.56006958,0.01175684
3996.48887695,0.01174455
3998.41768433,0.01182111
4000.34649170,0.01179325
4002.27529907,0.01182178
4004.20410645,0.01162947
4006.13291382,0.01169984
4008.06172119,0.01172959
4009.99052856,0.01165399
4011.91933594,0.01165949
4013.84814331,0.01164464
4015.77695068,0.01158489
4017.70575806,0.01154551
4019.63456543,0.01160862
4021.56337280,0.01154674
4023.49218018,0.01149762
4025.42098755,0.01146150
4027.34979492,0.01155889
4029.27860229,0.01146495
4031.20740967,0.01134026
4033.13621704,0.01144714
4035.06502441,0.01134359
4036.99383179,0.01129872
4038.92263916,0.01126111
4040.85144653,0.01132912
4042.78025391,0.01131268
4044.70906128,0.01125306
4046.63786865,0.01130297
4048.56667603,0.01118516
4050.49548340,0.01122723
4052.42429077,0.01118205
4054.35309814,0.01108486
4056.28190552,0.01109799
4058.21071289,0.01114841
4060.13952026,0.01108591
4062.06832764,0.01099677
4063.99713501,0.01108101
4065.92594238,0.01102434
4067.85474976,0.01098714
4069.78355713,0.01097702
4071.71236450,0.01102574
4073.64117187,0.01091893
4075.56997925,0.01082652
4077.49878662,0.01089898
4079.42759399,0.01081716
4081.35640137,0.01089327
4083.28520874,0.01078487
4085.21401611,0.01075731
4087.14282349,0.01077963
4089.07163086,0.01065912
4091.00043823,0.01078083
4092.92924561,0.01072353
4094.85805298,0.01064343
4096.78686035,0.01060021
4098.71566772,0.01062484
4100.64447510,0.01061240
4102.57328247,0.01049525
4104.50208984,0.01059972
4106.43089722,0.01057502
4108.35970459,0.01046437
4110.28851196,0.01049893
4112.21731934,0.01045281
4114.14612671,0.01040945
4116.07493408,0.01051445
4118.00374145,0.01042051
4119.93254883,0.01037400
4121.86135620,0.01040693
4123.79016357,0.01030618
4125.71897095,0.01031503
4127.64777832,0.01027031
4129.57658569,0.01030024
4131.50539307,0.01021989
4133.43420044,0.01020121
4135.36300781,0.01024837
4137.29181519,0.01015475
4139.22062256,0.01018901
4141.14942993,0.01006076
4143.07823730,0.01014572
4145.00704468,0.01013464
4146.93585205,0.00998589
4148.86465942,0.01005135
4150.79346680,0.00999086
4152.72227417,0.01005292
4154.65108154,0.00995868
4156.57988892,0.00988606
4158.50869629,0.00992686
4160.43750366,0.00986316
4162.36631103,0.00986835
4164.29511841,0.00986208
4166.22392578,0.00986640
4168.15273315,0.00983976
4170.08154053,0.00982825
4172.01034790,0.00978172
4173.93915527,0.00980946
4175.86796265,0.00976464
4177.79677002,0.00971513
4179.72557739,0.00980506
4181.65438477,0.00971864
4183.58319214,0.00967496
4185.51199951,0.00968974
4187.44080688,0.00968703
4189.36961426,0.00962082
4191.29842163,0.00959248
4193.22722900,0.00954861
4195.15603638,0.00953245
4197.08484375,0.00963940
4199.01365112,0.00956041
4200.94245850,0.00953669
4202.87126587,0.00945663
4204.80007324,0.00941600
4206.72888062,0.00937570
4208.65768799,0.00933564
4210.58649536,0.00947581
4212.51530273,0.00937045
4214.44411011,0.00931750
4216.37291748,0.00928897
4218.30172485,0.00926644
4220.23053223,0.00923164
4222.15933960,0.00924018
4224.08814697,0.00927157
4226.01695435,0.00911642
4227.94576172,0.00923626
4229.87456909,0.00920573
4231.80337646,0.00917713
4233.73218384,0.00920046
4235.66099121,0.00911319
4237.58979858,0.00918120
4239.51860596,0.00906896
4241.44741333,0.00908545
4243.37622070,0.00909106
4245.30502808,0.00905683
4247.23383545,0.00903762
4249.16264282,0.00895532
4251.09145020,0.00896396
4253.02025757,0.00891252
4254.94906494,0.00890852
4256.87787231,0.00893346
4258.80667969,0.00900956
4260.73548706,0.00887645
4262.66429443,0.00883695
4264.59310181,0.00887061
4266.52190918,0.00873981
4268.45071655,0.00883110
4270.37952393,0.00875555
4272.30833130,0.00877523
4274.23713867,0.00876289
4276.16594604,0.00864179
4278.09475342,0.00873860
4280.02356079,0.00876276
4281.95236816,0.00870495
4283.88117554,0.00851532
4285.80998291,0.00858061
4287.73879028,0.00866841
4289.66759766,0.00865411
4291.59640503,0.00868776
4293.52521240,0.00852348
4295.45401978,0.00845582
4297.38282715,0.00848066
4299.31163452,0.00852712
4301.24044189,0.00846210
4303.16924927,0.00845122
4305.09805664,0.00850076
4307.02686401,0.00842008
4308.95567139,0.00841657
4310.88447876,0.00839482
4312.81328613,0.00839654
4314.74209351,0.00837824
4316.67090088,0.00835984
4318.59970825,0.00830060
4320.52851562,0.00825997
4322.45732300,0.00832657
4324.38613037,0.00825656
4326.31493774,0.00820212
4328.24374512,0.00823754
4330.17255249,0.00825514
4332.10135986,0.00817230
4334.03016724,0.00817889
4335.95897461,0.00822729
4337.88778198,0.00813485
4339.81658936,0.00812206
4341.74539673,0.00813486
4343.67420410,0.00805376
4345.60301147,0.00801260
4347.53181885,0.00809513
4349.46062622,0.00800163
4351.38943359,0.00795625
4353.31824097,0.00800609
4355.24704834,0.00792256
4357.17585571,0.00796579
4359.10466309,0.00791914
4361.03347046,0.00793390
4362.96227783,0.00795723
4364.89108520,0.00785749
4366.81989258,0.00788370
4368.74869995,0.00786105
4370.67750732,0.00781331
4372.60631470,0.00776245
4374.53512207,0.00777152
4376.46392944,0.00777214
4378.39273682,0.00773765
4380.32154419,0.00772796
4382.25035156,0.00774089
4384.17915894,0.00776754
4386.10796631,0.00769475
4388.03677368,0.00769705
4389.96558105,0.00769354
4391.89438843,0.00766127
4393.82319580,0.00762761
4395.75200317,0.00758954
4397.68081055,0.00758111
4399.60961792,0.00752676
4401.53842529,0.00750117
4403.46723267,0.00750773
4405.39604004,0.00764483
4407.32484741,0.00756572
4409.25365478,0.00739202
4411.18246216,0.00750780
4413.11126953,0.00751834
4415.04007690,0.00743249
4416.96888428,0.00746455
4418.89769165,0.00755745
4420.82649902,0.00743444
4422.75530640,0.00726959
4424.68411377,0.00725065
4426.61292114,0.00730821
4428.54172852,0.00741863
4430.47053589,0.00731672
4432.39934326,0.00724143
4434.32815063,0.00728265
4436.25695801,0.00727472
4438.18576538,0.00719265
4440.11457275,0.00715221
4442.04338013,0.00723929
4443.97218750,0.00725282
4445.90099487,0.00723815
4447.82980225,0.00717346
4449.75860962,0.00708733
4451.68741699,0.00704125
4453.61622437,0.00708142
4455.54503174,0.00708875
4457.47383911,0.00701677
4459.40264648,0.00704413
4461.33145386,0.00703786
4463.26026123,0.00705316
4465.18906860,0.00697082
4467.11787598,0.00691591
4469.04668335,0.00703953
4470.97549072,0.00704946
4472.90429810,0.00700968
4474.83310547,0.00698275
4476.76191284,0.00691752
4478.69072021,0.00684145
4480.61952759,0.00687997
4482.54833496,0.00688542
4484.47714233,0.00690901
4486.40594971,0.00688390
4488.33475708,0.00679647
4490.26356445,0.00686021
4492.19237183,0.00673639
4494.12117920,0.00676421
4496.04998657,0.00683377
4497.97879395,0.00676031
4499.90760132,0.00679415
4501.83640869,0.00673784
4503.76521606,0.00672958
4505.69402344,0.00661467
4507.62283081,0.00661618
4509.55163818,0.00664867
4511.48044556,0.00657514
4513.40925293,0.00664438
4515.33806030,0.00661772
4517.26686768,0.00661234
4519.19567505,0.00651156
4521.12448242,0.00653614
4523.05328979,0.00659190
4524.98209717,0.00648065
4526.91090454,0.00654227
4528.83971191,0.00646242
4530.76851929,0.00638024
4532.69732666,0.00641689
4534.62613403,0.00645208
4536.55494141,0.00644168
4538.48374878,0.00635623
4540.41255615,0.00632637
4542.34136353,0.00630657
4544.27017090,0.00641317
4546.19897827,0.00643011
4548.12778564,0.00627516
4550.05659302,0.00633172
4551.98540039,0.00640591
4553.91420776,0.00627171
4555.84301514,0.00628661
4557.77182251,0.00631989
4559.70062988,0.00626680
4561.62943726,0.00629733
4563.55824463,0.00616939
4565.48705200,0.00618738
4567.41585937,0.00628348
4569.34466675,0.00624738
4571.27347412,0.00624172
4573.20228149,0.00616110
4575.13108887,0.00615037
4577.05989624,0.00608861
4578.98870361,0.00609684
4580.91751099,0.00617353
4582.84631836,0.00609428
4584.77512573,0.00603388
4586.70393311,0.00596715
4588.63274048,0.00602638
4590.56154785,0.00608287
4592.49035522,0.00603755
4594.41916260,0.00602861
4596.34796997,0.00598247
4598.27677734,0.00602660
4600.20558472,0.00599549
4602.13439209,0.00584120
4604.06319946,0.00591983
4605.99200684,0.00591910
4607.92081421,0.00581656
4609.84962158,0.00593322
4611.77842895,0.00589746
4613.70723633,0.00584797
4615.63604370,0.00584805
4617.56485107,0.00579452
4619.49365845,0.00586330
4621.42246582,0.00579825
4623.35127319,0.00576974
4625.28008057,0.00580224
4627.20888794,0.00575246
4629.13769531,0.00571987
4631.06650269,0.00574841
4632.99531006,0.00575786
4634.92411743,0.00559473
4636.85292480,0.00562604
4638.78173218,0.00572360
4640.71053955,0.00568812
4642.63934692,0.00564334
4644.56815430,0.00559766
4646.49696167,0.00567673
4648.42576904,0.00567447
4650.35457642,0.00562113
4652.28338379,0.00557638
4654.21219116,0.00559923
4656.14099853,0.00559125
4658.06980591,0.00546813
4659.99861328,0.00555119
4661.92742065,0.00550057
4663.85622803,0.00542665
4665.78503540,0.00552806
4667.71384277,0.00541754
4669.64265015,0.00541983
4671.57145752,0.00553150
4673.50026489,0.00544780
4675.42907227,0.00543126
4677.35787964,0.00544492
4679.28668701,0.00539664
4681.21549438,0.00542400
4683.14430176,0.00543091
4685.07310913,0.00540593
4687.00191650,0.00536017
4688.93072388,0.00534347
4690.85953125,0.00536367
4692.78833862,0.00532731
4694.71714600,0.00534904
4696.64595337,0.00533106
4698.57476074,0.00524830
4700.50356812,0.00522228
4702.43237549,0.00522535
4704.36118286,0.00522650
4706.28999023,0.00520049
4708.21879761,0.00524272
4710.14760498,0.00526019
4712.07641235,0.00517373
4714.00521973,0.00517994
4715.93402710,0.00519896
4717.86283447,0.00512247
4719.79164185,0.00514405
4721.72044922,0.00517801
4723.64925659,0.00516547
4725.57806396,0.00519243
4727.50687134,0.00512945
4729.43567871,0.00508449
4731.36448608,0.00512982
4733.29329346,0.00513275
4735.22210083,0.00505645
4737.15090820,0.00501419
4739.07971558,0.00499988
4741.00852295,0.00502817
4742.93733032,0.00507005
4744.86613770,0.00493052
4746.79494507,0.00491447
4748.72375244,0.00495651
4750.65255981,0.00498882
4752.58136719,0.00501789
4754.51017456,0.00485733
4756.43898193,0.00490235
4758.36778931,0.00491030
4760.29659668,0.00486991
4762.22540405,0.00490909
4764.15421143,0.00487740
4766.08301880,0.00494553
4768.01182617,0.00485983
4769.94063354,0.00485722
4771.86944092,0.00489605
4773.79824829,0.00479892
4775.72705566,0.00481056
4777.65586304,0.00480671
4779.58467041,0.00481109
4781.51347778,0.00478685
4783.44228516,0.00477665
4785.37109253,0.00475075
4787.29989990,0.00474328
4789.22870728,0.00476629
4791.15751465,0.00471815
4793.08632202,0.00472280
4795.01512939,0.00467643
4796.94393677,0.00471873
4798.87274414,0.00470935
4800.80155151,0.00457906
4802.73035889,0.00465356
4804.65916626,0.00465153
4806.58797363,0.00459718
4808.51678101,0.00460350
4810.44558838,0.00452566
4812.37439575,0.00456140
4814.30320312,0.00461452
4816.23201050,0.00454754
4818.16081787,0.00453567
4820.08962524,0.00456807
4822.01843262,0.00459873
4823.94723999,0.00454185
4825.87604736,0.00451095
4827.80485474,0.00453357
4829.73366211,0.00448219
4831.66246948,0.00455975
4833.59127686,0.00452066
4835.52008423,0.00440179
4837.44889160,0.00446201
4839.37769897,0.00449611
4841.30650635,0.00450013
4843.23531372,0.00444309
4845.16412109,0.00442742
4847.09292847,0.00443099
4849.02173584,0.00442858
4850.95054321,0.00442807
4852.87935059,0.00437731
4854.80815796,0.00443040
4856.73696533,0.00439215
4858.66577270,0.00430013
4860.59458008,0.00435251
4862.52338745,0.00438928
4864.45219482,0.00432359
4866.38100220,0.00431852
4868.30980957,0.00430605
4870.23861694,0.00426276
4872.16742432,0.00429960
4874.09623169,0.00420495
4876.02503906,0.00427863
4877.95384644,0.00431743
4879.88265381,0.00415513
4881.81146118,0.00421435
4883.74026855,0.00415403
4885.66907593,0.00410676
4887.59788330,0.00414793
4889.52669067,0.00416399
4891.45549805,0.00425415
4893.38430542,0.00419106
4895.31311279,0.00411429
4897.24192017,0.00412695
4899.17072754,0.00412438
4901.09953491,0.00411205
4903.02834228,0.00415781
4904.95714966,0.00415929
4906.88595703,0.00408022
4908.81476440,0.00402410
4910.74357178,0.00404252
4912.67237915,0.00408451
4914.60118652,0.00400126
4916.52999390,0.00401387
4918.45880127,0.00401610
4920.38760864,0.00399198
4922.31641602,0.00404364
4924.24522339,0.00395894
4926.17403076,0.00400820
4928.10283813,0.00403636
4930.03164551,0.00400689
4931.96045288,0.00409309
4933.88926025,0.00397219
4935.81806763,0.00390364
4937.74687500,0.00396470
4939.67568237,0.00391833
4941.60448975,0.00390198
4943.53329712,0.00387063
4945.46210449,0.00388168
4947.39091187,0.00384491
4949.31971924,0.00376542
4951.24852661,0.00392410
4953.17733398,0.00388481
4955.10614136,0.00375675
4957.03494873,0.00381023
4958.96375610,0.00383426
4960.89256348,0.00389433
4962.82137085,0.00378105
4964.75017822,0.00378082
4966.67898560,0.00382168
4968.60779297,0.00371832
4970.53660034,0.00376461
4972.46540771,0.00373160
4974.39421509,0.00375367
4976.32302246,0.00375237
4978.25182983,0.00373832
4980.18063721,0.00372736
4982.10944458,0.00366825
4984.03825195,0.00378194
4985.96705933,0.00368969
4987.89586670,0.00361478
4989.82467407,0.00362899
4991.75348145,0.00360422
4993.68228882,0.00372420
4995.61109619,0.00366970
4997.53990356,0.00359394
4999.46871094,0.00361533
5001.39751831,0.00357155
5003.32632568,0.00358285
5005.25513306,0.00362904
5007.18394043,0.00360386
5009.11274780,0.00359935
5011.04155518,0.00356301
5012.97036255,0.00351215
5014.89916992,0.00358814
5016.82797729,0.00356919
5018.75678467,0.00350772
5020.68559204,0.00349906
5022.61439941,0.00351464
5024.54320679,0.00353697
5026.47201416,0.00348237
5028.40082153,0.00344307
5030.32962891,0.00343860
5032.25843628,0.00345783
5034.18724365,0.00343955
5036.11605103,0.00345483
5038.04485840,0.00344874
5039.97366577,0.00341228
5041.90247314,0.00343481
5043.83128052,0.00338292
5045.76008789,0.00343230
5047.68889526,0.00346393
5049.61770264,0.00338055
5051.54651001,0.00336424
5053.47531738,0.00333481
5055.40412476,0.00332814
5057.33293213,0.00334886
5059.26173950,0.00329936
5061.19054687,0.00330611
5063.11935425,0.00340846
5065.04816162,0.00336932
5066.97696899,0.00332099
5068.90577637,0.00330829
5070.83458374,0.00328189
5072.76339111,0.00326459
5074.69219849,0.00322261
5076.62100586,0.00327824
5078.54981323,0.00322115
5080.47862061,0.00326377
5082.40742798,0.00328969
5084.33623535,0.00312442
5086.26504272,0.00319785
5088.19385010,0.00321707
5090.12265747,0.00321290
5092.05146484,0.00319610
5093.98027222,0.00311011
5095.90907959,0.00314875
5097.83788696,0.00312599
5099.76669434,0.00310401
5101.69550171,0.00315152
5103.62430908,0.00318585
5105.55311645,0.00311873
5107.48192383,0.00313403
5109.41073120,0.00320607
5111.33953857,0.00319335
5113.26834595,0.00315745
5115.19715332,0.00309350
5117.12596069,0.00315320
5119.05476807,0.00311908
5120.98357544,0.00306787
5122.91238281,0.00310512
5124.84119019,0.00308651
5126.76999756,0.00315151
5128.69880493,0.00318257
5130.62761230,0.00315499
5132.55641968,0.00308344
5134.48522705,0.00304623
5136.41403442,0.00306677
5138.34284180,0.00308064
5140.27164917,0.00308215
5142.20045654,0.00299864
5144.12926392,0.00297229
5146.05807129,0.00305543
5147.98687866,0.00306257
5149.91568603,0.00293422
5151.84449341,0.00295450
5153.77330078,0.00300767
5155.70210815,0.00297129
5157.63091553,0.00292901
5159.55972290,0.00286199
5161.48853027,0.00296923
5163.41733765,0.00296586
5165.34614502,0.00292085
5167.27495239,0.00296077
5169.20375977,0.00293835
5171.13256714,0.00292451
5173.06137451,0.00283509
5174.99018188,0.00287009
5176.91898926,0.00287790
5178.84779663,0.00285192
5180.77660400,0.00287831
5182.70541138,0.00289374
5184.63421875,0.00292090
5186.56302612,0.00285480
5188.49183350,0.00290945
5190.42064087,0.00284145
5192.34944824,0.00279506
5194.27825562,0.00281405
5196.20706299,0.00271451
5198.13587036,0.00283685
5200.06467773,0.00281414
5201.99348511,0.00276226
5203.92229248,0.00276376
5205.85109985,0.00267553
5207.77990723,0.00272828
5209.70871460,0.00273976
5211.63752197,0.00272632
5213.56632935,0.00268493
5215.49513672,0.00269758
5217.42394409,0.00274536
5219.35275146,0.00269388
5221.28155884,0.00271502
5223.21036621,0.00271894
5225.13917358,0.00268096
5227.06798096,0.00269768
5228.99678833,0.00263874
5230.92559570,0.00257128
5232.85440308,0.00266953
5234.78321045,0.00275127
5236.71201782,0.00273202
5238.64082520,0.00265935
5240.56963257,0.00265536
5242.49843994,0.00267066
5244.42724731,0.00256954
5246.35605469,0.00256930
5248.28486206,0.00255948
5250.21366943,0.00262640
5252.14247681,0.00265586
5254.07128418,0.00253303
5256.00009155,0.00258283
5257.92889893,0.00254839
5259.85770630,0.00262151
5261.78651367,0.00267196
5263.71532104,0.00249197
5265.64412842,0.00251195
5267.57293579,0.00255180
5269.50174316,0.00256162
5271.43055054,0.00253225
5273.35935791,0.00251640
5275.28816528,0.00254033
5277.21697266,0.00250127
5279.14578003,0.00253747
5281.07458740,0.00255054
5283.00339478,0.00255217
5284.93220215,0.00253124
5286.86100952,0.00253715
5288.78981689,0.00258522
5290.71862427,0.00252566
5292.64743164,0.00245251
5294.57623901,0.00245454
5296.50504639,0.00246821
5298.43385376,0.00243911
5300.36266113,0.00251489
5302.29146851,0.00246734
5304.22027588,0.00241444
5306.14908325,0.00249606
5308.07789062,0.00236473
5310.00669800,0.00241936
5311.93550537,0.00246997
5313.86431274,0.00240098
5315.79312012,0.00247586
5317.72192749,0.00240229
5319.65073486,0.00241324
5321.57954224,0.00247410
5323.50834961,0.00248640
5325.43715698,0.00243141
5327.36596436,0.00232680
5329.29477173,0.00232412
5331.22357910,0.00226307
5333.15238647,0.00229870
5335.08119385,0.00232848
5337.01000122,0.00231901
5338.93880859,0.00224042
5340.86761597,0.00214017
5342.79642334,0.00223755
5344.72523071,0.00223204
5346.65403809,0.00227936
5348.58284546,0.00230137
5350.51165283,0.00227200
5352.44046020,0.00223924
5354.36926758,0.00214729
5356.29807495,0.00231445
5358.22688232,0.00233626
5360.15568970,0.00229554
5362.08449707,0.00230327
5364.01330444,0.00226442
5365.94211182,0.00229641
5367.87091919,0.00223519
5369.79972656,0.00233097
5371.72853394,0.00226918
5373.65734131,0.00215749
5375.58614868,0.00223017
5377.51495605,0.00218097
5379.44376343,0.00221996
5381.37257080,0.00219760
5383.30137817,0.00217261
5385.23018555,0.00215796
5387.15899292,0.00212439
5389.08780029,0.00219002
5391.01660767,0.00216544
5392.94541504,0.00213261
5394.87422241,0.00208434
5396.80302978,0.00212745
5398.73183716,0.00220657
5400.66064453,0.00219740
5402.58945190,0.00218526
5404.51825928,0.00214992
5406.44706665,0.00219036
5408.37587402,0.00213460
5410.30468140,0.00202989
5412.23348877,0.00206123
5414.16229614,0.00206678
5416.09110352,0.00207967
5418.01991089,0.00213627
5419.94871826,0.00214536
5421.87752563,0.00214049
5423.80633301,0.00209785
5425.73514038,0.00206110
5427.66394775,0.00206130
5429.59275513,0.00199675
5431.52156250,0.00206383
5433.45036987,0.00208506
5435.37917725,0.00198230
5437.30798462,0.00205291
5439.23679199,0.00205330
5441.16559936,0.00202552
5443.09440674,0.00204323
5445.02321411,0.00199573
5446.95202148,0.00198665
5448.88082886,0.00201979
5450.80963623,0.00202825
5452.73844360,0.00199797
5454.66725098,0.00198820
5456.59605835,0.00197044
5458.52486572,0.00199686
5460.45367310,0.00198104
5462.38248047,0.00197446
5464.31128784,0.00196560
5466.24009521,0.00191796
5468.16890259,0.00201727
5470.09770996,0.00193805
5472.02651733,0.00194053
5473.95532471,0.00200884
5475.88413208,0.00185648
5477.81293945,0.00191492
5479.74174683,0.00197187
5481.67055420,0.00197054
5483.59936157,0.00192550
5485.52816895,0.00188760
5487.45697632,0.00191209
5489.38578369,0.00184442
5491.31459106,0.00191420
5493.24339844,0.00187691
5495.17220581,0.00184106
5497.10101318,0.00189320
5499.02982056,0.00185046
5500.95862793,0.00190316
5502.88743530,0.00186817
5504.81624268,0.00183247
5506.74505005,0.00180311
5508.67385742,0.00183203
5510.60266479,0.00192739
5512.53147217,0.00179291
5514.46027954,0.00178120
5516.38908691,0.00186352
5518.31789429,0.00184111
5520.24670166,0.00183263
5522.17550903,0.00181078
5524.10431641,0.00181336
5526.03312378,0.00177857
5527.96193115,0.00179969
5529.89073853,0.00184577
5531.81954590,0.00182007
5533.74835327,0.00175939
5535.67716064,0.00169726
5537.60596802,0.00179594
5539.53477539,0.00182964
5541.46358276,0.00176488
5543.39239014,0.00176300
5545.32119751,0.00179604
5547.25000488,0.00186165
5549.17881226,0.00175620
5551.10761963,0.00170662
5553.03642700,0.00173825
5554.96523437,0.00170544
5556.89404175,0.00178684
5558.82284912,0.00176226
5560.75165649,0.00174426
5562.68046387,0.00177232
5564.60927124,0.00168420
5566.53807861,0.00170411
5568.46688599,0.00178025
5570.39569336,0.00176963
5572.32450073,0.00172350
5574.25330811,0.00173627
5576.18211548,0.00170245
5578.11092285,0.00162927
5580.03973022,0.00168298
5581.96853760,0.00172957
5583.89734497,0.00168091
5585.82615234,0.00165842
5587.75495972,0.00167781
5589.68376709,0.00163847
5591.61257446,0.00166117
5593.54138184,0.00169949
5595.47018921,0.00166489
5597.39899658,0.00167893
5599.32780395,0.00159906
5601.25661133,0.00158665
5603.18541870,0.00170211
5605.11422607,0.00164191
5607.04303345,0.00162359
5608.97184082,0.00169351
5610.90064819,0.00165703
5612.82945557,0.00163615
5614.75826294,0.00161102
5616.68707031,0.00164865
5618.61587769,0.00167615
5620.54468506,0.00157258
5622.47349243,0.00161319
5624.40229980,0.00162090
5626.33110718,0.00162025
5628.25991455,0.00166407
5630.18872192,0.00155653
5632.11752930,0.00159128
5634.04633667,0.00157792
5635.97514404,0.00153181
5637.90395142,0.00160099
5639.83275879,0.00155387
5641.76156616,0.00157182
5643.69037353,0.00164096
5645.61918091,0.00164203
5647.54798828,0.00156562
5649.47679565,0.00154383
5651.40560303,0.00159184
5653.33441040,0.00159367
5655.26321777,0.00161657
5657.19202515,0.00154083
5659.12083252,0.00147895
5661.04963989,0.00149946
5662.97844727,0.00144890
5664.90725464,0.00145716
5666.83606201,0.00155730
5668.76486938,0.00155212
5670.69367676,0.00151560
5672.62248413,0.00152990
5674.55129150,0.00145546
5676.48009888,0.00140564
5678.40890625,0.00146180
5680.33771362,0.00157335
5682.26652100,0.00153681
5684.19532837,0.00146653
5686.12413574,0.00152168
5688.05294311,0.00143804
5689.98175049,0.00143556
5691.91055786,0.00150617
5693.83936523,0.00150029
5695.76817261,0.00144384
5697.69697998,0.00143777
5699.62578735,0.00147540
5701.55459473,0.00132289
5703.48340210,0.00142057
5705.41220947,0.00148746
5707.34101685,0.00136897
5709.26982422,0.00148062
5711.19863159,0.00142425
5713.12743896,0.00134206
5715.05624634,0.00138237
5716.98505371,0.00143270
5718.91386108,0.00141271
5720.84266846,0.00134017
5722.77147583,0.00140448
5724.70028320,0.00136953
5726.62909058,0.00135562
5728.55789795,0.00142122
5730.48670532,0.00137745
5732.41551270,0.00139428
5734.34432007,0.00141563
5736.27312744,0.00134085
5738.20193481,0.00141062
5740.13074219,0.00144160
5742.05954956,0.00129983
5743.98835693,0.00132285
5745.91716431,0.00133025
5747.84597168,0.00134886
5749.77477905,0.00141667
5751.70358643,0.00138138
5753.63239380,0.00138775
5755.56120117,0.00135973
5757.49000854,0.00136138
5759.41881592,0.00132850
5761.34762329,0.00129752
5763.27643066,0.00133042
5765.20523804,0.00131118
5767.13404541,0.00132181
5769.06285278,0.00130705
5770.99166016,0.00134285
5772.92046753,0.00133802
5774.84927490,0.00129053
5776.77808228,0.00127726
5778.70688965,0.00123393
5780.63569702,0.00125776
5782.56450439,0.00126013
5784.49331177,0.00127807
5786.42211914,0.00125697
5788.35092651,0.00122043
5790.27973389,0.00125358
5792.20854126,0.00121381
5794.13734863,0.00122362
5796.06615601,0.00126510
5797.99496338,0.00123316
5799.92377075,0.00127054
5801.85257812,0.00130066
5803.78138550,0.00117127
5805.71019287,0.00120949
5807.63900024,0.00126220
5809.56780762,0.00116950
5811.49661499,0.00126389
5813.42542236,0.00123352
5815.35422974,0.00123958
5817.28303711,0.00132063
5819.21184448,0.00121039
5821.14065186,0.00121727
5823.06945923,0.00120307
5824.99826660,0.00118283
5826.92707397,0.00120020
5828.85588135,0.00120532
5830.78468872,0.00120436
5832.71349609,0.00117365
5834.64230347,0.00124327
5836.57111084,0.00117222
5838.49991821,0.00112836
5840.42872559,0.00120456
5842.35753296,0.00117991
5844.28634033,0.00120478
5846.21514770,0.00116879
5848.14395508,0.00109185
5850.07276245,0.00111341
5852.00156982,0.00117880
5853.93037720,0.00113873
5855.85918457,0.00107044
5857.78799194,0.00115519
5859.71679932,0.00112324
5861.64560669,0.00109086
5863.57441406,0.00116255
5865.50322144,0.00114376
5867.43202881,0.00113996
5869.36083618,0.00109128
5871.28964355,0.00109441
5873.21845093,0.00110153
5875.14725830,0.00105314
5877.07606567,0.00112620
5879.00487305,0.00106628
5880.93368042,0.00104747
5882.86248779,0.00114676
5884.79129517,0.00109777
5886.72010254,0.00105121
5888.64890991,0.00101576
5890.57771728,0.00108721
5892.50652466,0.00113090
5894.43533203,0.00108047
5896.36413940,0.00113546
5898.29294678,0.00106316
5900.22175415,0.00102391
5902.15056152,0.00106839
5904.07936890,0.00104322
5906.00817627,0.00115077
5907.93698364,0.00114911
5909.86579102,0.00103605
5911.79459839,0.00108373
5913.72340576,0.00102056
5915.65221313,0.00093515
5917.58102051,0.00104687
5919.50982788,0.00107621
5921.43863525,0.00106596
5923.36744263,0.00104208
5925.29625000,0.00100560
5927.22505737,0.00109648
5929.15386475,0.00102111
5931.08267212,0.00095985
5933.01147949,0.00108131
5934.94028686,0.00101292
5936.86909424,0.00097385
5938.79790161,0.00106646
5940.72670898,0.00096462
5942.65551636,0.00089257
5944.58432373,0.00103373
5946.51313110,0.00101137
5948.44193848,0.00091063
5950.37074585,0.00101450
5952.29955322,0.00102026
5954.22836060,0.00089396
5956.15716797,0.00096853
5958.08597534,0.00106495
5960.01478271,0.00093412
5961.94359009,0.00093029
5963.87239746,0.00102421
5965.80120483,0.00093916
5967.73001221,0.00093333
5969.65881958,0.00097507
5971.58762695,0.00098278
5973.51643433,0.00099583
5975.44524170,0.00097419
5977.37404907,0.00098171
5979.30285645,0.00093068
5981.23166382,0.00094035
5983.16047119,0.00095956
5985.08927856,0.00089417
5987.01808594,0.00098833
5988.94689331,0.00102053
5990.87570068,0.00094435
5992.80450806,0.00095249
5994.73331543,0.00091080
5996.66212280,0.00091134
5998.59093018,0.00094617
6000.51973755,0.00091499
