399.26312622,0.00078333
401.19193359,0.00114330
403.12074097,0.00098173
405.04954834,0.00128665
406.97835571,0.00106553
408.90716309,0.00102538
410.83597046,0.00087252
412.76477783,0.00090876
414.69358521,0.00135022
416.62239258,0.00129020
418.55119995,0.00084685
420.48000732,0.00055254
422.40881470,0.00114651
424.33762207,0.00100069
426.26642944,0.00109004
428.19523682,0.00152162
430.12404419,0.00101036
432.05285156,0.00130691
433.98165894,0.00148149
435.91046631,0.00122271
437.83927368,0.00108725
439.76808105,0.00102077
441.69688843,0.00118793
443.62569580,0.00123829
445.55450317,0.00104160
447.48331055,0.00084230
449.41211792,0.00106790
451.34092529,0.00100508
453.26973267,0.00111832
455.19854004,0.00105677
457.12734741,0.00089395
459.05615479,0.00094891
460.98496216,0.00051808
462.91376953,0.00064073
464.84257690,0.00047797
466.77138428,0.00075036
468.70019165,0.00101393
470.62899902,0.00046268
472.55780640,0.00051101
474.48661377,0.00014856
476.41542114,0.00048209
478.34422852,0.00066877
480.27303589,0.00030761
482.20184326,0.00049085
484.13065063,0.00034159
486.05945801,0.00020799
487.98826538,-0.00020409
489.91707275,0.00016527
491.84588013,0.00026870
493.77468750,-0.00007756
495.70349487,0.00026546
497.63230225,-0.00012024
499.56110962,0.00018913
501.48991699,0.00051723
503.41872437,0.00009696
505.34753174,0.00030769
507.27633911,0.00033480
509.20514648,0.00034314
511.13395386,0.00058156
513.06276123,0.00015055
514.99156860,-0.00015815
516.92037598,0.00024098
518.84918335,0.00018418
520.77799072,0.00043540
522.70679810,0.00045993
524.63560547,-0.00005934
526.56441284,0.00036420
528.49322021,0.00026240
530.42202759,-0.00002478
532.35083496,0.00006148
534.27964233,0.00014935
536.20844971,0.00038719
538.13725708,0.00014518
540.06606445,0.00017114
541.99487183,0.00024906
543.92367920,0.00010323
545.85248657,0.00000559
547.78129395,0.00017145
549.71010132,0.00033964
551.63890869,0.00009803
553.56771606,0.00005555
555.49652344,-0.00000549
557.42533081,0.00008032
559.35413818,0.00043721
561.28294556,0.00039829
563.21175293,0.00000779
565.14056030,0.00013802
567.06936768,0.00038290
568.99817505,0.00023905
570.92698242,0.00030583
572.85578979,0.00019013
574.78459717,0.00018957
576.71340454,0.00013564
578.64221191,-0.00002411
580.57101929,0.00036415
582.49982666,0.00030363
584.42863403,0.00007189
586.35744141,0.00025113
588.28624878,0.00018923
590.21505615,0.00018160
592.14386353,0.00009525
594.07267090,-0.00007805
596.00147827,0.00042898
597.93028564,0.00045347
599.85909302,-0.00013560
601.78790039,0.00004445
603.71670776,0.00039874
605.64551514,0.00000384
607.57432251,-0.00041982
609.50312988,-0.00008707
611.43193726,0.00010438
613.36074463,-0.00024788
615.28955200,-0.00006626
617.21835938,0.00008920
619.14716675,0.00027826
621.07597412,0.00034690
623.00478149,-0.00020759
624.93358887,-0.00001017
626.86239624,-0.00010781
628.79120361,0.00005458
630.72001099,0.00044890
632.64881836,0.00011185
634.57762573,0.00049008
636.50643311,0.00100146
638.43524048,0.00104183
640.36404785,0.00113462
642.29285522,0.00140767
644.22166260,0.00148054
646.15046997,0.00127294
648.07927734,0.00135596
650.00808472,0.00140714
651.93689209,0.00157155
653.86569946,0.00169623
655.79450684,0.00143542
657.72331421,0.00170822
659.65212158,0.00196137
661.58092896,0.00171492
663.50973633,0.00216369
665.43854370,0.00236278
667.36735107,0.00180959
669.29615845,0.00219849
671.22496582,0.00252483
673.15377319,0.00216463
675.08258057,0.00249175
677.01138794,0.00273887
678.94019531,0.00258218
680.86900269,0.00260612
682.79781006,0.00247903
684.72661743,0.00253679
686.65542480,0.00246363
688.58423218,0.00229811
690.51303955,0.00251994
692.44184692,0.00233121
694.37065430,0.00278456
696.29946167,0.00353531
698.22826904,0.00369964
700.15707642,0.00429091
702.08588379,0.00390956
704.01469116,0.00331299
705.94349854,0.00325575
707.87230591,0.00279320
709.80111328,0.00253648
711.72992065,0.00154605
713.65872803,0.00085937
715.58753540,0.00078651
717.51634277,0.00022751
719.44515015,0.00035389
721.37395752,0.00041736
723.30276489,0.00034712
725.23157227,0.00044435
727.16037964,0.00015496
729.08918701,0.00026073
731.01799438,0.00040047
732.94680176,0.00029137
734.87560913,0.00038292
736.80441650,0.00022605
738.73322388,0.00005089
740.66203125,0.00025218
742.59083862,0.00021698
744.51964600,0.00020130
746.44845337,0.00040378
748.37726074,0.00021406
750.30606812,0.00021903
752.23487549,0.00017634
754.16368286,0.00017170
756.09249023,0.00062437
758.02129761,0.00054934
759.95010498,0.00046036
761.87891235,0.00047388
763.80771973,0.00046986
765.73652710,0.00058461
767.66533447,0.00037144
769.59414185,0.00041948
771.52294922,0.00043449
773.45175659,0.00029652
775.38056396,0.00044472
777.30937134,0.00040862
779.23817871,0.00022738
781.16698608,0.00021293
783.09579346,0.00011788
785.02460083,0.00015334
786.95340820,0.00037314
788.88221558,0.00034363
790.81102295,0.00054294
792.73983032,0.00049823
794.66863770,0.00030649
796.59744507,0.00044650
798.52625244,0.00039505
800.45505981,0.00062458
802.38386719,0.00046998
804.31267456,0.00020809
806.24148193,0.00039015
808.17028931,0.00043807
810.09909668,0.00059474
812.02790405,0.00047615
813.95671143,0.00055650
815.88551880,0.00043352
817.81432617,-0.00000702
819.74313354,0.00022985
821.67194092,0.00039967
823.60074829,0.00038346
825.52955566,0.00034670
827.45836304,0.00037150
829.38717041,0.00042552
831.31597778,0.00056279
833.24478516,0.00071533
835.17359253,0.00064707
837.10239990,0.00075720
839.03120728,0.00063331
840.96001465,0.00073309
842.88882202,0.00100671
844.81762939,0.00064143
846.74643677,0.00051812
848.67524414,0.00079338
850.60405151,0.00070765
852.53285889,0.00049463
854.46166626,0.00048285
856.39047363,0.00020028
858.31928101,0.00039697
860.24808838,0.00072006
862.17689575,0.00040221
864.10570313,0.00047032
866.03451050,0.00043760
867.96331787,0.00051068
869.89212524,0.00059932
871.82093262,0.00047509
873.74973999,0.00077619
875.67854736,0.00047600
877.60735474,0.00032387
879.53616211,0.00048900
881.46496948,0.00036654
883.39377686,0.00059140
885.32258423,0.00043146
887.25139160,0.00042012
889.18019897,0.00072872
891.10900635,0.00049534
893.03781372,0.00054866
894.96662109,0.00064143
896.89542847,0.00037561
898.82423584,0.00052985
900.75304321,0.00066302
902.68185059,0.00063315
904.61065796,0.00069926
906.53946533,0.00064131
908.46827271,0.00068348
910.39708008,0.00049529
912.32588745,0.00049900
914.25469482,0.00086433
916.18350220,0.00078570
918.11230957,0.00078518
920.04111694,0.00100447
921.96992432,0.00098471
923.89873169,0.00085272
925.82753906,0.00102035
927.75634644,0.00118355
929.68515381,0.00124593
931.61396118,0.00132869
933.54276855,0.00108733
935.47157593,0.00131660
937.40038330,0.00148476
939.32919067,0.00121721
941.25799805,0.00145454
943.18680542,0.00150139
945.11561279,0.00148874
947.04442017,0.00160549
948.97322754,0.00137022
950.90203491,0.00154703
952.83084229,0.00178443
954.75964966,0.00125696
956.68845703,0.00129087
958.61726440,0.00179152
960.54607178,0.00171046
962.47487915,0.00169458
964.40368652,0.00150109
966.33249390,0.00152439
968.26130127,0.00179293
970.19010864,0.00170981
972.11891602,0.00180708
974.04772339,0.00190327
975.97653076,0.00212363
977.90533813,0.00206330
979.83414551,0.00211773
981.76295288,0.00248641
983.69176025,0.00241322
985.62056763,0.00283037
987.54937500,0.00313310
989.47818237,0.00333578
991.40698975,0.00386132
993.33579712,0.00404816
995.26460449,0.00435188
997.19341187,0.00443256
999.12221924,0.00478132
1001.05102661,0.00545583
1002.97983398,0.00556265
1004.90864136,0.00580460
1006.83744873,0.00620721
1008.76625610,0.00658378
1010.69506348,0.00721432
1012.62387085,0.00761242
1014.55267822,0.00771377
1016.48148560,0.00811892
1018.41029297,0.00860890
1020.33910034,0.00901000
1022.26790771,0.00939811
1024.19671509,0.00957163
1026.12552246,0.00994422
1028.05432983,0.01031464
1029.98313721,0.01058214
1031.91194458,0.01107850
1033.84075195,0.01121223
1035.76955933,0.01125717
1037.69836670,0.01146125
1039.62717407,0.01129236
1041.55598145,0.01116940
1043.48478882,0.01131434
1045.41359619,0.01127818
1047.34240356,0.01107445
1049.27121094,0.01105596
1051.20001831,0.01084685
1053.12882568,0.01044711
1055.05763306,0.01045587
1056.98644043,0.01013367
1058.91524780,0.00979118
1060.84405518,0.00973872
1062.77286255,0.00921028
1064.70166992,0.00893458
1066.63047729,0.00869237
1068.55928467,0.00831849
1070.48809204,0.00807015
1072.41689941,0.00759828
1074.34570679,0.00720576
1076.27451416,0.00697085
1078.20332153,0.00694027
1080.13212891,0.00642058
1082.06093628,0.00597085
1083.98974365,0.00598219
1085.91855103,0.00556826
1087.84735840,0.00541386
1089.77616577,0.00518440
1091.70497314,0.00500779
1093.63378052,0.00483860
1095.56258789,0.00442296
1097.49139526,0.00456336
1099.42020264,0.00439974
1101.34901001,0.00420328
1103.27781738,0.00424935
1105.20662476,0.00418168
1107.13543213,0.00418203
1109.06423950,0.00416287
1110.99304687,0.00428913
1112.92185425,0.00399547
1114.85066162,0.00379071
1116.77946899,0.00394338
1118.70827637,0.00387322
1120.63708374,0.00404908
1122.56589111,0.00406970
1124.49469849,0.00387149
1126.42350586,0.00411612
1128.35231323,0.00434711
1130.28112061,0.00427186
1132.20992798,0.00425651
1134.13873535,0.00436374
1136.06754272,0.00459026
1137.99635010,0.00488563
1139.92515747,0.00518197
1141.85396484,0.00545508
1143.78277222,0.00563076
1145.71157959,0.00583146
1147.64038696,0.00626847
1149.56919434,0.00667584
1151.49800171,0.00681110
1153.42680908,0.00719565
1155.35561646,0.00762528
1157.28442383,0.00799819
1159.21323120,0.00822518
1161.14203857,0.00819974
1163.07084595,0.00865025
1164.99965332,0.00898661
1166.92846069,0.00917149
1168.85726807,0.00944435
1170.78607544,0.00994943
1172.71488281,0.01053664
1174.64369019,0.01054412
1176.57249756,0.01102577
1178.50130493,0.01141874
1180.43011230,0.01172005
1182.35891968,0.01239288
1184.28772705,0.01287530
1186.21653442,0.01356792
1188.14534180,0.01381705
1190.07414917,0.01448750
1192.00295654,0.01543224
1193.93176392,0.01575679
1195.86057129,0.01646128
1197.78937866,0.01729432
1199.71818604,0.01806929
1201.64699341,0.01876752
1203.57580078,0.01959607
1205.50460815,0.02032074
1207.43341553,0.02083645
1209.36222290,0.02144134
1211.29103027,0.02204702
1213.21983765,0.02288445
1215.14864502,0.02334797
1217.07745239,0.02378745
1219.00625977,0.02422106
1220.93506714,0.02442315
1222.86387451,0.02487245
1224.79268188,0.02503476
1226.72148926,0.02512400
1228.65029663,0.02523439
1230.57910400,0.02536571
1232.50791138,0.02543657
1234.43671875,0.02537986
1236.36552612,0.02551433
1238.29433350,0.02535803
1240.22314087,0.02522410
1242.15194824,0.02528097
1244.08075562,0.02505682
1246.00956299,0.02488485
1247.93837036,0.02485178
1249.86717773,0.02459512
1251.79598511,0.02435438
1253.72479248,0.02413078
1255.65359985,0.02376504
1257.58240723,0.02359789
1259.51121460,0.02325969
1261.44002197,0.02281249
1263.36882935,0.02248973
1265.29763672,0.02213195
1267.22644409,0.02199225
1269.15525146,0.02170668
1271.08405884,0.02140249
1273.01286621,0.02130504
1274.94167358,0.02074476
1276.87048096,0.02011158
1278.79928833,0.01988881
1280.72809570,0.01947439
1282.65690308,0.01907969
1284.58571045,0.01898218
1286.51451782,0.01842010
1288.44332520,0.01785662
1290.37213257,0.01800211
1292.30093994,0.01786011
1294.22974731,0.01768337
1296.15855469,0.01779116
1298.08736206,0.01744004
1300.01616943,0.01766533
1301.94497681,0.01778260
1303.87378418,0.01752148
1305.80259155,0.01806578
1307.73139893,0.01823382
1309.66020630,0.01853779
1311.58901367,0.01889039
1313.51782104,0.01892000
1315.44662842,0.01943536
1317.37543579,0.01972090
1319.30424316,0.02011112
1321.23305054,0.02075393
1323.16185791,0.02164261
1325.09066528,0.02222854
1327.01947266,0.02254230
1328.94828003,0.02327657
1330.87708740,0.02374314
1332.80589478,0.02438078
1334.73470215,0.02478928
1336.66350952,0.02484422
1338.59231689,0.02448630
1340.52112427,0.02475203
1342.44993164,0.02613700
1344.37873901,0.02595175
1346.30754639,0.02592931
1348.23635376,0.02612368
1350.16516113,0.02565178
1352.09396851,0.02578029
1354.02277588,0.02520826
1355.95158325,0.02509062
1357.88039062,0.02506284
1359.80919800,0.02436336
1361.73800537,0.02320177
1363.66681274,0.02288180
1365.59562012,0.02436342
1367.52442749,0.02373291
1369.45323486,0.02344787
1371.38204224,0.02393836
1373.31084961,0.02248237
1375.23965698,0.02266650
1377.16846436,0.02336092
1379.09727173,0.02334917
1381.02607910,0.02323029
1382.95488647,0.02327994
1384.88369385,0.02330217
1386.81250122,0.02187536
1388.74130859,0.02232258
1390.67011597,0.02451680
1392.59892334,0.02355239
1394.52773071,0.02172395
1396.45653809,0.02300313
1398.38534546,0.02276542
1400.31415283,0.02282963
1402.24296021,0.02495299
1404.17176758,0.02333216
1406.10057495,0.02354427
1408.02938232,0.02430913
1409.95818970,0.02356734
1411.88699707,0.02420524
1413.81580444,0.02315025
1415.74461182,0.02357961
1417.67341919,0.02071955
1419.60222656,0.01861345
1421.53103394,0.02205534
1423.45984131,0.02108045
1425.38864868,0.02057255
1427.31745605,0.02105953
1429.24626343,0.01918903
1431.17507080,0.01874232
1433.10387817,0.01934126
1435.03268555,0.01729908
1436.96149292,0.01441030
1438.89030029,0.01676989
1440.81910767,0.01716807
1442.74791504,0.01600851
1444.67672241,0.01698507
1446.60552979,0.01543244
1448.53433716,0.01573556
1450.46314453,0.01641644
1452.39195190,0.01673511
1454.32075928,0.01723558
1456.24956665,0.01382129
1458.17837402,0.01428492
1460.10718140,0.01950204
1462.03598877,0.02082267
1463.96479614,0.02030817
1465.89360352,0.02106071
1467.82241089,0.02436643
1469.75121826,0.02579528
1471.68002563,0.02228787
1473.60883301,0.02371521
1475.53764038,0.02701763
1477.46644775,0.02929179
1479.39525513,0.03247485
1481.32406250,0.03240570
1483.25286987,0.03458720
1485.18167725,0.03556885
1487.11048462,0.03457360
1489.03929199,0.03388857
1490.96809937,0.03395808
1492.89690674,0.04073917
1494.82571411,0.03915904
1496.75452148,0.03446054
1498.68332886,0.03956498
1500.61213623,0.04055689
1502.54094360,0.04414283
1504.46975098,0.04081320
1506.39855835,0.02782883
1508.32736572,0.03570977
1510.25617310,0.04266822
1512.18498047,0.04138780
1514.11378784,0.04511207
1516.04259521,0.03954772
1517.97140259,0.04163711
1519.90020996,0.04002985
1521.82901733,0.03401094
1523.75782471,0.04282939
1525.68663208,0.04168581
1527.61543945,0.04170251
1529.54424683,0.04695672
1531.47305420,0.04468644
1533.40186157,0.04020423
1535.33066895,0.04332568
1537.25947632,0.04649308
1539.18828369,0.03131880
1541.11709106,0.03349477
1543.04589844,0.04097198
1544.97470581,0.03919596
1546.90351318,0.04781180
1548.83232056,0.04380231
1550.76112793,0.04533628
1552.68993530,0.04500222
1554.61874268,0.04033767
1556.54755005,0.04329269
1558.47635742,0.02842420
1560.40516479,0.03194298
1562.33397217,0.04785081
1564.26277954,0.04455716
1566.19158691,0.04632797
1568.12039429,0.04533763
1570.04920166,0.03935603
1571.97800903,0.04701157
1573.90681641,0.04724147
1575.83562378,0.03615075
1577.76443115,0.04198826
1579.69323853,0.04806148
1581.62204590,0.04588588
1583.55085327,0.04699542
1585.47966064,0.04630166
1587.40846802,0.04697932
1589.33727539,0.04623190
1591.26608276,0.04616459
1593.19489014,0.04615258
1595.12369751,0.04544738
1597.05250488,0.04625139
1598.98131226,0.04588291
1600.91011963,0.04626548
1602.83892700,0.04537294
1604.76773437,0.04623034
1606.69654175,0.04548387
1608.62534912,0.04525872
1610.55415649,0.04532661
1612.48296387,0.04580775
1614.41177124,0.04619585
1616.34057861,0.03663574
1618.26938599,0.04060962
1620.19819336,0.04830119
1622.12700073,0.04196740
1624.05580811,0.04236041
1625.98461548,0.04491542
1627.91342285,0.04426253
1629.84223022,0.04444768
1631.77103760,0.04809074
1633.69984497,0.04326048
1635.62865234,0.03465587
1637.55745972,0.04166915
1639.48626709,0.04663447
1641.41507446,0.04532474
1643.34388184,0.04676402
1645.27268921,0.04109940
1647.20149658,0.03525861
1649.13030396,0.04594921
1651.05911133,0.04259497
1652.98791870,0.02544923
1654.91672607,0.03721034
1656.84553345,0.04769710
1658.77434082,0.04558768
1660.70314819,0.04662374
1662.63195557,0.04158916
1664.56076294,0.04464411
1666.48957031,0.04830226
1668.41837769,0.04089164
1670.34718506,0.03959394
1672.27599243,0.04580929
1674.20479980,0.04135910
1676.13360718,0.03973546
1678.06241455,0.04656468
1679.99122192,0.04423120
1681.92002930,0.04358841
1683.84883667,0.03399771
1685.77764404,0.03435304
1687.70645142,0.04878356
1689.63525879,0.04095212
1691.56406616,0.04640172
1693.49287354,0.04660648
1695.42168091,0.03244237
1697.35048828,0.04179845
1699.27929565,0.03496622
1701.20810303,0.03140132
1703.13691040,0.04511891
1705.06571777,0.04027459
1706.99452515,0.04110660
1708.92333252,0.04501820
1710.85213989,0.04292679
1712.78094727,0.04378698
1714.70975464,0.03968090
1716.63856201,0.03511648
1718.56736938,0.03475416
1720.49617676,0.04237287
1722.42498413,0.04411700
1724.35379150,0.04043279
1726.28259888,0.04449219
1728.21140625,0.04040955
1730.14021362,0.04086752
1732.06902100,0.03942569
1733.99782837,0.02862307
1735.92663574,0.03754541
1737.85544312,0.04157986
1739.78425049,0.03631687
1741.71305786,0.04015607
1743.64186523,0.04046865
1745.57067261,0.04058553
1747.49947998,0.04068682
1749.42828735,0.03856035
1751.35709473,0.03671727
1753.28590210,0.04148170
1755.21470947,0.04338753
1757.14351685,0.03898933
1759.07232422,0.04366159
1761.00113159,0.04007678
1762.92993896,0.03883180
1764.85874634,0.04520804
1766.78755371,0.03971191
1768.71636108,0.04048478
1770.64516846,0.03969721
1772.57397583,0.03519496
1774.50278320,0.04016533
1776.43159058,0.04254699
1778.36039795,0.04184853
1780.28920532,0.04110141
1782.21801270,0.04161429
1784.14682007,0.04137871
1786.07562744,0.04053339
1788.00443481,0.04303722
1789.93324219,0.04136342
1791.86204956,0.03664550
1793.79085693,0.03864276
1795.71966431,0.04206584
1797.64847168,0.04127108
1799.57727905,0.04041599
1801.50608643,0.03963195
1803.43489380,0.04119954
1805.36370117,0.04229816
1807.29250854,0.04172007
1809.22131592,0.04166065
1811.15012329,0.04014885
1813.07893066,0.04180072
1815.00773804,0.04189870
1816.93654541,0.04117912
1818.86535278,0.04162949
1820.79416016,0.04158279
1822.72296753,0.04204144
1824.65177490,0.03873258
1826.58058228,0.04065210
1828.50938965,0.04028332
1830.43819702,0.03748457
1832.36700439,0.04160949
1834.29581177,0.04103565
1836.22461914,0.04105698
1838.15342651,0.04078700
1840.08223389,0.04123977
1842.01104126,0.04106683
1843.93984863,0.03550832
1845.86865601,0.03854382
1847.79746338,0.04079705
1849.72627075,0.03984044
1851.65507812,0.04131168
1853.58388550,0.04029883
1855.51269287,0.04070541
1857.44150024,0.04024199
1859.37030762,0.04002549
1861.29911499,0.04032110
1863.22792236,0.03971159
1865.15672974,0.04031612
1867.08553711,0.03866929
1869.01434448,0.03663893
1870.94315186,0.03838714
1872.87195923,0.04009227
1874.80076660,0.03938040
1876.72957397,0.03963076
1878.65838135,0.03933305
1880.58718872,0.03911287
1882.51599609,0.03948799
1884.44480347,0.03870560
1886.37361084,0.03943666
1888.30241821,0.03818095
1890.23122559,0.03725108
1892.16003296,0.03906669
1894.08884033,0.03827804
1896.01764771,0.03809143
1897.94645508,0.03858910
1899.87526245,0.03828287
1901.80406982,0.03849962
1903.73287720,0.03806331
1905.66168457,0.03814863
1907.59049194,0.03777809
1909.51929932,0.03756426
1911.44810669,0.03765957
1913.37691406,0.03758854
1915.30572144,0.03809805
1917.23452881,0.03595110
1919.16333618,0.03610382
1921.09214355,0.03765244
1923.02095093,0.03609829
1924.94975830,0.03735193
1926.87856567,0.03763240
1928.80737305,0.03693051
1930.73618042,0.03745109
1932.66498779,0.03675757
1934.59379517,0.03728478
1936.52260254,0.03689130
1938.45140991,0.03703961
1940.38021729,0.03701028
1942.30902466,0.03545013
1944.23783203,0.03624460
1946.16663940,0.03666492
1948.09544678,0.03648093
1950.02425415,0.03670914
1951.95306152,0.03641589
1953.88186890,0.03635906
1955.81067627,0.03636144
1957.73948364,0.03629334
1959.66829102,0.03622951
1961.59709839,0.03623910
1963.52590576,0.03627277
1965.45471313,0.03596191
1967.38352051,0.03539882
1969.31232788,0.03577925
1971.24113525,0.03598984
1973.16994263,0.03585003
1975.09875000,0.03601117
1977.02755737,0.03559281
1978.95636475,0.03563835
1980.88517212,0.03546527
1982.81397949,0.03533936
1984.74278687,0.03545981
1986.67159424,0.03518339
1988.60040161,0.03525956
1990.52920898,0.03471348
1992.45801636,0.03453229
1994.38682373,0.03499470
1996.31563110,0.03495879
1998.24443848,0.03489406
2000.17324585,0.03477823
2002.10205322,0.03457563
2004.03086060,0.03455947
2005.95966797,0.03445009
2007.88847534,0.03424936
2009.81728271,0.03422774
2011.74609009,0.03403971
2013.67489746,0.03418336
2015.60370483,0.03385444
2017.53251221,0.03335432
2019.46131958,0.03365090
2021.39012695,0.03352515
2023.31893433,0.03356488
2025.24774170,0.03346684
2027.17654907,0.03326624
2029.10535645,0.03322469
2031.03416382,0.03302830
2032.96297119,0.03316906
2034.89177856,0.03304628
2036.82058594,0.03298531
2038.74939331,0.03272491
2040.67820068,0.03248265
2042.60700806,0.03249063
2044.53581543,0.03232354
2046.46462280,0.03238558
2048.39343018,0.03233960
2050.32223755,0.03227282
2052.25104492,0.03210543
2054.17985229,0.03202619
2056.10865967,0.03192046
2058.03746704,0.03185362
2059.96627441,0.03194007
2061.89508179,0.03173841
2063.82388916,0.03154289
2065.75269653,0.03122574
2067.68150391,0.03136992
2069.61031128,0.03144326
2071.53911865,0.03116710
2073.46792603,0.03114928
2075.39673340,0.03097323
2077.32554077,0.03095352
2079.25434814,0.03090692
2081.18315552,0.03075389
2083.11196289,0.03059578
2085.04077026,0.03065216
2086.96957764,0.03062940
2088.89838501,0.03041923
2090.82719238,0.03050044
2092.75599976,0.03033130
2094.68480713,0.03020666
2096.61361450,0.03014967
2098.54242187,0.03014959
2100.47122925,0.03006047
2102.40003662,0.02986608
2104.32884399,0.02995987
2106.25765137,0.02975464
2108.18645874,0.02966798
2110.11526611,0.02971986
2112.04407349,0.02961272
2113.97288086,0.02953164
2115.90168823,0.02945355
2117.83049561,0.02928231
2119.75930298,0.02915244
2121.68811035,0.02933770
2123.61691772,0.02925508
2125.54572510,0.02905162
2127.47453247,0.02896830
2129.40333984,0.02891180
2131.33214722,0.02889559
2133.26095459,0.02885738
2135.18976196,0.02875153
2137.11856934,0.02857266
2139.04737671,0.02864764
2140.97618408,0.02856937
2142.90499146,0.02844593
2144.83379883,0.02849051
2146.76260620,0.02847629
2148.69141357,0.02831140
2150.62022095,0.02821016
2152.54902832,0.02826291
2154.47783569,0.02804223
2156.40664307,0.02811210
2158.33545044,0.02801647
2160.26425781,0.02782396
2162.19306519,0.02798797
2164.12187256,0.02786937
2166.05067993,0.02778900
2167.97948730,0.02769087
2169.90829468,0.02775036
2171.83710205,0.02772819
2173.76590942,0.02758900
2175.69471680,0.02753128
2177.62352417,0.02744344
2179.55233154,0.02751639
2181.48113892,0.02727515
2183.40994629,0.02724856
2185.33875366,0.02727985
2187.26756104,0.02716947
2189.19636841,0.02719099
2191.12517578,0.02702666
2193.05398315,0.02692543
2194.98279053,0.02685542
2196.91159790,0.02692058
2198.84040527,0.02685959
2200.76921265,0.02677806
2202.69802002,0.02669821
2204.62682739,0.02657450
2206.55563477,0.02667032
2208.48444214,0.02656607
2210.41324951,0.02648835
2212.34205688,0.02651693
2214.27086426,0.02654143
2216.19967163,0.02632524
2218.12847900,0.02626069
2220.05728638,0.02627469
2221.98609375,0.02596327
2223.91490112,0.02606247
2225.84370850,0.02602630
2227.77251587,0.02593134
2229.70132324,0.02593307
2231.63013062,0.02582198
2233.55893799,0.02579177
2235.48774536,0.02568288
2237.41655273,0.02567798
2239.34536011,0.02549096
2241.27416748,0.02546681
2243.20297485,0.02544203
2245.13178223,0.02526908
2247.06058960,0.02532422
2248.98939697,0.02524329
2250.91820435,0.02517560
2252.84701172,0.02511472
2254.77581909,0.02504069
2256.70462646,0.02498998
2258.63343384,0.02504369
2260.56224121,0.02492553
2262.49104858,0.02480889
2264.41985596,0.02486792
2266.34866333,0.02467965
2268.27747070,0.02474786
2270.20627808,0.02466153
2272.13508545,0.02452071
2274.06389282,0.02457836
2275.99270020,0.02440019
2277.92150757,0.02435583
2279.85031494,0.02432305
2281.77912231,0.02429917
2283.70792969,0.02418895
2285.63673706,0.02409699
2287.56554443,0.02414817
2289.49435181,0.02403860
2291.42315918,0.02393843
2293.35196655,0.02393099
2295.28077393,0.02377584
2297.20958130,0.02357617
2299.13838867,0.02356869
2301.06719604,0.02344688
2302.99600342,0.02336766
2304.92481079,0.02318213
2306.85361816,0.02298270
2308.78242554,0.02297426
2310.71123291,0.02270366
2312.64004028,0.02254477
2314.56884766,0.02227106
2316.49765503,0.02192411
2318.42646240,0.02173014
2320.35526978,0.02145778
2322.28407715,0.02116215
2324.21288452,0.02086502
2326.14169189,0.02071393
2328.07049927,0.02047642
2329.99930664,0.02028856
2331.92811401,0.01998045
2333.85692139,0.01971158
2335.78572876,0.01969892
2337.71453613,0.01969922
2339.64334351,0.01978146
2341.57215088,0.01973895
2343.50095825,0.02004286
2345.42976562,0.02040861
2347.35857300,0.02108265
2349.28738037,0.02163574
2351.21618774,0.02088739
2353.14499512,0.02008368
2355.07380249,0.01925409
2357.00260986,0.01863236
2358.93141724,0.01853537
2360.86022461,0.01826953
2362.78903198,0.01822338
2364.71783936,0.01831908
2366.64664673,0.01843981
2368.57545410,0.01873309
2370.50426147,0.01923340
2372.43306885,0.01967715
2374.36187622,0.02009140
2376.29068359,0.02053643
2378.21949097,0.02093032
2380.14829834,0.02127118
2382.07710571,0.02126498
2384.00591309,0.02134302
2385.93472046,0.02144827
2387.86352783,0.02149279
2389.79233521,0.02149902
2391.72114258,0.02133803
2393.64994995,0.02134237
2395.57875732,0.02129064
2397.50756470,0.02125801
2399.43637207,0.02122616
2401.36517944,0.02114840
2403.29398682,0.02107495
2405.22279419,0.02098605
2407.15160156,0.02094639
2409.08040894,0.02086165
2411.00921631,0.02097671
2412.93802368,0.02093917
2414.86683105,0.02077488
2416.79563843,0.02078512
2418.72444580,0.02069412
2420.65325317,0.02058455
2422.58206055,0.02062922
2424.51086792,0.02067689
2426.43967529,0.02049130
2428.36848267,0.02049376
2430.29729004,0.02048911
2432.22609741,0.02030249
2434.15490479,0.02036867
2436.08371216,0.02033036
2438.01251953,0.02024834
2439.94132690,0.02024607
2441.87013428,0.02009679
2443.79894165,0.01996052
2445.72774902,0.02002107
2447.65655640,0.02003109
2449.58536377,0.01992135
2451.51417114,0.01995532
2453.44297852,0.01985304
2455.37178589,0.01979604
2457.30059326,0.01987533
2459.22940063,0.01972388
2461.15820801,0.01966149
2463.08701538,0.01964035
2465.01582275,0.01960997
2466.94463013,0.01959502
2468.87343750,0.01942326
2470.80224487,0.01947934
2472.73105225,0.01946247
2474.65985962,0.01934072
2476.58866699,0.01944922
2478.51747437,0.01929801
2480.44628174,0.01920528
2482.37508911,0.01927507
2484.30389648,0.01925563
2486.23270386,0.01922391
2488.16151123,0.01911910
2490.09031860,0.01909041
2492.01912598,0.01895537
2493.94793335,0.01894316
2495.87674072,0.01900947
2497.80554810,0.01887745
2499.73435547,0.01880484
2501.66316284,0.01873841
2503.59197021,0.01871152
2505.52077759,0.01862892
2507.44958496,0.01861802
2509.37839233,0.01865452
2511.30719971,0.01860528
2513.23600708,0.01854702
2515.16481445,0.01846791
2517.09362183,0.01849138
2519.02242920,0.01837096
2520.95123657,0.01839394
2522.88004395,0.01845926
2524.80885132,0.01831198
2526.73765869,0.01828980
2528.66646606,0.01814641
2530.59527344,0.01809217
2532.52408081,0.01817899
2534.45288818,0.01816949
2536.38169556,0.01811177
2538.31050293,0.01804073
2540.23931030,0.01796045
2542.16811768,0.01786019
2544.09692505,0.01789699
2546.02573242,0.01785015
2547.95453979,0.01776994
2549.88334717,0.01780635
2551.81215454,0.01774745
2553.74096191,0.01760411
2555.66976929,0.01755313
2557.59857666,0.01757547
2559.52738403,0.01750332
2561.45619141,0.01742356
2563.38499878,0.01737214
2565.31380615,0.01737140
2567.24261353,0.01734494
2569.17142090,0.01739055
2571.10022827,0.01739268
2573.02903564,0.01718816
2574.95784302,0.01721592
2576.88665039,0.01726030
2578.81545776,0.01717800
2580.74426514,0.01705808
2582.67307251,0.01703311
2584.60187988,0.01715019
2586.53068726,0.01705949
2588.45949463,0.01692357
2590.38830200,0.01671915
2592.31710937,0.01669450
2594.24591675,0.01687761
2596.17472412,0.01682012
2598.10353149,0.01670473
2600.03233887,0.01665284
2601.96114624,0.01670495
2603.88995361,0.01662364
2605.81876099,0.01650097
2607.74756836,0.01655065
2609.67637573,0.01653719
2611.60518311,0.01659425
2613.53399048,0.01647560
2615.46279785,0.01625006
2617.39160522,0.01641236
2619.32041260,0.01638772
2621.24921997,0.01621977
2623.17802734,0.01629918
2625.10683472,0.01619618
2627.03564209,0.01616195
2628.96444946,0.01611918
2630.89325684,0.01607016
2632.82206421,0.01614750
2634.75087158,0.01592033
2636.67967895,0.01587812
2638.60848633,0.01585772
2640.53729370,0.01584138
2642.46610107,0.01597524
2644.39490845,0.01576290
2646.32371582,0.01571563
2648.25252319,0.01575070
2650.18133057,0.01572410
2652.11013794,0.01567336
2654.03894531,0.01550176
2655.96775269,0.01554711
2657.89656006,0.01554559
2659.82536743,0.01550941
2661.75417480,0.01552225
2663.68298218,0.01544858
2665.61178955,0.01543485
2667.54059692,0.01545938
2669.46940430,0.01534016
2671.39821167,0.01521344
2673.32701904,0.01528106
2675.25582642,0.01521171
2677.18463379,0.01516136
2679.11344116,0.01521159
2681.04224854,0.01505355
2682.97105591,0.01503174
2684.89986328,0.01509290
2686.82867065,0.01498389
2688.75747803,0.01492467
2690.68628540,0.01492082
2692.61509277,0.01489542
2694.54390015,0.01484969
2696.47270752,0.01478575
2698.40151489,0.01476254
2700.33032227,0.01476286
2702.25912964,0.01468988
2704.18793701,0.01456802
2706.11674438,0.01456727
2708.04555176,0.01457105
2709.97435913,0.01456173
2711.90316650,0.01452277
2713.83197388,0.01434515
2715.76078125,0.01442237
2717.68958862,0.01446430
2719.61839600,0.01436108
2721.54720337,0.01444521
2723.47601074,0.01434891
2725.40481812,0.01421694
2727.33362549,0.01418212
2729.26243286,0.01413058
2731.19124023,0.01405046
2733.12004761,0.01401807
2735.04885498,0.01406821
2736.97766235,0.01403247
2738.90646973,0.01411198
2740.83527710,0.01412424
2742.76408447,0.01397447
2744.69289185,0.01395447
2746.62169922,0.01399534
2748.55050659,0.01386394
2750.47931396,0.01374656
2752.40812134,0.01382327
2754.33692871,0.01377368
2756.26573608,0.01378035
2758.19454346,0.01369845
2760.12335083,0.01356789
2762.05215820,0.01360309
2763.98096558,0.01345904
2765.90977295,0.01348867
2767.83858032,0.01345487
2769.76738770,0.01330302
2771.69619507,0.01342698
2773.62500244,0.01341031
2775.55380981,0.01332642
2777.48261719,0.01333342
2779.41142456,0.01324132
2781.34023193,0.01317253
2783.26903931,0.01315031
2785.19784668,0.01305384
2787.12665405,0.01307979
2789.05546143,0.01303188
2790.98426880,0.01288495
2792.91307617,0.01291062
2794.84188354,0.01293565
2796.77069092,0.01300125
2798.69949829,0.01288711
2800.62830566,0.01269123
2802.55711304,0.01269757
2804.48592041,0.01267624
2806.41472778,0.01263838
2808.34353516,0.01261199
2810.27234253,0.01254869
2812.20114990,0.01252293
2814.12995728,0.01261677
2816.05876465,0.01251433
2817.98757202,0.01236910
2819.91637939,0.01239375
2821.84518677,0.01236047
2823.77399414,0.01243136
2825.70280151,0.01238112
2827.63160889,0.01224782
2829.56041626,0.01224699
2831.48922363,0.01225845
2833.41803101,0.01223177
2835.34683838,0.01211253
2837.27564575,0.01206880
2839.20445312,0.01209852
2841.13326050,0.01203694
2843.06206787,0.01187255
2844.99087524,0.01185353
2846.91968262,0.01181665
2848.84848999,0.01176076
2850.77729736,0.01191508
2852.70610474,0.01186398
2854.63491211,0.01168231
2856.56371948,0.01163828
2858.49252686,0.01174892
2860.42133423,0.01173866
2862.35014160,0.01163587
2864.27894897,0.01170973
2866.20775635,0.01164419
2868.13656372,0.01153820
2870.06537109,0.01147494
2871.99417847,0.01145849
2873.92298584,0.01147837
2875.85179321,0.01147115
2877.78060059,0.01146173
2879.70940796,0.01125090
2881.63821533,0.01117607
2883.56702270,0.01128980
2885.49583008,0.01121692
2887.42463745,0.01117196
2889.35344482,0.01123841
2891.28225220,0.01116169
2893.21105957,0.01111834
2895.13986694,0.01112802
2897.06867432,0.01108945
2898.99748169,0.01107992
2900.92628906,0.01099091
2902.85509644,0.01097527
2904.78390381,0.01089054
2906.71271118,0.01087156
2908.64151855,0.01093363
2910.57032593,0.01087385
2912.49913330,0.01090982
2914.42794067,0.01083672
2916.35674805,0.01087982
2918.28555542,0.01074240
2920.21436279,0.01056789
2922.14317017,0.01074464
2924.07197754,0.01074089
2926.00078491,0.01080310
2927.92959229,0.01072819
2929.85839966,0.01062077
2931.78720703,0.01062707
2933.71601440,0.01062310
2935.64482178,0.01072558
2937.57362915,0.01065353
2939.50243652,0.01060239
2941.43124390,0.01055505
2943.36005127,0.01059750
2945.28885864,0.01050853
2947.21766602,0.01043268
2949.14647339,0.01054003
2951.07528076,0.01039065
2953.00408813,0.01044438
2954.93289551,0.01038737
2956.86170288,0.01025946
2958.79051025,0.01025380
2960.71931763,0.01021348
2962.64812500,0.01028915
2964.57693237,0.01016830
2966.50573975,0.01020126
2968.43454712,0.01020554
2970.36335449,0.01013384
2972.29216187,0.01015792
2974.22096924,0.01006299
2976.14977661,0.01010855
2978.07858398,0.01008590
2980.00739136,0.01005222
2981.93619873,0.01002843
2983.86500610,0.01002373
2985.79381348,0.01009485
2987.72262085,0.00993111
2989.65142822,0.00985131
2991.58023560,0.00994671
2993.50904297,0.00989663
2995.43785034,0.00989786
2997.36665771,0.00997930
2999.29546509,0.00985063
3001.22427246,0.00975036
3003.15307983,0.00975417
3005.08188721,0.00972525
3007.01069458,0.00967902
3008.93950195,0.00962957
3010.86830933,0.00964292
3012.79711670,0.00962020
3014.72592407,0.00961340
3016.65473145,0.00949043
3018.58353882,0.00940496
3020.51234619,0.00947542
3022.44115356,0.00946642
3024.36996094,0.00947687
3026.29876831,0.00940523
3028.22757568,0.00938120
3030.15638306,0.00941960
3032.08519043,0.00936322
3034.01399780,0.00919160
3035.94280518,0.00915063
3037.87161255,0.00931862
3039.80041992,0.00928983
3041.72922729,0.00927016
3043.65803467,0.00918516
3045.58684204,0.00913043
3047.51564941,0.00916508
3049.44445679,0.00909483
3051.37326416,0.00915819
3053.30207153,0.00906109
3055.23087891,0.00895498
3057.15968628,0.00894321
3059.08849365,0.00898473
3061.01730103,0.00900503
3062.94610840,0.00888312
3064.87491577,0.00895255
3066.80372314,0.00889311
3068.73253052,0.00884620
3070.66133789,0.00886598
3072.59014526,0.00876291
3074.51895264,0.00883991
3076.44776001,0.00877587
3078.37656738,0.00861105
3080.30537476,0.00870733
3082.23418213,0.00881213
3084.16298950,0.00872136
3086.09179687,0.00873599
3088.02060425,0.00875772
3089.94941162,0.00869390
3091.87821899,0.00877624
3093.80702637,0.00872217
3095.73583374,0.00862228
3097.66464111,0.00861678
3099.59344849,0.00856515
3101.52225586,0.00849544
3103.45106323,0.00842723
3105.37987061,0.00847774
3107.30867798,0.00858550
3109.23748535,0.00858474
3111.16629272,0.00844864
3113.09510010,0.00837401
3115.02390747,0.00845006
3116.95271484,0.00838131
3118.88152222,0.00824027
3120.81032959,0.00833906
3122.73913696,0.00839137
3124.66794434,0.00837642
3126.59675171,0.00842374
3128.52555908,0.00831590
3130.45436645,0.00825690
3132.38317383,0.00819451
3134.31198120,0.00818305
3136.24078857,0.00826341
3138.16959595,0.00820915
3140.09840332,0.00821414
3142.02721069,0.00812332
3143.95601807,0.00810004
3145.88482544,0.00818215
3147.81363281,0.00808859
3149.74244019,0.00808372
3151.67124756,0.00805711
3153.60005493,0.00797823
3155.52886230,0.00805798
3157.45766968,0.00808143
3159.38647705,0.00801236
3161.31528442,0.00805763
3163.24409180,0.00795956
3165.17289917,0.00789244
3167.10170654,0.00803247
3169.03051392,0.00793240
3170.95932129,0.00788430
3172.88812866,0.00790346
3174.81693604,0.00784414
3176.74574341,0.00788507
3178.67455078,0.00789776
3180.60335815,0.00788368
3182.53216553,0.00777356
3184.46097290,0.00777510
3186.38978027,0.00784558
3188.31858765,0.00779351
3190.24739502,0.00785956
3192.17620239,0.00789328
3194.10500977,0.00785066
3196.03381714,0.00779359
3197.96262451,0.00766290
3199.89143188,0.00769548
3201.82023926,0.00774870
3203.74904663,0.00766945
3205.67785400,0.00772075
3207.60666138,0.00767808
3209.53546875,0.00761919
3211.46427612,0.00768912
3213.39308350,0.00764362
3215.32189087,0.00763961
3217.25069824,0.00760463
3219.17950562,0.00764688
3221.10831299,0.00769301
3223.03712036,0.00764310
3224.96592773,0.00768644
3226.89473511,0.00765386
3228.82354248,0.00773332
3230.75234985,0.00768198
3232.68115723,0.00760099
3234.60996460,0.00768089
3236.53877197,0.00756327
3238.46757935,0.00761289
3240.39638672,0.00764824
3242.32519409,0.00757841
3244.25400146,0.00759539
3246.18280884,0.00753600
3248.11161621,0.00754240
3250.04042358,0.00750400
3251.96923096,0.00748157
3253.89803833,0.00763597
3255.82684570,0.00764871
3257.75565308,0.00754797
3259.68446045,0.00759469
3261.61326782,0.00753814
3263.54207520,0.00749637
3265.47088257,0.00761541
3267.39968994,0.00764021
3269.32849731,0.00756090
3271.25730469,0.00747659
3273.18611206,0.00756144
3275.11491943,0.00747411
3277.04372681,0.00748722
3278.97253418,0.00770602
3280.90134155,0.00760956
3282.83014893,0.00763998
3284.75895630,0.00760017
3286.68776367,0.00757293
3288.61657104,0.00760216
3290.54537842,0.00748774
3292.47418579,0.00760310
3294.40299316,0.00749003
3296.33180054,0.00744926
3298.26060791,0.00759772
3300.18941528,0.00756395
3302.11822266,0.00753830
3304.04703003,0.00747859
3305.97583740,0.00750798
3307.90464478,0.00751377
3309.83345215,0.00752039
3311.76225952,0.00753599
3313.69106689,0.00757337
3315.61987427,0.00758342
3317.54868164,0.00744209
3319.47748901,0.00742437
3321.40629639,0.00742811
3323.33510376,0.00751439
3325.26391113,0.00747724
3327.19271851,0.00739510
3329.12152588,0.00749324
3331.05033325,0.00740146
3332.97914062,0.00747766
3334.90794800,0.00754274
3336.83675537,0.00743904
3338.76556274,0.00745623
3340.69437012,0.00747413
3342.62317749,0.00752333
3344.55198486,0.00738744
3346.48079224,0.00733872
3348.40959961,0.00749023
3350.33840698,0.00748304
3352.26721436,0.00750177
3354.19602173,0.00748687
3356.12482910,0.00743826
3358.05363647,0.00744125
3359.98244385,0.00742315
3361.91125122,0.00748389
3363.84005859,0.00747685
3365.76886597,0.00743921
3367.69767334,0.00741098
3369.62648071,0.00737487
3371.55528809,0.00745432
3373.48409546,0.00736945
3375.41290283,0.00733610
3377.34171020,0.00742698
3379.27051758,0.00738912
3381.19932495,0.00738940
3383.12813232,0.00737589
3385.05693970,0.00740610
3386.98574707,0.00732359
3388.91455444,0.00740561
3390.84336182,0.00744511
3392.77216919,0.00713199
3394.70097656,0.00734327
3396.62978394,0.00738291
3398.55859131,0.00725163
3400.48739868,0.00737152
3402.41620605,0.00719844
3404.34501343,0.00729741
3406.27382080,0.00734049
3408.20262817,0.00729231
3410.13143555,0.00735583
3412.06024292,0.00730556
3413.98905029,0.00735783
3415.91785767,0.00721004
3417.84666504,0.00720870
3419.77547241,0.00730717
3421.70427979,0.00720316
3423.63308716,0.00717255
3425.56189453,0.00717105
3427.49070190,0.00720426
3429.41950928,0.00718058
3431.34831665,0.00721536
3433.27712402,0.00723622
3435.20593140,0.00718929
3437.13473877,0.00718936
3439.06354614,0.00716135
3440.99235352,0.00715280
3442.92116089,0.00710545
3444.84996826,0.00710155
3446.77877563,0.00703696
3448.70758301,0.00706421
3450.63639038,0.00721804
3452.56519775,0.00712477
3454.49400513,0.00705586
3456.42281250,0.00700769
3458.35161987,0.00701170
3460.28042725,0.00705650
3462.20923462,0.00690386
3464.13804199,0.00691354
3466.06684937,0.00699358
3467.99565674,0.00690657
3469.92446411,0.00686014
3471.85327148,0.00694268
3473.78207886,0.00694931
3475.71088623,0.00686868
3477.63969360,0.00693104
3479.56850098,0.00685645
3481.49730835,0.00675814
3483.42611572,0.00687663
3485.35492310,0.00686980
3487.28373047,0.00683309
3489.21253784,0.00684710
3491.14134521,0.00677912
3493.07015259,0.00676171
3494.99895996,0.00682427
3496.92776733,0.00673804
3498.85657471,0.00671363
3500.78538208,0.00680296
3502.71418945,0.00655246
3504.64299683,0.00657565
3506.57180420,0.00675750
3508.50061157,0.00644858
3510.42941895,0.00645941
3512.35822632,0.00667571
3514.28703369,0.00662441
3516.21584106,0.00656945
3518.14464844,0.00653523
3520.07345581,0.00653484
3522.00226318,0.00642719
3523.93107056,0.00635388
3525.85987793,0.00643498
3527.78868530,0.00641110
3529.71749268,0.00640186
3531.64630005,0.00647031
3533.57510742,0.00646593
3535.50391479,0.00640206
3537.43272217,0.00635375
3539.36152954,0.00645014
3541.29033691,0.00644044
3543.21914429,0.00628053
3545.14795166,0.00614645
3547.07675903,0.00603530
3549.00556641,0.00626424
3550.93437378,0.00628475
3552.86318115,0.00613456
3554.79198853,0.00625306
3556.72079590,0.00616571
3558.64960327,0.00620910
3560.57841064,0.00611187
3562.50721802,0.00609779
3564.43602539,0.00619945
3566.36483276,0.00554336
3568.29364014,0.00539806
3570.22244751,0.00598799
3572.15125488,0.00616935
3574.08006226,0.00606683
3576.00886963,0.00609058
3577.93767700,0.00608520
3579.86648437,0.00601976
3581.79529175,0.00605770
3583.72409912,0.00597347
3585.65290649,0.00573962
3587.58171387,0.00531699
3589.51052124,0.00543839
3591.43932861,0.00593559
3593.36813599,0.00579557
3595.29694336,0.00567159
3597.22575073,0.00576305
3599.15455811,0.00575703
3601.08336548,0.00567459
3603.01217285,0.00576830
3604.94098022,0.00591395
3606.86978760,0.00555515
3608.79859497,0.00519725
3610.72740234,0.00548589
3612.65620972,0.00542068
3614.58501709,0.00517183
3616.51382446,0.00570761
3618.44263184,0.00521063
3620.37143921,0.00502253
3622.30024658,0.00565838
3624.22905395,0.00547107
3626.15786133,0.00572989
3628.08666870,0.00466777
3630.01547607,0.00422360
3631.94428345,0.00548208
3633.87309082,0.00535980
3635.80189819,0.00548226
3637.73070557,0.00552394
3639.65951294,0.00546998
3641.58832031,0.00562028
3643.51712769,0.00551716
3645.44593506,0.00549429
3647.37474243,0.00484723
3649.30354980,0.00434293
3651.23235718,0.00433125
3653.16116455,0.00530649
3655.08997192,0.00530157
3657.01877930,0.00470625
3658.94758667,0.00543742
3660.87639404,0.00528238
3662.80520142,0.00532807
3664.73400879,0.00528060
3666.66281616,0.00525668
3668.59162354,0.00496967
3670.52043091,0.00392261
3672.44923828,0.00493779
3674.37804565,0.00460818
3676.30685303,0.00377710
3678.23566040,0.00487705
3680.16446777,0.00494758
3682.09327515,0.00494234
3684.02208252,0.00508589
3685.95088989,0.00498822
3687.87969727,0.00437080
3689.80850464,0.00396675
3691.73731201,0.00454628
3693.66611938,0.00469565
3695.59492676,0.00489084
3697.52373413,0.00485541
3699.45254150,0.00482175
3701.38134888,0.00469912
3703.31015625,0.00446242
3705.23896362,0.00490819
3707.16777100,0.00472660
3709.09657837,0.00453152
3711.02538574,0.00413853
3712.95419312,0.00392970
3714.88300049,0.00461242
3716.81180786,0.00464427
3718.74061523,0.00462470
3720.66942261,0.00435766
3722.59822998,0.00436502
3724.52703735,0.00443792
3726.45584473,0.00404453
3728.38465210,0.00448509
3730.31345947,0.00432799
3732.24226685,0.00400204
3734.17107422,0.00389789
3736.09988159,0.00366436
3738.02868896,0.00394060
3739.95749634,0.00427966
3741.88630371,0.00450362
3743.81511108,0.00332232
3745.74391846,0.00301400
3747.67272583,0.00418099
3749.60153320,0.00356774
3751.53034058,0.00316246
3753.45914795,0.00375879
3755.38795532,0.00409051
3757.31676270,0.00422707
3759.24557007,0.00390624
3761.17437744,0.00409080
3763.10318481,0.00438724
3765.03199219,0.00400416
3766.96079956,0.00410979
3768.88960693,0.00408260
3770.81841431,0.00383857
3772.74722168,0.00421191
3774.67602905,0.00420902
3776.60483643,0.00422006
3778.53364380,0.00404703
3780.46245117,0.00391627
3782.39125854,0.00423889
3784.32006592,0.00397540
3786.24887329,0.00396558
3788.17768066,0.00407771
3790.10648804,0.00408995
3792.03529541,0.00411277
3793.96410278,0.00416903
3795.89291016,0.00383730
3797.82171753,0.00370634
3799.75052490,0.00411462
3801.67933228,0.00305045
3803.60813965,0.00357041
3805.53694702,0.00407238
3807.46575439,0.00309798
3809.39456177,0.00397799
3811.32336914,0.00390645
3813.25217651,0.00399929
3815.18098389,0.00351592
3817.10979126,0.00298299
3819.03859863,0.00411074
3820.96740601,0.00314450
3822.89621338,0.00333415
3824.82502075,0.00398857
3826.75382812,0.00344216
3828.68263550,0.00379907
3830.61144287,0.00367645
3832.54025024,0.00357608
3834.46905762,0.00354456
3836.39786499,0.00336871
3838.32667236,0.00305291
3840.25547974,0.00331014
3842.18428711,0.00361713
3844.11309448,0.00334281
3846.04190186,0.00373700
3847.97070923,0.00369191
3849.89951660,0.00359483
3851.82832397,0.00318229
3853.75713135,0.00228097
3855.68593872,0.00285918
3857.61474609,0.00370886
3859.54355347,0.00351888
3861.47236084,0.00350747
3863.40116821,0.00345028
3865.32997559,0.00311127
3867.25878296,0.00358553
3869.18759033,0.00316013
3871.11639770,0.00293167
3873.04520508,0.00358185
3874.97401245,0.00312857
3876.90281982,0.00353328
3878.83162720,0.00350432
3880.76043457,0.00298855
3882.68924194,0.00361290
3884.61804932,0.00320046
3886.54685669,0.00291662
3888.47566406,0.00350784
3890.40447144,0.00331325
3892.33327881,0.00300356
3894.26208618,0.00338842
3896.19089355,0.00354362
3898.11970093,0.00325731
3900.04850830,0.00303839
3901.97731567,0.00299597
3903.90612305,0.00301817
3905.83493042,0.00305723
3907.76373779,0.00337742
3909.69254517,0.00336957
3911.62135254,0.00326010
3913.55015991,0.00333793
3915.47896728,0.00319214
3917.40777466,0.00305775
3919.33658203,0.00305836
3921.26538940,0.00330781
3923.19419678,0.00324614
3925.12300415,0.00308540
3927.05181152,0.00315862
3928.98061890,0.00319992
3930.90942627,0.00315159
3932.83823364,0.00298831
3934.76704102,0.00317042
3936.69584839,0.00318829
3938.62465576,0.00313930
3940.55346313,0.00317056
3942.48227051,0.00298203
3944.41107788,0.00311389
3946.33988525,0.00318196
3948.26869263,0.00305020
3950.19750000,0.00304734
3952.12630737,0.00306199
3954.05511475,0.00302516
3955.98392212,0.00313642
3957.91272949,0.00315499
3959.84153687,0.00300753
3961.77034424,0.00304802
3963.69915161,0.00297680
3965.62795898,0.00300702
3967.55676636,0.00305375
3969.48557373,0.00296992
3971.41438110,0.00299600
3973.34318848,0.00296578
3975.27199585,0.00295859
3977.20080322,0.00297711
3979.12961060,0.00300945
3981.05841797,0.00296004
3982.98722534,0.00298160
3984.91603271,0.00299480
3986.84484009,0.00291552
3988.77364746,0.00297074
3990.70245483,0.00290542
3992.63126221,0.00290467
3994.56006958,0.00294225
3996.48887695,0.00286009
3998.41768433,0.00287579
4000.34649170,0.00293502
4002.27529907,0.00291126
4004.20410645,0.00284531
4006.13291382,0.00282069
4008.06172119,0.00283804
4009.99052856,0.00287798
4011.91933594,0.00278010
4013.84814331,0.00278446
4015.77695068,0.00285945
4017.70575806,0.00282604
4019.63456543,0.00285291
4021.56337280,0.00285619
4023.49218018,0.00284016
4025.42098755,0.00275466
4027.34979492,0.00274745
4029.27860229,0.00272937
4031.20740967,0.00271016
4033.13621704,0.00277866
4035.06502441,0.00275073
4036.99383179,0.00277366
4038.92263916,0.00271062
4040.85144653,0.00269298
4042.78025391,0.00269023
4044.70906128,0.00265664
4046.63786865,0.00264041
4048.56667603,0.00262063
4050.49548340,0.00274976
4052.42429077,0.00259505
4054.35309814,0.00255429
4056.28190552,0.00271471
4058.21071289,0.00267548
4060.13952026,0.00268556
4062.06832764,0.00258486
4063.99713501,0.00253100
4065.92594238,0.00261658
4067.85474976,0.00261759
4069.78355713,0.00262337
4071.71236450,0.00267745
4073.64117187,0.00258743
4075.56997925,0.00256049
4077.49878662,0.00258059
4079.42759399,0.00251809
4081.35640137,0.00259913
4083.28520874,0.00250372
4085.21401611,0.00250499
4087.14282349,0.00251667
4089.07163086,0.00242704
4091.00043823,0.00256063
4092.92924561,0.00251859
4094.85805298,0.00250158
4096.78686035,0.00246768
4098.71566772,0.00246879
4100.64447510,0.00251071
4102.57328247,0.00241087
4104.50208984,0.00243995
4106.43089722,0.00241714
4108.35970459,0.00242224
4110.28851196,0.00240375
4112.21731934,0.00240978
4114.14612671,0.00244029
4116.07493408,0.00236430
4118.00374145,0.00231515
4119.93254883,0.00229956
4121.86135620,0.00240918
4123.79016357,0.00234716
4125.71897095,0.00234402
4127.64777832,0.00243062
4129.57658569,0.00236466
4131.50539307,0.00239324
4133.43420044,0.00232224
4135.36300781,0.00227616
4137.29181519,0.00231089
4139.22062256,0.00230045
4141.14942993,0.00230143
4143.07823730,0.00230728
4145.00704468,0.00223686
4146.93585205,0.00218528
4148.86465942,0.00229824
4150.79346680,0.00227935
4152.72227417,0.00222493
4154.65108154,0.00223633
4156.57988892,0.00224995
4158.50869629,0.00225825
4160.43750366,0.00223256
4162.36631103,0.00222390
4164.29511841,0.00216470
4166.22392578,0.00220814
4168.15273315,0.00219226
4170.08154053,0.00210600
4172.01034790,0.00212417
4173.93915527,0.00209455
4175.86796265,0.00207506
4177.79677002,0.00212883
4179.72557739,0.00217254
4181.65438477,0.00213511
4183.58319214,0.00218986
4185.51199951,0.00217458
4187.44080688,0.00210726
4189.36961426,0.00217775
4191.29842163,0.00215814
4193.22722900,0.00217658
4195.15603638,0.00214417
4197.08484375,0.00208344
4199.01365112,0.00205933
4200.94245850,0.00202449
4202.87126587,0.00211231
4204.80007324,0.00205560
4206.72888062,0.00203088
4208.65768799,0.00209521
4210.58649536,0.00202425
4212.51530273,0.00200461
4214.44411011,0.00200202
4216.37291748,0.00199247
4218.30172485,0.00192553
4220.23053223,0.00189806
4222.15933960,0.00203127
4224.08814697,0.00198815
4226.01695435,0.00191528
4227.94576172,0.00200914
4229.87456909,0.00199497
4231.80337646,0.00195328
4233.73218384,0.00194858
4235.66099121,0.00191091
4237.58979858,0.00191137
4239.51860596,0.00196132
4241.44741333,0.00190363
4243.37622070,0.00187398
4245.30502808,0.00203234
4247.23383545,0.00196548
4249.16264282,0.00192931
4251.09145020,0.00199730
4253.02025757,0.00185926
4254.94906494,0.00189702
4256.87787231,0.00190708
4258.80667969,0.00187441
4260.73548706,0.00192649
4262.66429443,0.00180363
4264.59310181,0.00177482
4266.52190918,0.00187332
4268.45071655,0.00186594
4270.37952393,0.00187539
4272.30833130,0.00191999
4274.23713867,0.00186257
4276.16594604,0.00187508
4278.09475342,0.00179342
4280.02356079,0.00172905
4281.95236816,0.00188706
4283.88117554,0.00183021
4285.80998291,0.00187112
4287.73879028,0.00184159
4289.66759766,0.00162524
4291.59640503,0.00174141
4293.52521240,0.00175253
4295.45401978,0.00170524
4297.38282715,0.00175433
4299.31163452,0.00173621
4301.24044189,0.00176791
4303.16924927,0.00171553
4305.09805664,0.00170009
4307.02686401,0.00178467
4308.95567139,0.00175073
4310.88447876,0.00171032
4312.81328613,0.00172018
4314.74209351,0.00169005
4316.67090088,0.00170311
4318.59970825,0.00169615
4320.52851562,0.00168855
4322.45732300,0.00170206
4324.38613037,0.00168543
4326.31493774,0.00174171
4328.24374512,0.00172151
4330.17255249,0.00167882
4332.10135986,0.00168144
4334.03016724,0.00163226
4335.95897461,0.00162489
4337.88778198,0.00165240
4339.81658936,0.00166914
4341.74539673,0.00157402
4343.67420410,0.00154818
4345.60301147,0.00164020
4347.53181885,0.00161828
4349.46062622,0.00161069
4351.38943359,0.00157948
4353.31824097,0.00158019
4355.24704834,0.00168055
4357.17585571,0.00163358
4359.10466309,0.00159439
4361.03347046,0.00157910
4362.96227783,0.00151341
4364.89108520,0.00163283
4366.81989258,0.00166615
4368.74869995,0.00154284
4370.67750732,0.00159050
4372.60631470,0.00162163
4374.53512207,0.00156318
4376.46392944,0.00154451
4378.39273682,0.00148806
4380.32154419,0.00150838
4382.25035156,0.00158593
4384.17915894,0.00150230
4386.10796631,0.00151468
4388.03677368,0.00153811
4389.96558105,0.00145143
4391.89438843,0.00152993
4393.82319580,0.00151518
4395.75200317,0.00155526
4397.68081055,0.00153792
4399.60961792,0.00136718
4401.53842529,0.00147910
4403.46723267,0.00143494
4405.39604004,0.00142171
4407.32484741,0.00150375
4409.25365478,0.00144472
4411.18246216,0.00152382
4413.11126953,0.00147781
4415.04007690,0.00148262
4416.96888428,0.00149623
4418.89769165,0.00146005
4420.82649902,0.00154287
4422.75530640,0.00148126
4424.68411377,0.00144279
4426.61292114,0.00137995
4428.54172852,0.00134289
4430.47053589,0.00139434
4432.39934326,0.00134576
4434.32815063,0.00136400
4436.25695801,0.00141952
4438.18576538,0.00143144
4440.11457275,0.00137403
4442.04338013,0.00131916
4443.97218750,0.00134282
4445.90099487,0.00137524
4447.82980225,0.00135633
4449.75860962,0.00133711
4451.68741699,0.00144133
4453.61622437,0.00139372
4455.54503174,0.00130565
4457.47383911,0.00140997
4459.40264648,0.00135944
4461.33145386,0.00130907
4463.26026123,0.00139586
4465.18906860,0.00138753
4467.11787598,0.00133474
4469.04668335,0.00134557
4470.97549072,0.00133952
4472.90429810,0.00124977
4474.83310547,0.00128097
4476.76191284,0.00127900
4478.69072021,0.00123609
4480.61952759,0.00132245
4482.54833496,0.00124209
4484.47714233,0.00126601
4486.40594971,0.00129794
4488.33475708,0.00121132
4490.26356445,0.00132289
4492.19237183,0.00121368
4494.12117920,0.00116876
4496.04998657,0.00126541
4497.97879395,0.00117703
4499.90760132,0.00121820
4501.83640869,0.00120058
4503.76521606,0.00119754
4505.69402344,0.00124458
4507.62283081,0.00122264
4509.55163818,0.00127167
4511.48044556,0.00118719
4513.40925293,0.00114284
4515.33806030,0.00122814
4517.26686768,0.00120213
4519.19567505,0.00120528
4521.12448242,0.00127830
4523.05328979,0.00121131
4524.98209717,0.00113212
4526.91090454,0.00118371
4528.83971191,0.00122236
4530.76851929,0.00122363
4532.69732666,0.00115802
4534.62613403,0.00115317
4536.55494141,0.00116610
4538.48374878,0.00110753
4540.41255615,0.00117985
4542.34136353,0.00117237
4544.27017090,0.00116756
4546.19897827,0.00122120
4548.12778564,0.00110694
4550.05659302,0.00106434
4551.98540039,0.00104194
4553.91420776,0.00107986
4555.84301514,0.00118839
4557.77182251,0.00116837
4559.70062988,0.00116031
4561.62943726,0.00110724
4563.55824463,0.00113274
4565.48705200,0.00117722
4567.41585937,0.00110898
4569.34466675,0.00114563
4571.27347412,0.00112197
4573.20228149,0.00110956
4575.13108887,0.00111831
4577.05989624,0.00108975
4578.98870361,0.00111767
4580.91751099,0.00103185
4582.84631836,0.00106154
4584.77512573,0.00111642
4586.70393311,0.00102272
4588.63274048,0.00107850
4590.56154785,0.00112592
4592.49035522,0.00106203
4594.41916260,0.00104960
4596.34796997,0.00106473
4598.27677734,0.00102822
4600.20558472,0.00100568
4602.13439209,0.00106930
4604.06319946,0.00110735
4605.99200684,0.00105172
4607.92081421,0.00099174
4609.84962158,0.00096898
4611.77842895,0.00100013
4613.70723633,0.00107703
4615.63604370,0.00102903
4617.56485107,0.00097892
4619.49365845,0.00099491
4621.42246582,0.00099312
4623.35127319,0.00107008
4625.28008057,0.00102865
4627.20888794,0.00098629
4629.13769531,0.00102832
4631.06650269,0.00098946
4632.99531006,0.00101880
4634.92411743,0.00097804
4636.85292480,0.00089630
4638.78173218,0.00088404
4640.71053955,0.00087728
4642.63934692,0.00096706
4644.56815430,0.00099124
4646.49696167,0.00096553
4648.42576904,0.00098122
4650.35457642,0.00092717
4652.28338379,0.00094692
4654.21219116,0.00097713
4656.14099853,0.00093645
4658.06980591,0.00093498
4659.99861328,0.00090350
4661.92742065,0.00094949
4663.85622803,0.00098386
4665.78503540,0.00094374
4667.71384277,0.00097600
4669.64265015,0.00094071
4671.57145752,0.00089211
4673.50026489,0.00082315
4675.42907227,0.00083571
4677.35787964,0.00097745
4679.28668701,0.00093487
4681.21549438,0.00083973
4683.14430176,0.00082508
4685.07310913,0.00089731
4687.00191650,0.00094950
4688.93072388,0.00089054
4690.85953125,0.00089133
4692.78833862,0.00091775
4694.71714600,0.00096564
4696.64595337,0.00098472
4698.57476074,0.00091284
4700.50356812,0.00081378
4702.43237549,0.00084346
4704.36118286,0.00094020
4706.28999023,0.00083584
4708.21879761,0.00086937
4710.14760498,0.00097352
4712.07641235,0.00086084
4714.00521973,0.00087455
4715.93402710,0.00088199
4717.86283447,0.00083441
4719.79164185,0.00085412
4721.72044922,0.00079562
4723.64925659,0.00082481
4725.57806396,0.00083949
4727.50687134,0.00080263
4729.43567871,0.00087696
4731.36448608,0.00082053
4733.29329346,0.00077630
4735.22210083,0.00084578
4737.15090820,0.00079492
4739.07971558,0.00075915
4741.00852295,0.00078895
4742.93733032,0.00077410
4744.86613770,0.00079709
4746.79494507,0.00089028
4748.72375244,0.00083013
4750.65255981,0.00076727
4752.58136719,0.00084746
4754.51017456,0.00077425
4756.43898193,0.00080234
4758.36778931,0.00090513
4760.29659668,0.00079955
4762.22540405,0.00078129
4764.15421143,0.00076730
4766.08301880,0.00073178
4768.01182617,0.00078773
4769.94063354,0.00076844
4771.86944092,0.00075854
4773.79824829,0.00075662
4775.72705566,0.00074489
4777.65586304,0.00077465
4779.58467041,0.00074404
4781.51347778,0.00075647
4783.44228516,0.00075846
4785.37109253,0.00069423
4787.29989990,0.00074782
4789.22870728,0.00073936
4791.15751465,0.00068090
4793.08632202,0.00075039
4795.01512939,0.00078014
4796.94393677,0.00074320
4798.87274414,0.00073427
4800.80155151,0.00073888
4802.73035889,0.00071455
4804.65916626,0.00075977
4806.58797363,0.00077173
4808.51678101,0.00069384
4810.44558838,0.00074733
4812.37439575,0.00074531
4814.30320312,0.00071737
4816.23201050,0.00074732
4818.16081787,0.00066823
4820.08962524,0.00067734
4822.01843262,0.00074412
4823.94723999,0.00071894
4825.87604736,0.00063731
4827.80485474,0.00070231
4829.73366211,0.00080489
4831.66246948,0.00063072
4833.59127686,0.00065692
4835.52008423,0.00075700
4837.44889160,0.00063613
4839.37769897,0.00071863
4841.30650635,0.00074850
4843.23531372,0.00072683
4845.16412109,0.00074519
4847.09292847,0.00064157
4849.02173584,0.00065317
4850.95054321,0.00064864
4852.87935059,0.00067694
4854.80815796,0.00074033
4856.73696533,0.00066127
4858.66577270,0.00067980
4860.59458008,0.00071624
4862.52338745,0.00063671
4864.45219482,0.00057180
4866.38100220,0.00066115
4868.30980957,0.00069594
4870.23861694,0.00057724
4872.16742432,0.00064201
4874.09623169,0.00065666
4876.02503906,0.00058665
4877.95384644,0.00064368
4879.88265381,0.00061149
4881.81146118,0.00064611
4883.74026855,0.00068853
4885.66907593,0.00063260
4887.59788330,0.00065563
4889.52669067,0.00059437
4891.45549805,0.00059429
4893.38430542,0.00063172
4895.31311279,0.00056273
4897.24192017,0.00063515
4899.17072754,0.00064886
4901.09953491,0.00060517
4903.02834228,0.00062548
4904.95714966,0.00063780
4906.88595703,0.00066858
4908.81476440,0.00059272
4910.74357178,0.00059226
4912.67237915,0.00058718
4914.60118652,0.00057201
4916.52999390,0.00065370
4918.45880127,0.00055320
4920.38760864,0.00057492
4922.31641602,0.00064117
4924.24522339,0.00059540
4926.17403076,0.00066466
4928.10283813,0.00059978
4930.03164551,0.00052139
4931.96045288,0.00055923
4933.88926025,0.00056512
4935.81806763,0.00058656
4937.74687500,0.00060414
4939.67568237,0.00055621
4941.60448975,0.00050575
4943.53329712,0.00054341
4945.46210449,0.00056753
4947.39091187,0.00057011
4949.31971924,0.00059539
4951.24852661,0.00056442
4953.17733398,0.00058756
4955.10614136,0.00060659
4957.03494873,0.00051759
4958.96375610,0.00057638
4960.89256348,0.00060746
4962.82137085,0.00054494
4964.75017822,0.00058936
4966.67898560,0.00050119
4968.60779297,0.00051750
4970.53660034,0.00060242
4972.46540771,0.00053640
4974.39421509,0.00054072
4976.32302246,0.00051118
4978.25182983,0.00056546
4980.18063721,0.00056666
4982.10944458,0.00051826
4984.03825195,0.00059861
4985.96705933,0.00057132
4987.89586670,0.00059959
4989.82467407,0.00057999
4991.75348145,0.00051608
4993.68228882,0.00055324
4995.61109619,0.00052808
4997.53990356,0.00053007
4999.46871094,0.00052956
5001.39751831,0.00049187
5003.32632568,0.00045229
5005.25513306,0.00045740
5007.18394043,0.00045966
5009.11274780,0.00045477
5011.04155518,0.00052011
5012.97036255,0.00050808
5014.89916992,0.00052061
5016.82797729,0.00052907
5018.75678467,0.00047971
5020.68559204,0.00053866
5022.61439941,0.00049917
5024.54320679,0.00044714
5026.47201416,0.00048695
5028.40082153,0.00041666
5030.32962891,0.00045757
5032.25843628,0.00051698
5034.18724365,0.00045601
5036.11605103,0.00050327
5038.04485840,0.00048113
5039.97366577,0.00044128
5041.90247314,0.00049226
5043.83128052,0.00047633
5045.76008789,0.00042262
5047.68889526,0.00039725
5049.61770264,0.00045141
5051.54651001,0.00047528
5053.47531738,0.00049360
5055.40412476,0.00046333
5057.33293213,0.00041047
5059.26173950,0.00048755
5061.19054687,0.00050264
5063.11935425,0.00051769
5065.04816162,0.00047085
5066.97696899,0.00041015
5068.90577637,0.00046291
5070.83458374,0.00045235
5072.76339111,0.00046876
5074.69219849,0.00042442
5076.62100586,0.00039152
5078.54981323,0.00043137
5080.47862061,0.00044755
5082.40742798,0.00042668
5084.33623535,0.00040942
5086.26504272,0.00052162
5088.19385010,0.00046844
5090.12265747,0.00044485
5092.05146484,0.00049750
5093.98027222,0.00040945
5095.90907959,0.00045295
5097.83788696,0.00042567
5099.76669434,0.00040231
5101.69550171,0.00043511
5103.62430908,0.00040754
5105.55311645,0.00043057
5107.48192383,0.00041263
5109.41073120,0.00044215
5111.33953857,0.00041993
5113.26834595,0.00035939
5115.19715332,0.00035775
5117.12596069,0.00037681
5119.05476807,0.00042436
5120.98357544,0.00040362
5122.91238281,0.00040083
5124.84119019,0.00038479
5126.76999756,0.00041551
5128.69880493,0.00042586
5130.62761230,0.00034457
5132.55641968,0.00040360
5134.48522705,0.00038402
5136.41403442,0.00031863
5138.34284180,0.00039762
5140.27164917,0.00043248
5142.20045654,0.00038968
5144.12926392,0.00042217
5146.05807129,0.00045547
5147.98687866,0.00035140
5149.91568603,0.00036498
5151.84449341,0.00041696
5153.77330078,0.00035814
5155.70210815,0.00036298
5157.63091553,0.00039209
5159.55972290,0.00040552
5161.48853027,0.00037343
5163.41733765,0.00035250
5165.34614502,0.00036242
5167.27495239,0.00034539
5169.20375977,0.00032814
5171.13256714,0.00037214
5173.06137451,0.00040543
5174.99018188,0.00033199
5176.91898926,0.00039386
5178.84779663,0.00039558
5180.77660400,0.00035381
5182.70541138,0.00044565
5184.63421875,0.00034356
5186.56302612,0.00038827
5188.49183350,0.00047239
5190.42064087,0.00039400
5192.34944824,0.00041348
5194.27825562,0.00031453
5196.20706299,0.00029661
5198.13587036,0.00036514
5200.06467773,0.00033415
5201.99348511,0.00032361
5203.92229248,0.00032211
5205.85109985,0.00030192
5207.77990723,0.00026662
5209.70871460,0.00033282
5211.63752197,0.00036096
5213.56632935,0.00035902
5215.49513672,0.00036139
5217.42394409,0.00029340
5219.35275146,0.00038350
5221.28155884,0.00040984
5223.21036621,0.00030435
5225.13917358,0.00030848
5227.06798096,0.00034036
5228.99678833,0.00035446
5230.92559570,0.00031450
5232.85440308,0.00033662
5234.78321045,0.00040326
5236.71201782,0.00036916
5238.64082520,0.00030991
5240.56963257,0.00026562
5242.49843994,0.00030929
5244.42724731,0.00031558
5246.35605469,0.00030117
5248.28486206,0.00039774
5250.21366943,0.00037069
5252.14247681,0.00034405
5254.07128418,0.00036660
5256.00009155,0.00033233
5257.92889893,0.00035474
5259.85770630,0.00031640
5261.78651367,0.00031216
5263.71532104,0.00032458
5265.64412842,0.00028973
5267.57293579,0.00031671
5269.50174316,0.00027908
5271.43055054,0.00032690
5273.35935791,0.00038815
5275.28816528,0.00027599
5277.21697266,0.00026300
5279.14578003,0.00034320
5281.07458740,0.00032715
5283.00339478,0.00028040
5284.93220215,0.00027303
5286.86100952,0.00026925
5288.78981689,0.00033385
5290.71862427,0.00036521
5292.64743164,0.00030088
5294.57623901,0.00031350
5296.50504639,0.00029466
5298.43385376,0.00029421
5300.36266113,0.00034724
5302.29146851,0.00025909
5304.22027588,0.00023745
5306.14908325,0.00027659
5308.07789062,0.00019673
5310.00669800,0.00023313
5311.93550537,0.00028454
5313.86431274,0.00023921
5315.79312012,0.00026840
5317.72192749,0.00023582
5319.65073486,0.00026261
5321.57954224,0.00028680
5323.50834961,0.00023756
5325.43715698,0.00032887
5327.36596436,0.00026784
5329.29477173,0.00025926
5331.22357910,0.00033763
5333.15238647,0.00023114
5335.08119385,0.00025989
5337.01000122,0.00027707
5338.93880859,0.00021388
5340.86761597,0.00026780
5342.79642334,0.00032397
5344.72523071,0.00027705
5346.65403809,0.00025931
5348.58284546,0.00030115
5350.51165283,0.00026133
5352.44046020,0.00027225
5354.36926758,0.00027007
5356.29807495,0.00028169
5358.22688232,0.00030592
5360.15568970,0.00022078
5362.08449707,0.00023231
5364.01330444,0.00025300
5365.94211182,0.00026303
5367.87091919,0.00026871
5369.79972656,0.00026678
5371.72853394,0.00029898
5373.65734131,0.00026677
5375.58614868,0.00025657
5377.51495605,0.00018061
5379.44376343,0.00013727
5381.37257080,0.00020738
5383.30137817,0.00027082
5385.23018555,0.00025374
5387.15899292,0.00017922
5389.08780029,0.00023927
5391.01660767,0.00021387
5392.94541504,0.00024771
5394.87422241,0.00029249
5396.80302978,0.00017623
5398.73183716,0.00027061
5400.66064453,0.00026811
5402.58945190,0.00021848
5404.51825928,0.00027403
5406.44706665,0.00023756
5408.37587402,0.00022947
5410.30468140,0.00023632
5412.23348877,0.00024322
5414.16229614,0.00017484
5416.09110352,0.00019320
5418.01991089,0.00027310
5419.94871826,0.00025768
5421.87752563,0.00022082
5423.80633301,0.00015935
5425.73514038,0.00024238
5427.66394775,0.00027166
5429.59275513,0.00021284
5431.52156250,0.00022877
5433.45036987,0.00024103
5435.37917725,0.00023738
5437.30798462,0.00017481
5439.23679199,0.00016619
5441.16559936,0.00017851
5443.09440674,0.00026227
5445.02321411,0.00026186
5446.95202148,0.00015384
5448.88082886,0.00021996
5450.80963623,0.00024051
5452.73844360,0.00024196
5454.66725098,0.00018487
5456.59605835,0.00020916
5458.52486572,0.00030289
5460.45367310,0.00018665
5462.38248047,0.00018449
5464.31128784,0.00016735
5466.24009521,0.00017793
5468.16890259,0.00025261
5470.09770996,0.00016473
5472.02651733,0.00014958
5473.95532471,0.00017534
5475.88413208,0.00014850
5477.81293945,0.00014164
5479.74174683,0.00018533
5481.67055420,0.00014977
5483.59936157,0.00013784
5485.52816895,0.00024377
5487.45697632,0.00023251
5489.38578369,0.00016268
5491.31459106,0.00013127
5493.24339844,0.00020187
5495.17220581,0.00026699
5497.10101318,0.00020394
5499.02982056,0.00020817
5500.95862793,0.00023936
5502.88743530,0.00017024
5504.81624268,0.00016201
5506.74505005,0.00019938
5508.67385742,0.00016727
5510.60266479,0.00021155
5512.53147217,0.00021468
5514.46027954,0.00015572
5516.38908691,0.00014575
5518.31789429,0.00018169
5520.24670166,0.00027496
5522.17550903,0.00019358
5524.10431641,0.00016682
5526.03312378,0.00026537
5527.96193115,0.00019605
5529.89073853,0.00013800
5531.81954590,0.00016329
5533.74835327,0.00017747
5535.67716064,0.00015863
5537.60596802,0.00016788
5539.53477539,0.00020656
5541.46358276,0.00022996
5543.39239014,0.00017441
5545.32119751,0.00010474
5547.25000488,0.00016355
5549.17881226,0.00020409
5551.10761963,0.00018888
5553.03642700,0.00014685
5554.96523437,0.00014488
5556.89404175,0.00020287
5558.82284912,0.00021033
5560.75165649,0.00018337
5562.68046387,0.00011630
5564.60927124,0.00015466
5566.53807861,0.00024323
5568.46688599,0.00021203
5570.39569336,0.00016144
5572.32450073,0.00012529
5574.25330811,0.00015001
5576.18211548,0.00015794
5578.11092285,0.00011423
5580.03973022,0.00013264
5581.96853760,0.00015892
5583.89734497,0.00018517
5585.82615234,0.00021568
5587.75495972,0.00019271
5589.68376709,0.00019262
5591.61257446,0.00022677
5593.54138184,0.00026118
5595.47018921,0.00020872
5597.39899658,0.00007607
5599.32780395,0.00013943
5601.25661133,0.00017506
5603.18541870,0.00010869
5605.11422607,0.00013566
5607.04303345,0.00013546
5608.97184082,0.00018977
5610.90064819,0.00012946
5612.82945557,0.00006442
5614.75826294,0.00016238
5616.68707031,0.00016775
5618.61587769,0.00013681
5620.54468506,0.00012478
5622.47349243,0.00016508
5624.40229980,0.00015584
5626.33110718,0.00011972
5628.25991455,0.00015844
5630.18872192,0.00019791
5632.11752930,0.00021326
5634.04633667,0.00015949
5635.97514404,0.00014338
5637.90395142,0.00012943
5639.83275879,0.00009298
5641.76156616,0.00007388
5643.69037353,0.00012698
5645.61918091,0.00017420
5647.54798828,0.00009993
5649.47679565,0.00011778
5651.40560303,0.00012402
5653.33441040,0.00012254
5655.26321777,0.00014352
5657.19202515,0.00011448
5659.12083252,0.00020503
5661.04963989,0.00022864
5662.97844727,0.00010392
5664.90725464,0.00004523
5666.83606201,0.00009444
5668.76486938,0.00013893
5670.69367676,0.00017278
5672.62248413,0.00011022
5674.55129150,0.00006707
5676.48009888,0.00016252
5678.40890625,0.00011480
5680.33771362,0.00015702
5682.26652100,0.00014020
5684.19532837,0.00002528
5686.12413574,0.00019037
5688.05294311,0.00015930
5689.98175049,0.00003991
5691.91055786,0.00015977
5693.83936523,0.00023028
5695.76817261,0.00017080
5697.69697998,0.00015924
5699.62578735,0.00012690
5701.55459473,0.00000402
5703.48340210,0.00011264
5705.41220947,0.00019135
5707.34101685,0.00008348
5709.26982422,0.00011347
5711.19863159,0.00015723
5713.12743896,0.00017042
5715.05624634,0.00014608
5716.98505371,0.00007936
5718.91386108,0.00009868
5720.84266846,0.00012002
5722.77147583,0.00014826
5724.70028320,0.00010957
5726.62909058,0.00006254
5728.55789795,0.00017992
5730.48670532,0.00015416
5732.41551270,0.00009181
5734.34432007,0.00012876
5736.27312744,0.00008544
5738.20193481,0.00013634
5740.13074219,0.00018092
5742.05954956,0.00013932
5743.98835693,0.00009219
5745.91716431,0.00007238
5747.84597168,0.00008379
5749.77477905,0.00008499
5751.70358643,0.00011442
5753.63239380,0.00008805
5755.56120117,0.00011439
5757.49000854,0.00013597
5759.41881592,0.00009532
5761.34762329,0.00013007
5763.27643066,0.00013545
5765.20523804,0.00010781
5767.13404541,0.00010891
5769.06285278,0.00014651
5770.99166016,0.00010977
5772.92046753,0.00011606
5774.84927490,0.00011567
5776.77808228,0.00008884
5778.70688965,0.00014462
5780.63569702,0.00002129
5782.56450439,0.00004698
5784.49331177,0.00013845
5786.42211914,0.00008274
5788.35092651,0.00011730
5790.27973389,0.00010019
5792.20854126,0.00014837
5794.13734863,0.00014238
5796.06615601,0.00007168
5797.99496338,0.00014892
5799.92377075,0.00016576
5801.85257812,0.00008133
5803.78138550,0.00010842
5805.71019287,0.00010295
5807.63900024,-0.00000419
5809.56780762,0.00009245
5811.49661499,0.00012841
5813.42542236,0.00012862
5815.35422974,0.00013084
5817.28303711,0.00003844
5819.21184448,0.00010831
5821.14065186,0.00010432
5823.06945923,0.00009359
5824.99826660,0.00009637
5826.92707397,0.00005023
5828.85588135,0.00009341
5830.78468872,0.00012710
5832.71349609,0.00015205
5834.64230347,0.00012335
5836.57111084,0.00008340
5838.49991821,0.00005081
5840.42872559,0.00007083
5842.35753296,0.00011355
5844.28634033,0.00011369
5846.21514770,0.00008375
5848.14395508,0.00006372
5850.07276245,0.00008387
5852.00156982,0.00004874
5853.93037720,0.00012690
5855.85918457,0.00008601
5857.78799194,0.00001392
5859.71679932,0.00014353
5861.64560669,0.00010093
5863.57441406,0.00007519
5865.50322144,0.00005382
5867.43202881,0.00007938
5869.36083618,0.00013569
5871.28964355,0.00007783
5873.21845093,0.00014271
5875.14725830,0.00010109
5877.07606567,0.00003232
5879.00487305,0.00005750
5880.93368042,0.00007038
5882.86248779,0.00006262
5884.79129517,0.00004545
5886.72010254,0.00010929
5888.64890991,0.00010037
5890.57771728,0.00006247
5892.50652466,0.00009000
5894.43533203,0.00009027
5896.36413940,0.00004209
5898.29294678,0.00008482
5900.22175415,0.00014422
5902.15056152,0.00009011
5904.07936890,0.00008559
5906.00817627,0.00006554
5907.93698364,0.00004717
5909.86579102,0.00009256
5911.79459839,0.00013562
5913.72340576,0.00012931
5915.65221313,0.00007077
5917.58102051,0.00005346
5919.50982788,0.00005558
5921.43863525,0.00008101
5923.36744263,0.00007219
5925.29625000,0.00004207
5927.22505737,0.00004448
5929.15386475,0.00009736
5931.08267212,0.00009756
5933.01147949,0.00005042
5934.94028686,0.00015509
5936.86909424,0.00007980
5938.79790161,-0.00001779
5940.72670898,0.00006503
5942.65551636,0.00001911
5944.58432373,0.00004566
5946.51313110,0.00009228
5948.44193848,0.00008384
5950.37074585,0.00007737
5952.29955322,0.00003681
5954.22836060,0.00008378
5956.15716797,0.00009463
5958.08597534,0.00005363
5960.01478271,0.00007961
5961.94359009,0.00011126
5963.87239746,0.00010187
5965.80120483,0.00005423
5967.73001221,0.00003135
5969.65881958,0.00005826
5971.58762695,0.00004113
5973.51643433,0.00003577
5975.44524170,0.00006386
5977.37404907,0.00010758
5979.30285645,0.00012807
5981.23166382,0.00004390
5983.16047119,0.00008195
5985.08927856,0.00007888
5987.01808594,0.00001180
5988.94689331,0.00007748
5990.87570068,0.00002873
5992.80450806,0.00008203
5994.73331543,0.00015048
5996.66212280,0.00005141
5998.59093018,0.00005102
6000.51973755,0.00006002
