399.26312622,0.00041613
401.19193359,0.00043841
403.12074097,0.00100355
405.04954834,0.00119356
406.97835571,0.00090464
408.90716309,0.00122426
410.83597046,0.00110273
412.76477783,0.00062967
414.69358521,0.00070764
416.62239258,0.00101629
418.55119995,0.00092360
420.48000732,0.00089792
422.40881470,0.00103482
424.33762207,0.00049703
426.26642944,0.00086444
428.19523682,0.00135101
430.12404419,0.00128152
432.05285156,0.00140781
433.98165894,0.00061044
435.91046631,0.00072241
437.83927368,0.00119320
439.76808105,0.00069636
441.69688843,0.00077358
443.62569580,0.00068425
445.55450317,0.00063509
447.48331055,0.00107458
449.41211792,0.00121367
451.34092529,0.00084460
453.26973267,0.00057875
455.19854004,0.00079666
457.12734741,0.00057155
459.05615479,0.00072763
460.98496216,0.00081460
462.91376953,0.00004713
464.84257690,0.00045333
466.77138428,0.00072502
468.70019165,0.00036481
470.62899902,0.00072491
472.55780640,0.00039280
474.48661377,0.00015241
476.41542114,0.00044792
478.34422852,0.00023361
480.27303589,0.00020271
482.20184326,0.00038739
484.13065063,0.00038454
486.05945801,-0.00001885
487.98826538,-0.00010594
489.91707275,0.00013265
491.84588013,-0.00011896
493.77468750,0.00001446
495.70349487,0.00020922
497.63230225,0.00019351
499.56110962,0.00038149
501.48991699,0.00017924
503.41872437,0.00016903
505.34753174,0.00015892
507.27633911,-0.00006383
509.20514648,0.00020997
511.13395386,0.00035961
513.06276123,0.00007034
514.99156860,-0.00000530
516.92037598,0.00009434
518.84918335,0.00007781
520.77799072,0.00040026
522.70679810,0.00074365
524.63560547,0.00036880
526.56441284,0.00006185
528.49322021,0.00044557
530.42202759,0.00050580
532.35083496,0.00018267
534.27964233,0.00031076
536.20844971,0.00034943
538.13725708,-0.00001313
540.06606445,-0.00004043
541.99487183,0.00011133
543.92367920,0.00003047
545.85248657,0.00006923
547.78129395,0.00000219
549.71010132,0.00004896
551.63890869,0.00023147
553.56771606,0.00020337
555.49652344,0.00033688
557.42533081,0.00026327
559.35413818,0.00011456
561.28294556,0.00008358
563.21175293,-0.00005321
565.14056030,0.00006848
567.06936768,0.00002181
568.99817505,-0.00024377
570.92698242,0.00009189
572.85578979,0.00042512
574.78459717,0.00021056
576.71340454,0.00013603
578.64221191,0.00014335
580.57101929,0.00024119
582.49982666,0.00034513
584.42863403,-0.00008835
586.35744141,-0.00007860
588.28624878,0.00029130
590.21505615,0.00003897
592.14386353,0.00006354
594.07267090,0.00013313
596.00147827,0.00011054
597.93028564,0.00025277
599.85909302,0.00019389
601.78790039,0.00024844
603.71670776,0.00010492
605.64551514,0.00004232
607.57432251,0.00014722
609.50312988,0.00011488
611.43193726,0.00018637
613.36074463,0.00019866
615.28955200,0.00033875
617.21835938,0.00021975
619.14716675,-0.00016066
621.07597412,0.00016813
623.00478149,0.00051591
624.93358887,0.00008948
626.86239624,-0.00017025
628.79120361,0.00026149
630.72001099,0.00039701
632.64881836,0.00046120
634.57762573,0.00079418
636.50643311,0.00097836
638.43524048,0.00110597
640.36404785,0.00094102
642.29285522,0.00098277
644.22166260,0.00102305
646.15046997,0.00115255
648.07927734,0.00165015
650.00808472,0.00138982
651.93689209,0.00112481
653.86569946,0.00123853
655.79450684,0.00156721
657.72331421,0.00154506
659.65212158,0.00121944
661.58092896,0.00163785
663.50973633,0.00171038
665.43854370,0.00176955
667.36735107,0.00158266
669.29615845,0.00153451
671.22496582,0.00200111
673.15377319,0.00183834
675.08258057,0.00230853
677.01138794,0.00226099
678.94019531,0.00209492
680.86900269,0.00250633
682.79781006,0.00230365
684.72661743,0.00233838
686.65542480,0.00190815
688.58423218,0.00208158
690.51303955,0.00254407
692.44184692,0.00214909
694.37065430,0.00236465
696.29946167,0.00283930
698.22826904,0.00345278
700.15707642,0.00361424
702.08588379,0.00341758
704.01469116,0.00323125
705.94349854,0.00280401
707.87230591,0.00286756
709.80111328,0.00238532
711.72992065,0.00150457
713.65872803,0.00091835
715.58753540,0.00034794
717.51634277,0.00030942
719.44515015,0.00008809
721.37395752,-0.00002029
723.30276489,0.00029604
725.23157227,0.00011303
727.16037964,0.00014451
729.08918701,0.00015262
731.01799438,-0.00001752
732.94680176,0.00012399
734.87560913,0.00010717
736.80441650,0.00014054
738.73322388,-0.00016344
740.66203125,-0.00000317
742.59083862,0.00028994
744.51964600,0.00014223
746.44845337,0.00032320
748.37726074,-0.00007013
750.30606812,0.00043757
752.23487549,0.00068839
754.16368286,-0.00011707
756.09249023,0.00001132
758.02129761,0.00014518
759.95010498,0.00024795
761.87891235,0.00046520
763.80771973,0.00050750
765.73652710,0.00043768
767.66533447,0.00051905
769.59414185,0.00045542
771.52294922,0.00026978
773.45175659,0.00028742
775.38056396,0.00017503
777.30937134,0.00024097
779.23817871,0.00016995
781.16698608,0.00023454
783.09579346,0.00021703
785.02460083,0.00039738
786.95340820,0.00053694
788.88221558,0.00020260
790.81102295,0.00033690
792.73983032,0.00011600
794.66863770,0.00043044
796.59744507,0.00049733
798.52625244,0.00039222
800.45505981,0.00082968
802.38386719,0.00035391
804.31267456,0.00073453
806.24148193,0.00059864
808.17028931,0.00003683
810.09909668,0.00033934
812.02790405,0.00041119
813.95671143,0.00073552
815.88551880,0.00053188
817.81432617,0.00048451
819.74313354,0.00042721
821.67194092,0.00028600
823.60074829,0.00045434
825.52955566,0.00030570
827.45836304,0.00038887
829.38717041,0.00037459
831.31597778,0.00075873
833.24478516,0.00097957
835.17359253,0.00063982
837.10239990,0.00071540
839.03120728,0.00084764
840.96001465,0.00064903
842.88882202,0.00068219
844.81762939,0.00103168
846.74643677,0.00070762
848.67524414,0.00061199
850.60405151,0.00072504
852.53285889,0.00061960
854.46166626,0.00073771
856.39047363,0.00066702
858.31928101,0.00065916
860.24808838,0.00043002
862.17689575,0.00035691
864.10570313,0.00040129
866.03451050,0.00035099
867.96331787,0.00039311
869.89212524,0.00041157
871.82093262,0.00041645
873.74973999,0.00013358
875.67854736,0.00034976
877.60735474,0.00029762
879.53616211,0.00010189
881.46496948,0.00046533
883.39377686,0.00040780
885.32258423,0.00032211
887.25139160,0.00031832
889.18019897,0.00056299
891.10900635,0.00058804
893.03781372,0.00034796
894.96662109,0.00042179
896.89542847,0.00037753
898.82423584,0.00034732
900.75304321,0.00032753
902.68185059,0.00040285
904.61065796,0.00047173
906.53946533,0.00042674
908.46827271,0.00024678
910.39708008,0.00037605
912.32588745,0.00056194
914.25469482,0.00039654
916.18350220,0.00068460
918.11230957,0.00057185
920.04111694,0.00061835
921.96992432,0.00082157
923.89873169,0.00058708
925.82753906,0.00105925
927.75634644,0.00111924
929.68515381,0.00091962
931.61396118,0.00100790
933.54276855,0.00098558
935.47157593,0.00107416
937.40038330,0.00113259
939.32919067,0.00129161
941.25799805,0.00134908
943.18680542,0.00128335
945.11561279,0.00118879
947.04442017,0.00130186
948.97322754,0.00134723
950.90203491,0.00128727
952.83084229,0.00138749
954.75964966,0.00134795
956.68845703,0.00139894
958.61726440,0.00129075
960.54607178,0.00115262
962.47487915,0.00113227
964.40368652,0.00136705
966.33249390,0.00152971
968.26130127,0.00128897
970.19010864,0.00138646
972.11891602,0.00148640
974.04772339,0.00164010
975.97653076,0.00169659
977.90533813,0.00181254
979.83414551,0.00199402
981.76295288,0.00201539
983.69176025,0.00237216
985.62056763,0.00242267
987.54937500,0.00288956
989.47818237,0.00327753
991.40698975,0.00337995
993.33579712,0.00385282
995.26460449,0.00397848
997.19341187,0.00459565
999.12221924,0.00492033
1001.05102661,0.00509821
1002.97983398,0.00560680
1004.90864136,0.00575484
1006.83744873,0.00626090
1008.76625610,0.00670703
1010.69506348,0.00705461
1012.62387085,0.00729313
1014.55267822,0.00764727
1016.48148560,0.00808682
1018.41029297,0.00820074
1020.33910034,0.00884422
1022.26790771,0.00941177
1024.19671509,0.00960410
1026.12552246,0.00998592
1028.05432983,0.01027974
1029.98313721,0.01047545
1031.91194458,0.01082349
1033.84075195,0.01121700
1035.76955933,0.01157834
1037.69836670,0.01159095
1039.62717407,0.01121002
1041.55598145,0.01125604
1043.48478882,0.01112839
1045.41359619,0.01092890
1047.34240356,0.01121062
1049.27121094,0.01086546
1051.20001831,0.01046543
1053.12882568,0.01068615
1055.05763306,0.01057453
1056.98644043,0.01010814
1058.91524780,0.00996972
1060.84405518,0.00979331
1062.77286255,0.00948166
1064.70166992,0.00912986
1066.63047729,0.00864346
1068.55928467,0.00845759
1070.48809204,0.00804276
1072.41689941,0.00760783
1074.34570679,0.00718979
1076.27451416,0.00671040
1078.20332153,0.00679485
1080.13212891,0.00623971
1082.06093628,0.00572291
1083.98974365,0.00585423
1085.91855103,0.00557465
1087.84735840,0.00537157
1089.77616577,0.00501143
1091.70497314,0.00473100
1093.63378052,0.00471799
1095.56258789,0.00433655
1097.49139526,0.00412587
1099.42020264,0.00428276
1101.34901001,0.00429170
1103.27781738,0.00396261
1105.20662476,0.00377783
1107.13543213,0.00382330
1109.06423950,0.00389920
1110.99304687,0.00388839
1112.92185425,0.00372933
1114.85066162,0.00370275
1116.77946899,0.00371605
1118.70827637,0.00391106
1120.63708374,0.00383873
1122.56589111,0.00365279
1124.49469849,0.00403137
1126.42350586,0.00401255
1128.35231323,0.00397979
1130.28112061,0.00423497
1132.20992798,0.00421462
1134.13873535,0.00443714
1136.06754272,0.00448999
1137.99635010,0.00462397
1139.92515747,0.00518012
1141.85396484,0.00526251
1143.78277222,0.00544947
1145.71157959,0.00582975
1147.64038696,0.00609878
1149.56919434,0.00667365
1151.49800171,0.00695114
1153.42680908,0.00716383
1155.35561646,0.00762824
1157.28442383,0.00800246
1159.21323120,0.00835369
1161.14203857,0.00854311
1163.07084595,0.00880887
1164.99965332,0.00905367
1166.92846069,0.00922955
1168.85726807,0.00971702
1170.78607544,0.01012193
1172.71488281,0.01031065
1174.64369019,0.01080945
1176.57249756,0.01128765
1178.50130493,0.01157521
1180.43011230,0.01226376
1182.35891968,0.01273670
1184.28772705,0.01311599
1186.21653442,0.01375992
1188.14534180,0.01412106
1190.07414917,0.01496448
1192.00295654,0.01596829
1193.93176392,0.01641858
1195.86057129,0.01726554
1197.78937866,0.01823001
1199.71818604,0.01865633
1201.64699341,0.01951867
1203.57580078,0.02049659
1205.50460815,0.02100472
1207.43341553,0.02187736
1209.36222290,0.02253829
1211.29103027,0.02308507
1213.21983765,0.02404511
1215.14864502,0.02476937
1217.07745239,0.02512674
1219.00625977,0.02533476
1220.93506714,0.02580738
1222.86387451,0.02619097
1224.79268188,0.02635071
1226.72148926,0.02641571
1228.65029663,0.02662790
1230.57910400,0.02703563
1232.50791138,0.02698266
1234.43671875,0.02703977
1236.36552612,0.02704969
1238.29433350,0.02703859
1240.22314087,0.02716949
1242.15194824,0.02683662
1244.08075562,0.02673304
1246.00956299,0.02671546
1247.93837036,0.02651556
1249.86717773,0.02640241
1251.79598511,0.02639861
1253.72479248,0.02620779
1255.65359985,0.02569319
1257.58240723,0.02539189
1259.51121460,0.02502831
1261.44002197,0.02456996
1263.36882935,0.02410414
1265.29763672,0.02386435
1267.22644409,0.02381101
1269.15525146,0.02333255
1271.08405884,0.02294620
1273.01286621,0.02262948
1274.94167358,0.02228502
1276.87048096,0.02206688
1278.79928833,0.02160550
1280.72809570,0.02110554
1282.65690308,0.02080996
1284.58571045,0.02055723
1286.51451782,0.02005270
1288.44332520,0.01954740
1290.37213257,0.01945565
1292.30093994,0.01937065
1294.22974731,0.01909619
1296.15855469,0.01896506
1298.08736206,0.01894834
1300.01616943,0.01910925
1301.94497681,0.01924641
1303.87378418,0.01924624
1305.80259155,0.01949279
1307.73139893,0.01975739
1309.66020630,0.02012088
1311.58901367,0.02046117
1313.51782104,0.02067520
1315.44662842,0.02115968
1317.37543579,0.02161265
1319.30424316,0.02215965
1321.23305054,0.02301309
1323.16185791,0.02381612
1325.09066528,0.02446273
1327.01947266,0.02504348
1328.94828003,0.02551553
1330.87708740,0.02625932
1332.80589478,0.02694865
1334.73470215,0.02726858
1336.66350952,0.02753612
1338.59231689,0.02696321
1340.52112427,0.02741447
1342.44993164,0.02894180
1344.37873901,0.02898362
1346.30754639,0.02901613
1348.23635376,0.02888490
1350.16516113,0.02864375
1352.09396851,0.02877025
1354.02277588,0.02826632
1355.95158325,0.02809357
1357.88039062,0.02786644
1359.80919800,0.02755794
1361.73800537,0.02615030
1363.66681274,0.02547671
1365.59562012,0.02726875
1367.52442749,0.02661436
1369.45323486,0.02631132
1371.38204224,0.02697930
1373.31084961,0.02514017
1375.23965698,0.02512964
1377.16846436,0.02615366
1379.09727173,0.02617998
1381.02607910,0.02599715
1382.95488647,0.02618656
1384.88369385,0.02633836
1386.81250122,0.02479573
1388.74130859,0.02517807
1390.67011597,0.02767161
1392.59892334,0.02677989
1394.52773071,0.02461839
1396.45653809,0.02615380
1398.38534546,0.02594977
1400.31415283,0.02563750
1402.24296021,0.02829634
1404.17176758,0.02640061
1406.10057495,0.02655447
1408.02938232,0.02793257
1409.95818970,0.02675436
1411.88699707,0.02757422
1413.81580444,0.02646854
1415.74461182,0.02688370
1417.67341919,0.02383953
1419.60222656,0.02094384
1421.53103394,0.02512902
1423.45984131,0.02429923
1425.38864868,0.02332452
1427.31745605,0.02371494
1429.24626343,0.02172590
1431.17507080,0.02133008
1433.10387817,0.02184935
1435.03268555,0.01980476
1436.96149292,0.01621324
1438.89030029,0.01893903
1440.81910767,0.01995458
1442.74791504,0.01822027
1444.67672241,0.01925936
1446.60552979,0.01728326
1448.53433716,0.01740258
1450.46314453,0.01830429
1452.39195190,0.01870527
1454.32075928,0.01950278
1456.24956665,0.01538187
1458.17837402,0.01594057
1460.10718140,0.02224106
1462.03598877,0.02381799
1463.96479614,0.02338888
1465.89360352,0.02415548
1467.82241089,0.02803680
1469.75121826,0.03016533
1471.68002563,0.02587052
1473.60883301,0.02725181
1475.53764038,0.03153472
1477.46644775,0.03432987
1479.39525513,0.03828518
1481.32406250,0.03855207
1483.25286987,0.04107504
1485.18167725,0.04209403
1487.11048462,0.04084124
1489.03929199,0.04029613
1490.96809937,0.04017372
1492.89690674,0.04827376
1494.82571411,0.04698367
1496.75452148,0.04094350
1498.68332886,0.04711686
1500.61213623,0.04876092
1502.54094360,0.05294661
1504.46975098,0.04944482
1506.39855835,0.03323141
1508.32736572,0.04210641
1510.25617310,0.05125919
1512.18498047,0.04945105
1514.11378784,0.05411452
1516.04259521,0.04769532
1517.97140259,0.05004712
1519.90020996,0.04827264
1521.82901733,0.04016198
1523.75782471,0.05131648
1525.68663208,0.05053590
1527.61543945,0.04999325
1529.54424683,0.05662513
1531.47305420,0.05391820
1533.40186157,0.04827093
1535.33066895,0.05178634
1537.25947632,0.05633338
1539.18828369,0.03766982
1541.11709106,0.03939631
1543.04589844,0.04907179
1544.97470581,0.04655738
1546.90351318,0.05757384
1548.83232056,0.05296333
1550.76112793,0.05479317
1552.68993530,0.05507039
1554.61874268,0.04849555
1556.54755005,0.05281757
1558.47635742,0.03454839
1560.40516479,0.03762781
1562.33397217,0.05809383
1564.26277954,0.05426931
1566.19158691,0.05625287
1568.12039429,0.05547723
1570.04920166,0.04781155
1571.97800903,0.05664553
1573.90681641,0.05764546
1575.83562378,0.04398685
1577.76443115,0.05043964
1579.69323853,0.05851088
1581.62204590,0.05584075
1583.55085327,0.05737687
1585.47966064,0.05651226
1587.40846802,0.05677194
1589.33727539,0.05616283
1591.26608276,0.05634671
1593.19489014,0.05640532
1595.12369751,0.05535649
1597.05250488,0.05641959
1598.98131226,0.05605668
1600.91011963,0.05637887
1602.83892700,0.05527798
1604.76773437,0.05618934
1606.69654175,0.05526065
1608.62534912,0.05491025
1610.55415649,0.05476390
1612.48296387,0.05524526
1614.41177124,0.05614385
1616.34057861,0.04429777
1618.26938599,0.04873458
1620.19819336,0.05840555
1622.12700073,0.05045726
1624.05580811,0.05062483
1625.98461548,0.05394673
1627.91342285,0.05346625
1629.84223022,0.05324000
1631.77103760,0.05789666
1633.69984497,0.05268829
1635.62865234,0.04157271
1637.55745972,0.05004187
1639.48626709,0.05638034
1641.41507446,0.05484524
1643.34388184,0.05687044
1645.27268921,0.05041456
1647.20149658,0.04272255
1649.13030396,0.05582124
1651.05911133,0.05332772
1652.98791870,0.03089904
1654.91672607,0.04466837
1656.84553345,0.05914842
1658.77434082,0.05660951
1660.70314819,0.05837224
1662.63195557,0.05201849
1664.56076294,0.05568916
1666.48957031,0.06101921
1668.41837769,0.05175385
1670.34718506,0.04986013
1672.27599243,0.05832544
1674.20479980,0.05305998
1676.13360718,0.05035292
1678.06241455,0.06020076
1679.99122192,0.05755866
1681.92002930,0.05643968
1683.84883667,0.04447965
1685.77764404,0.04377674
1687.70645142,0.06391001
1689.63525879,0.05421015
1691.56406616,0.06049840
1693.49287354,0.06252572
1695.42168091,0.04273578
1697.35048828,0.05500147
1699.27929565,0.04733098
1701.20810303,0.04107417
1703.13691040,0.05998647
1705.06571777,0.05429920
1706.99452515,0.05483937
1708.92333252,0.06082747
1710.85213989,0.05820242
1712.78094727,0.05938829
1714.70975464,0.05420262
1716.63856201,0.04781768
1718.56736938,0.04678898
1720.49617676,0.05732203
1722.42498413,0.06040344
1724.35379150,0.05515729
1726.28259888,0.06116337
1728.21140625,0.05571315
1730.14021362,0.05574297
1732.06902100,0.05466137
1733.99782837,0.03906826
1735.92663574,0.05096720
1737.85544312,0.05779901
1739.78425049,0.04998434
1741.71305786,0.05528079
1743.64186523,0.05602191
1745.57067261,0.05632475
1747.49947998,0.05679391
1749.42828735,0.05369648
1751.35709473,0.05089770
1753.28590210,0.05745494
1755.21470947,0.06097987
1757.14351685,0.05419186
1759.07232422,0.06094814
1761.00113159,0.05681244
1762.92993896,0.05391029
1764.85874634,0.06396761
1766.78755371,0.05626206
1768.71636108,0.05664780
1770.64516846,0.05641709
1772.57397583,0.04934168
1774.50278320,0.05656243
1776.43159058,0.06041053
1778.36039795,0.05937830
1780.28920532,0.05836125
1782.21801270,0.05910045
1784.14682007,0.05915897
1786.07562744,0.05748219
1788.00443481,0.06110231
1789.93324219,0.05915394
1791.86204956,0.05231050
1793.79085693,0.05503480
1795.71966431,0.05995057
1797.64847168,0.05920922
1799.57727905,0.05803740
1801.50608643,0.05664515
1803.43489380,0.05888293
1805.36370117,0.06065956
1807.29250854,0.05976675
1809.22131592,0.05986742
1811.15012329,0.05780379
1813.07893066,0.06010108
1815.00773804,0.06052214
1816.93654541,0.05965541
1818.86535278,0.06025587
1820.79416016,0.05977194
1822.72296753,0.06099028
1824.65177490,0.05624276
1826.58058228,0.05863609
1828.50938965,0.05876268
1830.43819702,0.05405098
1832.36700439,0.06027051
1834.29581177,0.05993797
1836.22461914,0.05971282
1838.15342651,0.05961804
1840.08223389,0.05986490
1842.01104126,0.06002783
1843.93984863,0.05187898
1845.86865601,0.05602681
1847.79746338,0.05994610
1849.72627075,0.05837598
1851.65507812,0.06050424
1853.58388550,0.05911987
1855.51269287,0.05995996
1857.44150024,0.05932236
1859.37030762,0.05877240
1861.29911499,0.05952369
1863.22792236,0.05862173
1865.15672974,0.05928291
1867.08553711,0.05696497
1869.01434448,0.05406006
1870.94315186,0.05665692
1872.87195923,0.05946591
1874.80076660,0.05839831
1876.72957397,0.05870908
1878.65838135,0.05849544
1880.58718872,0.05820689
1882.51599609,0.05881295
1884.44480347,0.05751805
1886.37361084,0.05865812
1888.30241821,0.05701771
1890.23122559,0.05566130
1892.16003296,0.05833899
1894.08884033,0.05719820
1896.01764771,0.05701280
1897.94645508,0.05782248
1899.87526245,0.05746752
1901.80406982,0.05767088
1903.73287720,0.05724472
1905.66168457,0.05767849
1907.59049194,0.05687310
1909.51929932,0.05646077
1911.44810669,0.05696660
1913.37691406,0.05700031
1915.30572144,0.05764632
1917.23452881,0.05454154
1919.16333618,0.05451714
1921.09214355,0.05711033
1923.02095093,0.05486490
1924.94975830,0.05623612
1926.87856567,0.05722056
1928.80737305,0.05630080
1930.73618042,0.05705708
1932.66498779,0.05618123
1934.59379517,0.05690570
1936.52260254,0.05642007
1938.45140991,0.05646470
1940.38021729,0.05661646
1942.30902466,0.05435701
1944.23783203,0.05543904
1946.16663940,0.05621886
1948.09544678,0.05597181
1950.02425415,0.05626906
1951.95306152,0.05615741
1953.88186890,0.05623908
1955.81067627,0.05585617
1957.73948364,0.05600357
1959.66829102,0.05594624
1961.59709839,0.05581905
1963.52590576,0.05599847
1965.45471313,0.05560709
1967.38352051,0.05491609
1969.31232788,0.05541841
1971.24113525,0.05596012
1973.16994263,0.05545628
1975.09875000,0.05573363
1977.02755737,0.05555363
1978.95636475,0.05551843
1980.88517212,0.05554830
1982.81397949,0.05534110
1984.74278687,0.05550669
1986.67159424,0.05501360
1988.60040161,0.05523404
1990.52920898,0.05445963
1992.45801636,0.05362111
1994.38682373,0.05472522
1996.31563110,0.05498452
1998.24443848,0.05464009
2000.17324585,0.05456103
2002.10205322,0.05448133
2004.03086060,0.05450694
2005.95966797,0.05433695
2007.88847534,0.05398068
2009.81728271,0.05403055
2011.74609009,0.05409215
2013.67489746,0.05396729
2015.60370483,0.05353978
2017.53251221,0.05299081
2019.46131958,0.05339245
2021.39012695,0.05357388
2023.31893433,0.05340649
2025.24774170,0.05320722
2027.17654907,0.05300538
2029.10535645,0.05310706
2031.03416382,0.05284313
2032.96297119,0.05276129
2034.89177856,0.05266431
2036.82058594,0.05256478
2038.74939331,0.05246928
2040.67820068,0.05221731
2042.60700806,0.05223744
2044.53581543,0.05213711
2046.46462280,0.05205627
2048.39343018,0.05201007
2050.32223755,0.05193621
2052.25104492,0.05173825
2054.17985229,0.05162329
2056.10865967,0.05162910
2058.03746704,0.05141899
2059.96627441,0.05127824
2061.89508179,0.05130471
2063.82388916,0.05106624
2065.75269653,0.05072474
2067.68150391,0.05104388
2069.61031128,0.05109291
2071.53911865,0.05088156
2073.46792603,0.05069463
2075.39673340,0.05051667
2077.32554077,0.05067961
2079.25434814,0.05041970
2081.18315552,0.05049750
2083.11196289,0.05031545
2085.04077026,0.05005945
2086.96957764,0.05022338
2088.89838501,0.04985969
2090.82719238,0.04990931
2092.75599976,0.04977741
2094.68480713,0.04974990
2096.61361450,0.04979479
2098.54242187,0.04947937
2100.47122925,0.04961521
2102.40003662,0.04948115
2104.32884399,0.04936308
2106.25765137,0.04924763
2108.18645874,0.04913122
2110.11526611,0.04922779
2112.04407349,0.04914542
2113.97288086,0.04908180
2115.90168823,0.04900987
2117.83049561,0.04893679
2119.75930298,0.04887621
2121.68811035,0.04879997
2123.61691772,0.04869931
2125.54572510,0.04877803
2127.47453247,0.04863541
2129.40333984,0.04839970
2131.33214722,0.04845932
2133.26095459,0.04842760
2135.18976196,0.04844559
2137.11856934,0.04822103
2139.04737671,0.04807498
2140.97618408,0.04818501
2142.90499146,0.04815105
2144.83379883,0.04814255
2146.76260620,0.04807665
2148.69141357,0.04786049
2150.62022095,0.04773124
2152.54902832,0.04787268
2154.47783569,0.04780073
2156.40664307,0.04775352
2158.33545044,0.04772983
2160.26425781,0.04754930
2162.19306519,0.04746165
2164.12187256,0.04734672
2166.05067993,0.04742013
2167.97948730,0.04734650
2169.90829468,0.04733992
2171.83710205,0.04731308
2173.76590942,0.04718162
2175.69471680,0.04724948
2177.62352417,0.04715905
2179.55233154,0.04715041
2181.48113892,0.04698013
2183.40994629,0.04698189
2185.33875366,0.04702541
2187.26756104,0.04681093
2189.19636841,0.04686343
2191.12517578,0.04682277
2193.05398315,0.04679050
2194.98279053,0.04670198
2196.91159790,0.04663808
2198.84040527,0.04656998
2200.76921265,0.04644918
2202.69802002,0.04658189
2204.62682739,0.04648167
2206.55563477,0.04626942
2208.48444214,0.04627356
2210.41324951,0.04629590
2212.34205688,0.04619552
2214.27086426,0.04616792
2216.19967163,0.04620622
2218.12847900,0.04624898
2220.05728638,0.04618517
2221.98609375,0.04600718
2223.91490112,0.04597063
2225.84370850,0.04588072
2227.77251587,0.04592236
2229.70132324,0.04583694
2231.63013062,0.04569368
2233.55893799,0.04571597
2235.48774536,0.04557625
2237.41655273,0.04556132
2239.34536011,0.04545945
2241.27416748,0.04537180
2243.20297485,0.04533385
2245.13178223,0.04517251
2247.06058960,0.04505911
2248.98939697,0.04506761
2250.91820435,0.04509294
2252.84701172,0.04493612
2254.77581909,0.04489037
2256.70462646,0.04478884
2258.63343384,0.04480904
2260.56224121,0.04481747
2262.49104858,0.04469351
2264.41985596,0.04475231
2266.34866333,0.04452135
2268.27747070,0.04447063
2270.20627808,0.04455930
2272.13508545,0.04442333
2274.06389282,0.04437186
2275.99270020,0.04435705
2277.92150757,0.04430954
2279.85031494,0.04424344
2281.77912231,0.04425691
2283.70792969,0.04419024
2285.63673706,0.04412661
2287.56554443,0.04409324
2289.49435181,0.04397491
2291.42315918,0.04372414
2293.35196655,0.04367666
2295.28077393,0.04374129
2297.20958130,0.04348908
2299.13838867,0.04340183
2301.06719604,0.04322326
2302.99600342,0.04305990
2304.92481079,0.04292706
2306.85361816,0.04249493
2308.78242554,0.04222786
2310.71123291,0.04193406
2312.64004028,0.04152523
2314.56884766,0.04119294
2316.49765503,0.04096771
2318.42646240,0.04043864
2320.35526978,0.03987458
2322.28407715,0.03955169
2324.21288452,0.03904703
2326.14169189,0.03854846
2328.07049927,0.03811531
2329.99930664,0.03776729
2331.92811401,0.03736334
2333.85692139,0.03727693
2335.78572876,0.03724225
2337.71453613,0.03709862
2339.64334351,0.03711662
2341.57215088,0.03704401
2343.50095825,0.03762731
2345.42976562,0.03838755
2347.35857300,0.03976656
2349.28738037,0.04088795
2351.21618774,0.03964150
2353.14499512,0.03786349
2355.07380249,0.03655301
2357.00260986,0.03563176
2358.93141724,0.03492380
2360.86022461,0.03449927
2362.78903198,0.03454815
2364.71783936,0.03463617
2366.64664673,0.03509361
2368.57545410,0.03570329
2370.50426147,0.03648467
2372.43306885,0.03737828
2374.36187622,0.03833186
2376.29068359,0.03916471
2378.21949097,0.03988473
2380.14829834,0.04064452
2382.07710571,0.04099275
2384.00591309,0.04132824
2385.93472046,0.04136236
2387.86352783,0.04135694
2389.79233521,0.04136229
2391.72114258,0.04123642
2393.64994995,0.04137611
2395.57875732,0.04114494
2397.50756470,0.04111648
2399.43637207,0.04113618
2401.36517944,0.04096799
2403.29398682,0.04096599
2405.22279419,0.04085814
2407.15160156,0.04092148
2409.08040894,0.04094847
2411.00921631,0.04083231
2412.93802368,0.04069104
2414.86683105,0.04071493
2416.79563843,0.04072524
2418.72444580,0.04057155
2420.65325317,0.04053443
2422.58206055,0.04055055
2424.51086792,0.04047791
2426.43967529,0.04027705
2428.36848267,0.04022850
2430.29729004,0.04020239
2432.22609741,0.04022269
2434.15490479,0.04019521
2436.08371216,0.04011987
2438.01251953,0.04008779
2439.94132690,0.03998980
2441.87013428,0.04010285
2443.79894165,0.03998517
2445.72774902,0.03988639
2447.65655640,0.03979583
2449.58536377,0.03963584
2451.51417114,0.03970231
2453.44297852,0.03954974
2455.37178589,0.03948995
2457.30059326,0.03949136
2459.22940063,0.03955023
2461.15820801,0.03952578
2463.08701538,0.03937997
2465.01582275,0.03925850
2466.94463013,0.03918100
2468.87343750,0.03929315
2470.80224487,0.03909739
2472.73105225,0.03916756
2474.65985962,0.03922108
2476.58866699,0.03902261
2478.51747437,0.03902409
2480.44628174,0.03892030
2482.37508911,0.03895254
2484.30389648,0.03881923
2486.23270386,0.03877921
2488.16151123,0.03869949
2490.09031860,0.03861397
2492.01912598,0.03876770
2493.94793335,0.03852360
2495.87674072,0.03843292
2497.80554810,0.03847961
2499.73435547,0.03845300
2501.66316284,0.03843081
2503.59197021,0.03834750
2505.52077759,0.03826495
2507.44958496,0.03828451
2509.37839233,0.03826481
2511.30719971,0.03807388
2513.23600708,0.03820027
2515.16481445,0.03811349
2517.09362183,0.03803322
2519.02242920,0.03808881
2520.95123657,0.03786436
2522.88004395,0.03785996
2524.80885132,0.03776646
2526.73765869,0.03765282
2528.66646606,0.03762777
2530.59527344,0.03767432
2532.52408081,0.03769582
2534.45288818,0.03759725
2536.38169556,0.03758606
2538.31050293,0.03756290
2540.23931030,0.03754255
2542.16811768,0.03732695
2544.09692505,0.03738397
2546.02573242,0.03736497
2547.95453979,0.03702354
2549.88334717,0.03713381
2551.81215454,0.03711957
2553.74096191,0.03693007
2555.66976929,0.03696883
2557.59857666,0.03697980
2559.52738403,0.03690472
2561.45619141,0.03690730
2563.38499878,0.03680234
2565.31380615,0.03672742
2567.24261353,0.03678410
2569.17142090,0.03671678
2571.10022827,0.03669767
2573.02903564,0.03654319
2574.95784302,0.03649429
2576.88665039,0.03646352
2578.81545776,0.03648686
2580.74426514,0.03660432
2582.67307251,0.03633073
2584.60187988,0.03628780
2586.53068726,0.03624451
2588.45949463,0.03614108
2590.38830200,0.03620094
2592.31710937,0.03620327
2594.24591675,0.03612449
2596.17472412,0.03596654
2598.10353149,0.03602039
2600.03233887,0.03585893
2601.96114624,0.03587894
2603.88995361,0.03591927
2605.81876099,0.03568211
2607.74756836,0.03577252
2609.67637573,0.03565873
2611.60518311,0.03555102
2613.53399048,0.03556131
2615.46279785,0.03544548
2617.39160522,0.03538371
2619.32041260,0.03544629
2621.24921997,0.03539799
2623.17802734,0.03523603
2625.10683472,0.03528465
2627.03564209,0.03516886
2628.96444946,0.03512909
2630.89325684,0.03503532
2632.82206421,0.03491542
2634.75087158,0.03495564
2636.67967895,0.03479236
2638.60848633,0.03485082
2640.53729370,0.03480765
2642.46610107,0.03481586
2644.39490845,0.03495094
2646.32371582,0.03475220
2648.25252319,0.03459951
2650.18133057,0.03451075
2652.11013794,0.03445411
2654.03894531,0.03443378
2655.96775269,0.03444866
2657.89656006,0.03435077
2659.82536743,0.03427562
2661.75417480,0.03425365
2663.68298218,0.03416542
2665.61178955,0.03420126
2667.54059692,0.03410625
2669.46940430,0.03407205
2671.39821167,0.03406836
2673.32701904,0.03400607
2675.25582642,0.03398403
2677.18463379,0.03386103
2679.11344116,0.03386700
2681.04224854,0.03379827
2682.97105591,0.03363054
2684.89986328,0.03359717
2686.82867065,0.03356844
2688.75747803,0.03353658
2690.68628540,0.03357102
2692.61509277,0.03350851
2694.54390015,0.03339047
2696.47270752,0.03332957
2698.40151489,0.03323255
2700.33032227,0.03324462
2702.25912964,0.03319928
2704.18793701,0.03314564
2706.11674438,0.03309119
2708.04555176,0.03298614
2709.97435913,0.03302337
2711.90316650,0.03293320
2713.83197388,0.03287489
2715.76078125,0.03286140
2717.68958862,0.03279202
2719.61839600,0.03272336
2721.54720337,0.03269169
2723.47601074,0.03267526
2725.40481812,0.03253440
2727.33362549,0.03260550
2729.26243286,0.03253045
2731.19124023,0.03237385
2733.12004761,0.03242547
2735.04885498,0.03231614
2736.97766235,0.03229569
2738.90646973,0.03222442
2740.83527710,0.03213258
2742.76408447,0.03209455
2744.69289185,0.03195914
2746.62169922,0.03196379
2748.55050659,0.03191514
2750.47931396,0.03178791
2752.40812134,0.03179301
2754.33692871,0.03183871
2756.26573608,0.03173833
2758.19454346,0.03157634
2760.12335083,0.03150492
2762.05215820,0.03147314
2763.98096558,0.03147557
2765.90977295,0.03134347
2767.83858032,0.03115759
2769.76738770,0.03125375
2771.69619507,0.03129433
2773.62500244,0.03113000
2775.55380981,0.03115071
2777.48261719,0.03107761
2779.41142456,0.03086927
2781.34023193,0.03088761
2783.26903931,0.03090701
2785.19784668,0.03074677
2787.12665405,0.03062509
2789.05546143,0.03065981
2790.98426880,0.03059416
2792.91307617,0.03048179
2794.84188354,0.03042098
2796.77069092,0.03034947
2798.69949829,0.03035280
2800.62830566,0.03035446
2802.55711304,0.03030227
2804.48592041,0.03012116
2806.41472778,0.03000708
2808.34353516,0.02997587
2810.27234253,0.02987828
2812.20114990,0.02986977
2814.12995728,0.02983931
2816.05876465,0.02971455
2817.98757202,0.02964546
2819.91637939,0.02967048
2821.84518677,0.02954783
2823.77399414,0.02945746
2825.70280151,0.02933988
2827.63160889,0.02913265
2829.56041626,0.02923850
2831.48922363,0.02910583
2833.41803101,0.02897486
2835.34683838,0.02901214
2837.27564575,0.02882444
2839.20445312,0.02880069
2841.13326050,0.02852349
2843.06206787,0.02825332
2844.99087524,0.02826431
2846.91968262,0.02796652
2848.84848999,0.02782068
2850.77729736,0.02789681
2852.70610474,0.02789810
2854.63491211,0.02802591
2856.56371948,0.02799369
2858.49252686,0.02789514
2860.42133423,0.02809001
2862.35014160,0.02814553
2864.27894897,0.02798438
2866.20775635,0.02782517
2868.13656372,0.02777468
2870.06537109,0.02776066
2871.99417847,0.02763020
2873.92298584,0.02754804
2875.85179321,0.02752128
2877.78060059,0.02757585
2879.70940796,0.02740914
2881.63821533,0.02733503
2883.56702270,0.02741128
2885.49583008,0.02708562
2887.42463745,0.02717155
2889.35344482,0.02722698
2891.28225220,0.02690271
2893.21105957,0.02690886
2895.13986694,0.02682747
2897.06867432,0.02671096
2898.99748169,0.02656723
2900.92628906,0.02644719
2902.85509644,0.02648370
2904.78390381,0.02639553
2906.71271118,0.02627661
2908.64151855,0.02604653
2910.57032593,0.02588177
2912.49913330,0.02587140
2914.42794067,0.02568989
2916.35674805,0.02552267
2918.28555542,0.02549301
2920.21436279,0.02552106
2922.14317017,0.02564574
2924.07197754,0.02568886
2926.00078491,0.02574078
2927.92959229,0.02583442
2929.85839966,0.02586215
2931.78720703,0.02589872
2933.71601440,0.02585793
2935.64482178,0.02597443
2937.57362915,0.02601797
2939.50243652,0.02594364
2941.43124390,0.02590491
2943.36005127,0.02570052
2945.28885864,0.02577276
2947.21766602,0.02570988
2949.14647339,0.02557353
2951.07528076,0.02560126
2953.00408813,0.02539955
2954.93289551,0.02546440
2956.86170288,0.02535708
2958.79051025,0.02518074
2960.71931763,0.02525541
2962.64812500,0.02508649
2964.57693237,0.02511595
2966.50573975,0.02514614
2968.43454712,0.02501182
2970.36335449,0.02508949
2972.29216187,0.02510236
2974.22096924,0.02498669
2976.14977661,0.02498940
2978.07858398,0.02505032
2980.00739136,0.02503730
2981.93619873,0.02499639
2983.86500610,0.02496780
2985.79381348,0.02493774
2987.72262085,0.02485028
2989.65142822,0.02480894
2991.58023560,0.02474438
2993.50904297,0.02461560
2995.43785034,0.02462234
2997.36665771,0.02457815
2999.29546509,0.02448584
3001.22427246,0.02444585
3003.15307983,0.02432724
3005.08188721,0.02423277
3007.01069458,0.02417858
3008.93950195,0.02409679
3010.86830933,0.02405954
3012.79711670,0.02399188
3014.72592407,0.02386100
3016.65473145,0.02379441
3018.58353882,0.02382541
3020.51234619,0.02380372
3022.44115356,0.02358543
3024.36996094,0.02345593
3026.29876831,0.02344043
3028.22757568,0.02338792
3030.15638306,0.02336240
3032.08519043,0.02323828
3034.01399780,0.02316036
3035.94280518,0.02302752
3037.87161255,0.02291768
3039.80041992,0.02300513
3041.72922729,0.02287224
3043.65803467,0.02279573
3045.58684204,0.02282933
3047.51564941,0.02262001
3049.44445679,0.02246709
3051.37326416,0.02247162
3053.30207153,0.02243012
3055.23087891,0.02229661
3057.15968628,0.02220977
3059.08849365,0.02218784
3061.01730103,0.02205240
3062.94610840,0.02194977
3064.87491577,0.02191667
3066.80372314,0.02174402
3068.73253052,0.02177438
3070.66133789,0.02187906
3072.59014526,0.02173494
3074.51895264,0.02162780
3076.44776001,0.02149833
3078.37656738,0.02143779
3080.30537476,0.02143499
3082.23418213,0.02141608
3084.16298950,0.02138388
3086.09179687,0.02122579
3088.02060425,0.02117882
3089.94941162,0.02107673
3091.87821899,0.02105356
3093.80702637,0.02103567
3095.73583374,0.02074761
3097.66464111,0.02073830
3099.59344849,0.02068940
3101.52225586,0.02048205
3103.45106323,0.02053278
3105.37987061,0.02048617
3107.30867798,0.02033029
3109.23748535,0.02026780
3111.16629272,0.02020167
3113.09510010,0.02009913
3115.02390747,0.02001904
3116.95271484,0.01995423
3118.88152222,0.01982531
3120.81032959,0.01970303
3122.73913696,0.01969751
3124.66794434,0.01967272
3126.59675171,0.01951452
3128.52555908,0.01951436
3130.45436645,0.01954139
3132.38317383,0.01922332
3134.31198120,0.01907996
3136.24078857,0.01911948
3138.16959595,0.01896766
3140.09840332,0.01895557
3142.02721069,0.01890910
3143.95601807,0.01870987
3145.88482544,0.01865316
3147.81363281,0.01867283
3149.74244019,0.01857350
3151.67124756,0.01846887
3153.60005493,0.01840802
3155.52886230,0.01828216
3157.45766968,0.01827434
3159.38647705,0.01812762
3161.31528442,0.01803692
3163.24409180,0.01801790
3165.17289917,0.01780893
3167.10170654,0.01791924
3169.03051392,0.01781192
3170.95932129,0.01763205
3172.88812866,0.01767871
3174.81693604,0.01757182
3176.74574341,0.01753834
3178.67455078,0.01736446
3180.60335815,0.01734348
3182.53216553,0.01733826
3184.46097290,0.01718596
3186.38978027,0.01714141
3188.31858765,0.01706897
3190.24739502,0.01712314
3192.17620239,0.01702432
3194.10500977,0.01697153
3196.03381714,0.01692346
3197.96262451,0.01668346
3199.89143188,0.01665903
3201.82023926,0.01672672
3203.74904663,0.01669103
3205.67785400,0.01656639
3207.60666138,0.01656140
3209.53546875,0.01648654
3211.46427612,0.01643068
3213.39308350,0.01641840
3215.32189087,0.01624256
3217.25069824,0.01628122
3219.17950562,0.01626373
3221.10831299,0.01614214
3223.03712036,0.01618000
3224.96592773,0.01620098
3226.89473511,0.01612649
3228.82354248,0.01608139
3230.75234985,0.01606666
3232.68115723,0.01600376
3234.60996460,0.01604810
3236.53877197,0.01607839
3238.46757935,0.01601823
3240.39638672,0.01596126
3242.32519409,0.01595733
3244.25400146,0.01588015
3246.18280884,0.01585468
3248.11161621,0.01591829
3250.04042358,0.01586127
3251.96923096,0.01587591
3253.89803833,0.01575699
3255.82684570,0.01582890
3257.75565308,0.01594945
3259.68446045,0.01577896
3261.61326782,0.01583923
3263.54207520,0.01578932
3265.47088257,0.01573799
3267.39968994,0.01581891
3269.32849731,0.01582113
3271.25730469,0.01573765
3273.18611206,0.01572259
3275.11491943,0.01581841
3277.04372681,0.01567197
3278.97253418,0.01566049
3280.90134155,0.01566652
3282.83014893,0.01560958
3284.75895630,0.01565999
3286.68776367,0.01566883
3288.61657104,0.01567434
3290.54537842,0.01560516
3292.47418579,0.01562330
3294.40299316,0.01553870
3296.33180054,0.01559422
3298.26060791,0.01574676
3300.18941528,0.01554893
3302.11822266,0.01547117
3304.04703003,0.01561365
3305.97583740,0.01557633
3307.90464478,0.01546002
3309.83345215,0.01559859
3311.76225952,0.01550628
3313.69106689,0.01543270
3315.61987427,0.01557134
3317.54868164,0.01548450
3319.47748901,0.01549059
3321.40629639,0.01547602
3323.33510376,0.01549602
3325.26391113,0.01544753
3327.19271851,0.01542478
3329.12152588,0.01549009
3331.05033325,0.01538108
3332.97914062,0.01541532
3334.90794800,0.01536543
3336.83675537,0.01531334
3338.76556274,0.01531782
3340.69437012,0.01534725
3342.62317749,0.01538730
3344.55198486,0.01527052
3346.48079224,0.01532022
3348.40959961,0.01537719
3350.33840698,0.01526428
3352.26721436,0.01525895
3354.19602173,0.01538406
3356.12482910,0.01531595
3358.05363647,0.01526342
3359.98244385,0.01517398
3361.91125122,0.01513331
3363.84005859,0.01526150
3365.76886597,0.01511741
3367.69767334,0.01519457
3369.62648071,0.01522589
3371.55528809,0.01526204
3373.48409546,0.01535425
3375.41290283,0.01516796
3377.34171020,0.01525635
3379.27051758,0.01527862
3381.19932495,0.01527386
3383.12813232,0.01518502
3385.05693970,0.01518574
3386.98574707,0.01530470
3388.91455444,0.01518675
3390.84336182,0.01517727
3392.77216919,0.01507649
3394.70097656,0.01513054
3396.62978394,0.01515547
3398.55859131,0.01518111
3400.48739868,0.01523184
3402.41620605,0.01517867
3404.34501343,0.01529573
3406.27382080,0.01523266
3408.20262817,0.01530405
3410.13143555,0.01522193
3412.06024292,0.01515229
3413.98905029,0.01528815
3415.91785767,0.01525715
3417.84666504,0.01530451
3419.77547241,0.01521085
3421.70427979,0.01522553
3423.63308716,0.01529102
3425.56189453,0.01529898
3427.49070190,0.01525617
3429.41950928,0.01526773
3431.34831665,0.01528889
3433.27712402,0.01529032
3435.20593140,0.01542641
3437.13473877,0.01525571
3439.06354614,0.01535597
3440.99235352,0.01528399
3442.92116089,0.01516915
3444.84996826,0.01537161
3446.77877563,0.01509530
3448.70758301,0.01524857
3450.63639038,0.01548765
3452.56519775,0.01541954
3454.49400513,0.01545292
3456.42281250,0.01548171
3458.35161987,0.01543964
3460.28042725,0.01534916
3462.20923462,0.01541126
3464.13804199,0.01534852
3466.06684937,0.01537918
3467.99565674,0.01538125
3469.92446411,0.01542837
3471.85327148,0.01557275
3473.78207886,0.01552797
3475.71088623,0.01549885
3477.63969360,0.01554747
3479.56850098,0.01562334
3481.49730835,0.01534609
3483.42611572,0.01539599
3485.35492310,0.01561406
3487.28373047,0.01548724
3489.21253784,0.01554226
3491.14134521,0.01569559
3493.07015259,0.01575838
3494.99895996,0.01557296
3496.92776733,0.01562478
3498.85657471,0.01569057
3500.78538208,0.01561033
3502.71418945,0.01533037
3504.64299683,0.01533272
3506.57180420,0.01585867
3508.50061157,0.01551769
3510.42941895,0.01547473
3512.35822632,0.01571697
3514.28703369,0.01570667
3516.21584106,0.01597927
3518.14464844,0.01578677
3520.07345581,0.01582662
3522.00226318,0.01582419
3523.93107056,0.01555824
3525.85987793,0.01559624
3527.78868530,0.01559634
3529.71749268,0.01558678
3531.64630005,0.01586044
3533.57510742,0.01613506
3535.50391479,0.01584994
3537.43272217,0.01578297
3539.36152954,0.01604990
3541.29033691,0.01606726
3543.21914429,0.01594542
3545.14795166,0.01551196
3547.07675903,0.01521980
3549.00556641,0.01585697
3550.93437378,0.01605780
3552.86318115,0.01559871
3554.79198853,0.01599206
3556.72079590,0.01611586
3558.64960327,0.01605614
3560.57841064,0.01598320
3562.50721802,0.01579119
3564.43602539,0.01588604
3566.36483276,0.01467702
3568.29364014,0.01423389
3570.22244751,0.01579379
3572.15125488,0.01638278
3574.08006226,0.01604000
3576.00886963,0.01613690
3577.93767700,0.01615253
3579.86648437,0.01615195
3581.79529175,0.01618455
3583.72409912,0.01620790
3585.65290649,0.01578003
3587.58171387,0.01420385
3589.51052124,0.01476016
3591.43932861,0.01637853
3593.36813599,0.01587497
3595.29694336,0.01554224
3597.22575073,0.01583692
3599.15455811,0.01608792
3601.08336548,0.01593144
3603.01217285,0.01613765
3604.94098022,0.01643715
3606.86978760,0.01564550
3608.79859497,0.01471924
3610.72740234,0.01511363
3612.65620972,0.01539069
3614.58501709,0.01494584
3616.51382446,0.01628816
3618.44263184,0.01481928
3620.37143921,0.01423012
3622.30024658,0.01646703
3624.22905395,0.01590789
3626.15786133,0.01682216
3628.08666870,0.01387713
3630.01547607,0.01235275
3631.94428345,0.01630894
3633.87309082,0.01576372
3635.80189819,0.01602592
3637.73070557,0.01651202
3639.65951294,0.01627850
3641.58832031,0.01640054
3643.51712769,0.01623733
3645.44593506,0.01647331
3647.37474243,0.01440228
3649.30354980,0.01304949
3651.23235718,0.01317441
3653.16116455,0.01623306
3655.08997192,0.01614688
3657.01877930,0.01410288
3658.94758667,0.01670656
3660.87639404,0.01622461
3662.80520142,0.01651280
3664.73400879,0.01649442
3666.66281616,0.01626626
3668.59162354,0.01584598
3670.52043091,0.01236296
3672.44923828,0.01555700
3674.37804565,0.01471597
3676.30685303,0.01169230
3678.23566040,0.01545216
3680.16446777,0.01580632
3682.09327515,0.01594957
3684.02208252,0.01653069
3685.95088989,0.01621133
3687.87969727,0.01442846
3689.80850464,0.01291359
3691.73731201,0.01501153
3693.66611938,0.01553327
3695.59492676,0.01607547
3697.52373413,0.01610056
3699.45254150,0.01582191
3701.38134888,0.01542570
3703.31015625,0.01471009
3705.23896362,0.01640430
3707.16777100,0.01553826
3709.09657837,0.01502256
3711.02538574,0.01398531
3712.95419312,0.01289649
3714.88300049,0.01554856
3716.81180786,0.01536368
3718.74061523,0.01547048
3720.66942261,0.01508233
3722.59822998,0.01450165
3724.52703735,0.01506234
3726.45584473,0.01376521
3728.38465210,0.01531114
3730.31345947,0.01510082
3732.24226685,0.01360248
3734.17107422,0.01322111
3736.09988159,0.01234185
3738.02868896,0.01332812
3739.95749634,0.01457600
3741.88630371,0.01535209
3743.81511108,0.01152922
3745.74391846,0.01062465
3747.67272583,0.01454635
3749.60153320,0.01220107
3751.53034058,0.01112225
3753.45914795,0.01309637
3755.38795532,0.01407865
3757.31676270,0.01488423
3759.24557007,0.01354462
3761.17437744,0.01410386
3763.10318481,0.01524859
3765.03199219,0.01401714
3766.96079956,0.01441536
3768.88960693,0.01415633
3770.81841431,0.01333600
3772.74722168,0.01469214
3774.67602905,0.01473525
3776.60483643,0.01476105
3778.53364380,0.01425422
3780.46245117,0.01354534
3782.39125854,0.01466774
3784.32006592,0.01429369
3786.24887329,0.01412185
3788.17768066,0.01454584
3790.10648804,0.01450556
3792.03529541,0.01431473
3793.96410278,0.01465483
3795.89291016,0.01368379
3797.82171753,0.01329138
3799.75052490,0.01425368
3801.67933228,0.01087259
3803.60813965,0.01292803
3805.53694702,0.01439061
3807.46575439,0.01134910
3809.39456177,0.01422281
3811.32336914,0.01386250
3813.25217651,0.01437098
3815.18098389,0.01286319
3817.10979126,0.01086472
3819.03859863,0.01437314
3820.96740601,0.01119726
3822.89621338,0.01181298
3824.82502075,0.01427804
3826.75382812,0.01266424
3828.68263550,0.01387195
3830.61144287,0.01324962
3832.54025024,0.01273413
3834.46905762,0.01309647
3836.39786499,0.01227614
3838.32667236,0.01089560
3840.25547974,0.01193324
3842.18428711,0.01298771
3844.11309448,0.01232855
3846.04190186,0.01354596
3847.97070923,0.01337379
3849.89951660,0.01337424
3851.82832397,0.01177034
3853.75713135,0.00841157
3855.68593872,0.01022203
3857.61474609,0.01328218
3859.54355347,0.01296651
3861.47236084,0.01269390
3863.40116821,0.01243752
3865.32997559,0.01138051
3867.25878296,0.01311768
3869.18759033,0.01186925
3871.11639770,0.01063334
3873.04520508,0.01319090
3874.97401245,0.01185327
3876.90281982,0.01296888
3878.83162720,0.01334674
3880.76043457,0.01093191
3882.68924194,0.01297427
3884.61804932,0.01207394
3886.54685669,0.01083924
3888.47566406,0.01300629
3890.40447144,0.01224440
3892.33327881,0.01129686
3894.26208618,0.01264373
3896.19089355,0.01301088
3898.11970093,0.01217777
3900.04850830,0.01140160
3901.97731567,0.01116874
3903.90612305,0.01105611
3905.83493042,0.01133517
3907.76373779,0.01256140
3909.69254517,0.01265348
3911.62135254,0.01251649
3913.55015991,0.01276558
3915.47896728,0.01224964
3917.40777466,0.01178854
3919.33658203,0.01168410
3921.26538940,0.01225306
3923.19419678,0.01217226
3925.12300415,0.01190015
3927.05181152,0.01226702
3928.98061890,0.01227848
3930.90942627,0.01187532
3932.83823364,0.01152452
3934.76704102,0.01209362
3936.69584839,0.01214069
3938.62465576,0.01204334
3940.55346313,0.01220903
3942.48227051,0.01168411
3944.41107788,0.01182250
3946.33988525,0.01197018
3948.26869263,0.01169979
3950.19750000,0.01179507
3952.12630737,0.01198371
3954.05511475,0.01202869
3955.98392212,0.01198375
3957.91272949,0.01185726
3959.84153687,0.01180891
3961.77034424,0.01179535
3963.69915161,0.01173351
3965.62795898,0.01191756
3967.55676636,0.01184207
3969.48557373,0.01175277
3971.41438110,0.01176066
3973.34318848,0.01167484
3975.27199585,0.01168772
3977.20080322,0.01160335
3979.12961060,0.01162220
3981.05841797,0.01168202
3982.98722534,0.01175380
3984.91603271,0.01157614
3986.84484009,0.01160842
3988.77364746,0.01166488
3990.70245483,0.01143230
3992.63126221,0.01151894
3994.56006958,0.01135120
3996.48887695,0.01137921
3998.41768433,0.01139618
4000.34649170,0.01128357
4002.27529907,0.01134235
4004.20410645,0.01125299
4006.13291382,0.01133157
4008.06172119,0.01118248
4009.99052856,0.01122693
4011.91933594,0.01127183
4013.84814331,0.01118234
4015.77695068,0.01125613
4017.70575806,0.01115158
4019.63456543,0.01113802
4021.56337280,0.01105409
4023.49218018,0.01112703
4025.42098755,0.01114503
4027.34979492,0.01110609
4029.27860229,0.01108863
4031.20740967,0.01092885
4033.13621704,0.01102803
4035.06502441,0.01098399
4036.99383179,0.01088949
4038.92263916,0.01085734
4040.85144653,0.01085858
4042.78025391,0.01088777
4044.70906128,0.01078042
4046.63786865,0.01075810
4048.56667603,0.01083473
4050.49548340,0.01077803
4052.42429077,0.01064336
4054.35309814,0.01074662
4056.28190552,0.01067672
4058.21071289,0.01063802
4060.13952026,0.01070692
4062.06832764,0.01057663
4063.99713501,0.01059487
4065.92594238,0.01057583
4067.85474976,0.01049670
4069.78355713,0.01044045
4071.71236450,0.01047330
4073.64117187,0.01043943
4075.56997925,0.01043339
4077.49878662,0.01047028
4079.42759399,0.01036524
4081.35640137,0.01039963
4083.28520874,0.01034420
4085.21401611,0.01035154
4087.14282349,0.01036957
4089.07163086,0.01033183
4091.00043823,0.01025892
4092.92924561,0.01018948
4094.85805298,0.01028972
4096.78686035,0.01022374
4098.71566772,0.01021922
4100.64447510,0.01011647
4102.57328247,0.01010378
4104.50208984,0.01015076
4106.43089722,0.01006736
4108.35970459,0.01006297
4110.28851196,0.00990031
4112.21731934,0.01000704
4114.14612671,0.01002123
4116.07493408,0.00996573
4118.00374145,0.00996554
4119.93254883,0.00988077
4121.86135620,0.00993775
4123.79016357,0.00984537
4125.71897095,0.00987400
4127.64777832,0.00981216
4129.57658569,0.00981846
4131.50539307,0.00984758
4133.43420044,0.00974448
4135.36300781,0.00977695
4137.29181519,0.00969450
4139.22062256,0.00972441
4141.14942993,0.00965680
4143.07823730,0.00962548
4145.00704468,0.00959080
4146.93585205,0.00959125
4148.86465942,0.00968132
4150.79346680,0.00957590
4152.72227417,0.00963327
4154.65108154,0.00953441
4156.57988892,0.00949188
4158.50869629,0.00948030
4160.43750366,0.00944409
4162.36631103,0.00943644
4164.29511841,0.00930529
4166.22392578,0.00939481
4168.15273315,0.00932266
4170.08154053,0.00932427
4172.01034790,0.00928506
4173.93915527,0.00925905
4175.86796265,0.00936365
4177.79677002,0.00924968
4179.72557739,0.00927139
4181.65438477,0.00913770
4183.58319214,0.00916704
4185.51199951,0.00925138
4187.44080688,0.00914981
4189.36961426,0.00918353
4191.29842163,0.00912268
4193.22722900,0.00909455
4195.15603638,0.00902383
4197.08484375,0.00901100
4199.01365112,0.00904523
4200.94245850,0.00902453
4202.87126587,0.00896589
4204.80007324,0.00893774
4206.72888062,0.00895621
4208.65768799,0.00887663
4210.58649536,0.00891032
4212.51530273,0.00886935
4214.44411011,0.00885319
4216.37291748,0.00885389
4218.30172485,0.00881961
4220.23053223,0.00883191
4222.15933960,0.00873660
4224.08814697,0.00882284
4226.01695435,0.00879610
4227.94576172,0.00866415
4229.87456909,0.00870876
4231.80337646,0.00870829
4233.73218384,0.00863149
4235.66099121,0.00857387
4237.58979858,0.00855837
4239.51860596,0.00856293
4241.44741333,0.00864248
4243.37622070,0.00858989
4245.30502808,0.00853088
4247.23383545,0.00853247
4249.16264282,0.00851544
4251.09145020,0.00851348
4253.02025757,0.00842292
4254.94906494,0.00841298
4256.87787231,0.00842218
4258.80667969,0.00841119
4260.73548706,0.00832715
4262.66429443,0.00828335
4264.59310181,0.00829204
4266.52190918,0.00827122
4268.45071655,0.00835316
4270.37952393,0.00825626
4272.30833130,0.00821171
4274.23713867,0.00822217
4276.16594604,0.00822502
4278.09475342,0.00830862
4280.02356079,0.00816529
4281.95236816,0.00810978
4283.88117554,0.00817997
4285.80998291,0.00816700
4287.73879028,0.00812354
4289.66759766,0.00813523
4291.59640503,0.00813849
4293.52521240,0.00804007
4295.45401978,0.00803348
4297.38282715,0.00804226
4299.31163452,0.00795724
4301.24044189,0.00793295
4303.16924927,0.00799295
4305.09805664,0.00788730
4307.02686401,0.00785583
4308.95567139,0.00797629
4310.88447876,0.00789014
4312.81328613,0.00784696
4314.74209351,0.00782263
4316.67090088,0.00777348
4318.59970825,0.00784122
4320.52851562,0.00778357
4322.45732300,0.00767938
4324.38613037,0.00773733
4326.31493774,0.00774396
4328.24374512,0.00768097
4330.17255249,0.00770206
4332.10135986,0.00768463
4334.03016724,0.00765941
4335.95897461,0.00758246
4337.88778198,0.00756521
4339.81658936,0.00765672
4341.74539673,0.00759932
4343.67420410,0.00759370
4345.60301147,0.00761605
4347.53181885,0.00753472
4349.46062622,0.00752852
4351.38943359,0.00747684
4353.31824097,0.00738084
4355.24704834,0.00745147
4357.17585571,0.00746147
4359.10466309,0.00744485
4361.03347046,0.00745106
4362.96227783,0.00733576
4364.89108520,0.00740221
4366.81989258,0.00738519
4368.74869995,0.00729876
4370.67750732,0.00731981
4372.60631470,0.00719416
4374.53512207,0.00723070
4376.46392944,0.00732084
4378.39273682,0.00725917
4380.32154419,0.00722358
4382.25035156,0.00723152
4384.17915894,0.00715274
4386.10796631,0.00710698
4388.03677368,0.00717733
4389.96558105,0.00717041
4391.89438843,0.00716150
4393.82319580,0.00705805
4395.75200317,0.00702814
4397.68081055,0.00709957
4399.60961792,0.00709399
4401.53842529,0.00710747
4403.46723267,0.00700724
4405.39604004,0.00695688
4407.32484741,0.00695668
4409.25365478,0.00693073
4411.18246216,0.00696777
4413.11126953,0.00700979
4415.04007690,0.00697115
4416.96888428,0.00688865
4418.89769165,0.00690347
4420.82649902,0.00689144
4422.75530640,0.00685027
4424.68411377,0.00683062
4426.61292114,0.00684678
4428.54172852,0.00680600
4430.47053589,0.00679310
4432.39934326,0.00684186
4434.32815063,0.00678113
4436.25695801,0.00680538
4438.18576538,0.00680452
4440.11457275,0.00674480
4442.04338013,0.00667342
4443.97218750,0.00671753
4445.90099487,0.00672772
4447.82980225,0.00657799
4449.75860962,0.00664269
4451.68741699,0.00659818
4453.61622437,0.00659477
4455.54503174,0.00660475
4457.47383911,0.00654236
4459.40264648,0.00661982
4461.33145386,0.00650239
4463.26026123,0.00650183
4465.18906860,0.00655754
4467.11787598,0.00652555
4469.04668335,0.00650055
4470.97549072,0.00650699
4472.90429810,0.00649922
4474.83310547,0.00640627
4476.76191284,0.00646123
4478.69072021,0.00643667
4480.61952759,0.00642340
4482.54833496,0.00636039
4484.47714233,0.00626793
4486.40594971,0.00629770
4488.33475708,0.00631486
4490.26356445,0.00633000
4492.19237183,0.00620262
4494.12117920,0.00628003
4496.04998657,0.00628898
4497.97879395,0.00624475
4499.90760132,0.00625315
4501.83640869,0.00613344
4503.76521606,0.00625452
4505.69402344,0.00612631
4507.62283081,0.00604630
4509.55163818,0.00612986
4511.48044556,0.00609394
4513.40925293,0.00612981
4515.33806030,0.00603823
4517.26686768,0.00607353
4519.19567505,0.00608631
4521.12448242,0.00607410
4523.05328979,0.00606048
4524.98209717,0.00600441
4526.91090454,0.00603844
4528.83971191,0.00598639
4530.76851929,0.00595710
4532.69732666,0.00585702
4534.62613403,0.00591547
4536.55494141,0.00601539
4538.48374878,0.00587253
4540.41255615,0.00586446
4542.34136353,0.00597211
4544.27017090,0.00599072
4546.19897827,0.00588922
4548.12778564,0.00585358
4550.05659302,0.00582472
4551.98540039,0.00583535
4553.91420776,0.00587090
4555.84301514,0.00577610
4557.77182251,0.00583099
4559.70062988,0.00584906
4561.62943726,0.00574146
4563.55824463,0.00578247
4565.48705200,0.00576634
4567.41585937,0.00563895
4569.34466675,0.00566814
4571.27347412,0.00569689
4573.20228149,0.00564482
4575.13108887,0.00564922
4577.05989624,0.00561424
4578.98870361,0.00559759
4580.91751099,0.00556314
4582.84631836,0.00554266
4584.77512573,0.00553603
4586.70393311,0.00548145
4588.63274048,0.00554704
4590.56154785,0.00556889
4592.49035522,0.00554757
4594.41916260,0.00561299
4596.34796997,0.00558464
4598.27677734,0.00550886
4600.20558472,0.00546249
4602.13439209,0.00539450
4604.06319946,0.00540571
4605.99200684,0.00540798
4607.92081421,0.00538473
4609.84962158,0.00543260
4611.77842895,0.00542496
4613.70723633,0.00539880
4615.63604370,0.00536164
4617.56485107,0.00535034
4619.49365845,0.00534661
4621.42246582,0.00537220
4623.35127319,0.00538394
4625.28008057,0.00525906
4627.20888794,0.00526089
4629.13769531,0.00522112
4631.06650269,0.00518331
4632.99531006,0.00523566
4634.92411743,0.00518145
4636.85292480,0.00520325
4638.78173218,0.00522861
4640.71053955,0.00518485
4642.63934692,0.00507270
4644.56815430,0.00514020
4646.49696167,0.00519658
4648.42576904,0.00504728
4650.35457642,0.00509799
4652.28338379,0.00507384
4654.21219116,0.00503023
4656.14099853,0.00505437
4658.06980591,0.00500080
4659.99861328,0.00502238
4661.92742065,0.00503335
4663.85622803,0.00502777
4665.78503540,0.00497920
4667.71384277,0.00497596
4669.64265015,0.00501754
4671.57145752,0.00498081
4673.50026489,0.00494059
4675.42907227,0.00495556
4677.35787964,0.00498388
4679.28668701,0.00497399
4681.21549438,0.00494626
4683.14430176,0.00490138
4685.07310913,0.00487836
4687.00191650,0.00488021
4688.93072388,0.00492240
4690.85953125,0.00485590
4692.78833862,0.00481322
4694.71714600,0.00489367
4696.64595337,0.00481920
4698.57476074,0.00483159
4700.50356812,0.00483955
4702.43237549,0.00473755
4704.36118286,0.00477583
4706.28999023,0.00482627
4708.21879761,0.00478480
4710.14760498,0.00472767
4712.07641235,0.00470379
4714.00521973,0.00467513
4715.93402710,0.00473065
4717.86283447,0.00471076
4719.79164185,0.00467144
4721.72044922,0.00472105
4723.64925659,0.00467055
4725.57806396,0.00465474
4727.50687134,0.00461141
4729.43567871,0.00461126
4731.36448608,0.00466131
4733.29329346,0.00466644
4735.22210083,0.00467994
4737.15090820,0.00457653
4739.07971558,0.00450946
4741.00852295,0.00454523
4742.93733032,0.00456855
4744.86613770,0.00459306
4746.79494507,0.00460528
4748.72375244,0.00449317
4750.65255981,0.00445838
4752.58136719,0.00450712
4754.51017456,0.00445083
4756.43898193,0.00449405
4758.36778931,0.00447174
4760.29659668,0.00440180
4762.22540405,0.00441749
4764.15421143,0.00442080
4766.08301880,0.00441638
4768.01182617,0.00442481
4769.94063354,0.00439951
4771.86944092,0.00433104
4773.79824829,0.00440792
4775.72705566,0.00432935
4777.65586304,0.00430064
4779.58467041,0.00438515
4781.51347778,0.00425105
4783.44228516,0.00430077
4785.37109253,0.00428264
4787.29989990,0.00422827
4789.22870728,0.00430719
4791.15751465,0.00429579
4793.08632202,0.00430791
4795.01512939,0.00431149
4796.94393677,0.00428522
4798.87274414,0.00419924
4800.80155151,0.00415333
4802.73035889,0.00416222
4804.65916626,0.00427750
4806.58797363,0.00426771
4808.51678101,0.00412591
4810.44558838,0.00419077
4812.37439575,0.00413686
4814.30320312,0.00416661
4816.23201050,0.00417919
4818.16081787,0.00404071
4820.08962524,0.00414562
4822.01843262,0.00414898
4823.94723999,0.00405103
4825.87604736,0.00405474
4827.80485474,0.00407531
4829.73366211,0.00407356
4831.66246948,0.00403595
4833.59127686,0.00402827
4835.52008423,0.00404312
4837.44889160,0.00402107
4839.37769897,0.00399193
4841.30650635,0.00394267
4843.23531372,0.00388503
4845.16412109,0.00395301
4847.09292847,0.00393362
4849.02173584,0.00389623
4850.95054321,0.00396069
4852.87935059,0.00389430
4854.80815796,0.00385660
4856.73696533,0.00388140
4858.66577270,0.00386243
4860.59458008,0.00386778
4862.52338745,0.00390233
4864.45219482,0.00389266
4866.38100220,0.00390130
4868.30980957,0.00389519
4870.23861694,0.00383533
4872.16742432,0.00385411
4874.09623169,0.00383123
4876.02503906,0.00380357
4877.95384644,0.00381266
4879.88265381,0.00376906
4881.81146118,0.00374872
4883.74026855,0.00378529
4885.66907593,0.00376153
4887.59788330,0.00374183
4889.52669067,0.00376905
4891.45549805,0.00370414
4893.38430542,0.00373568
4895.31311279,0.00370265
4897.24192017,0.00367701
4899.17072754,0.00372666
4901.09953491,0.00364224
4903.02834228,0.00367402
4904.95714966,0.00363845
4906.88595703,0.00363732
4908.81476440,0.00361827
4910.74357178,0.00355983
4912.67237915,0.00361002
4914.60118652,0.00355915
4916.52999390,0.00364144
4918.45880127,0.00362611
4920.38760864,0.00362767
4922.31641602,0.00362804
4924.24522339,0.00355551
4926.17403076,0.00365911
4928.10283813,0.00354441
4930.03164551,0.00349228
4931.96045288,0.00348178
4933.88926025,0.00348388
4935.81806763,0.00355785
4937.74687500,0.00347434
4939.67568237,0.00352227
4941.60448975,0.00352418
4943.53329712,0.00348347
4945.46210449,0.00345061
4947.39091187,0.00338286
4949.31971924,0.00338904
4951.24852661,0.00336948
4953.17733398,0.00339068
4955.10614136,0.00342475
4957.03494873,0.00341919
4958.96375610,0.00339972
4960.89256348,0.00335161
4962.82137085,0.00333721
4964.75017822,0.00340653
4966.67898560,0.00333790
4968.60779297,0.00333065
4970.53660034,0.00341841
4972.46540771,0.00331651
4974.39421509,0.00332578
4976.32302246,0.00328888
4978.25182983,0.00329412
4980.18063721,0.00338271
4982.10944458,0.00329610
4984.03825195,0.00329144
4985.96705933,0.00327638
4987.89586670,0.00323688
4989.82467407,0.00321067
4991.75348145,0.00323010
4993.68228882,0.00329126
4995.61109619,0.00329113
4997.53990356,0.00326176
4999.46871094,0.00324302
5001.39751831,0.00321513
5003.32632568,0.00316405
5005.25513306,0.00327485
5007.18394043,0.00323088
5009.11274780,0.00312250
5011.04155518,0.00314337
5012.97036255,0.00313766
5014.89916992,0.00316335
5016.82797729,0.00307198
5018.75678467,0.00320521
5020.68559204,0.00318833
5022.61439941,0.00298609
5024.54320679,0.00309433
5026.47201416,0.00306061
5028.40082153,0.00304771
5030.32962891,0.00305458
5032.25843628,0.00305353
5034.18724365,0.00305032
5036.11605103,0.00297607
5038.04485840,0.00303675
5039.97366577,0.00304384
5041.90247314,0.00304723
5043.83128052,0.00299345
5045.76008789,0.00302160
5047.68889526,0.00307101
5049.61770264,0.00292956
5051.54651001,0.00294896
5053.47531738,0.00298924
5055.40412476,0.00292783
5057.33293213,0.00291568
5059.26173950,0.00298932
5061.19054687,0.00297171
5063.11935425,0.00290353
5065.04816162,0.00296475
5066.97696899,0.00295284
5068.90577637,0.00292334
5070.83458374,0.00291474
5072.76339111,0.00293629
5074.69219849,0.00293212
5076.62100586,0.00282033
5078.54981323,0.00283427
5080.47862061,0.00285663
5082.40742798,0.00282659
5084.33623535,0.00283845
5086.26504272,0.00282582
5088.19385010,0.00285931
5090.12265747,0.00283954
5092.05146484,0.00281438
5093.98027222,0.00288913
5095.90907959,0.00283649
5097.83788696,0.00284517
5099.76669434,0.00290531
5101.69550171,0.00275709
5103.62430908,0.00275352
5105.55311645,0.00282497
5107.48192383,0.00274606
5109.41073120,0.00276802
5111.33953857,0.00278933
5113.26834595,0.00269920
5115.19715332,0.00270529
5117.12596069,0.00275538
5119.05476807,0.00274960
5120.98357544,0.00273540
5122.91238281,0.00269148
5124.84119019,0.00271790
5126.76999756,0.00272637
5128.69880493,0.00269909
5130.62761230,0.00278565
5132.55641968,0.00271265
5134.48522705,0.00263018
5136.41403442,0.00275163
5138.34284180,0.00273634
5140.27164917,0.00267954
5142.20045654,0.00267731
5144.12926392,0.00259784
5146.05807129,0.00261158
5147.98687866,0.00265848
5149.91568603,0.00260171
5151.84449341,0.00258361
5153.77330078,0.00258307
5155.70210815,0.00255425
5157.63091553,0.00261176
5159.55972290,0.00263709
5161.48853027,0.00253609
5163.41733765,0.00250120
5165.34614502,0.00254849
5167.27495239,0.00259610
5169.20375977,0.00255852
5171.13256714,0.00254630
5173.06137451,0.00255366
5174.99018188,0.00244251
5176.91898926,0.00254771
5178.84779663,0.00256992
5180.77660400,0.00245230
5182.70541138,0.00249955
5184.63421875,0.00243877
5186.56302612,0.00248433
5188.49183350,0.00249599
5190.42064087,0.00247645
5192.34944824,0.00249706
5194.27825562,0.00238959
5196.20706299,0.00240897
5198.13587036,0.00237798
5200.06467773,0.00241413
5201.99348511,0.00246882
5203.92229248,0.00246153
5205.85109985,0.00241668
5207.77990723,0.00224316
5209.70871460,0.00230309
5211.63752197,0.00238109
5213.56632935,0.00245389
5215.49513672,0.00245430
5217.42394409,0.00234585
5219.35275146,0.00236870
5221.28155884,0.00233254
5223.21036621,0.00239149
5225.13917358,0.00236029
5227.06798096,0.00227373
5228.99678833,0.00235848
5230.92559570,0.00234083
5232.85440308,0.00228299
5234.78321045,0.00234362
5236.71201782,0.00237066
5238.64082520,0.00227169
5240.56963257,0.00230202
5242.49843994,0.00230823
5244.42724731,0.00223654
5246.35605469,0.00226008
5248.28486206,0.00226961
5250.21366943,0.00223167
5252.14247681,0.00223241
5254.07128418,0.00231592
5256.00009155,0.00226780
5257.92889893,0.00230232
5259.85770630,0.00231127
5261.78651367,0.00221517
5263.71532104,0.00226810
5265.64412842,0.00218685
5267.57293579,0.00219340
5269.50174316,0.00221236
5271.43055054,0.00216777
5273.35935791,0.00220339
5275.28816528,0.00217429
5277.21697266,0.00223602
5279.14578003,0.00220329
5281.07458740,0.00213736
5283.00339478,0.00216567
5284.93220215,0.00212095
5286.86100952,0.00217263
5288.78981689,0.00228376
5290.71862427,0.00217028
5292.64743164,0.00212076
5294.57623901,0.00215504
5296.50504639,0.00205271
5298.43385376,0.00216801
5300.36266113,0.00214304
5302.29146851,0.00210117
5304.22027588,0.00217497
5306.14908325,0.00201724
5308.07789062,0.00207791
5310.00669800,0.00205779
5311.93550537,0.00206719
5313.86431274,0.00218282
5315.79312012,0.00207076
5317.72192749,0.00206130
5319.65073486,0.00202062
5321.57954224,0.00207334
5323.50834961,0.00210332
5325.43715698,0.00201855
5327.36596436,0.00202698
5329.29477173,0.00197971
5331.22357910,0.00201998
5333.15238647,0.00201675
5335.08119385,0.00202154
5337.01000122,0.00201000
5338.93880859,0.00187785
5340.86761597,0.00204079
5342.79642334,0.00207487
5344.72523071,0.00185729
5346.65403809,0.00191445
5348.58284546,0.00196634
5350.51165283,0.00200006
5352.44046020,0.00203355
5354.36926758,0.00195463
5356.29807495,0.00196848
5358.22688232,0.00192823
5360.15568970,0.00195339
5362.08449707,0.00198845
5364.01330444,0.00193900
5365.94211182,0.00194032
5367.87091919,0.00190144
5369.79972656,0.00195844
5371.72853394,0.00192069
5373.65734131,0.00188606
5375.58614868,0.00189030
5377.51495605,0.00183465
5379.44376343,0.00195678
5381.37257080,0.00192728
5383.30137817,0.00188142
5385.23018555,0.00190541
5387.15899292,0.00184835
5389.08780029,0.00185918
5391.01660767,0.00189473
5392.94541504,0.00190195
5394.87422241,0.00177968
5396.80302978,0.00181463
5398.73183716,0.00186292
5400.66064453,0.00183671
5402.58945190,0.00190113
5404.51825928,0.00174286
5406.44706665,0.00177053
5408.37587402,0.00183500
5410.30468140,0.00170777
5412.23348877,0.00176728
5414.16229614,0.00169329
5416.09110352,0.00167956
5418.01991089,0.00179148
5419.94871826,0.00180461
5421.87752563,0.00182019
5423.80633301,0.00174678
5425.73514038,0.00180038
5427.66394775,0.00171880
5429.59275513,0.00160265
5431.52156250,0.00180506
5433.45036987,0.00175168
5435.37917725,0.00166620
5437.30798462,0.00175622
5439.23679199,0.00177487
5441.16559936,0.00174115
5443.09440674,0.00165184
5445.02321411,0.00166488
5446.95202148,0.00167542
5448.88082886,0.00167246
5450.80963623,0.00165396
5452.73844360,0.00170149
5454.66725098,0.00170610
5456.59605835,0.00159236
5458.52486572,0.00172430
5460.45367310,0.00169152
5462.38248047,0.00163027
5464.31128784,0.00169670
5466.24009521,0.00162930
5468.16890259,0.00168892
5470.09770996,0.00165785
5472.02651733,0.00165346
5473.95532471,0.00165842
5475.88413208,0.00157471
5477.81293945,0.00162413
5479.74174683,0.00166127
5481.67055420,0.00168665
5483.59936157,0.00162304
5485.52816895,0.00160016
5487.45697632,0.00160581
5489.38578369,0.00158714
5491.31459106,0.00163340
5493.24339844,0.00154962
5495.17220581,0.00156712
5497.10101318,0.00164931
5499.02982056,0.00159237
5500.95862793,0.00155591
5502.88743530,0.00154895
5504.81624268,0.00156526
5506.74505005,0.00156708
5508.67385742,0.00155805
5510.60266479,0.00157212
5512.53147217,0.00158708
5514.46027954,0.00152402
5516.38908691,0.00147619
5518.31789429,0.00157224
5520.24670166,0.00154931
5522.17550903,0.00153202
5524.10431641,0.00156584
5526.03312378,0.00144316
5527.96193115,0.00146524
5529.89073853,0.00148637
5531.81954590,0.00150756
5533.74835327,0.00155815
5535.67716064,0.00148137
5537.60596802,0.00153786
5539.53477539,0.00146429
5541.46358276,0.00148932
5543.39239014,0.00155658
5545.32119751,0.00141740
5547.25000488,0.00149826
5549.17881226,0.00145792
5551.10761963,0.00145854
5553.03642700,0.00149783
5554.96523437,0.00142729
5556.89404175,0.00144902
5558.82284912,0.00137850
5560.75165649,0.00146094
5562.68046387,0.00146670
5564.60927124,0.00141708
5566.53807861,0.00148910
5568.46688599,0.00147268
5570.39569336,0.00145440
5572.32450073,0.00142515
5574.25330811,0.00144079
5576.18211548,0.00144100
5578.11092285,0.00147154
5580.03973022,0.00140463
5581.96853760,0.00140529
5583.89734497,0.00148101
5585.82615234,0.00136372
5587.75495972,0.00142597
5589.68376709,0.00137445
5591.61257446,0.00132048
5593.54138184,0.00142224
5595.47018921,0.00138761
5597.39899658,0.00139362
5599.32780395,0.00138371
5601.25661133,0.00139254
5603.18541870,0.00137185
5605.11422607,0.00139332
5607.04303345,0.00138672
5608.97184082,0.00135815
5610.90064819,0.00138232
5612.82945557,0.00128332
5614.75826294,0.00134567
5616.68707031,0.00137787
5618.61587769,0.00131338
5620.54468506,0.00132294
5622.47349243,0.00135959
5624.40229980,0.00140089
5626.33110718,0.00132887
5628.25991455,0.00130641
5630.18872192,0.00130617
5632.11752930,0.00132167
5634.04633667,0.00130169
5635.97514404,0.00129349
5637.90395142,0.00132140
5639.83275879,0.00129640
5641.76156616,0.00138516
5643.69037353,0.00132977
5645.61918091,0.00127267
5647.54798828,0.00133838
5649.47679565,0.00131028
5651.40560303,0.00130095
5653.33441040,0.00129353
5655.26321777,0.00131992
5657.19202515,0.00131114
5659.12083252,0.00126763
5661.04963989,0.00127614
5662.97844727,0.00131155
5664.90725464,0.00132050
5666.83606201,0.00127322
5668.76486938,0.00122970
5670.69367676,0.00123870
5672.62248413,0.00130158
5674.55129150,0.00122774
5676.48009888,0.00117901
5678.40890625,0.00123193
5680.33771362,0.00121805
5682.26652100,0.00126352
5684.19532837,0.00124323
5686.12413574,0.00119718
5688.05294311,0.00122908
5689.98175049,0.00118315
5691.91055786,0.00115567
5693.83936523,0.00118950
5695.76817261,0.00117887
5697.69697998,0.00118436
5699.62578735,0.00118980
5701.55459473,0.00116891
5703.48340210,0.00121629
5705.41220947,0.00122404
5707.34101685,0.00117746
5709.26982422,0.00116993
5711.19863159,0.00118484
5713.12743896,0.00117310
5715.05624634,0.00111900
5716.98505371,0.00113209
5718.91386108,0.00119856
5720.84266846,0.00118536
5722.77147583,0.00111980
5724.70028320,0.00115088
5726.62909058,0.00112256
5728.55789795,0.00106257
5730.48670532,0.00118641
5732.41551270,0.00120700
5734.34432007,0.00116816
5736.27312744,0.00120734
5738.20193481,0.00113675
5740.13074219,0.00109533
5742.05954956,0.00116145
5743.98835693,0.00116745
5745.91716431,0.00110585
5747.84597168,0.00107685
5749.77477905,0.00111840
5751.70358643,0.00116084
5753.63239380,0.00113522
5755.56120117,0.00114384
5757.49000854,0.00111574
5759.41881592,0.00102234
5761.34762329,0.00106720
5763.27643066,0.00111779
5765.20523804,0.00107417
5767.13404541,0.00108384
5769.06285278,0.00107682
5770.99166016,0.00102144
5772.92046753,0.00110731
5774.84927490,0.00111615
5776.77808228,0.00101850
5778.70688965,0.00110485
5780.63569702,0.00110999
5782.56450439,0.00105677
5784.49331177,0.00105063
5786.42211914,0.00099097
5788.35092651,0.00102454
5790.27973389,0.00106934
5792.20854126,0.00106798
5794.13734863,0.00107888
5796.06615601,0.00105217
5797.99496338,0.00101884
5799.92377075,0.00103353
5801.85257812,0.00102252
5803.78138550,0.00103977
5805.71019287,0.00104108
5807.63900024,0.00100534
5809.56780762,0.00106278
5811.49661499,0.00100792
5813.42542236,0.00095767
5815.35422974,0.00098904
5817.28303711,0.00096387
5819.21184448,0.00098749
5821.14065186,0.00103582
5823.06945923,0.00102894
5824.99826660,0.00094722
5826.92707397,0.00094179
5828.85588135,0.00092337
5830.78468872,0.00091291
5832.71349609,0.00096376
5834.64230347,0.00094420
5836.57111084,0.00095262
5838.49991821,0.00092951
5840.42872559,0.00097816
5842.35753296,0.00096048
5844.28634033,0.00086039
5846.21514770,0.00092807
5848.14395508,0.00097696
5850.07276245,0.00096555
5852.00156982,0.00095391
5853.93037720,0.00096088
5855.85918457,0.00088175
5857.78799194,0.00091212
5859.71679932,0.00096318
5861.64560669,0.00089490
5863.57441406,0.00098991
5865.50322144,0.00094256
5867.43202881,0.00090844
5869.36083618,0.00095731
5871.28964355,0.00092624
5873.21845093,0.00094007
5875.14725830,0.00089258
5877.07606567,0.00091523
5879.00487305,0.00090275
5880.93368042,0.00090481
5882.86248779,0.00095261
5884.79129517,0.00089307
5886.72010254,0.00083974
5888.64890991,0.00085364
5890.57771728,0.00093639
5892.50652466,0.00093464
5894.43533203,0.00090569
5896.36413940,0.00084802
5898.29294678,0.00082098
5900.22175415,0.00084992
5902.15056152,0.00086661
5904.07936890,0.00091874
5906.00817627,0.00086387
5907.93698364,0.00089503
5909.86579102,0.00085767
5911.79459839,0.00080478
5913.72340576,0.00095071
5915.65221313,0.00086951
5917.58102051,0.00084398
5919.50982788,0.00093163
5921.43863525,0.00083040
5923.36744263,0.00081026
5925.29625000,0.00085498
5927.22505737,0.00080660
5929.15386475,0.00080229
5931.08267212,0.00083824
5933.01147949,0.00082895
5934.94028686,0.00084193
5936.86909424,0.00082952
5938.79790161,0.00078624
5940.72670898,0.00079874
5942.65551636,0.00085283
5944.58432373,0.00083502
5946.51313110,0.00078943
5948.44193848,0.00083082
5950.37074585,0.00086686
5952.29955322,0.00083629
5954.22836060,0.00077658
5956.15716797,0.00077710
5958.08597534,0.00076777
5960.01478271,0.00078243
5961.94359009,0.00080594
5963.87239746,0.00078671
5965.80120483,0.00086747
5967.73001221,0.00084714
5969.65881958,0.00076566
5971.58762695,0.00074596
5973.51643433,0.00080917
5975.44524170,0.00087925
5977.37404907,0.00076719
5979.30285645,0.00073699
5981.23166382,0.00076418
5983.16047119,0.00078360
5985.08927856,0.00082667
5987.01808594,0.00080377
5988.94689331,0.00075122
5990.87570068,0.00076121
5992.80450806,0.00083724
5994.73331543,0.00072342
5996.66212280,0.00071339
5998.59093018,0.00080658
6000.51973755,0.00071757
