399.26312622,0.00084629
401.19193359,0.00064880
403.12074097,0.00059437
405.04954834,0.00083027
406.97835571,0.00122754
408.90716309,0.00097581
410.83597046,0.00062574
412.76477783,0.00108925
414.69358521,0.00102938
416.62239258,0.00103537
418.55119995,0.00105521
420.48000732,0.00081583
422.40881470,0.00092442
424.33762207,0.00094115
426.26642944,0.00117110
428.19523682,0.00109691
430.12404419,0.00116626
432.05285156,0.00120563
433.98165894,0.00088278
435.91046631,0.00122344
437.83927368,0.00125971
439.76808105,0.00110652
441.69688843,0.00114365
443.62569580,0.00126669
445.55450317,0.00110052
447.48331055,0.00081290
449.41211792,0.00122772
451.34092529,0.00094520
453.26973267,0.00080680
455.19854004,0.00099731
457.12734741,0.00068861
459.05615479,0.00094450
460.98496216,0.00078278
462.91376953,0.00080962
464.84257690,0.00102856
466.77138428,0.00051002
468.70019165,0.00074675
470.62899902,0.00099295
472.55780640,0.00055139
474.48661377,0.00052409
476.41542114,0.00045007
478.34422852,0.00025612
480.27303589,0.00061705
482.20184326,0.00057663
484.13065063,0.00030386
486.05945801,0.00021174
487.98826538,0.00037623
489.91707275,0.00059805
491.84588013,-0.00004909
493.77468750,0.00008900
495.70349487,0.00028577
497.63230225,0.00001240
499.56110962,0.00017897
501.48991699,-0.00006210
503.41872437,0.00011311
505.34753174,0.00019446
507.27633911,0.00011188
509.20514648,0.00027079
511.13395386,0.00029290
513.06276123,0.00005740
514.99156860,0.00008941
516.92037598,0.00020350
518.84918335,0.00013083
520.77799072,0.00007832
522.70679810,-0.00005064
524.63560547,0.00020242
526.56441284,0.00017898
528.49322021,0.00006716
530.42202759,0.00020902
532.35083496,0.00005466
534.27964233,0.00030833
536.20844971,0.00045992
538.13725708,0.00018252
540.06606445,-0.00000870
541.99487183,0.00022454
543.92367920,0.00019009
545.85248657,0.00027219
547.78129395,0.00017256
549.71010132,-0.00036373
551.63890869,0.00011872
553.56771606,-0.00006343
555.49652344,0.00005557
557.42533081,0.00001398
559.35413818,0.00017540
561.28294556,0.00005820
563.21175293,-0.00023693
565.14056030,0.00044480
567.06936768,0.00028562
568.99817505,0.00052216
570.92698242,0.00046881
572.85578979,0.00013426
574.78459717,0.00060675
576.71340454,0.00035934
578.64221191,0.00022690
580.57101929,0.00020957
582.49982666,0.00032087
584.42863403,0.00032172
586.35744141,0.00032158
588.28624878,0.00036794
590.21505615,-0.00004501
592.14386353,0.00005535
594.07267090,0.00017856
596.00147827,0.00024784
597.93028564,0.00027089
599.85909302,0.00011540
601.78790039,0.00010251
603.71670776,0.00013155
605.64551514,0.00007826
607.57432251,0.00004517
609.50312988,0.00022306
611.43193726,0.00021016
613.36074463,0.00046831
615.28955200,0.00039144
617.21835938,0.00003029
619.14716675,0.00024834
621.07597412,0.00038944
623.00478149,0.00027795
624.93358887,0.00013616
626.86239624,0.00005362
628.79120361,0.00016093
630.72001099,0.00019342
632.64881836,0.00069642
634.57762573,0.00088592
636.50643311,0.00067226
638.43524048,0.00102819
640.36404785,0.00083798
642.29285522,0.00102466
644.22166260,0.00138210
646.15046997,0.00125443
648.07927734,0.00150551
650.00808472,0.00146011
651.93689209,0.00160958
653.86569946,0.00166779
655.79450684,0.00167902
657.72331421,0.00160514
659.65212158,0.00146633
661.58092896,0.00170523
663.50973633,0.00155885
665.43854370,0.00189855
667.36735107,0.00180719
669.29615845,0.00183592
671.22496582,0.00239638
673.15377319,0.00192546
675.08258057,0.00200947
677.01138794,0.00229042
678.94019531,0.00224587
680.86900269,0.00234988
682.79781006,0.00265054
684.72661743,0.00272260
686.65542480,0.00235810
688.58423218,0.00250841
690.51303955,0.00255923
692.44184692,0.00271667
694.37065430,0.00276366
696.29946167,0.00306111
698.22826904,0.00377277
700.15707642,0.00368957
702.08588379,0.00363862
704.01469116,0.00335007
705.94349854,0.00314663
707.87230591,0.00292132
709.80111328,0.00218533
711.72992065,0.00148381
713.65872803,0.00068105
715.58753540,0.00057004
717.51634277,0.00047408
719.44515015,0.00037881
721.37395752,0.00040504
723.30276489,0.00006033
725.23157227,0.00023598
727.16037964,0.00020986
729.08918701,0.00018754
731.01799438,0.00054767
732.94680176,0.00023779
734.87560913,0.00013935
736.80441650,0.00073505
738.73322388,0.00049429
740.66203125,0.00005720
742.59083862,0.00030902
744.51964600,0.00019892
746.44845337,0.00011940
748.37726074,0.00035696
750.30606812,0.00023058
752.23487549,0.00041613
754.16368286,0.00046673
756.09249023,-0.00006442
758.02129761,-0.00002011
759.95010498,0.00034327
761.87891235,0.00030828
763.80771973,0.00047353
765.73652710,0.00046544
767.66533447,0.00011135
769.59414185,0.00016232
771.52294922,0.00029632
773.45175659,0.00038984
775.38056396,0.00032912
777.30937134,0.00035432
779.23817871,0.00041216
781.16698608,0.00022971
783.09579346,0.00025387
785.02460083,0.00017102
786.95340820,0.00037557
788.88221558,0.00053734
790.81102295,0.00036037
792.73983032,0.00044324
794.66863770,0.00036179
796.59744507,0.00040787
798.52625244,0.00049376
800.45505981,0.00048210
802.38386719,0.00041693
804.31267456,0.00036702
806.24148193,0.00039203
808.17028931,0.00014288
810.09909668,0.00038881
812.02790405,0.00051391
813.95671143,0.00027583
815.88551880,0.00045675
817.81432617,0.00022490
819.74313354,0.00011681
821.67194092,0.00048244
823.60074829,0.00047955
825.52955566,0.00042351
827.45836304,0.00032541
829.38717041,0.00037650
831.31597778,0.00081425
833.24478516,0.00091620
835.17359253,0.00078450
837.10239990,0.00069684
839.03120728,0.00068768
840.96001465,0.00077133
842.88882202,0.00079136
844.81762939,0.00065346
846.74643677,0.00051920
848.67524414,0.00097683
850.60405151,0.00071295
852.53285889,0.00028344
854.46166626,0.00098068
856.39047363,0.00069372
858.31928101,0.00052733
860.24808838,0.00084852
862.17689575,0.00031520
864.10570313,0.00031287
866.03451050,0.00050182
867.96331787,0.00053424
869.89212524,0.00067308
871.82093262,0.00057609
873.74973999,0.00031873
875.67854736,0.00031009
877.60735474,0.00052231
879.53616211,0.00049612
881.46496948,0.00043811
883.39377686,0.00035157
885.32258423,0.00046465
887.25139160,0.00061577
889.18019897,0.00071470
891.10900635,0.00076696
893.03781372,0.00046565
894.96662109,0.00046993
896.89542847,0.00045643
898.82423584,0.00045361
900.75304321,0.00061583
902.68185059,0.00053402
904.61065796,0.00057967
906.53946533,0.00051890
908.46827271,0.00062208
910.39708008,0.00076065
912.32588745,0.00058000
914.25469482,0.00072442
916.18350220,0.00076872
918.11230957,0.00064862
920.04111694,0.00093560
921.96992432,0.00103873
923.89873169,0.00096522
925.82753906,0.00096764
927.75634644,0.00103630
929.68515381,0.00131850
931.61396118,0.00108387
933.54276855,0.00113306
935.47157593,0.00154044
937.40038330,0.00131650
939.32919067,0.00145996
941.25799805,0.00147084
943.18680542,0.00137561
945.11561279,0.00171160
947.04442017,0.00156315
948.97322754,0.00126667
950.90203491,0.00135034
952.83084229,0.00158658
954.75964966,0.00146015
956.68845703,0.00140276
958.61726440,0.00159092
960.54607178,0.00158065
962.47487915,0.00166714
964.40368652,0.00167101
966.33249390,0.00152116
968.26130127,0.00152296
970.19010864,0.00172530
972.11891602,0.00184477
974.04772339,0.00166780
975.97653076,0.00165733
977.90533813,0.00215002
979.83414551,0.00214332
981.76295288,0.00206897
983.69176025,0.00275585
985.62056763,0.00259116
987.54937500,0.00285407
989.47818237,0.00358996
991.40698975,0.00338456
993.33579712,0.00378067
995.26460449,0.00402947
997.19341187,0.00449644
999.12221924,0.00500597
1001.05102661,0.00490351
1002.97983398,0.00565409
1004.90864136,0.00607186
1006.83744873,0.00618727
1008.76625610,0.00641384
1010.69506348,0.00656883
1012.62387085,0.00702271
1014.55267822,0.00761962
1016.48148560,0.00824163
1018.41029297,0.00835208
1020.33910034,0.00874138
1022.26790771,0.00910582
1024.19671509,0.00934330
1026.12552246,0.00983925
1028.05432983,0.00999148
1029.98313721,0.01028918
1031.91194458,0.01034001
1033.84075195,0.01059977
1035.76955933,0.01094561
1037.69836670,0.01076321
1039.62717407,0.01079153
1041.55598145,0.01093066
1043.48478882,0.01102044
1045.41359619,0.01073659
1047.34240356,0.01068474
1049.27121094,0.01062336
1051.20001831,0.01025075
1053.12882568,0.01013352
1055.05763306,0.00978259
1056.98644043,0.00964597
1058.91524780,0.00937986
1060.84405518,0.00922562
1062.77286255,0.00921810
1064.70166992,0.00863595
1066.63047729,0.00850041
1068.55928467,0.00808686
1070.48809204,0.00747303
1072.41689941,0.00745213
1074.34570679,0.00712307
1076.27451416,0.00671221
1078.20332153,0.00650556
1080.13212891,0.00624006
1082.06093628,0.00586805
1083.98974365,0.00558903
1085.91855103,0.00540059
1087.84735840,0.00529248
1089.77616577,0.00517851
1091.70497314,0.00486508
1093.63378052,0.00478767
1095.56258789,0.00458631
1097.49139526,0.00434658
1099.42020264,0.00442964
1101.34901001,0.00427512
1103.27781738,0.00409296
1105.20662476,0.00392487
1107.13543213,0.00403670
1109.06423950,0.00410477
1110.99304687,0.00375462
1112.92185425,0.00385424
1114.85066162,0.00389968
1116.77946899,0.00381232
1118.70827637,0.00371478
1120.63708374,0.00369979
1122.56589111,0.00402216
1124.49469849,0.00385958
1126.42350586,0.00396679
1128.35231323,0.00425324
1130.28112061,0.00410126
1132.20992798,0.00426154
1134.13873535,0.00442474
1136.06754272,0.00447456
1137.99635010,0.00468774
1139.92515747,0.00495496
1141.85396484,0.00512169
1143.78277222,0.00535971
1145.71157959,0.00575073
1147.64038696,0.00620542
1149.56919434,0.00648229
1151.49800171,0.00658988
1153.42680908,0.00702839
1155.35561646,0.00734476
1157.28442383,0.00754305
1159.21323120,0.00769955
1161.14203857,0.00803099
1163.07084595,0.00857140
1164.99965332,0.00862062
1166.92846069,0.00900647
1168.85726807,0.00944777
1170.78607544,0.00971247
1172.71488281,0.01007616
1174.64369019,0.01018401
1176.57249756,0.01063213
1178.50130493,0.01116668
1180.43011230,0.01150001
1182.35891968,0.01171761
1184.28772705,0.01229020
1186.21653442,0.01291247
1188.14534180,0.01331517
1190.07414917,0.01414890
1192.00295654,0.01473527
1193.93176392,0.01534698
1195.86057129,0.01593242
1197.78937866,0.01651271
1199.71818604,0.01744039
1201.64699341,0.01809539
1203.57580078,0.01883530
1205.50460815,0.01945787
1207.43341553,0.02016732
1209.36222290,0.02095565
1211.29103027,0.02146005
1213.21983765,0.02197291
1215.14864502,0.02238166
1217.07745239,0.02298314
1219.00625977,0.02355553
1220.93506714,0.02378224
1222.86387451,0.02380703
1224.79268188,0.02407812
1226.72148926,0.02433436
1228.65029663,0.02441217
1230.57910400,0.02466409
1232.50791138,0.02447422
1234.43671875,0.02447353
1236.36552612,0.02461569
1238.29433350,0.02438428
1240.22314087,0.02434660
1242.15194824,0.02433308
1244.08075562,0.02434185
1246.00956299,0.02412831
1247.93837036,0.02380496
1249.86717773,0.02365765
1251.79598511,0.02339245
1253.72479248,0.02311113
1255.65359985,0.02295511
1257.58240723,0.02265017
1259.51121460,0.02227093
1261.44002197,0.02215934
1263.36882935,0.02187412
1265.29763672,0.02153120
1267.22644409,0.02126999
1269.15525146,0.02092962
1271.08405884,0.02061052
1273.01286621,0.02025153
1274.94167358,0.02006400
1276.87048096,0.01966025
1278.79928833,0.01921381
1280.72809570,0.01893700
1282.65690308,0.01843744
1284.58571045,0.01808133
1286.51451782,0.01781286
1288.44332520,0.01748691
1290.37213257,0.01723956
1292.30093994,0.01704792
1294.22974731,0.01695382
1296.15855469,0.01696101
1298.08736206,0.01687587
1300.01616943,0.01694824
1301.94497681,0.01713652
1303.87378418,0.01703157
1305.80259155,0.01711254
1307.73139893,0.01731717
1309.66020630,0.01784584
1311.58901367,0.01825387
1313.51782104,0.01817322
1315.44662842,0.01875201
1317.37543579,0.01905275
1319.30424316,0.01934668
1321.23305054,0.02027234
1323.16185791,0.02072448
1325.09066528,0.02129471
1327.01947266,0.02187906
1328.94828003,0.02229097
1330.87708740,0.02293398
1332.80589478,0.02343962
1334.73470215,0.02366380
1336.66350952,0.02369700
1338.59231689,0.02347766
1340.52112427,0.02373635
1342.44993164,0.02492550
1344.37873901,0.02511763
1346.30754639,0.02497475
1348.23635376,0.02509330
1350.16516113,0.02458609
1352.09396851,0.02492205
1354.02277588,0.02472639
1355.95158325,0.02414374
1357.88039062,0.02424284
1359.80919800,0.02356462
1361.73800537,0.02235676
1363.66681274,0.02218190
1365.59562012,0.02343858
1367.52442749,0.02290191
1369.45323486,0.02249325
1371.38204224,0.02298867
1373.31084961,0.02168280
1375.23965698,0.02196622
1377.16846436,0.02245599
1379.09727173,0.02221929
1381.02607910,0.02234794
1382.95488647,0.02235061
1384.88369385,0.02258722
1386.81250122,0.02124825
1388.74130859,0.02149799
1390.67011597,0.02370392
1392.59892334,0.02274517
1394.52773071,0.02102106
1396.45653809,0.02248117
1398.38534546,0.02230272
1400.31415283,0.02196556
1402.24296021,0.02410723
1404.17176758,0.02253487
1406.10057495,0.02263785
1408.02938232,0.02352335
1409.95818970,0.02258919
1411.88699707,0.02335938
1413.81580444,0.02226884
1415.74461182,0.02278160
1417.67341919,0.02012145
1419.60222656,0.01777636
1421.53103394,0.02132115
1423.45984131,0.02048182
1425.38864868,0.02000188
1427.31745605,0.02032318
1429.24626343,0.01854816
1431.17507080,0.01819709
1433.10387817,0.01860053
1435.03268555,0.01671467
1436.96149292,0.01384678
1438.89030029,0.01632738
1440.81910767,0.01683144
1442.74791504,0.01560984
1444.67672241,0.01658016
1446.60552979,0.01490672
1448.53433716,0.01515482
1450.46314453,0.01593043
1452.39195190,0.01619459
1454.32075928,0.01639880
1456.24956665,0.01325701
1458.17837402,0.01387848
1460.10718140,0.01879685
1462.03598877,0.02004081
1463.96479614,0.01958425
1465.89360352,0.02049612
1467.82241089,0.02346758
1469.75121826,0.02493023
1471.68002563,0.02160855
1473.60883301,0.02262004
1475.53764038,0.02614295
1477.46644775,0.02833478
1479.39525513,0.03109320
1481.32406250,0.03130953
1483.25286987,0.03339872
1485.18167725,0.03411794
1487.11048462,0.03333193
1489.03929199,0.03272032
1490.96809937,0.03279047
1492.89690674,0.03926645
1494.82571411,0.03746926
1496.75452148,0.03320118
1498.68332886,0.03828363
1500.61213623,0.03908704
1502.54094360,0.04261305
1504.46975098,0.03940525
1506.39855835,0.02680524
1508.32736572,0.03431427
1510.25617310,0.04095233
1512.18498047,0.03967875
1514.11378784,0.04351696
1516.04259521,0.03840269
1517.97140259,0.04038226
1519.90020996,0.03848065
1521.82901733,0.03252399
1523.75782471,0.04142971
1525.68663208,0.04019658
1527.61543945,0.04010863
1529.54424683,0.04536470
1531.47305420,0.04304942
1533.40186157,0.03870092
1535.33066895,0.04185900
1537.25947632,0.04499178
1539.18828369,0.03009181
1541.11709106,0.03234658
1543.04589844,0.03962963
1544.97470581,0.03763404
1546.90351318,0.04600831
1548.83232056,0.04212369
1550.76112793,0.04381957
1552.68993530,0.04342069
1554.61874268,0.03892829
1556.54755005,0.04184480
1558.47635742,0.02706867
1560.40516479,0.03073521
1562.33397217,0.04625895
1564.26277954,0.04297838
1566.19158691,0.04468062
1568.12039429,0.04365280
1570.04920166,0.03796499
1571.97800903,0.04538497
1573.90681641,0.04563399
1575.83562378,0.03473285
1577.76443115,0.04068463
1579.69323853,0.04683934
1581.62204590,0.04442395
1583.55085327,0.04544634
1585.47966064,0.04456794
1587.40846802,0.04524159
1589.33727539,0.04455156
1591.26608276,0.04446087
1593.19489014,0.04478295
1595.12369751,0.04393034
1597.05250488,0.04465420
1598.98131226,0.04443271
1600.91011963,0.04459707
1602.83892700,0.04373676
1604.76773437,0.04450724
1606.69654175,0.04383004
1608.62534912,0.04387725
1610.55415649,0.04379264
1612.48296387,0.04428011
1614.41177124,0.04479052
1616.34057861,0.03557599
1618.26938599,0.03952007
1620.19819336,0.04658783
1622.12700073,0.04054342
1624.05580811,0.04102169
1625.98461548,0.04331813
1627.91342285,0.04302958
1629.84223022,0.04297154
1631.77103760,0.04639977
1633.69984497,0.04182922
1635.62865234,0.03348462
1637.55745972,0.04048493
1639.48626709,0.04498033
1641.41507446,0.04376990
1643.34388184,0.04544328
1645.27268921,0.03985614
1647.20149658,0.03401754
1649.13030396,0.04436723
1651.05911133,0.04121057
1652.98791870,0.02440774
1654.91672607,0.03596308
1656.84553345,0.04613820
1658.77434082,0.04404382
1660.70314819,0.04520230
1662.63195557,0.04026068
1664.56076294,0.04317112
1666.48957031,0.04640769
1668.41837769,0.03928211
1670.34718506,0.03817031
1672.27599243,0.04424535
1674.20479980,0.04002992
1676.13360718,0.03814113
1678.06241455,0.04505745
1679.99122192,0.04305108
1681.92002930,0.04198117
1683.84883667,0.03265613
1685.77764404,0.03321005
1687.70645142,0.04718606
1689.63525879,0.03968278
1691.56406616,0.04478955
1693.49287354,0.04485239
1695.42168091,0.03145617
1697.35048828,0.04027501
1699.27929565,0.03375797
1701.20810303,0.03054877
1703.13691040,0.04347358
1705.06571777,0.03894959
1706.99452515,0.03952186
1708.92333252,0.04330481
1710.85213989,0.04160539
1712.78094727,0.04213277
1714.70975464,0.03844048
1716.63856201,0.03404834
1718.56736938,0.03337947
1720.49617676,0.04091127
1722.42498413,0.04252910
1724.35379150,0.03910336
1726.28259888,0.04326934
1728.21140625,0.03905055
1730.14021362,0.03939396
1732.06902100,0.03806681
1733.99782837,0.02760391
1735.92663574,0.03631521
1737.85544312,0.03999342
1739.78425049,0.03483493
1741.71305786,0.03882375
1743.64186523,0.03907912
1745.57067261,0.03912131
1747.49947998,0.03919126
1749.42828735,0.03719735
1751.35709473,0.03549144
1753.28590210,0.03990507
1755.21470947,0.04186801
1757.14351685,0.03771363
1759.07232422,0.04209208
1761.00113159,0.03876482
1762.92993896,0.03757525
1764.85874634,0.04376088
1766.78755371,0.03844037
1768.71636108,0.03903722
1770.64516846,0.03829987
1772.57397583,0.03389580
1774.50278320,0.03881300
1776.43159058,0.04113481
1778.36039795,0.04042525
1780.28920532,0.03979919
1782.21801270,0.04014569
1784.14682007,0.03994468
1786.07562744,0.03907498
1788.00443481,0.04155204
1789.93324219,0.04001858
1791.86204956,0.03541330
1793.79085693,0.03756364
1795.71966431,0.04059856
1797.64847168,0.03982498
1799.57727905,0.03914490
1801.50608643,0.03807995
1803.43489380,0.03980604
1805.36370117,0.04087088
1807.29250854,0.04009982
1809.22131592,0.04020107
1811.15012329,0.03882449
1813.07893066,0.04044228
1815.00773804,0.04050137
1816.93654541,0.03974369
1818.86535278,0.04019783
1820.79416016,0.04022652
1822.72296753,0.04064012
1824.65177490,0.03729844
1826.58058228,0.03919385
1828.50938965,0.03894638
1830.43819702,0.03613424
1832.36700439,0.04006953
1834.29581177,0.03959490
1836.22461914,0.03958378
1838.15342651,0.03929720
1840.08223389,0.03977626
1842.01104126,0.03957090
1843.93984863,0.03412556
1845.86865601,0.03716005
1847.79746338,0.03946652
1849.72627075,0.03843567
1851.65507812,0.03971912
1853.58388550,0.03875164
1855.51269287,0.03922282
1857.44150024,0.03894975
1859.37030762,0.03871176
1861.29911499,0.03882122
1863.22792236,0.03836008
1865.15672974,0.03880079
1867.08553711,0.03710393
1869.01434448,0.03537970
1870.94315186,0.03701480
1872.87195923,0.03874551
1874.80076660,0.03809398
1876.72957397,0.03814197
1878.65838135,0.03784748
1880.58718872,0.03769857
1882.51599609,0.03806635
1884.44480347,0.03731850
1886.37361084,0.03804190
1888.30241821,0.03674143
1890.23122559,0.03590696
1892.16003296,0.03766015
1894.08884033,0.03681339
1896.01764771,0.03677158
1897.94645508,0.03738376
1899.87526245,0.03695628
1901.80406982,0.03702864
1903.73287720,0.03677855
1905.66168457,0.03678304
1907.59049194,0.03636366
1909.51929932,0.03604750
1911.44810669,0.03622130
1913.37691406,0.03650773
1915.30572144,0.03663449
1917.23452881,0.03471201
1919.16333618,0.03498194
1921.09214355,0.03622385
1923.02095093,0.03497694
1924.94975830,0.03597471
1926.87856567,0.03612356
1928.80737305,0.03557330
1930.73618042,0.03623235
1932.66498779,0.03561939
1934.59379517,0.03597008
1936.52260254,0.03560856
1938.45140991,0.03559760
1940.38021729,0.03554192
1942.30902466,0.03426090
1944.23783203,0.03506836
1946.16663940,0.03534349
1948.09544678,0.03521707
1950.02425415,0.03537467
1951.95306152,0.03511959
1953.88186890,0.03516923
1955.81067627,0.03506856
1957.73948364,0.03533214
1959.66829102,0.03515499
1961.59709839,0.03495479
1963.52590576,0.03501257
1965.45471313,0.03469104
1967.38352051,0.03435820
1969.31232788,0.03465663
1971.24113525,0.03495275
1973.16994263,0.03455085
1975.09875000,0.03469511
1977.02755737,0.03448133
1978.95636475,0.03429455
1980.88517212,0.03434310
1982.81397949,0.03414737
1984.74278687,0.03438069
1986.67159424,0.03389277
1988.60040161,0.03378122
1990.52920898,0.03354718
1992.45801636,0.03300504
1994.38682373,0.03376901
1996.31563110,0.03383294
1998.24443848,0.03339171
2000.17324585,0.03346509
2002.10205322,0.03337096
2004.03086060,0.03331689
2005.95966797,0.03314992
2007.88847534,0.03304325
2009.81728271,0.03304249
2011.74609009,0.03289207
2013.67489746,0.03300424
2015.60370483,0.03266806
2017.53251221,0.03219090
2019.46131958,0.03248604
2021.39012695,0.03250698
2023.31893433,0.03237794
2025.24774170,0.03223601
2027.17654907,0.03208153
2029.10535645,0.03208920
2031.03416382,0.03188062
2032.96297119,0.03191561
2034.89177856,0.03181798
2036.82058594,0.03172195
2038.74939331,0.03164122
2040.67820068,0.03116726
2042.60700806,0.03122273
2044.53581543,0.03146318
2046.46462280,0.03123483
2048.39343018,0.03117555
2050.32223755,0.03124737
2052.25104492,0.03092617
2054.17985229,0.03084030
2056.10865967,0.03098459
2058.03746704,0.03077193
2059.96627441,0.03063103
2061.89508179,0.03057227
2063.82388916,0.03027920
2065.75269653,0.03010473
2067.68150391,0.03026148
2069.61031128,0.03022052
2071.53911865,0.03004726
2073.46792603,0.02995921
2075.39673340,0.02989708
2077.32554077,0.02982309
2079.25434814,0.02974677
2081.18315552,0.02977853
2083.11196289,0.02962613
2085.04077026,0.02965788
2086.96957764,0.02953683
2088.89838501,0.02929968
2090.82719238,0.02933985
2092.75599976,0.02913426
2094.68480713,0.02924328
2096.61361450,0.02920469
2098.54242187,0.02898718
2100.47122925,0.02896219
2102.40003662,0.02877107
2104.32884399,0.02874609
2106.25765137,0.02876134
2108.18645874,0.02880263
2110.11526611,0.02864974
2112.04407349,0.02855047
2113.97288086,0.02845357
2115.90168823,0.02827346
2117.83049561,0.02823292
2119.75930298,0.02805910
2121.68811035,0.02826349
2123.61691772,0.02818656
2125.54572510,0.02795237
2127.47453247,0.02800328
2129.40333984,0.02790672
2131.33214722,0.02802093
2133.26095459,0.02790772
2135.18976196,0.02780413
2137.11856934,0.02775855
2139.04737671,0.02758788
2140.97618408,0.02765831
2142.90499146,0.02763337
2144.83379883,0.02747593
2146.76260620,0.02736955
2148.69141357,0.02742540
2150.62022095,0.02733407
2152.54902832,0.02709482
2154.47783569,0.02704430
2156.40664307,0.02702479
2158.33545044,0.02702226
2160.26425781,0.02709542
2162.19306519,0.02702710
2164.12187256,0.02692182
2166.05067993,0.02696176
2167.97948730,0.02686443
2169.90829468,0.02676528
2171.83710205,0.02671733
2173.76590942,0.02675065
2175.69471680,0.02666178
2177.62352417,0.02648488
2179.55233154,0.02656536
2181.48113892,0.02638592
2183.40994629,0.02637120
2185.33875366,0.02631273
2187.26756104,0.02607913
2189.19636841,0.02619642
2191.12517578,0.02609832
2193.05398315,0.02607178
2194.98279053,0.02600609
2196.91159790,0.02591767
2198.84040527,0.02589693
2200.76921265,0.02578833
2202.69802002,0.02588429
2204.62682739,0.02571306
2206.55563477,0.02563487
2208.48444214,0.02568738
2210.41324951,0.02552508
2212.34205688,0.02543989
2214.27086426,0.02540972
2216.19967163,0.02536941
2218.12847900,0.02525483
2220.05728638,0.02528418
2221.98609375,0.02523562
2223.91490112,0.02515935
2225.84370850,0.02523703
2227.77251587,0.02510577
2229.70132324,0.02491942
2231.63013062,0.02484325
2233.55893799,0.02492746
2235.48774536,0.02487043
2237.41655273,0.02462476
2239.34536011,0.02461142
2241.27416748,0.02462912
2243.20297485,0.02457802
2245.13178223,0.02452372
2247.06058960,0.02445242
2248.98939697,0.02440032
2250.91820435,0.02431091
2252.84701172,0.02434055
2254.77581909,0.02427982
2256.70462646,0.02409763
2258.63343384,0.02418462
2260.56224121,0.02412475
2262.49104858,0.02397300
2264.41985596,0.02399030
2266.34866333,0.02386222
2268.27747070,0.02373569
2270.20627808,0.02374031
2272.13508545,0.02375653
2274.06389282,0.02359104
2275.99270020,0.02356889
2277.92150757,0.02367473
2279.85031494,0.02347665
2281.77912231,0.02337983
2283.70792969,0.02338916
2285.63673706,0.02327419
2287.56554443,0.02319254
2289.49435181,0.02324389
2291.42315918,0.02313835
2293.35196655,0.02298070
2295.28077393,0.02304197
2297.20958130,0.02288355
2299.13838867,0.02280916
2301.06719604,0.02277652
2302.99600342,0.02251890
2304.92481079,0.02243867
2306.85361816,0.02233879
2308.78242554,0.02217105
2310.71123291,0.02191043
2312.64004028,0.02162062
2314.56884766,0.02152409
2316.49765503,0.02134672
2318.42646240,0.02103307
2320.35526978,0.02072279
2322.28407715,0.02045358
2324.21288452,0.02020720
2326.14169189,0.01996713
2328.07049927,0.01980044
2329.99930664,0.01952733
2331.92811401,0.01931231
2333.85692139,0.01930206
2335.78572876,0.01909330
2337.71453613,0.01906472
2339.64334351,0.01910238
2341.57215088,0.01911267
2343.50095825,0.01950885
2345.42976562,0.01973073
2347.35857300,0.02031251
2349.28738037,0.02090570
2351.21618774,0.02031556
2353.14499512,0.01936322
2355.07380249,0.01867604
2357.00260986,0.01813789
2358.93141724,0.01775730
2360.86022461,0.01769763
2362.78903198,0.01765680
2364.71783936,0.01764359
2366.64664673,0.01780019
2368.57545410,0.01804874
2370.50426147,0.01857898
2372.43306885,0.01892445
2374.36187622,0.01938770
2376.29068359,0.01985580
2378.21949097,0.02005615
2380.14829834,0.02053745
2382.07710571,0.02072609
2384.00591309,0.02066020
2385.93472046,0.02070133
2387.86352783,0.02075402
2389.79233521,0.02069845
2391.72114258,0.02050495
2393.64994995,0.02052537
2395.57875732,0.02057636
2397.50756470,0.02051690
2399.43637207,0.02053717
2401.36517944,0.02045730
2403.29398682,0.02024061
2405.22279419,0.02028307
2407.15160156,0.02033356
2409.08040894,0.02030333
2411.00921631,0.02025064
2412.93802368,0.02008538
2414.86683105,0.02011283
2416.79563843,0.01995845
2418.72444580,0.01990508
2420.65325317,0.01995394
2422.58206055,0.01987956
2424.51086792,0.01994539
2426.43967529,0.01975992
2428.36848267,0.01971276
2430.29729004,0.01966525
2432.22609741,0.01958784
2434.15490479,0.01955873
2436.08371216,0.01946227
2438.01251953,0.01964624
2439.94132690,0.01953836
2441.87013428,0.01944508
2443.79894165,0.01937880
2445.72774902,0.01927794
2447.65655640,0.01937077
2449.58536377,0.01923413
2451.51417114,0.01923103
2453.44297852,0.01914035
2455.37178589,0.01913856
2457.30059326,0.01923227
2459.22940063,0.01905010
2461.15820801,0.01903981
2463.08701538,0.01897959
2465.01582275,0.01889163
2466.94463013,0.01885419
2468.87343750,0.01882425
2470.80224487,0.01880803
2472.73105225,0.01875888
2474.65985962,0.01875197
2476.58866699,0.01867868
2478.51747437,0.01864535
2480.44628174,0.01857460
2482.37508911,0.01856563
2484.30389648,0.01852234
2486.23270386,0.01842177
2488.16151123,0.01850241
2490.09031860,0.01835083
2492.01912598,0.01825582
2493.94793335,0.01832464
2495.87674072,0.01826019
2497.80554810,0.01822756
2499.73435547,0.01809909
2501.66316284,0.01805280
2503.59197021,0.01802412
2505.52077759,0.01801732
2507.44958496,0.01811876
2509.37839233,0.01797327
2511.30719971,0.01795104
2513.23600708,0.01792303
2515.16481445,0.01781434
2517.09362183,0.01784483
2519.02242920,0.01770952
2520.95123657,0.01781854
2522.88004395,0.01778683
2524.80885132,0.01756214
2526.73765869,0.01771003
2528.66646606,0.01763600
2530.59527344,0.01753462
2532.52408081,0.01753572
2534.45288818,0.01744877
2536.38169556,0.01748498
2538.31050293,0.01747848
2540.23931030,0.01738778
2542.16811768,0.01732239
2544.09692505,0.01736566
2546.02573242,0.01733211
2547.95453979,0.01723363
2549.88334717,0.01717691
2551.81215454,0.01713069
2553.74096191,0.01713364
2555.66976929,0.01698698
2557.59857666,0.01688914
2559.52738403,0.01691074
2561.45619141,0.01679901
2563.38499878,0.01677951
2565.31380615,0.01685782
2567.24261353,0.01673860
2569.17142090,0.01669236
2571.10022827,0.01675886
2573.02903564,0.01662383
2574.95784302,0.01658572
2576.88665039,0.01662155
2578.81545776,0.01656401
2580.74426514,0.01643945
2582.67307251,0.01635936
2584.60187988,0.01646707
2586.53068726,0.01640014
2588.45949463,0.01637879
2590.38830200,0.01639187
2592.31710937,0.01619010
2594.24591675,0.01625160
2596.17472412,0.01631310
2598.10353149,0.01616231
2600.03233887,0.01610458
2601.96114624,0.01609380
2603.88995361,0.01605090
2605.81876099,0.01598135
2607.74756836,0.01599875
2609.67637573,0.01604052
2611.60518311,0.01592594
2613.53399048,0.01582824
2615.46279785,0.01588084
2617.39160522,0.01583685
2619.32041260,0.01568232
2621.24921997,0.01566554
2623.17802734,0.01570773
2625.10683472,0.01570789
2627.03564209,0.01568078
2628.96444946,0.01561797
2630.89325684,0.01558879
2632.82206421,0.01546277
2634.75087158,0.01531786
2636.67967895,0.01535241
2638.60848633,0.01530712
2640.53729370,0.01523633
2642.46610107,0.01528439
2644.39490845,0.01525115
2646.32371582,0.01522966
2648.25252319,0.01522894
2650.18133057,0.01510818
2652.11013794,0.01512811
2654.03894531,0.01514906
2655.96775269,0.01502393
2657.89656006,0.01507786
2659.82536743,0.01502219
2661.75417480,0.01493057
2663.68298218,0.01489699
2665.61178955,0.01479562
2667.54059692,0.01484749
2669.46940430,0.01478654
2671.39821167,0.01484026
2673.32701904,0.01479477
2675.25582642,0.01459488
2677.18463379,0.01466568
2679.11344116,0.01460252
2681.04224854,0.01463450
2682.97105591,0.01454904
2684.89986328,0.01443958
2686.82867065,0.01445485
2688.75747803,0.01429989
2690.68628540,0.01444560
2692.61509277,0.01436990
2694.54390015,0.01422884
2696.47270752,0.01432834
2698.40151489,0.01423732
2700.33032227,0.01419544
2702.25912964,0.01419679
2704.18793701,0.01422225
2706.11674438,0.01414196
2708.04555176,0.01412605
2709.97435913,0.01408756
2711.90316650,0.01394392
2713.83197388,0.01406802
2715.76078125,0.01403292
2717.68958862,0.01391072
2719.61839600,0.01384833
2721.54720337,0.01377615
2723.47601074,0.01388702
2725.40481812,0.01382745
2727.33362549,0.01373619
2729.26243286,0.01382420
2731.19124023,0.01367887
2733.12004761,0.01356734
2735.04885498,0.01359242
2736.97766235,0.01350524
2738.90646973,0.01355706
2740.83527710,0.01347801
2742.76408447,0.01337727
2744.69289185,0.01344089
2746.62169922,0.01341298
2748.55050659,0.01347367
2750.47931396,0.01340573
2752.40812134,0.01333704
2754.33692871,0.01333516
2756.26573608,0.01326346
2758.19454346,0.01330976
2760.12335083,0.01319643
2762.05215820,0.01304161
2763.98096558,0.01304950
2765.90977295,0.01299578
2767.83858032,0.01291181
2769.76738770,0.01294447
2771.69619507,0.01289265
2773.62500244,0.01286924
2775.55380981,0.01291650
2777.48261719,0.01277813
2779.41142456,0.01279983
2781.34023193,0.01277627
2783.26903931,0.01265269
2785.19784668,0.01270188
2787.12665405,0.01268611
2789.05546143,0.01269656
2790.98426880,0.01267633
2792.91307617,0.01249379
2794.84188354,0.01241129
2796.77069092,0.01249346
2798.69949829,0.01239872
2800.62830566,0.01236314
2802.55711304,0.01238811
2804.48592041,0.01228554
2806.41472778,0.01230523
2808.34353516,0.01216656
2810.27234253,0.01218617
2812.20114990,0.01225497
2814.12995728,0.01216280
2816.05876465,0.01219258
2817.98757202,0.01208324
2819.91637939,0.01209110
2821.84518677,0.01203596
2823.77399414,0.01195575
2825.70280151,0.01193719
2827.63160889,0.01179544
2829.56041626,0.01184421
2831.48922363,0.01178985
2833.41803101,0.01169894
2835.34683838,0.01172419
2837.27564575,0.01173104
2839.20445312,0.01170008
2841.13326050,0.01161657
2843.06206787,0.01151108
2844.99087524,0.01142725
2846.91968262,0.01143133
2848.84848999,0.01132414
2850.77729736,0.01140662
2852.70610474,0.01147217
2854.63491211,0.01126077
2856.56371948,0.01131926
2858.49252686,0.01141465
2860.42133423,0.01128735
2862.35014160,0.01117450
2864.27894897,0.01127626
2866.20775635,0.01129598
2868.13656372,0.01116056
2870.06537109,0.01116792
2871.99417847,0.01111383
2873.92298584,0.01103599
2875.85179321,0.01100907
2877.78060059,0.01094007
2879.70940796,0.01089212
2881.63821533,0.01092536
2883.56702270,0.01095491
2885.49583008,0.01092815
2887.42463745,0.01084017
2889.35344482,0.01073682
2891.28225220,0.01079262
2893.21105957,0.01076749
2895.13986694,0.01070376
2897.06867432,0.01077431
2898.99748169,0.01068712
2900.92628906,0.01061371
2902.85509644,0.01070774
2904.78390381,0.01070435
2906.71271118,0.01068089
2908.64151855,0.01057996
2910.57032593,0.01046246
2912.49913330,0.01052571
2914.42794067,0.01038369
2916.35674805,0.01043811
2918.28555542,0.01053317
2920.21436279,0.01038498
2922.14317017,0.01049725
2924.07197754,0.01033182
2926.00078491,0.01036465
2927.92959229,0.01045113
2929.85839966,0.01023769
2931.78720703,0.01040998
2933.71601440,0.01043818
2935.64482178,0.01043675
2937.57362915,0.01028606
2939.50243652,0.01015759
2941.43124390,0.01021659
2943.36005127,0.01013730
2945.28885864,0.01033917
2947.21766602,0.01015820
2949.14647339,0.01000171
2951.07528076,0.01013003
2953.00408813,0.01002725
2954.93289551,0.01002374
2956.86170288,0.00994674
2958.79051025,0.00997978
2960.71931763,0.00992277
2962.64812500,0.00982639
2964.57693237,0.00983521
2966.50573975,0.00973980
2968.43454712,0.00984978
2970.36335449,0.00986371
2972.29216187,0.00979818
2974.22096924,0.00982767
2976.14977661,0.00983652
2978.07858398,0.00976145
2980.00739136,0.00970202
2981.93619873,0.00976720
2983.86500610,0.00965892
2985.79381348,0.00958624
2987.72262085,0.00957766
2989.65142822,0.00955751
2991.58023560,0.00964083
2993.50904297,0.00961794
2995.43785034,0.00957282
2997.36665771,0.00949600
2999.29546509,0.00948028
3001.22427246,0.00950910
3003.15307983,0.00933616
3005.08188721,0.00935918
3007.01069458,0.00943296
3008.93950195,0.00928142
3010.86830933,0.00930069
3012.79711670,0.00932837
3014.72592407,0.00931674
3016.65473145,0.00927701
3018.58353882,0.00917070
3020.51234619,0.00920093
3022.44115356,0.00915878
3024.36996094,0.00913861
3026.29876831,0.00908763
3028.22757568,0.00905857
3030.15638306,0.00914505
3032.08519043,0.00905105
3034.01399780,0.00903334
3035.94280518,0.00897066
3037.87161255,0.00893031
3039.80041992,0.00897756
3041.72922729,0.00883912
3043.65803467,0.00878741
3045.58684204,0.00880987
3047.51564941,0.00886807
3049.44445679,0.00884860
3051.37326416,0.00880346
3053.30207153,0.00879052
3055.23087891,0.00873278
3057.15968628,0.00875657
3059.08849365,0.00860835
3061.01730103,0.00855470
3062.94610840,0.00865103
3064.87491577,0.00863213
3066.80372314,0.00865390
3068.73253052,0.00857149
3070.66133789,0.00857770
3072.59014526,0.00866877
3074.51895264,0.00860244
3076.44776001,0.00860945
3078.37656738,0.00857456
3080.30537476,0.00845345
3082.23418213,0.00848348
3084.16298950,0.00845529
3086.09179687,0.00841157
3088.02060425,0.00848682
3089.94941162,0.00836928
3091.87821899,0.00828056
3093.80702637,0.00838242
3095.73583374,0.00832445
3097.66464111,0.00822533
3099.59344849,0.00826859
3101.52225586,0.00828989
3103.45106323,0.00831273
3105.37987061,0.00831584
3107.30867798,0.00823560
3109.23748535,0.00818726
3111.16629272,0.00808183
3113.09510010,0.00812338
3115.02390747,0.00824805
3116.95271484,0.00815590
3118.88152222,0.00814233
3120.81032959,0.00813625
3122.73913696,0.00805654
3124.66794434,0.00806948
3126.59675171,0.00811690
3128.52555908,0.00799823
3130.45436645,0.00792027
3132.38317383,0.00803814
3134.31198120,0.00795146
3136.24078857,0.00795737
3138.16959595,0.00792522
3140.09840332,0.00778388
3142.02721069,0.00788662
3143.95601807,0.00777520
3145.88482544,0.00780759
3147.81363281,0.00795758
3149.74244019,0.00783618
3151.67124756,0.00777049
3153.60005493,0.00775252
3155.52886230,0.00781574
3157.45766968,0.00774188
3159.38647705,0.00767042
3161.31528442,0.00777919
3163.24409180,0.00772137
3165.17289917,0.00758550
3167.10170654,0.00760178
3169.03051392,0.00778843
3170.95932129,0.00769326
3172.88812866,0.00756622
3174.81693604,0.00774622
3176.74574341,0.00766214
3178.67455078,0.00761332
3180.60335815,0.00766005
3182.53216553,0.00754139
3184.46097290,0.00755474
3186.38978027,0.00752808
3188.31858765,0.00747313
3190.24739502,0.00745285
3192.17620239,0.00744644
3194.10500977,0.00744500
3196.03381714,0.00737518
3197.96262451,0.00745013
3199.89143188,0.00750653
3201.82023926,0.00753661
3203.74904663,0.00757870
3205.67785400,0.00745183
3207.60666138,0.00738822
3209.53546875,0.00743272
3211.46427612,0.00744324
3213.39308350,0.00740002
3215.32189087,0.00739010
3217.25069824,0.00735138
3219.17950562,0.00733487
3221.10831299,0.00738864
3223.03712036,0.00738826
3224.96592773,0.00740753
3226.89473511,0.00735247
3228.82354248,0.00746544
3230.75234985,0.00747422
3232.68115723,0.00726880
3234.60996460,0.00742822
3236.53877197,0.00741711
3238.46757935,0.00734419
3240.39638672,0.00739782
3242.32519409,0.00732364
3244.25400146,0.00743773
3246.18280884,0.00744373
3248.11161621,0.00732836
3250.04042358,0.00732697
3251.96923096,0.00736990
3253.89803833,0.00739321
3255.82684570,0.00738518
3257.75565308,0.00733398
3259.68446045,0.00731685
3261.61326782,0.00742860
3263.54207520,0.00731763
3265.47088257,0.00729875
3267.39968994,0.00743456
3269.32849731,0.00731952
3271.25730469,0.00732856
3273.18611206,0.00739521
3275.11491943,0.00729894
3277.04372681,0.00728157
3278.97253418,0.00743143
3280.90134155,0.00737745
3282.83014893,0.00727970
3284.75895630,0.00738781
3286.68776367,0.00730269
3288.61657104,0.00731834
3290.54537842,0.00735789
3292.47418579,0.00724682
3294.40299316,0.00732557
3296.33180054,0.00736135
3298.26060791,0.00733496
3300.18941528,0.00731086
3302.11822266,0.00729449
3304.04703003,0.00727532
3305.97583740,0.00717750
3307.90464478,0.00721821
3309.83345215,0.00736838
3311.76225952,0.00738221
3313.69106689,0.00727496
3315.61987427,0.00728693
3317.54868164,0.00735496
3319.47748901,0.00725929
3321.40629639,0.00719312
3323.33510376,0.00727452
3325.26391113,0.00726750
3327.19271851,0.00723603
3329.12152588,0.00726642
3331.05033325,0.00717605
3332.97914062,0.00720803
3334.90794800,0.00727842
3336.83675537,0.00716055
3338.76556274,0.00717169
3340.69437012,0.00726519
3342.62317749,0.00730116
3344.55198486,0.00721778
3346.48079224,0.00716825
3348.40959961,0.00725443
3350.33840698,0.00724204
3352.26721436,0.00729457
3354.19602173,0.00728473
3356.12482910,0.00718488
3358.05363647,0.00722780
3359.98244385,0.00721458
3361.91125122,0.00717675
3363.84005859,0.00718699
3365.76886597,0.00720709
3367.69767334,0.00710267
3369.62648071,0.00706879
3371.55528809,0.00722446
3373.48409546,0.00721303
3375.41290283,0.00720036
3377.34171020,0.00720966
3379.27051758,0.00722750
3381.19932495,0.00722060
3383.12813232,0.00715818
3385.05693970,0.00723849
3386.98574707,0.00720973
3388.91455444,0.00719517
3390.84336182,0.00715178
3392.77216919,0.00707556
3394.70097656,0.00707691
3396.62978394,0.00702001
3398.55859131,0.00712825
3400.48739868,0.00708087
3402.41620605,0.00706886
3404.34501343,0.00717109
3406.27382080,0.00708638
3408.20262817,0.00711319
3410.13143555,0.00708270
3412.06024292,0.00710113
3413.98905029,0.00712684
3415.91785767,0.00706518
3417.84666504,0.00701601
3419.77547241,0.00698490
3421.70427979,0.00709454
3423.63308716,0.00703566
3425.56189453,0.00701579
3427.49070190,0.00705302
3429.41950928,0.00694280
3431.34831665,0.00692562
3433.27712402,0.00694526
3435.20593140,0.00693420
3437.13473877,0.00693533
3439.06354614,0.00701015
3440.99235352,0.00694184
3442.92116089,0.00690496
3444.84996826,0.00691746
3446.77877563,0.00674787
3448.70758301,0.00680649
3450.63639038,0.00688534
3452.56519775,0.00682978
3454.49400513,0.00686916
3456.42281250,0.00687579
3458.35161987,0.00681809
3460.28042725,0.00673291
3462.20923462,0.00665904
3464.13804199,0.00673396
3466.06684937,0.00684417
3467.99565674,0.00672557
3469.92446411,0.00665583
3471.85327148,0.00671848
3473.78207886,0.00666919
3475.71088623,0.00659706
3477.63969360,0.00665878
3479.56850098,0.00664497
3481.49730835,0.00654592
3483.42611572,0.00661546
3485.35492310,0.00655058
3487.28373047,0.00657708
3489.21253784,0.00663705
3491.14134521,0.00656330
3493.07015259,0.00666592
3494.99895996,0.00650214
3496.92776733,0.00647752
3498.85657471,0.00663316
3500.78538208,0.00650797
3502.71418945,0.00636084
3504.64299683,0.00629870
3506.57180420,0.00651721
3508.50061157,0.00648121
3510.42941895,0.00630064
3512.35822632,0.00646138
3514.28703369,0.00647496
3516.21584106,0.00640850
3518.14464844,0.00642463
3520.07345581,0.00642073
3522.00226318,0.00632784
3523.93107056,0.00622636
3525.85987793,0.00623297
3527.78868530,0.00627104
3529.71749268,0.00627491
3531.64630005,0.00628341
3533.57510742,0.00637134
3535.50391479,0.00628242
3537.43272217,0.00613810
3539.36152954,0.00618121
3541.29033691,0.00623814
3543.21914429,0.00624940
3545.14795166,0.00594022
3547.07675903,0.00577001
3549.00556641,0.00612327
3550.93437378,0.00607357
3552.86318115,0.00594942
3554.79198853,0.00618132
3556.72079590,0.00612029
3558.64960327,0.00603640
3560.57841064,0.00597417
3562.50721802,0.00592611
3564.43602539,0.00592989
3566.36483276,0.00545273
3568.29364014,0.00521596
3570.22244751,0.00577393
3572.15125488,0.00600025
3574.08006226,0.00582421
3576.00886963,0.00591132
3577.93767700,0.00584470
3579.86648437,0.00578049
3581.79529175,0.00583933
3583.72409912,0.00588763
3585.65290649,0.00566663
3587.58171387,0.00502191
3589.51052124,0.00524983
3591.43932861,0.00576723
3593.36813599,0.00552745
3595.29694336,0.00537102
3597.22575073,0.00553671
3599.15455811,0.00561305
3601.08336548,0.00551703
3603.01217285,0.00560017
3604.94098022,0.00561471
3606.86978760,0.00549211
3608.79859497,0.00511647
3610.72740234,0.00516090
3612.65620972,0.00536726
3614.58501709,0.00508722
3616.51382446,0.00555677
3618.44263184,0.00506953
3620.37143921,0.00483113
3622.30024658,0.00559758
3624.22905395,0.00538819
3626.15786133,0.00560363
3628.08666870,0.00454709
3630.01547607,0.00415737
3631.94428345,0.00543093
3633.87309082,0.00529083
3635.80189819,0.00538227
3637.73070557,0.00535746
3639.65951294,0.00528442
3641.58832031,0.00533320
3643.51712769,0.00528354
3645.44593506,0.00532378
3647.37474243,0.00463053
3649.30354980,0.00415487
3651.23235718,0.00420046
3653.16116455,0.00522539
3655.08997192,0.00511516
3657.01877930,0.00448497
3658.94758667,0.00518708
3660.87639404,0.00500487
3662.80520142,0.00523129
3664.73400879,0.00512958
3666.66281616,0.00500192
3668.59162354,0.00487682
3670.52043091,0.00381822
3672.44923828,0.00476134
3674.37804565,0.00446641
3676.30685303,0.00354762
3678.23566040,0.00467062
3680.16446777,0.00486096
3682.09327515,0.00490129
3684.02208252,0.00496635
3685.95088989,0.00480366
3687.87969727,0.00428243
3689.80850464,0.00384188
3691.73731201,0.00448079
3693.66611938,0.00463468
3695.59492676,0.00469877
3697.52373413,0.00474771
3699.45254150,0.00469535
3701.38134888,0.00451220
3703.31015625,0.00431904
3705.23896362,0.00481694
3707.16777100,0.00448535
3709.09657837,0.00425522
3711.02538574,0.00401751
3712.95419312,0.00378738
3714.88300049,0.00454391
3716.81180786,0.00441515
3718.74061523,0.00440360
3720.66942261,0.00432347
3722.59822998,0.00415523
3724.52703735,0.00428606
3726.45584473,0.00385084
3728.38465210,0.00428599
3730.31345947,0.00430140
3732.24226685,0.00388113
3734.17107422,0.00373294
3736.09988159,0.00349931
3738.02868896,0.00379544
3739.95749634,0.00414174
3741.88630371,0.00433081
3743.81511108,0.00323830
3745.74391846,0.00302259
3747.67272583,0.00406600
3749.60153320,0.00343577
3751.53034058,0.00315573
3753.45914795,0.00367913
3755.38795532,0.00400090
3757.31676270,0.00409280
3759.24557007,0.00380058
3761.17437744,0.00399934
3763.10318481,0.00414172
3765.03199219,0.00387684
3766.96079956,0.00397795
3768.88960693,0.00388122
3770.81841431,0.00370620
3772.74722168,0.00408771
3774.67602905,0.00406572
3776.60483643,0.00403510
3778.53364380,0.00391486
3780.46245117,0.00374634
3782.39125854,0.00410104
3784.32006592,0.00389501
3786.24887329,0.00389208
3788.17768066,0.00410664
3790.10648804,0.00400150
3792.03529541,0.00393195
3793.96410278,0.00398905
3795.89291016,0.00371872
3797.82171753,0.00353902
3799.75052490,0.00377880
3801.67933228,0.00291429
3803.60813965,0.00347683
3805.53694702,0.00396558
3807.46575439,0.00303981
3809.39456177,0.00376556
3811.32336914,0.00375913
3813.25217651,0.00385985
3815.18098389,0.00345420
3817.10979126,0.00292381
3819.03859863,0.00381562
3820.96740601,0.00302692
3822.89621338,0.00331364
3824.82502075,0.00386445
3826.75382812,0.00339463
3828.68263550,0.00377116
3830.61144287,0.00354246
3832.54025024,0.00346073
3834.46905762,0.00351174
3836.39786499,0.00318329
3838.32667236,0.00287789
3840.25547974,0.00316291
3842.18428711,0.00339568
3844.11309448,0.00325461
3846.04190186,0.00360165
3847.97070923,0.00361112
3849.89951660,0.00363476
3851.82832397,0.00308989
3853.75713135,0.00221441
3855.68593872,0.00274167
3857.61474609,0.00357086
3859.54355347,0.00355447
3861.47236084,0.00334606
3863.40116821,0.00317555
3865.32997559,0.00298019
3867.25878296,0.00345674
3869.18759033,0.00312921
3871.11639770,0.00279954
3873.04520508,0.00346210
3874.97401245,0.00313246
3876.90281982,0.00329247
3878.83162720,0.00337484
3880.76043457,0.00293271
3882.68924194,0.00345624
3884.61804932,0.00319426
3886.54685669,0.00291939
3888.47566406,0.00345679
3890.40447144,0.00323032
3892.33327881,0.00295240
3894.26208618,0.00325332
3896.19089355,0.00333235
3898.11970093,0.00311191
3900.04850830,0.00294330
3901.97731567,0.00291209
3903.90612305,0.00277570
3905.83493042,0.00294305
3907.76373779,0.00332990
3909.69254517,0.00319634
3911.62135254,0.00323308
3913.55015991,0.00331042
3915.47896728,0.00310075
3917.40777466,0.00296648
3919.33658203,0.00299596
3921.26538940,0.00316933
3923.19419678,0.00302935
3925.12300415,0.00302749
3927.05181152,0.00317349
3928.98061890,0.00317988
3930.90942627,0.00303544
3932.83823364,0.00288272
3934.76704102,0.00313105
3936.69584839,0.00310970
3938.62465576,0.00303905
3940.55346313,0.00308070
3942.48227051,0.00295978
3944.41107788,0.00299455
3946.33988525,0.00300685
3948.26869263,0.00296540
3950.19750000,0.00289695
3952.12630737,0.00298601
3954.05511475,0.00301596
3955.98392212,0.00287612
3957.91272949,0.00295927
3959.84153687,0.00304440
3961.77034424,0.00300365
3963.69915161,0.00297758
3965.62795898,0.00298818
3967.55676636,0.00298820
3969.48557373,0.00293549
3971.41438110,0.00287205
3973.34318848,0.00291516
3975.27199585,0.00288948
3977.20080322,0.00290572
3979.12961060,0.00298098
3981.05841797,0.00289090
3982.98722534,0.00291609
3984.91603271,0.00284268
3986.84484009,0.00282108
3988.77364746,0.00291621
3990.70245483,0.00281394
3992.63126221,0.00276121
3994.56006958,0.00279660
3996.48887695,0.00287034
3998.41768433,0.00280685
4000.34649170,0.00276018
4002.27529907,0.00278742
4004.20410645,0.00279064
4006.13291382,0.00280104
4008.06172119,0.00277377
4009.99052856,0.00277114
4011.91933594,0.00274019
4013.84814331,0.00283341
4015.77695068,0.00281506
4017.70575806,0.00271046
4019.63456543,0.00265310
4021.56337280,0.00271425
4023.49218018,0.00282245
4025.42098755,0.00264670
4027.34979492,0.00271137
4029.27860229,0.00266662
4031.20740967,0.00259489
4033.13621704,0.00267590
4035.06502441,0.00255301
4036.99383179,0.00266989
4038.92263916,0.00261316
4040.85144653,0.00257096
4042.78025391,0.00261284
4044.70906128,0.00258449
4046.63786865,0.00266656
4048.56667603,0.00257087
4050.49548340,0.00260513
4052.42429077,0.00259570
4054.35309814,0.00253839
4056.28190552,0.00258065
4058.21071289,0.00258173
4060.13952026,0.00257809
4062.06832764,0.00255400
4063.99713501,0.00256487
4065.92594238,0.00251269
4067.85474976,0.00254489
4069.78355713,0.00250626
4071.71236450,0.00242401
4073.64117187,0.00245456
4075.56997925,0.00245107
4077.49878662,0.00244713
4079.42759399,0.00238331
4081.35640137,0.00242323
4083.28520874,0.00249656
4085.21401611,0.00248404
4087.14282349,0.00246351
4089.07163086,0.00241380
4091.00043823,0.00233884
4092.92924561,0.00240854
4094.85805298,0.00247308
4096.78686035,0.00231684
4098.71566772,0.00228976
4100.64447510,0.00229442
4102.57328247,0.00232843
4104.50208984,0.00235101
4106.43089722,0.00235309
4108.35970459,0.00242264
4110.28851196,0.00236589
4112.21731934,0.00237570
4114.14612671,0.00229981
4116.07493408,0.00234959
4118.00374145,0.00236571
4119.93254883,0.00225456
4121.86135620,0.00234449
4123.79016357,0.00223799
4125.71897095,0.00227874
4127.64777832,0.00233923
4129.57658569,0.00228133
4131.50539307,0.00228961
4133.43420044,0.00223334
4135.36300781,0.00227843
4137.29181519,0.00224282
4139.22062256,0.00223618
4141.14942993,0.00220766
4143.07823730,0.00216560
4145.00704468,0.00223326
4146.93585205,0.00224682
4148.86465942,0.00219667
4150.79346680,0.00219561
4152.72227417,0.00229794
4154.65108154,0.00214548
4156.57988892,0.00205279
4158.50869629,0.00217770
4160.43750366,0.00219221
4162.36631103,0.00215003
4164.29511841,0.00212719
4166.22392578,0.00213635
4168.15273315,0.00207557
4170.08154053,0.00211856
4172.01034790,0.00212785
4173.93915527,0.00210184
4175.86796265,0.00213071
4177.79677002,0.00213628
4179.72557739,0.00212341
4181.65438477,0.00198431
4183.58319214,0.00205579
4185.51199951,0.00210638
4187.44080688,0.00205138
4189.36961426,0.00208278
4191.29842163,0.00207189
4193.22722900,0.00208436
4195.15603638,0.00207824
4197.08484375,0.00210059
4199.01365112,0.00197147
4200.94245850,0.00202607
4202.87126587,0.00209451
4204.80007324,0.00193572
4206.72888062,0.00204363
4208.65768799,0.00196358
4210.58649536,0.00192319
4212.51530273,0.00203937
4214.44411011,0.00198194
4216.37291748,0.00196202
4218.30172485,0.00193318
4220.23053223,0.00195869
4222.15933960,0.00193514
4224.08814697,0.00200914
4226.01695435,0.00199975
4227.94576172,0.00182017
4229.87456909,0.00191583
4231.80337646,0.00189447
4233.73218384,0.00190925
4235.66099121,0.00200681
4237.58979858,0.00179003
4239.51860596,0.00184713
4241.44741333,0.00196508
4243.37622070,0.00183866
4245.30502808,0.00188737
4247.23383545,0.00186705
4249.16264282,0.00186933
4251.09145020,0.00191029
4253.02025757,0.00183356
4254.94906494,0.00187720
4256.87787231,0.00187836
4258.80667969,0.00180303
4260.73548706,0.00174282
4262.66429443,0.00180380
4264.59310181,0.00185936
4266.52190918,0.00177966
4268.45071655,0.00176257
4270.37952393,0.00178732
4272.30833130,0.00183311
4274.23713867,0.00179338
4276.16594604,0.00177066
4278.09475342,0.00177143
4280.02356079,0.00178149
4281.95236816,0.00180641
4283.88117554,0.00173284
4285.80998291,0.00177203
4287.73879028,0.00170892
4289.66759766,0.00170054
4291.59640503,0.00179145
4293.52521240,0.00172087
4295.45401978,0.00173180
4297.38282715,0.00165298
4299.31163452,0.00162002
4301.24044189,0.00172583
4303.16924927,0.00171655
4305.09805664,0.00166196
4307.02686401,0.00165482
4308.95567139,0.00164477
4310.88447876,0.00162500
4312.81328613,0.00164985
4314.74209351,0.00163835
4316.67090088,0.00166769
4318.59970825,0.00166527
4320.52851562,0.00166116
4322.45732300,0.00164288
4324.38613037,0.00161973
4326.31493774,0.00166889
4328.24374512,0.00156418
4330.17255249,0.00164180
4332.10135986,0.00168607
4334.03016724,0.00158208
4335.95897461,0.00165968
4337.88778198,0.00162630
4339.81658936,0.00162819
4341.74539673,0.00161333
4343.67420410,0.00156116
4345.60301147,0.00156654
4347.53181885,0.00154227
4349.46062622,0.00161479
4351.38943359,0.00161150
4353.31824097,0.00154765
4355.24704834,0.00159400
4357.17585571,0.00164643
4359.10466309,0.00158043
4361.03347046,0.00154386
4362.96227783,0.00154707
4364.89108520,0.00153223
4366.81989258,0.00156245
4368.74869995,0.00152817
4370.67750732,0.00153136
4372.60631470,0.00155926
4374.53512207,0.00155829
4376.46392944,0.00155908
4378.39273682,0.00150899
4380.32154419,0.00147043
4382.25035156,0.00149644
4384.17915894,0.00148457
4386.10796631,0.00142252
4388.03677368,0.00147665
4389.96558105,0.00147172
4391.89438843,0.00150312
4393.82319580,0.00151786
4395.75200317,0.00140993
4397.68081055,0.00153162
4399.60961792,0.00153567
4401.53842529,0.00144205
4403.46723267,0.00144445
4405.39604004,0.00137915
4407.32484741,0.00137159
4409.25365478,0.00136147
4411.18246216,0.00136388
4413.11126953,0.00137174
4415.04007690,0.00136474
4416.96888428,0.00139160
4418.89769165,0.00140875
4420.82649902,0.00136806
4422.75530640,0.00140620
4424.68411377,0.00145023
4426.61292114,0.00131051
4428.54172852,0.00134020
4430.47053589,0.00140910
4432.39934326,0.00137157
4434.32815063,0.00137460
4436.25695801,0.00133954
4438.18576538,0.00138449
4440.11457275,0.00141098
4442.04338013,0.00138421
4443.97218750,0.00134003
4445.90099487,0.00133616
4447.82980225,0.00140058
4449.75860962,0.00132977
4451.68741699,0.00120940
4453.61622437,0.00126493
4455.54503174,0.00133230
4457.47383911,0.00125036
4459.40264648,0.00134092
4461.33145386,0.00136029
4463.26026123,0.00125954
4465.18906860,0.00134739
4467.11787598,0.00129293
4469.04668335,0.00125993
4470.97549072,0.00130861
4472.90429810,0.00131327
4474.83310547,0.00126040
4476.76191284,0.00114764
4478.69072021,0.00121096
4480.61952759,0.00128209
4482.54833496,0.00128410
4484.47714233,0.00126721
4486.40594971,0.00133343
4488.33475708,0.00128896
4490.26356445,0.00116509
4492.19237183,0.00133801
4494.12117920,0.00130154
4496.04998657,0.00117798
4497.97879395,0.00120877
4499.90760132,0.00118652
4501.83640869,0.00124046
4503.76521606,0.00120295
4505.69402344,0.00116194
4507.62283081,0.00116278
4509.55163818,0.00119632
4511.48044556,0.00123268
4513.40925293,0.00119440
4515.33806030,0.00124624
4517.26686768,0.00120728
4519.19567505,0.00117128
4521.12448242,0.00123879
4523.05328979,0.00121118
4524.98209717,0.00113206
4526.91090454,0.00111742
4528.83971191,0.00116962
4530.76851929,0.00115678
4532.69732666,0.00112884
4534.62613403,0.00114899
4536.55494141,0.00119138
4538.48374878,0.00115404
4540.41255615,0.00113844
4542.34136353,0.00119449
4544.27017090,0.00111066
4546.19897827,0.00112490
4548.12778564,0.00115274
4550.05659302,0.00108284
4551.98540039,0.00113187
4553.91420776,0.00113220
4555.84301514,0.00107343
4557.77182251,0.00108470
4559.70062988,0.00112861
4561.62943726,0.00107492
4563.55824463,0.00110019
4565.48705200,0.00115939
4567.41585937,0.00102566
4569.34466675,0.00106604
4571.27347412,0.00113482
4573.20228149,0.00100263
4575.13108887,0.00097313
4577.05989624,0.00105195
4578.98870361,0.00106448
4580.91751099,0.00103772
4582.84631836,0.00109596
4584.77512573,0.00108886
4586.70393311,0.00103748
4588.63274048,0.00112214
4590.56154785,0.00113158
4592.49035522,0.00098972
4594.41916260,0.00102168
4596.34796997,0.00110395
4598.27677734,0.00099839
4600.20558472,0.00105411
4602.13439209,0.00109984
4604.06319946,0.00099339
4605.99200684,0.00105611
4607.92081421,0.00105856
4609.84962158,0.00097156
4611.77842895,0.00099264
4613.70723633,0.00100167
4615.63604370,0.00099165
4617.56485107,0.00104628
4619.49365845,0.00102253
4621.42246582,0.00093751
4623.35127319,0.00099748
4625.28008057,0.00104005
4627.20888794,0.00101666
4629.13769531,0.00101723
4631.06650269,0.00097970
4632.99531006,0.00097621
4634.92411743,0.00095796
4636.85292480,0.00094844
4638.78173218,0.00100825
4640.71053955,0.00093559
4642.63934692,0.00093367
4644.56815430,0.00102776
4646.49696167,0.00089591
4648.42576904,0.00087271
4650.35457642,0.00094652
4652.28338379,0.00088585
4654.21219116,0.00096316
4656.14099853,0.00103311
4658.06980591,0.00093857
4659.99861328,0.00087815
4661.92742065,0.00090598
4663.85622803,0.00093210
4665.78503540,0.00091456
4667.71384277,0.00092042
4669.64265015,0.00092796
4671.57145752,0.00088166
4673.50026489,0.00092463
4675.42907227,0.00094888
4677.35787964,0.00086950
4679.28668701,0.00096563
4681.21549438,0.00097418
4683.14430176,0.00089875
4685.07310913,0.00094253
4687.00191650,0.00092281
4688.93072388,0.00097198
4690.85953125,0.00090874
4692.78833862,0.00084094
4694.71714600,0.00092482
4696.64595337,0.00089095
4698.57476074,0.00082330
4700.50356812,0.00084154
4702.43237549,0.00089930
4704.36118286,0.00082481
4706.28999023,0.00086047
4708.21879761,0.00087201
4710.14760498,0.00079906
4712.07641235,0.00086212
4714.00521973,0.00076605
4715.93402710,0.00085517
4717.86283447,0.00088996
4719.79164185,0.00079482
4721.72044922,0.00092563
4723.64925659,0.00086052
4725.57806396,0.00079844
4727.50687134,0.00077431
4729.43567871,0.00073715
4731.36448608,0.00080071
4733.29329346,0.00086413
4735.22210083,0.00084370
4737.15090820,0.00076070
4739.07971558,0.00082398
4741.00852295,0.00079086
4742.93733032,0.00077000
4744.86613770,0.00082612
4746.79494507,0.00076273
4748.72375244,0.00075641
4750.65255981,0.00078222
4752.58136719,0.00080678
4754.51017456,0.00077382
4756.43898193,0.00076263
4758.36778931,0.00077235
4760.29659668,0.00076951
4762.22540405,0.00079403
4764.15421143,0.00074797
4766.08301880,0.00073076
4768.01182617,0.00074970
4769.94063354,0.00075337
4771.86944092,0.00072852
4773.79824829,0.00074474
4775.72705566,0.00075694
4777.65586304,0.00075634
4779.58467041,0.00076457
4781.51347778,0.00072591
4783.44228516,0.00076996
4785.37109253,0.00074196
4787.29989990,0.00075939
4789.22870728,0.00080179
4791.15751465,0.00077923
4793.08632202,0.00080900
4795.01512939,0.00070182
4796.94393677,0.00073339
4798.87274414,0.00076247
4800.80155151,0.00069962
4802.73035889,0.00074259
4804.65916626,0.00072827
4806.58797363,0.00072713
4808.51678101,0.00069313
4810.44558838,0.00076220
4812.37439575,0.00077480
4814.30320312,0.00071536
4816.23201050,0.00077510
4818.16081787,0.00071248
4820.08962524,0.00071554
4822.01843262,0.00073301
4823.94723999,0.00072656
4825.87604736,0.00076075
4827.80485474,0.00069936
4829.73366211,0.00065735
4831.66246948,0.00062425
4833.59127686,0.00059450
4835.52008423,0.00058607
4837.44889160,0.00063521
4839.37769897,0.00067804
4841.30650635,0.00066650
4843.23531372,0.00063384
4845.16412109,0.00061949
4847.09292847,0.00070903
4849.02173584,0.00071948
4850.95054321,0.00070376
4852.87935059,0.00068894
4854.80815796,0.00063150
4856.73696533,0.00066076
4858.66577270,0.00068142
4860.59458008,0.00067519
4862.52338745,0.00064864
4864.45219482,0.00065686
4866.38100220,0.00064603
4868.30980957,0.00062786
4870.23861694,0.00065045
4872.16742432,0.00059310
4874.09623169,0.00062107
4876.02503906,0.00062194
4877.95384644,0.00055039
4879.88265381,0.00055178
4881.81146118,0.00059984
4883.74026855,0.00066658
4885.66907593,0.00056560
4887.59788330,0.00055836
4889.52669067,0.00068443
4891.45549805,0.00063894
4893.38430542,0.00057626
4895.31311279,0.00059047
4897.24192017,0.00063110
4899.17072754,0.00060071
4901.09953491,0.00060298
4903.02834228,0.00063186
4904.95714966,0.00059272
4906.88595703,0.00060422
4908.81476440,0.00057979
4910.74357178,0.00059904
4912.67237915,0.00063421
4914.60118652,0.00056910
4916.52999390,0.00055977
4918.45880127,0.00057704
4920.38760864,0.00055848
4922.31641602,0.00057861
4924.24522339,0.00067259
4926.17403076,0.00067085
4928.10283813,0.00058922
4930.03164551,0.00058109
4931.96045288,0.00061529
4933.88926025,0.00063039
4935.81806763,0.00051469
4937.74687500,0.00047325
4939.67568237,0.00056707
4941.60448975,0.00057402
4943.53329712,0.00057153
4945.46210449,0.00057849
4947.39091187,0.00057450
4949.31971924,0.00053886
4951.24852661,0.00051530
4953.17733398,0.00051883
4955.10614136,0.00052456
4957.03494873,0.00061148
4958.96375610,0.00052075
4960.89256348,0.00044935
4962.82137085,0.00059397
4964.75017822,0.00050826
4966.67898560,0.00044903
4968.60779297,0.00052293
4970.53660034,0.00052065
4972.46540771,0.00053970
4974.39421509,0.00049800
4976.32302246,0.00055624
4978.25182983,0.00057121
4980.18063721,0.00051320
4982.10944458,0.00055652
4984.03825195,0.00048502
4985.96705933,0.00049341
4987.89586670,0.00049951
4989.82467407,0.00049268
4991.75348145,0.00055540
4993.68228882,0.00048869
4995.61109619,0.00053175
4997.53990356,0.00052459
4999.46871094,0.00046742
5001.39751831,0.00054000
5003.32632568,0.00053794
5005.25513306,0.00052463
5007.18394043,0.00050113
5009.11274780,0.00046191
5011.04155518,0.00046904
5012.97036255,0.00047759
5014.89916992,0.00042619
5016.82797729,0.00044351
5018.75678467,0.00046805
5020.68559204,0.00042669
5022.61439941,0.00054973
5024.54320679,0.00055530
5026.47201416,0.00050188
5028.40082153,0.00057417
5030.32962891,0.00045468
5032.25843628,0.00040232
5034.18724365,0.00051914
5036.11605103,0.00048029
5038.04485840,0.00039750
5039.97366577,0.00040453
5041.90247314,0.00042116
5043.83128052,0.00049160
5045.76008789,0.00050024
5047.68889526,0.00041803
5049.61770264,0.00046494
5051.54651001,0.00046742
5053.47531738,0.00036663
5055.40412476,0.00045252
5057.33293213,0.00052396
5059.26173950,0.00038185
5061.19054687,0.00042243
5063.11935425,0.00050661
5065.04816162,0.00044861
5066.97696899,0.00046609
5068.90577637,0.00042997
5070.83458374,0.00049008
5072.76339111,0.00047961
5074.69219849,0.00036011
5076.62100586,0.00046288
5078.54981323,0.00050713
5080.47862061,0.00044486
5082.40742798,0.00037499
5084.33623535,0.00043406
5086.26504272,0.00044714
5088.19385010,0.00037156
5090.12265747,0.00044727
5092.05146484,0.00038407
5093.98027222,0.00041093
5095.90907959,0.00042076
5097.83788696,0.00034478
5099.76669434,0.00047548
5101.69550171,0.00038381
5103.62430908,0.00033310
5105.55311645,0.00039058
5107.48192383,0.00029885
5109.41073120,0.00038340
5111.33953857,0.00045607
5113.26834595,0.00038857
5115.19715332,0.00039788
5117.12596069,0.00043379
5119.05476807,0.00038600
5120.98357544,0.00038594
5122.91238281,0.00044245
5124.84119019,0.00039059
5126.76999756,0.00037547
5128.69880493,0.00038742
5130.62761230,0.00037032
5132.55641968,0.00044995
5134.48522705,0.00046381
5136.41403442,0.00036813
5138.34284180,0.00030436
5140.27164917,0.00033152
5142.20045654,0.00040907
5144.12926392,0.00041358
5146.05807129,0.00038751
5147.98687866,0.00036365
5149.91568603,0.00034541
5151.84449341,0.00035651
5153.77330078,0.00039310
5155.70210815,0.00036921
5157.63091553,0.00030845
5159.55972290,0.00038529
5161.48853027,0.00037113
5163.41733765,0.00033994
5165.34614502,0.00039652
5167.27495239,0.00030639
5169.20375977,0.00034717
5171.13256714,0.00038543
5173.06137451,0.00029083
5174.99018188,0.00034058
5176.91898926,0.00030322
5178.84779663,0.00027206
5180.77660400,0.00039208
5182.70541138,0.00032276
5184.63421875,0.00025952
5186.56302612,0.00037479
5188.49183350,0.00033528
5190.42064087,0.00027824
5192.34944824,0.00035334
5194.27825562,0.00038489
5196.20706299,0.00033943
5198.13587036,0.00032848
5200.06467773,0.00038164
5201.99348511,0.00035728
5203.92229248,0.00036798
5205.85109985,0.00034812
5207.77990723,0.00028876
5209.70871460,0.00035883
5211.63752197,0.00031687
5213.56632935,0.00031202
5215.49513672,0.00043408
5217.42394409,0.00038153
5219.35275146,0.00029044
5221.28155884,0.00031011
5223.21036621,0.00031366
5225.13917358,0.00030287
5227.06798096,0.00027223
5228.99678833,0.00026102
5230.92559570,0.00034388
5232.85440308,0.00033054
5234.78321045,0.00029492
5236.71201782,0.00031803
5238.64082520,0.00034294
5240.56963257,0.00035014
5242.49843994,0.00034928
5244.42724731,0.00040206
5246.35605469,0.00027913
5248.28486206,0.00023550
5250.21366943,0.00029970
5252.14247681,0.00024395
5254.07128418,0.00028587
5256.00009155,0.00032331
5257.92889893,0.00037079
5259.85770630,0.00032327
5261.78651367,0.00029981
5263.71532104,0.00033882
5265.64412842,0.00027350
5267.57293579,0.00034253
5269.50174316,0.00030031
5271.43055054,0.00031006
5273.35935791,0.00041994
5275.28816528,0.00029945
5277.21697266,0.00025139
5279.14578003,0.00032465
5281.07458740,0.00033629
5283.00339478,0.00033323
5284.93220215,0.00035459
5286.86100952,0.00025346
5288.78981689,0.00023577
5290.71862427,0.00032541
5292.64743164,0.00031502
5294.57623901,0.00032767
5296.50504639,0.00025505
5298.43385376,0.00023601
5300.36266113,0.00029774
5302.29146851,0.00027270
5304.22027588,0.00026447
5306.14908325,0.00026834
5308.07789062,0.00025621
5310.00669800,0.00022818
5311.93550537,0.00026240
5313.86431274,0.00030469
5315.79312012,0.00028191
5317.72192749,0.00027303
5319.65073486,0.00031205
5321.57954224,0.00030130
5323.50834961,0.00031192
5325.43715698,0.00034359
5327.36596436,0.00024936
5329.29477173,0.00027000
5331.22357910,0.00027915
5333.15238647,0.00025925
5335.08119385,0.00032762
5337.01000122,0.00031427
5338.93880859,0.00030559
5340.86761597,0.00022359
5342.79642334,0.00023458
5344.72523071,0.00029056
5346.65403809,0.00024835
5348.58284546,0.00023703
5350.51165283,0.00020672
5352.44046020,0.00029054
5354.36926758,0.00027477
5356.29807495,0.00022937
5358.22688232,0.00030466
5360.15568970,0.00028344
5362.08449707,0.00029332
5364.01330444,0.00027536
5365.94211182,0.00024671
5367.87091919,0.00025828
5369.79972656,0.00029428
5371.72853394,0.00033363
5373.65734131,0.00025529
5375.58614868,0.00020947
5377.51495605,0.00023005
5379.44376343,0.00026635
5381.37257080,0.00025015
5383.30137817,0.00019345
5385.23018555,0.00022831
5387.15899292,0.00022152
5389.08780029,0.00021172
5391.01660767,0.00026680
5392.94541504,0.00024802
5394.87422241,0.00020742
5396.80302978,0.00020622
5398.73183716,0.00021629
5400.66064453,0.00021433
5402.58945190,0.00025373
5404.51825928,0.00026670
5406.44706665,0.00019774
5408.37587402,0.00021980
5410.30468140,0.00026012
5412.23348877,0.00025793
5414.16229614,0.00018645
5416.09110352,0.00017631
5418.01991089,0.00026737
5419.94871826,0.00018609
5421.87752563,0.00023810
5423.80633301,0.00033479
5425.73514038,0.00028052
5427.66394775,0.00028076
5429.59275513,0.00020917
5431.52156250,0.00017429
5433.45036987,0.00022413
5435.37917725,0.00027227
5437.30798462,0.00021634
5439.23679199,0.00018317
5441.16559936,0.00021052
5443.09440674,0.00018640
5445.02321411,0.00024808
5446.95202148,0.00019078
5448.88082886,0.00020835
5450.80963623,0.00023789
5452.73844360,0.00014513
5454.66725098,0.00019517
5456.59605835,0.00017786
5458.52486572,0.00019726
5460.45367310,0.00021159
5462.38248047,0.00019051
5464.31128784,0.00019662
5466.24009521,0.00017687
5468.16890259,0.00017691
5470.09770996,0.00017529
5472.02651733,0.00022428
5473.95532471,0.00017680
5475.88413208,0.00021035
5477.81293945,0.00019317
5479.74174683,0.00014824
5481.67055420,0.00022358
5483.59936157,0.00014318
5485.52816895,0.00020814
5487.45697632,0.00023050
5489.38578369,0.00021886
5491.31459106,0.00024406
5493.24339844,0.00017464
5495.17220581,0.00021416
5497.10101318,0.00018193
5499.02982056,0.00019545
5500.95862793,0.00016396
5502.88743530,0.00015427
5504.81624268,0.00021244
5506.74505005,0.00017912
5508.67385742,0.00019069
5510.60266479,0.00014359
5512.53147217,0.00021442
5514.46027954,0.00022238
5516.38908691,0.00018933
5518.31789429,0.00022085
5520.24670166,0.00019536
5522.17550903,0.00027004
5524.10431641,0.00016469
5526.03312378,0.00015678
5527.96193115,0.00021542
5529.89073853,0.00006214
5531.81954590,0.00011947
5533.74835327,0.00022267
5535.67716064,0.00018746
5537.60596802,0.00016781
5539.53477539,0.00017159
5541.46358276,0.00016818
5543.39239014,0.00019312
5545.32119751,0.00018589
5547.25000488,0.00018521
5549.17881226,0.00023537
5551.10761963,0.00016042
5553.03642700,0.00016441
5554.96523437,0.00020460
5556.89404175,0.00011714
5558.82284912,0.00016139
5560.75165649,0.00019287
5562.68046387,0.00014119
5564.60927124,0.00017321
5566.53807861,0.00017289
5568.46688599,0.00021765
5570.39569336,0.00026277
5572.32450073,0.00019866
5574.25330811,0.00017586
5576.18211548,0.00012085
5578.11092285,0.00013581
5580.03973022,0.00020143
5581.96853760,0.00019391
5583.89734497,0.00018815
5585.82615234,0.00012662
5587.75495972,0.00016365
5589.68376709,0.00019813
5591.61257446,0.00015759
5593.54138184,0.00014120
5595.47018921,0.00013959
5597.39899658,0.00019694
5599.32780395,0.00014357
5601.25661133,0.00010260
5603.18541870,0.00011407
5605.11422607,0.00015715
5607.04303345,0.00020796
5608.97184082,0.00010989
5610.90064819,0.00014522
5612.82945557,0.00017818
5614.75826294,0.00011688
5616.68707031,0.00018511
5618.61587769,0.00019640
5620.54468506,0.00012965
5622.47349243,0.00014066
5624.40229980,0.00022068
5626.33110718,0.00019532
5628.25991455,0.00018003
5630.18872192,0.00025529
5632.11752930,0.00018439
5634.04633667,0.00014039
5635.97514404,0.00016336
5637.90395142,0.00007371
5639.83275879,0.00007031
5641.76156616,0.00011608
5643.69037353,0.00013098
5645.61918091,0.00013762
5647.54798828,0.00007682
5649.47679565,0.00016239
5651.40560303,0.00018624
5653.33441040,0.00011491
5655.26321777,0.00016084
5657.19202515,0.00014341
5659.12083252,0.00018083
5661.04963989,0.00013564
5662.97844727,0.00013018
5664.90725464,0.00018873
5666.83606201,0.00011288
5668.76486938,0.00020143
5670.69367676,0.00011575
5672.62248413,0.00002974
5674.55129150,0.00013993
5676.48009888,0.00010610
5678.40890625,0.00010709
5680.33771362,0.00012683
5682.26652100,0.00019856
5684.19532837,0.00017535
5686.12413574,0.00011576
5688.05294311,0.00019915
5689.98175049,0.00019286
5691.91055786,0.00014984
5693.83936523,0.00011680
5695.76817261,0.00014648
5697.69697998,0.00014961
5699.62578735,0.00010833
5701.55459473,0.00012827
5703.48340210,0.00015604
5705.41220947,0.00016011
5707.34101685,0.00010189
5709.26982422,0.00011940
5711.19863159,0.00006368
5713.12743896,0.00003392
5715.05624634,0.00014672
5716.98505371,0.00013071
5718.91386108,0.00015628
5720.84266846,0.00014436
5722.77147583,0.00014549
5724.70028320,0.00019998
5726.62909058,0.00011825
5728.55789795,0.00010102
5730.48670532,0.00012406
5732.41551270,0.00019524
5734.34432007,0.00019609
5736.27312744,0.00014861
5738.20193481,0.00017077
5740.13074219,0.00009303
5742.05954956,0.00010603
5743.98835693,0.00010266
5745.91716431,0.00004009
5747.84597168,0.00006420
5749.77477905,0.00010104
5751.70358643,0.00012286
5753.63239380,0.00007637
5755.56120117,0.00015812
5757.49000854,0.00015265
5759.41881592,0.00011098
5761.34762329,0.00025055
5763.27643066,0.00015913
5765.20523804,0.00013983
5767.13404541,0.00020589
5769.06285278,0.00009370
5770.99166016,0.00011898
5772.92046753,0.00013825
5774.84927490,0.00009710
5776.77808228,0.00015862
5778.70688965,0.00015116
5780.63569702,0.00007824
5782.56450439,0.00011004
5784.49331177,0.00012169
5786.42211914,0.00013299
5788.35092651,0.00017312
5790.27973389,0.00009571
5792.20854126,0.00004939
5794.13734863,0.00008994
5796.06615601,0.00011706
5797.99496338,0.00003975
5799.92377075,0.00001670
5801.85257812,0.00011520
5803.78138550,0.00009436
5805.71019287,0.00008597
5807.63900024,0.00011179
5809.56780762,0.00008284
5811.49661499,0.00005049
5813.42542236,0.00004263
5815.35422974,0.00006647
5817.28303711,0.00004632
5819.21184448,0.00009535
5821.14065186,0.00012203
5823.06945923,0.00008290
5824.99826660,0.00012254
5826.92707397,0.00011372
5828.85588135,0.00012844
5830.78468872,0.00013460
5832.71349609,0.00005355
5834.64230347,0.00007673
5836.57111084,0.00009883
5838.49991821,0.00006806
5840.42872559,0.00010251
5842.35753296,0.00010486
5844.28634033,0.00010607
5846.21514770,0.00016359
5848.14395508,0.00014769
5850.07276245,0.00008070
5852.00156982,0.00007431
5853.93037720,0.00010129
5855.85918457,0.00009032
5857.78799194,0.00004393
5859.71679932,0.00004844
5861.64560669,0.00009635
5863.57441406,0.00009450
5865.50322144,0.00009122
5867.43202881,0.00010694
5869.36083618,0.00010013
5871.28964355,0.00013861
5873.21845093,0.00013137
5875.14725830,0.00006148
5877.07606567,0.00009181
5879.00487305,0.00009570
5880.93368042,0.00007799
5882.86248779,0.00014683
5884.79129517,0.00012183
5886.72010254,0.00007707
5888.64890991,0.00010459
5890.57771728,0.00007861
5892.50652466,0.00005571
5894.43533203,0.00001686
5896.36413940,0.00003416
5898.29294678,0.00010176
5900.22175415,0.00006614
5902.15056152,0.00014191
5904.07936890,0.00014732
5906.00817627,0.00004413
5907.93698364,0.00010305
5909.86579102,0.00009492
5911.79459839,0.00006578
5913.72340576,0.00003928
5915.65221313,0.00007332
5917.58102051,0.00014173
5919.50982788,0.00007179
5921.43863525,0.00008733
5923.36744263,0.00003948
5925.29625000,0.00005002
5927.22505737,0.00009384
5929.15386475,-0.00000818
5931.08267212,0.00010395
5933.01147949,0.00010464
5934.94028686,0.00003082
5936.86909424,0.00008953
5938.79790161,0.00005746
5940.72670898,0.00012121
5942.65551636,0.00012774
5944.58432373,0.00006207
5946.51313110,0.00007022
5948.44193848,0.00004529
5950.37074585,0.00009267
5952.29955322,0.00014052
5954.22836060,0.00010610
5956.15716797,0.00007013
5958.08597534,0.00007168
5960.01478271,0.00010169
5961.94359009,0.00005499
5963.87239746,0.00005212
5965.80120483,0.00013927
5967.73001221,0.00008523
5969.65881958,0.00001617
5971.58762695,0.00004179
5973.51643433,0.00005717
5975.44524170,0.00005580
5977.37404907,0.00003762
5979.30285645,0.00009136
5981.23166382,0.00007798
5983.16047119,0.00000304
5985.08927856,0.00006540
5987.01808594,0.00008296
5988.94689331,0.00006340
5990.87570068,0.00006293
5992.80450806,0.00005504
5994.73331543,0.00013004
5996.66212280,0.00012339
5998.59093018,0.00007441
6000.51973755,0.00007423
