399.26312622,0.00071115
401.19193359,0.00051163
403.12074097,0.00116288
405.04954834,0.00094731
406.97835571,0.00093444
408.90716309,0.00081563
410.83597046,0.00055022
412.76477783,0.00064461
414.69358521,0.00066282
416.62239258,0.00098316
418.55119995,0.00068030
420.48000732,0.00056993
422.40881470,0.00067448
424.33762207,0.00067108
426.26642944,0.00067867
428.19523682,0.00051802
430.12404419,0.00112215
432.05285156,0.00133934
433.98165894,0.00106993
435.91046631,0.00101140
437.83927368,0.00098485
439.76808105,0.00084615
441.69688843,0.00047409
443.62569580,0.00050160
445.55450317,0.00044135
447.48331055,0.00028414
449.41211792,0.00062428
451.34092529,0.00079839
453.26973267,0.00059284
455.19854004,0.00065749
457.12734741,0.00050146
459.05615479,0.00046937
460.98496216,0.00068776
462.91376953,0.00035338
464.84257690,0.00054918
466.77138428,0.00052438
468.70019165,0.00057213
470.62899902,0.00047640
472.55780640,-0.00005845
474.48661377,0.00068576
476.41542114,0.00065553
478.34422852,0.00038553
480.27303589,0.00031316
482.20184326,0.00018095
484.13065063,0.00045250
486.05945801,0.00009851
487.98826538,0.00045553
489.91707275,0.00015466
491.84588013,-0.00037843
493.77468750,0.00028266
495.70349487,0.00055940
497.63230225,0.00034323
499.56110962,-0.00017394
501.48991699,0.00007674
503.41872437,0.00048920
505.34753174,0.00020460
507.27633911,0.00011071
509.20514648,0.00046178
511.13395386,0.00031706
513.06276123,-0.00017208
514.99156860,0.00042383
516.92037598,0.00021970
518.84918335,-0.00029042
520.77799072,0.00010520
522.70679810,-0.00012823
524.63560547,0.00032446
526.56441284,0.00015104
528.49322021,-0.00016398
530.42202759,0.00059386
532.35083496,-0.00001027
534.27964233,-0.00005074
536.20844971,0.00054867
538.13725708,0.00021454
540.06606445,0.00035575
541.99487183,0.00051184
543.92367920,-0.00014993
545.85248657,-0.00021659
547.78129395,0.00033931
549.71010132,0.00010552
551.63890869,-0.00015957
553.56771606,0.00004321
555.49652344,0.00023177
557.42533081,0.00026198
559.35413818,0.00008527
561.28294556,-0.00005815
563.21175293,-0.00000020
565.14056030,0.00021447
567.06936768,0.00031452
568.99817505,0.00005772
570.92698242,-0.00009177
572.85578979,0.00028648
574.78459717,0.00002121
576.71340454,-0.00022726
578.64221191,0.00022416
580.57101929,-0.00015163
582.49982666,-0.00024176
584.42863403,0.00017170
586.35744141,0.00011792
588.28624878,0.00014031
590.21505615,0.00009790
592.14386353,0.00023373
594.07267090,0.00036897
596.00147827,0.00018111
597.93028564,0.00032920
599.85909302,0.00033897
601.78790039,0.00020350
603.71670776,0.00018431
605.64551514,-0.00002382
607.57432251,-0.00025881
609.50312988,0.00031521
611.43193726,0.00035632
613.36074463,-0.00010589
615.28955200,-0.00004743
617.21835938,-0.00023882
619.14716675,0.00010852
621.07597412,0.00015532
623.00478149,-0.00014327
624.93358887,0.00005414
626.86239624,0.00004019
628.79120361,0.00016550
630.72001099,0.00014631
632.64881836,0.00031822
634.57762573,0.00053253
636.50643311,0.00071925
638.43524048,0.00076168
640.36404785,0.00043974
642.29285522,0.00071891
644.22166260,0.00093119
646.15046997,0.00085882
648.07927734,0.00071684
650.00808472,0.00062022
651.93689209,0.00070241
653.86569946,0.00116252
655.79450684,0.00145650
657.72331421,0.00102039
659.65212158,0.00132483
661.58092896,0.00127992
663.50973633,0.00115532
665.43854370,0.00143237
667.36735107,0.00118832
669.29615845,0.00161504
671.22496582,0.00169552
673.15377319,0.00149428
675.08258057,0.00154459
677.01138794,0.00181938
678.94019531,0.00186544
680.86900269,0.00158364
682.79781006,0.00215567
684.72661743,0.00186696
686.65542480,0.00138849
688.58423218,0.00159871
690.51303955,0.00192684
692.44184692,0.00216842
694.37065430,0.00184198
696.29946167,0.00226698
698.22826904,0.00267203
700.15707642,0.00258919
702.08588379,0.00244857
704.01469116,0.00254293
705.94349854,0.00245035
707.87230591,0.00182676
709.80111328,0.00157076
711.72992065,0.00079762
713.65872803,0.00064854
715.58753540,0.00047028
717.51634277,-0.00006920
719.44515015,0.00042716
721.37395752,0.00021520
723.30276489,0.00012198
725.23157227,0.00023267
727.16037964,0.00008695
729.08918701,0.00016835
731.01799438,0.00005277
732.94680176,0.00017908
734.87560913,0.00033908
736.80441650,0.00018282
738.73322388,-0.00001421
740.66203125,0.00027724
742.59083862,0.00034555
744.51964600,0.00003761
746.44845337,-0.00008328
748.37726074,0.00016053
750.30606812,0.00059272
752.23487549,0.00021948
754.16368286,0.00009186
756.09249023,0.00042474
758.02129761,0.00018731
759.95010498,0.00020721
761.87891235,0.00038398
763.80771973,0.00007816
765.73652710,-0.00021290
767.66533447,0.00007611
769.59414185,0.00020724
771.52294922,0.00014269
773.45175659,0.00037571
775.38056396,0.00024663
777.30937134,0.00022779
779.23817871,0.00042064
781.16698608,0.00034917
783.09579346,0.00019277
785.02460083,0.00021951
786.95340820,0.00008460
788.88221558,0.00007228
790.81102295,0.00036764
792.73983032,0.00027134
794.66863770,0.00052545
796.59744507,0.00065635
798.52625244,0.00031430
800.45505981,0.00050923
802.38386719,0.00065132
804.31267456,0.00050939
806.24148193,0.00055485
808.17028931,0.00066953
810.09909668,0.00045606
812.02790405,0.00022000
813.95671143,0.00021722
815.88551880,0.00021366
817.81432617,0.00061312
819.74313354,0.00067800
821.67194092,0.00010085
823.60074829,0.00011468
825.52955566,0.00018379
827.45836304,0.00010066
829.38717041,0.00040092
831.31597778,0.00040317
833.24478516,0.00041759
835.17359253,0.00068958
837.10239990,0.00070081
839.03120728,0.00077760
840.96001465,0.00090063
842.88882202,0.00076718
844.81762939,0.00067161
846.74643677,0.00058265
848.67524414,0.00030154
850.60405151,0.00037215
852.53285889,0.00052149
854.46166626,0.00028644
856.39047363,0.00023655
858.31928101,0.00037987
860.24808838,0.00052305
862.17689575,0.00041575
864.10570313,0.00030863
866.03451050,0.00015995
867.96331787,-0.00013213
869.89212524,0.00018553
871.82093262,0.00026773
873.74973999,0.00002060
875.67854736,0.00031238
877.60735474,0.00055935
879.53616211,0.00038736
881.46496948,0.00015307
883.39377686,0.00026900
885.32258423,0.00041329
887.25139160,0.00042087
889.18019897,0.00045918
891.10900635,0.00049660
893.03781372,0.00053429
894.96662109,0.00022772
896.89542847,0.00010754
898.82423584,0.00025613
900.75304321,0.00010433
902.68185059,0.00000478
904.61065796,0.00015144
906.53946533,0.00027375
908.46827271,0.00032603
910.39708008,0.00052660
912.32588745,0.00028698
914.25469482,0.00037848
916.18350220,0.00061446
918.11230957,0.00025397
920.04111694,0.00050548
921.96992432,0.00061633
923.89873169,0.00077692
925.82753906,0.00096685
927.75634644,0.00086857
929.68515381,0.00107585
931.61396118,0.00092721
933.54276855,0.00094000
935.47157593,0.00089836
937.40038330,0.00077025
939.32919067,0.00100003
941.25799805,0.00111457
943.18680542,0.00109185
945.11561279,0.00116832
947.04442017,0.00135677
948.97322754,0.00100159
950.90203491,0.00090699
952.83084229,0.00125504
954.75964966,0.00112489
956.68845703,0.00110733
958.61726440,0.00129268
960.54607178,0.00096511
962.47487915,0.00062841
964.40368652,0.00093416
966.33249390,0.00100859
968.26130127,0.00115212
970.19010864,0.00142311
972.11891602,0.00125851
974.04772339,0.00133292
975.97653076,0.00143587
977.90533813,0.00155340
979.83414551,0.00174453
981.76295288,0.00178176
983.69176025,0.00192365
985.62056763,0.00237566
987.54937500,0.00244569
989.47818237,0.00230400
991.40698975,0.00280135
993.33579712,0.00302660
995.26460449,0.00342067
997.19341187,0.00388855
999.12221924,0.00399549
1001.05102661,0.00439766
1002.97983398,0.00451652
1004.90864136,0.00489930
1006.83744873,0.00534415
1008.76625610,0.00546028
1010.69506348,0.00568799
1012.62387085,0.00603819
1014.55267822,0.00655596
1016.48148560,0.00672095
1018.41029297,0.00725495
1020.33910034,0.00786631
1022.26790771,0.00770669
1024.19671509,0.00780762
1026.12552246,0.00824931
1028.05432983,0.00855170
1029.98313721,0.00885331
1031.91194458,0.00914865
1033.84075195,0.00926054
1035.76955933,0.00938778
1037.69836670,0.00952996
1039.62717407,0.00967158
1041.55598145,0.00964623
1043.48478882,0.00940494
1045.41359619,0.00937602
1047.34240356,0.00907859
1049.27121094,0.00886211
1051.20001831,0.00888039
1053.12882568,0.00867761
1055.05763306,0.00869946
1056.98644043,0.00845071
1058.91524780,0.00822861
1060.84405518,0.00829379
1062.77286255,0.00785817
1064.70166992,0.00743481
1066.63047729,0.00719543
1068.55928467,0.00692701
1070.48809204,0.00667666
1072.41689941,0.00624630
1074.34570679,0.00598957
1076.27451416,0.00583676
1078.20332153,0.00558543
1080.13212891,0.00539769
1082.06093628,0.00499385
1083.98974365,0.00478909
1085.91855103,0.00471816
1087.84735840,0.00449380
1089.77616577,0.00443785
1091.70497314,0.00414508
1093.63378052,0.00395372
1095.56258789,0.00367625
1097.49139526,0.00346565
1099.42020264,0.00370193
1101.34901001,0.00340415
1103.27781738,0.00342262
1105.20662476,0.00357800
1107.13543213,0.00333998
1109.06423950,0.00333768
1110.99304687,0.00318786
1112.92185425,0.00317976
1114.85066162,0.00318838
1116.77946899,0.00306988
1118.70827637,0.00293686
1120.63708374,0.00309418
1122.56589111,0.00335147
1124.49469849,0.00322646
1126.42350586,0.00330294
1128.35231323,0.00328245
1130.28112061,0.00350677
1132.20992798,0.00367318
1134.13873535,0.00358921
1136.06754272,0.00384221
1137.99635010,0.00391356
1139.92515747,0.00422683
1141.85396484,0.00433881
1143.78277222,0.00455543
1145.71157959,0.00499236
1147.64038696,0.00519737
1149.56919434,0.00554871
1151.49800171,0.00556045
1153.42680908,0.00608649
1155.35561646,0.00635323
1157.28442383,0.00651343
1159.21323120,0.00716644
1161.14203857,0.00702953
1163.07084595,0.00734896
1164.99965332,0.00774566
1166.92846069,0.00800419
1168.85726807,0.00847037
1170.78607544,0.00857811
1172.71488281,0.00890583
1174.64369019,0.00932581
1176.57249756,0.00977185
1178.50130493,0.00993067
1180.43011230,0.01029023
1182.35891968,0.01072104
1184.28772705,0.01098142
1186.21653442,0.01163789
1188.14534180,0.01219053
1190.07414917,0.01289835
1192.00295654,0.01336792
1193.93176392,0.01403685
1195.86057129,0.01494720
1197.78937866,0.01530165
1199.71818604,0.01590038
1201.64699341,0.01668856
1203.57580078,0.01734844
1205.50460815,0.01780578
1207.43341553,0.01861496
1209.36222290,0.01929556
1211.29103027,0.01956242
1213.21983765,0.02019070
1215.14864502,0.02091817
1217.07745239,0.02148574
1219.00625977,0.02149987
1220.93506714,0.02190992
1222.86387451,0.02225721
1224.79268188,0.02218212
1226.72148926,0.02249558
1228.65029663,0.02265478
1230.57910400,0.02307236
1232.50791138,0.02304097
1234.43671875,0.02306839
1236.36552612,0.02322887
1238.29433350,0.02287735
1240.22314087,0.02303913
1242.15194824,0.02286210
1244.08075562,0.02267069
1246.00956299,0.02271208
1247.93837036,0.02261049
1249.86717773,0.02245940
1251.79598511,0.02227072
1253.72479248,0.02223571
1255.65359985,0.02199112
1257.58240723,0.02172720
1259.51121460,0.02108577
1261.44002197,0.02092051
1263.36882935,0.02085267
1265.29763672,0.02026854
1267.22644409,0.02034874
1269.15525146,0.02002654
1271.08405884,0.01966567
1273.01286621,0.01950460
1274.94167358,0.01911018
1276.87048096,0.01879407
1278.79928833,0.01845436
1280.72809570,0.01828140
1282.65690308,0.01775697
1284.58571045,0.01747986
1286.51451782,0.01715120
1288.44332520,0.01662693
1290.37213257,0.01662768
1292.30093994,0.01651311
1294.22974731,0.01649368
1296.15855469,0.01629012
1298.08736206,0.01603816
1300.01616943,0.01613834
1301.94497681,0.01632047
1303.87378418,0.01662388
1305.80259155,0.01685191
1307.73139893,0.01714120
1309.66020630,0.01731898
1311.58901367,0.01746453
1313.51782104,0.01779836
1315.44662842,0.01821535
1317.37543579,0.01857750
1319.30424316,0.01894007
1321.23305054,0.01961911
1323.16185791,0.02020983
1325.09066528,0.02094757
1327.01947266,0.02175124
1328.94828003,0.02201225
1330.87708740,0.02264101
1332.80589478,0.02343689
1334.73470215,0.02365050
1336.66350952,0.02375227
1338.59231689,0.02333453
1340.52112427,0.02350569
1342.44993164,0.02470708
1344.37873901,0.02488608
1346.30754639,0.02504201
1348.23635376,0.02506426
1350.16516113,0.02456176
1352.09396851,0.02468268
1354.02277588,0.02449373
1355.95158325,0.02444141
1357.88039062,0.02424729
1359.80919800,0.02381532
1361.73800537,0.02264113
1363.66681274,0.02187150
1365.59562012,0.02329201
1367.52442749,0.02277340
1369.45323486,0.02260990
1371.38204224,0.02329904
1373.31084961,0.02169707
1375.23965698,0.02183884
1377.16846436,0.02260644
1379.09727173,0.02255780
1381.02607910,0.02240966
1382.95488647,0.02259342
1384.88369385,0.02267397
1386.81250122,0.02120853
1388.74130859,0.02170745
1390.67011597,0.02375365
1392.59892334,0.02308486
1394.52773071,0.02124687
1396.45653809,0.02258376
1398.38534546,0.02258290
1400.31415283,0.02210040
1402.24296021,0.02459029
1404.17176758,0.02278188
1406.10057495,0.02282038
1408.02938232,0.02421480
1409.95818970,0.02298810
1411.88699707,0.02380271
1413.81580444,0.02284525
1415.74461182,0.02335602
1417.67341919,0.02074803
1419.60222656,0.01793875
1421.53103394,0.02148303
1423.45984131,0.02082012
1425.38864868,0.02014683
1427.31745605,0.02055175
1429.24626343,0.01906942
1431.17507080,0.01858118
1433.10387817,0.01886751
1435.03268555,0.01729348
1436.96149292,0.01405055
1438.89030029,0.01639421
1440.81910767,0.01715109
1442.74791504,0.01563689
1444.67672241,0.01671282
1446.60552979,0.01508579
1448.53433716,0.01527196
1450.46314453,0.01599452
1452.39195190,0.01637869
1454.32075928,0.01707232
1456.24956665,0.01354939
1458.17837402,0.01388868
1460.10718140,0.01920239
1462.03598877,0.02063565
1463.96479614,0.02012630
1465.89360352,0.02091598
1467.82241089,0.02450103
1469.75121826,0.02628390
1471.68002563,0.02242686
1473.60883301,0.02383569
1475.53764038,0.02755400
1477.46644775,0.02971806
1479.39525513,0.03342394
1481.32406250,0.03345646
1483.25286987,0.03560032
1485.18167725,0.03709708
1487.11048462,0.03591965
1489.03929199,0.03525238
1490.96809937,0.03518694
1492.89690674,0.04223699
1494.82571411,0.04115700
1496.75452148,0.03576999
1498.68332886,0.04126845
1500.61213623,0.04276336
1502.54094360,0.04628108
1504.46975098,0.04362376
1506.39855835,0.02925009
1508.32736572,0.03661114
1510.25617310,0.04501171
1512.18498047,0.04330133
1514.11378784,0.04756977
1516.04259521,0.04217963
1517.97140259,0.04397373
1519.90020996,0.04264371
1521.82901733,0.03544510
1523.75782471,0.04519932
1525.68663208,0.04442867
1527.61543945,0.04372922
1529.54424683,0.04987905
1531.47305420,0.04766523
1533.40186157,0.04257198
1535.33066895,0.04549560
1537.25947632,0.04988258
1539.18828369,0.03345179
1541.11709106,0.03448109
1543.04589844,0.04332321
1544.97470581,0.04101595
1546.90351318,0.05069966
1548.83232056,0.04688915
1550.76112793,0.04826064
1552.68993530,0.04871895
1554.61874268,0.04278941
1556.54755005,0.04666724
1558.47635742,0.03086284
1560.40516479,0.03290720
1562.33397217,0.05129960
1564.26277954,0.04820916
1566.19158691,0.04960671
1568.12039429,0.04941450
1570.04920166,0.04217827
1571.97800903,0.05002314
1573.90681641,0.05142260
1575.83562378,0.03878579
1577.76443115,0.04461323
1579.69323853,0.05151510
1581.62204590,0.04916748
1583.55085327,0.05111776
1585.47966064,0.05010534
1587.40846802,0.05044930
1589.33727539,0.04993962
1591.26608276,0.04980473
1593.19489014,0.05007782
1595.12369751,0.04954538
1597.05250488,0.05030214
1598.98131226,0.04982267
1600.91011963,0.05029706
1602.83892700,0.04914154
1604.76773437,0.05010357
1606.69654175,0.04922555
1608.62534912,0.04893380
1610.55415649,0.04918072
1612.48296387,0.04941813
1614.41177124,0.05044264
1616.34057861,0.03974411
1618.26938599,0.04320428
1620.19819336,0.05219870
1622.12700073,0.04528248
1624.05580811,0.04530788
1625.98461548,0.04833181
1627.91342285,0.04803983
1629.84223022,0.04773270
1631.77103760,0.05161353
1633.69984497,0.04709750
1635.62865234,0.03709054
1637.55745972,0.04429654
1639.48626709,0.05020223
1641.41507446,0.04896804
1643.34388184,0.05068834
1645.27268921,0.04508632
1647.20149658,0.03786045
1649.13030396,0.04931726
1651.05911133,0.04749287
1652.98791870,0.02736448
1654.91672607,0.03942965
1656.84553345,0.05249959
1658.77434082,0.05010504
1660.70314819,0.05180704
1662.63195557,0.04625837
1664.56076294,0.04911008
1666.48957031,0.05396648
1668.41837769,0.04581167
1670.34718506,0.04384112
1672.27599243,0.05140696
1674.20479980,0.04685356
1676.13360718,0.04433663
1678.06241455,0.05273097
1679.99122192,0.05052409
1681.92002930,0.04995602
1683.84883667,0.03922613
1685.77764404,0.03823987
1687.70645142,0.05621808
1689.63525879,0.04771715
1691.56406616,0.05301358
1693.49287354,0.05511804
1695.42168091,0.03744837
1697.35048828,0.04816915
1699.27929565,0.04168712
1701.20810303,0.03584047
1703.13691040,0.05301610
1705.06571777,0.04801086
1706.99452515,0.04814412
1708.92333252,0.05386855
1710.85213989,0.05122347
1712.78094727,0.05216527
1714.70975464,0.04782888
1716.63856201,0.04213790
1718.56736938,0.04108810
1720.49617676,0.05036663
1722.42498413,0.05345889
1724.35379150,0.04855850
1726.28259888,0.05378073
1728.21140625,0.04929597
1730.14021362,0.04918349
1732.06902100,0.04843200
1733.99782837,0.03450537
1735.92663574,0.04479731
1737.85544312,0.05120221
1739.78425049,0.04415582
1741.71305786,0.04884980
1743.64186523,0.04960446
1745.57067261,0.04955933
1747.49947998,0.04998897
1749.42828735,0.04739532
1751.35709473,0.04498848
1753.28590210,0.05074228
1755.21470947,0.05405326
1757.14351685,0.04802513
1759.07232422,0.05360218
1761.00113159,0.05014470
1762.92993896,0.04759581
1764.85874634,0.05652298
1766.78755371,0.04995835
1768.71636108,0.05015265
1770.64516846,0.05007293
1772.57397583,0.04380400
1774.50278320,0.04986639
1776.43159058,0.05331367
1778.36039795,0.05258963
1780.28920532,0.05167123
1782.21801270,0.05226349
1784.14682007,0.05229912
1786.07562744,0.05102942
1788.00443481,0.05457881
1789.93324219,0.05266640
1791.86204956,0.04638095
1793.79085693,0.04895946
1795.71966431,0.05331060
1797.64847168,0.05249592
1799.57727905,0.05152797
1801.50608643,0.05028804
1803.43489380,0.05228330
1805.36370117,0.05403191
1807.29250854,0.05302794
1809.22131592,0.05326298
1811.15012329,0.05159776
1813.07893066,0.05339205
1815.00773804,0.05388364
1816.93654541,0.05300806
1818.86535278,0.05364095
1820.79416016,0.05350118
1822.72296753,0.05442232
1824.65177490,0.05002042
1826.58058228,0.05208788
1828.50938965,0.05241832
1830.43819702,0.04822820
1832.36700439,0.05358643
1834.29581177,0.05338085
1836.22461914,0.05321738
1838.15342651,0.05314841
1840.08223389,0.05351808
1842.01104126,0.05367968
1843.93984863,0.04612214
1845.86865601,0.04974156
1847.79746338,0.05332409
1849.72627075,0.05192808
1851.65507812,0.05407224
1853.58388550,0.05289053
1855.51269287,0.05346169
1857.44150024,0.05303427
1859.37030762,0.05258473
1861.29911499,0.05310455
1863.22792236,0.05246158
1865.15672974,0.05325538
1867.08553711,0.05109304
1869.01434448,0.04832053
1870.94315186,0.05067389
1872.87195923,0.05321921
1874.80076660,0.05228864
1876.72957397,0.05269872
1878.65838135,0.05236274
1880.58718872,0.05209902
1882.51599609,0.05286103
1884.44480347,0.05159032
1886.37361084,0.05260064
1888.30241821,0.05131995
1890.23122559,0.04998372
1892.16003296,0.05237716
1894.08884033,0.05145831
1896.01764771,0.05118630
1897.94645508,0.05203643
1899.87526245,0.05159060
1901.80406982,0.05171344
1903.73287720,0.05148332
1905.66168457,0.05171358
1907.59049194,0.05112171
1909.51929932,0.05069319
1911.44810669,0.05115399
1913.37691406,0.05134683
1915.30572144,0.05178087
1917.23452881,0.04900787
1919.16333618,0.04907008
1921.09214355,0.05164503
1923.02095093,0.04951257
1924.94975830,0.05052436
1926.87856567,0.05150354
1928.80737305,0.05074978
1930.73618042,0.05141189
1932.66498779,0.05037578
1934.59379517,0.05118138
1936.52260254,0.05081631
1938.45140991,0.05086205
1940.38021729,0.05111967
1942.30902466,0.04896278
1944.23783203,0.05013404
1946.16663940,0.05073583
1948.09544678,0.05041325
1950.02425415,0.05089199
1951.95306152,0.05071047
1953.88186890,0.05064885
1955.81067627,0.05041062
1957.73948364,0.05082415
1959.66829102,0.05067473
1961.59709839,0.05049875
1963.52590576,0.05080624
1965.45471313,0.05030594
1967.38352051,0.04953241
1969.31232788,0.05008082
1971.24113525,0.05067149
1973.16994263,0.05029768
1975.09875000,0.05058600
1977.02755737,0.05023821
1978.95636475,0.05030244
1980.88517212,0.05026976
1982.81397949,0.04987924
1984.74278687,0.05031347
1986.67159424,0.04982216
1988.60040161,0.04991836
1990.52920898,0.04943486
1992.45801636,0.04868996
1994.38682373,0.04959077
1996.31563110,0.04981267
1998.24443848,0.04947450
2000.17324585,0.04946222
2002.10205322,0.04952352
2004.03086060,0.04950478
2005.95966797,0.04927232
2007.88847534,0.04905403
2009.81728271,0.04931486
2011.74609009,0.04909347
2013.67489746,0.04887912
2015.60370483,0.04871690
2017.53251221,0.04805676
2019.46131958,0.04857160
2021.39012695,0.04863106
2023.31893433,0.04846001
2025.24774170,0.04857978
2027.17654907,0.04825772
2029.10535645,0.04834319
2031.03416382,0.04805733
2032.96297119,0.04813432
2034.89177856,0.04797345
2036.82058594,0.04776899
2038.74939331,0.04795468
2040.67820068,0.04751527
2042.60700806,0.04757818
2044.53581543,0.04761035
2046.46462280,0.04750211
2048.39343018,0.04745833
2050.32223755,0.04733621
2052.25104492,0.04738365
2054.17985229,0.04721059
2056.10865967,0.04709378
2058.03746704,0.04701346
2059.96627441,0.04694268
2061.89508179,0.04693365
2063.82388916,0.04676389
2065.75269653,0.04650024
2067.68150391,0.04658923
2069.61031128,0.04664899
2071.53911865,0.04647050
2073.46792603,0.04648365
2075.39673340,0.04641505
2077.32554077,0.04621479
2079.25434814,0.04609392
2081.18315552,0.04617792
2083.11196289,0.04609408
2085.04077026,0.04606749
2086.96957764,0.04597653
2088.89838501,0.04566084
2090.82719238,0.04571709
2092.75599976,0.04578769
2094.68480713,0.04578161
2096.61361450,0.04556482
2098.54242187,0.04551673
2100.47122925,0.04549817
2102.40003662,0.04534011
2104.32884399,0.04539962
2106.25765137,0.04526938
2108.18645874,0.04526570
2110.11526611,0.04513309
2112.04407349,0.04508794
2113.97288086,0.04499318
2115.90168823,0.04492128
2117.83049561,0.04508682
2119.75930298,0.04478003
2121.68811035,0.04481785
2123.61691772,0.04481173
2125.54572510,0.04464790
2127.47453247,0.04463334
2129.40333984,0.04467039
2131.33214722,0.04466793
2133.26095459,0.04449440
2135.18976196,0.04464132
2137.11856934,0.04431058
2139.04737671,0.04430532
2140.97618408,0.04449631
2142.90499146,0.04423779
2144.83379883,0.04431589
2146.76260620,0.04410838
2148.69141357,0.04406470
2150.62022095,0.04408453
2152.54902832,0.04401653
2154.47783569,0.04411500
2156.40664307,0.04406231
2158.33545044,0.04392333
2160.26425781,0.04381740
2162.19306519,0.04384378
2164.12187256,0.04373339
2166.05067993,0.04378027
2167.97948730,0.04379415
2169.90829468,0.04381198
2171.83710205,0.04372413
2173.76590942,0.04353678
2175.69471680,0.04361172
2177.62352417,0.04345044
2179.55233154,0.04356375
2181.48113892,0.04350950
2183.40994629,0.04336499
2185.33875366,0.04341611
2187.26756104,0.04330557
2189.19636841,0.04344200
2191.12517578,0.04323214
2193.05398315,0.04319561
2194.98279053,0.04320717
2196.91159790,0.04296162
2198.84040527,0.04321583
2200.76921265,0.04318734
2202.69802002,0.04285758
2204.62682739,0.04296759
2206.55563477,0.04303785
2208.48444214,0.04285278
2210.41324951,0.04294911
2212.34205688,0.04282876
2214.27086426,0.04267043
2216.19967163,0.04277555
2218.12847900,0.04263278
2220.05728638,0.04266939
2221.98609375,0.04261431
2223.91490112,0.04243714
2225.84370850,0.04245692
2227.77251587,0.04239612
2229.70132324,0.04238376
2231.63013062,0.04236230
2233.55893799,0.04220951
2235.48774536,0.04223429
2237.41655273,0.04229514
2239.34536011,0.04211893
2241.27416748,0.04206476
2243.20297485,0.04204295
2245.13178223,0.04202316
2247.06058960,0.04193573
2248.98939697,0.04186432
2250.91820435,0.04184418
2252.84701172,0.04160865
2254.77581909,0.04170835
2256.70462646,0.04172447
2258.63343384,0.04157603
2260.56224121,0.04160322
2262.49104858,0.04149342
2264.41985596,0.04138111
2266.34866333,0.04131966
2268.27747070,0.04127129
2270.20627808,0.04114212
2272.13508545,0.04124236
2274.06389282,0.04119723
2275.99270020,0.04111513
2277.92150757,0.04130083
2279.85031494,0.04117867
2281.77912231,0.04111178
2283.70792969,0.04108572
2285.63673706,0.04101946
2287.56554443,0.04087606
2289.49435181,0.04087964
2291.42315918,0.04084511
2293.35196655,0.04065787
2295.28077393,0.04073995
2297.20958130,0.04042652
2299.13838867,0.04034975
2301.06719604,0.04031418
2302.99600342,0.04003502
2304.92481079,0.04001376
2306.85361816,0.03965342
2308.78242554,0.03943646
2310.71123291,0.03922386
2312.64004028,0.03878945
2314.56884766,0.03851315
2316.49765503,0.03826612
2318.42646240,0.03774451
2320.35526978,0.03722261
2322.28407715,0.03681530
2324.21288452,0.03626021
2326.14169189,0.03607910
2328.07049927,0.03567750
2329.99930664,0.03518786
2331.92811401,0.03500555
2333.85692139,0.03484762
2335.78572876,0.03481761
2337.71453613,0.03469019
2339.64334351,0.03479999
2341.57215088,0.03481925
2343.50095825,0.03509186
2345.42976562,0.03585985
2347.35857300,0.03710052
2349.28738037,0.03815015
2351.21618774,0.03708284
2353.14499512,0.03547375
2355.07380249,0.03442287
2357.00260986,0.03335186
2358.93141724,0.03270366
2360.86022461,0.03227478
2362.78903198,0.03220998
2364.71783936,0.03256312
2366.64664673,0.03289009
2368.57545410,0.03339209
2370.50426147,0.03427932
2372.43306885,0.03496400
2374.36187622,0.03581984
2376.29068359,0.03680535
2378.21949097,0.03738835
2380.14829834,0.03799371
2382.07710571,0.03835510
2384.00591309,0.03857348
2385.93472046,0.03863086
2387.86352783,0.03870376
2389.79233521,0.03880653
2391.72114258,0.03867647
2393.64994995,0.03873289
2395.57875732,0.03861324
2397.50756470,0.03855153
2399.43637207,0.03855687
2401.36517944,0.03848033
2403.29398682,0.03852310
2405.22279419,0.03842440
2407.15160156,0.03837587
2409.08040894,0.03838169
2411.00921631,0.03840689
2412.93802368,0.03834888
2414.86683105,0.03813969
2416.79563843,0.03799973
2418.72444580,0.03813498
2420.65325317,0.03817141
2422.58206055,0.03799357
2424.51086792,0.03793509
2426.43967529,0.03786568
2428.36848267,0.03787623
2430.29729004,0.03778256
2432.22609741,0.03784622
2434.15490479,0.03778568
2436.08371216,0.03752987
2438.01251953,0.03761750
2439.94132690,0.03755981
2441.87013428,0.03765718
2443.79894165,0.03758709
2445.72774902,0.03748098
2447.65655640,0.03748088
2449.58536377,0.03729912
2451.51417114,0.03747261
2453.44297852,0.03736564
2455.37178589,0.03722968
2457.30059326,0.03717133
2459.22940063,0.03716172
2461.15820801,0.03727241
2463.08701538,0.03707878
2465.01582275,0.03706419
2466.94463013,0.03703751
2468.87343750,0.03706862
2470.80224487,0.03697035
2472.73105225,0.03681359
2474.65985962,0.03685478
2476.58866699,0.03673218
2478.51747437,0.03679001
2480.44628174,0.03675649
2482.37508911,0.03675179
2484.30389648,0.03668929
2486.23270386,0.03649321
2488.16151123,0.03665546
2490.09031860,0.03666588
2492.01912598,0.03654812
2493.94793335,0.03651007
2495.87674072,0.03639404
2497.80554810,0.03638423
2499.73435547,0.03637075
2501.66316284,0.03620283
2503.59197021,0.03620692
2505.52077759,0.03616220
2507.44958496,0.03610367
2509.37839233,0.03611832
2511.30719971,0.03598184
2513.23600708,0.03608314
2515.16481445,0.03602000
2517.09362183,0.03604711
2519.02242920,0.03599497
2520.95123657,0.03566941
2522.88004395,0.03586991
2524.80885132,0.03574862
2526.73765869,0.03566860
2528.66646606,0.03574754
2530.59527344,0.03561288
2532.52408081,0.03572516
2534.45288818,0.03555270
2536.38169556,0.03552971
2538.31050293,0.03563119
2540.23931030,0.03548221
2542.16811768,0.03536341
2544.09692505,0.03535804
2546.02573242,0.03543686
2547.95453979,0.03535389
2549.88334717,0.03536337
2551.81215454,0.03531385
2553.74096191,0.03521789
2555.66976929,0.03522983
2557.59857666,0.03513314
2559.52738403,0.03506117
2561.45619141,0.03500390
2563.38499878,0.03500301
2565.31380615,0.03495704
2567.24261353,0.03486605
2569.17142090,0.03480120
2571.10022827,0.03478603
2573.02903564,0.03478325
2574.95784302,0.03465068
2576.88665039,0.03471607
2578.81545776,0.03466323
2580.74426514,0.03441056
2582.67307251,0.03453816
2584.60187988,0.03459979
2586.53068726,0.03445604
2588.45949463,0.03442100
2590.38830200,0.03431774
2592.31710937,0.03425530
2594.24591675,0.03430500
2596.17472412,0.03432207
2598.10353149,0.03423407
2600.03233887,0.03405955
2601.96114624,0.03402855
2603.88995361,0.03412659
2605.81876099,0.03411994
2607.74756836,0.03399806
2609.67637573,0.03395044
2611.60518311,0.03391571
2613.53399048,0.03381209
2615.46279785,0.03370958
2617.39160522,0.03369863
2619.32041260,0.03385200
2621.24921997,0.03374870
2623.17802734,0.03366483
2625.10683472,0.03375222
2627.03564209,0.03356005
2628.96444946,0.03354816
2630.89325684,0.03348137
2632.82206421,0.03333386
2634.75087158,0.03346286
2636.67967895,0.03342301
2638.60848633,0.03331019
2640.53729370,0.03320579
2642.46610107,0.03321852
2644.39490845,0.03326092
2646.32371582,0.03313179
2648.25252319,0.03316971
2650.18133057,0.03321572
2652.11013794,0.03311365
2654.03894531,0.03301197
2655.96775269,0.03296920
2657.89656006,0.03294533
2659.82536743,0.03293190
2661.75417480,0.03290936
2663.68298218,0.03273301
2665.61178955,0.03273239
2667.54059692,0.03280358
2669.46940430,0.03262043
2671.39821167,0.03259029
2673.32701904,0.03258688
2675.25582642,0.03248830
2677.18463379,0.03250724
2679.11344116,0.03250845
2681.04224854,0.03245882
2682.97105591,0.03233867
2684.89986328,0.03231678
2686.82867065,0.03225858
2688.75747803,0.03209199
2690.68628540,0.03216177
2692.61509277,0.03215949
2694.54390015,0.03205360
2696.47270752,0.03200065
2698.40151489,0.03194836
2700.33032227,0.03196159
2702.25912964,0.03184841
2704.18793701,0.03174931
2706.11674438,0.03179038
2708.04555176,0.03174900
2709.97435913,0.03173199
2711.90316650,0.03180481
2713.83197388,0.03164646
2715.76078125,0.03146712
2717.68958862,0.03144531
2719.61839600,0.03140925
2721.54720337,0.03149200
2723.47601074,0.03139342
2725.40481812,0.03130929
2727.33362549,0.03132940
2729.26243286,0.03119992
2731.19124023,0.03122325
2733.12004761,0.03109288
2735.04885498,0.03099921
2736.97766235,0.03101434
2738.90646973,0.03096708
2740.83527710,0.03106254
2742.76408447,0.03099756
2744.69289185,0.03099010
2746.62169922,0.03086644
2748.55050659,0.03068475
2750.47931396,0.03074573
2752.40812134,0.03065656
2754.33692871,0.03075411
2756.26573608,0.03070012
2758.19454346,0.03046004
2760.12335083,0.03057831
2762.05215820,0.03049570
2763.98096558,0.03044425
2765.90977295,0.03043611
2767.83858032,0.03019708
2769.76738770,0.03023916
2771.69619507,0.03024314
2773.62500244,0.03016312
2775.55380981,0.03015231
2777.48261719,0.03005949
2779.41142456,0.03000136
2781.34023193,0.02986834
2783.26903931,0.02986524
2785.19784668,0.02982918
2787.12665405,0.02978948
2789.05546143,0.02978026
2790.98426880,0.02956543
2792.91307617,0.02967037
2794.84188354,0.02957540
2796.77069092,0.02934780
2798.69949829,0.02941987
2800.62830566,0.02931777
2802.55711304,0.02939112
2804.48592041,0.02939356
2806.41472778,0.02923882
2808.34353516,0.02916491
2810.27234253,0.02904476
2812.20114990,0.02898348
2814.12995728,0.02900925
2816.05876465,0.02909037
2817.98757202,0.02887931
2819.91637939,0.02886265
2821.84518677,0.02892039
2823.77399414,0.02855502
2825.70280151,0.02853587
2827.63160889,0.02860448
2829.56041626,0.02848475
2831.48922363,0.02840317
2833.41803101,0.02829315
2835.34683838,0.02821105
2837.27564575,0.02809958
2839.20445312,0.02808294
2841.13326050,0.02801558
2843.06206787,0.02777802
2844.99087524,0.02751877
2846.91968262,0.02723881
2848.84848999,0.02707853
2850.77729736,0.02714390
2852.70610474,0.02724374
2854.63491211,0.02730305
2856.56371948,0.02735584
2858.49252686,0.02730917
2860.42133423,0.02732522
2862.35014160,0.02737039
2864.27894897,0.02731324
2866.20775635,0.02720411
2868.13656372,0.02716289
2870.06537109,0.02716577
2871.99417847,0.02702102
2873.92298584,0.02710592
2875.85179321,0.02702445
2877.78060059,0.02675113
2879.70940796,0.02694196
2881.63821533,0.02686195
2883.56702270,0.02675729
2885.49583008,0.02681913
2887.42463745,0.02658837
2889.35344482,0.02655161
2891.28225220,0.02652866
2893.21105957,0.02643183
2895.13986694,0.02633185
2897.06867432,0.02624980
2898.99748169,0.02625275
2900.92628906,0.02607838
2902.85509644,0.02597852
2904.78390381,0.02592200
2906.71271118,0.02580693
2908.64151855,0.02571290
2910.57032593,0.02559113
2912.49913330,0.02541953
2914.42794067,0.02514749
2916.35674805,0.02506799
2918.28555542,0.02506093
2920.21436279,0.02507717
2922.14317017,0.02518873
2924.07197754,0.02523151
2926.00078491,0.02534430
2927.92959229,0.02534160
2929.85839966,0.02535425
2931.78720703,0.02548463
2933.71601440,0.02552187
2935.64482178,0.02551898
2937.57362915,0.02544941
2939.50243652,0.02555349
2941.43124390,0.02559008
2943.36005127,0.02537445
2945.28885864,0.02535365
2947.21766602,0.02538199
2949.14647339,0.02532495
2951.07528076,0.02531106
2953.00408813,0.02519992
2954.93289551,0.02507789
2956.86170288,0.02511802
2958.79051025,0.02506042
2960.71931763,0.02496257
2962.64812500,0.02496926
2964.57693237,0.02487424
2966.50573975,0.02485217
2968.43454712,0.02487216
2970.36335449,0.02483361
2972.29216187,0.02491134
2974.22096924,0.02491935
2976.14977661,0.02483675
2978.07858398,0.02487760
2980.00739136,0.02487692
2981.93619873,0.02482042
2983.86500610,0.02490821
2985.79381348,0.02483219
2987.72262085,0.02469590
2989.65142822,0.02474091
2991.58023560,0.02460874
2993.50904297,0.02456083
2995.43785034,0.02460401
2997.36665771,0.02442384
2999.29546509,0.02440306
3001.22427246,0.02445804
3003.15307983,0.02435065
3005.08188721,0.02424771
3007.01069458,0.02425252
3008.93950195,0.02428704
3010.86830933,0.02414456
3012.79711670,0.02408316
3014.72592407,0.02404747
3016.65473145,0.02378337
3018.58353882,0.02374768
3020.51234619,0.02380903
3022.44115356,0.02371548
3024.36996094,0.02361908
3026.29876831,0.02358064
3028.22757568,0.02360905
3030.15638306,0.02343616
3032.08519043,0.02331565
3034.01399780,0.02332430
3035.94280518,0.02332205
3037.87161255,0.02335103
3039.80041992,0.02322558
3041.72922729,0.02320421
3043.65803467,0.02306600
3045.58684204,0.02294842
3047.51564941,0.02304672
3049.44445679,0.02277632
3051.37326416,0.02264501
3053.30207153,0.02271046
3055.23087891,0.02261864
3057.15968628,0.02261185
3059.08849365,0.02255564
3061.01730103,0.02252329
3062.94610840,0.02253595
3064.87491577,0.02241881
3066.80372314,0.02237417
3068.73253052,0.02238819
3070.66133789,0.02221720
3072.59014526,0.02219400
3074.51895264,0.02221152
3076.44776001,0.02204948
3078.37656738,0.02210472
3080.30537476,0.02203245
3082.23418213,0.02188481
3084.16298950,0.02188661
3086.09179687,0.02175325
3088.02060425,0.02172962
3089.94941162,0.02173325
3091.87821899,0.02161896
3093.80702637,0.02145042
3095.73583374,0.02131921
3097.66464111,0.02135708
3099.59344849,0.02134032
3101.52225586,0.02126478
3103.45106323,0.02119190
3105.37987061,0.02115669
3107.30867798,0.02121355
3109.23748535,0.02110673
3111.16629272,0.02092322
3113.09510010,0.02093141
3115.02390747,0.02092462
3116.95271484,0.02074046
3118.88152222,0.02067343
3120.81032959,0.02069572
3122.73913696,0.02049028
3124.66794434,0.02043672
3126.59675171,0.02050253
3128.52555908,0.02038037
3130.45436645,0.02035925
3132.38317383,0.02025908
3134.31198120,0.02016981
3136.24078857,0.02014915
3138.16959595,0.02002807
3140.09840332,0.01999757
3142.02721069,0.01989054
3143.95601807,0.01980395
3145.88482544,0.01975745
3147.81363281,0.01972196
3149.74244019,0.01963313
3151.67124756,0.01952192
3153.60005493,0.01953854
3155.52886230,0.01938841
3157.45766968,0.01939070
3159.38647705,0.01926166
3161.31528442,0.01907259
3163.24409180,0.01920492
3165.17289917,0.01904099
3167.10170654,0.01895885
3169.03051392,0.01895475
3170.95932129,0.01885922
3172.88812866,0.01881501
3174.81693604,0.01874167
3176.74574341,0.01867477
3178.67455078,0.01851300
3180.60335815,0.01852147
3182.53216553,0.01846224
3184.46097290,0.01836686
3186.38978027,0.01837410
3188.31858765,0.01835646
3190.24739502,0.01827196
3192.17620239,0.01805888
3194.10500977,0.01809859
3196.03381714,0.01803322
3197.96262451,0.01795794
3199.89143188,0.01797528
3201.82023926,0.01788067
3203.74904663,0.01788637
3205.67785400,0.01776738
3207.60666138,0.01778310
3209.53546875,0.01772609
3211.46427612,0.01761290
3213.39308350,0.01769334
3215.32189087,0.01767290
3217.25069824,0.01763612
3219.17950562,0.01754336
3221.10831299,0.01749324
3223.03712036,0.01743073
3224.96592773,0.01739821
3226.89473511,0.01737425
3228.82354248,0.01731475
3230.75234985,0.01733740
3232.68115723,0.01732183
3234.60996460,0.01729700
3236.53877197,0.01722365
3238.46757935,0.01720851
3240.39638672,0.01712541
3242.32519409,0.01713854
3244.25400146,0.01716842
3246.18280884,0.01708558
3248.11161621,0.01711830
3250.04042358,0.01698171
3251.96923096,0.01707454
3253.89803833,0.01704930
3255.82684570,0.01688485
3257.75565308,0.01700837
3259.68446045,0.01698967
3261.61326782,0.01699631
3263.54207520,0.01688087
3265.47088257,0.01685630
3267.39968994,0.01688979
3269.32849731,0.01682056
3271.25730469,0.01685294
3273.18611206,0.01685289
3275.11491943,0.01682429
3277.04372681,0.01671682
3278.97253418,0.01684189
3280.90134155,0.01681821
3282.83014893,0.01674367
3284.75895630,0.01677503
3286.68776367,0.01664846
3288.61657104,0.01676556
3290.54537842,0.01668282
3292.47418579,0.01663878
3294.40299316,0.01670204
3296.33180054,0.01664786
3298.26060791,0.01668621
3300.18941528,0.01660706
3302.11822266,0.01660636
3304.04703003,0.01657655
3305.97583740,0.01662303
3307.90464478,0.01665715
3309.83345215,0.01659520
3311.76225952,0.01662809
3313.69106689,0.01653181
3315.61987427,0.01647562
3317.54868164,0.01650212
3319.47748901,0.01649520
3321.40629639,0.01641821
3323.33510376,0.01645599
3325.26391113,0.01648546
3327.19271851,0.01641455
3329.12152588,0.01640888
3331.05033325,0.01633750
3332.97914062,0.01638232
3334.90794800,0.01634669
3336.83675537,0.01627491
3338.76556274,0.01637155
3340.69437012,0.01633784
3342.62317749,0.01623635
3344.55198486,0.01619259
3346.48079224,0.01623352
3348.40959961,0.01630186
3350.33840698,0.01621126
3352.26721436,0.01612861
3354.19602173,0.01625319
3356.12482910,0.01616978
3358.05363647,0.01612398
3359.98244385,0.01629680
3361.91125122,0.01619142
3363.84005859,0.01603378
3365.76886597,0.01604771
3367.69767334,0.01610415
3369.62648071,0.01597884
3371.55528809,0.01598250
3373.48409546,0.01608407
3375.41290283,0.01598062
3377.34171020,0.01598168
3379.27051758,0.01605959
3381.19932495,0.01609666
3383.12813232,0.01595564
3385.05693970,0.01597198
3386.98574707,0.01602012
3388.91455444,0.01593317
3390.84336182,0.01591150
3392.77216919,0.01583144
3394.70097656,0.01591739
3396.62978394,0.01583370
3398.55859131,0.01581064
3400.48739868,0.01584161
3402.41620605,0.01588592
3404.34501343,0.01598525
3406.27382080,0.01576074
3408.20262817,0.01582853
3410.13143555,0.01579828
3412.06024292,0.01585718
3413.98905029,0.01593885
3415.91785767,0.01580196
3417.84666504,0.01589228
3419.77547241,0.01567770
3421.70427979,0.01580403
3423.63308716,0.01586475
3425.56189453,0.01568582
3427.49070190,0.01579786
3429.41950928,0.01575167
3431.34831665,0.01581568
3433.27712402,0.01585793
3435.20593140,0.01579984
3437.13473877,0.01563963
3439.06354614,0.01575842
3440.99235352,0.01584119
3442.92116089,0.01562453
3444.84996826,0.01571397
3446.77877563,0.01559186
3448.70758301,0.01563070
3450.63639038,0.01587377
3452.56519775,0.01582960
3454.49400513,0.01582871
3456.42281250,0.01585420
3458.35161987,0.01580195
3460.28042725,0.01563171
3462.20923462,0.01556104
3464.13804199,0.01570061
3466.06684937,0.01574694
3467.99565674,0.01570796
3469.92446411,0.01584306
3471.85327148,0.01583563
3473.78207886,0.01584622
3475.71088623,0.01584378
3477.63969360,0.01575013
3479.56850098,0.01580135
3481.49730835,0.01557428
3483.42611572,0.01575274
3485.35492310,0.01592660
3487.28373047,0.01573617
3489.21253784,0.01585405
3491.14134521,0.01585473
3493.07015259,0.01590054
3494.99895996,0.01586044
3496.92776733,0.01582168
3498.85657471,0.01586808
3500.78538208,0.01581128
3502.71418945,0.01561288
3504.64299683,0.01559675
3506.57180420,0.01597209
3508.50061157,0.01580339
3510.42941895,0.01574750
3512.35822632,0.01594729
3514.28703369,0.01599921
3516.21584106,0.01606199
3518.14464844,0.01589033
3520.07345581,0.01599722
3522.00226318,0.01589531
3523.93107056,0.01564129
3525.85987793,0.01579753
3527.78868530,0.01587448
3529.71749268,0.01579880
3531.64630005,0.01605935
3533.57510742,0.01635207
3535.50391479,0.01601638
3537.43272217,0.01592338
3539.36152954,0.01619235
3541.29033691,0.01616048
3543.21914429,0.01602897
3545.14795166,0.01570021
3547.07675903,0.01542303
3549.00556641,0.01596136
3550.93437378,0.01610055
3552.86318115,0.01564694
3554.79198853,0.01603521
3556.72079590,0.01613212
3558.64960327,0.01608065
3560.57841064,0.01605351
3562.50721802,0.01599820
3564.43602539,0.01614417
3566.36483276,0.01472848
3568.29364014,0.01422628
3570.22244751,0.01585286
3572.15125488,0.01635788
3574.08006226,0.01606485
3576.00886963,0.01617609
3577.93767700,0.01613215
3579.86648437,0.01611633
3581.79529175,0.01606903
3583.72409912,0.01618635
3585.65290649,0.01584252
3587.58171387,0.01423668
3589.51052124,0.01472939
3591.43932861,0.01631154
3593.36813599,0.01581770
3595.29694336,0.01543088
3597.22575073,0.01585120
3599.15455811,0.01610792
3601.08336548,0.01586870
3603.01217285,0.01614211
3604.94098022,0.01641619
3606.86978760,0.01563568
3608.79859497,0.01460059
3610.72740234,0.01500220
3612.65620972,0.01543845
3614.58501709,0.01486777
3616.51382446,0.01621562
3618.44263184,0.01484640
3620.37143921,0.01413441
3622.30024658,0.01637750
3624.22905395,0.01594852
3626.15786133,0.01678915
3628.08666870,0.01379532
3630.01547607,0.01226489
3631.94428345,0.01612244
3633.87309082,0.01577198
3635.80189819,0.01619265
3637.73070557,0.01649727
3639.65951294,0.01620582
3641.58832031,0.01632363
3643.51712769,0.01612609
3645.44593506,0.01636652
3647.37474243,0.01427616
3649.30354980,0.01302302
3651.23235718,0.01315802
3653.16116455,0.01616286
3655.08997192,0.01610426
3657.01877930,0.01391269
3658.94758667,0.01655649
3660.87639404,0.01623005
3662.80520142,0.01645584
3664.73400879,0.01650499
3666.66281616,0.01622380
3668.59162354,0.01566142
3670.52043091,0.01225420
3672.44923828,0.01546469
3674.37804565,0.01463397
3676.30685303,0.01154167
3678.23566040,0.01523711
3680.16446777,0.01576455
3682.09327515,0.01591195
3684.02208252,0.01642690
3685.95088989,0.01608850
3687.87969727,0.01422517
3689.80850464,0.01279832
3691.73731201,0.01490329
3693.66611938,0.01542394
3695.59492676,0.01604526
3697.52373413,0.01606579
3699.45254150,0.01585816
3701.38134888,0.01534493
3703.31015625,0.01457535
3705.23896362,0.01642175
3707.16777100,0.01550157
3709.09657837,0.01501375
3711.02538574,0.01400547
3712.95419312,0.01282445
3714.88300049,0.01556946
3716.81180786,0.01540609
3718.74061523,0.01542784
3720.66942261,0.01507768
3722.59822998,0.01447495
3724.52703735,0.01512495
3726.45584473,0.01389079
3728.38465210,0.01522131
3730.31345947,0.01506222
3732.24226685,0.01361951
3734.17107422,0.01318345
3736.09988159,0.01237200
3738.02868896,0.01328115
3739.95749634,0.01460648
3741.88630371,0.01541119
3743.81511108,0.01152710
3745.74391846,0.01061021
3747.67272583,0.01444587
3749.60153320,0.01218357
3751.53034058,0.01096752
3753.45914795,0.01306093
3755.38795532,0.01439140
3757.31676270,0.01494600
3759.24557007,0.01353218
3761.17437744,0.01415377
3763.10318481,0.01517121
3765.03199219,0.01396490
3766.96079956,0.01445024
3768.88960693,0.01425630
3770.81841431,0.01340492
3772.74722168,0.01481348
3774.67602905,0.01487224
3776.60483643,0.01481871
3778.53364380,0.01434922
3780.46245117,0.01361109
3782.39125854,0.01469788
3784.32006592,0.01444249
3786.24887329,0.01430750
3788.17768066,0.01459124
3790.10648804,0.01455029
3792.03529541,0.01436422
3793.96410278,0.01469081
3795.89291016,0.01380665
3797.82171753,0.01340328
3799.75052490,0.01436812
3801.67933228,0.01094766
3803.60813965,0.01309528
3805.53694702,0.01456364
3807.46575439,0.01131982
3809.39456177,0.01426524
3811.32336914,0.01397789
3813.25217651,0.01453715
3815.18098389,0.01297530
3817.10979126,0.01094295
3819.03859863,0.01451061
3820.96740601,0.01124760
3822.89621338,0.01199105
3824.82502075,0.01446889
3826.75382812,0.01279087
3828.68263550,0.01405496
3830.61144287,0.01343230
3832.54025024,0.01284092
3834.46905762,0.01308478
3836.39786499,0.01247955
3838.32667236,0.01109168
3840.25547974,0.01198798
3842.18428711,0.01322778
3844.11309448,0.01255036
3846.04190186,0.01371762
3847.97070923,0.01357825
3849.89951660,0.01356769
3851.82832397,0.01196283
3853.75713135,0.00860321
3855.68593872,0.01040987
3857.61474609,0.01349445
3859.54355347,0.01323009
3861.47236084,0.01294202
3863.40116821,0.01270227
3865.32997559,0.01158619
3867.25878296,0.01317704
3869.18759033,0.01198349
3871.11639770,0.01082951
3873.04520508,0.01325490
3874.97401245,0.01197748
3876.90281982,0.01320896
3878.83162720,0.01344167
3880.76043457,0.01117394
3882.68924194,0.01330153
3884.61804932,0.01221744
3886.54685669,0.01112599
3888.47566406,0.01338817
3890.40447144,0.01250116
3892.33327881,0.01156173
3894.26208618,0.01288268
3896.19089355,0.01321885
3898.11970093,0.01243908
3900.04850830,0.01162415
3901.97731567,0.01151823
3903.90612305,0.01135224
3905.83493042,0.01146062
3907.76373779,0.01288681
3909.69254517,0.01288918
3911.62135254,0.01267424
3913.55015991,0.01305413
3915.47896728,0.01251818
3917.40777466,0.01209504
3919.33658203,0.01195909
3921.26538940,0.01253318
3923.19419678,0.01248945
3925.12300415,0.01215016
3927.05181152,0.01240766
3928.98061890,0.01253950
3930.90942627,0.01231785
3932.83823364,0.01181313
3934.76704102,0.01238231
3936.69584839,0.01254268
3938.62465576,0.01239030
3940.55346313,0.01253983
3942.48227051,0.01198494
3944.41107788,0.01204329
3946.33988525,0.01230195
3948.26869263,0.01208692
3950.19750000,0.01201488
3952.12630737,0.01227475
3954.05511475,0.01228610
3955.98392212,0.01219512
3957.91272949,0.01224312
3959.84153687,0.01214140
3961.77034424,0.01214739
3963.69915161,0.01208673
3965.62795898,0.01217948
3967.55676636,0.01218048
3969.48557373,0.01205213
3971.41438110,0.01201455
3973.34318848,0.01200632
3975.27199585,0.01198471
3977.20080322,0.01194459
3979.12961060,0.01203497
3981.05841797,0.01192776
3982.98722534,0.01195139
3984.91603271,0.01186864
3986.84484009,0.01187783
3988.77364746,0.01188145
3990.70245483,0.01171653
3992.63126221,0.01181263
3994.56006958,0.01160302
3996.48887695,0.01177714
3998.41768433,0.01181497
4000.34649170,0.01166659
4002.27529907,0.01177050
4004.20410645,0.01163812
4006.13291382,0.01162929
4008.06172119,0.01150838
4009.99052856,0.01159529
4011.91933594,0.01153373
4013.84814331,0.01147700
4015.77695068,0.01146733
4017.70575806,0.01137431
4019.63456543,0.01152908
4021.56337280,0.01136796
4023.49218018,0.01145763
4025.42098755,0.01140445
4027.34979492,0.01136542
4029.27860229,0.01146696
4031.20740967,0.01138035
4033.13621704,0.01140985
4035.06502441,0.01122748
4036.99383179,0.01131669
4038.92263916,0.01129083
4040.85144653,0.01124124
4042.78025391,0.01121246
4044.70906128,0.01112724
4046.63786865,0.01117909
4048.56667603,0.01108374
4050.49548340,0.01119069
4052.42429077,0.01112632
4054.35309814,0.01116621
4056.28190552,0.01102487
4058.21071289,0.01089537
4060.13952026,0.01102925
4062.06832764,0.01090778
4063.99713501,0.01102283
4065.92594238,0.01088611
4067.85474976,0.01091038
4069.78355713,0.01097663
4071.71236450,0.01087552
4073.64117187,0.01090094
4075.56997925,0.01078852
4077.49878662,0.01086064
4079.42759399,0.01069962
4081.35640137,0.01071759
4083.28520874,0.01086653
4085.21401611,0.01076496
4087.14282349,0.01064774
4089.07163086,0.01060553
4091.00043823,0.01064815
4092.92924561,0.01050845
4094.85805298,0.01053964
4096.78686035,0.01054723
4098.71566772,0.01055373
4100.64447510,0.01050197
4102.57328247,0.01047982
4104.50208984,0.01053303
4106.43089722,0.01040595
4108.35970459,0.01047617
4110.28851196,0.01036371
4112.21731934,0.01041308
4114.14612671,0.01042782
4116.07493408,0.01030206
4118.00374145,0.01037008
4119.93254883,0.01024512
4121.86135620,0.01028209
4123.79016357,0.01024294
4125.71897095,0.01026367
4127.64777832,0.01030009
4129.57658569,0.01019929
4131.50539307,0.01019047
4133.43420044,0.01020266
4135.36300781,0.01023853
4137.29181519,0.01008526
4139.22062256,0.01005960
4141.14942993,0.01002925
4143.07823730,0.01007216
4145.00704468,0.01009890
4146.93585205,0.00995106
4148.86465942,0.01001595
4150.79346680,0.01002529
4152.72227417,0.01000937
4154.65108154,0.00994038
4156.57988892,0.00993161
4158.50869629,0.00988257
4160.43750366,0.00982099
4162.36631103,0.00988223
4164.29511841,0.00983447
4166.22392578,0.00975568
4168.15273315,0.00967819
4170.08154053,0.00980165
4172.01034790,0.00973392
4173.93915527,0.00973657
4175.86796265,0.00981934
4177.79677002,0.00964107
4179.72557739,0.00966761
4181.65438477,0.00962480
4183.58319214,0.00960881
4185.51199951,0.00957112
4187.44080688,0.00956194
4189.36961426,0.00958594
4191.29842163,0.00950361
4193.22722900,0.00949758
4195.15603638,0.00946063
4197.08484375,0.00950936
4199.01365112,0.00948086
4200.94245850,0.00952955
4202.87126587,0.00941648
4204.80007324,0.00931329
4206.72888062,0.00934079
4208.65768799,0.00921161
4210.58649536,0.00936802
4212.51530273,0.00929684
4214.44411011,0.00925151
4216.37291748,0.00927083
4218.30172485,0.00916531
4220.23053223,0.00920763
4222.15933960,0.00921517
4224.08814697,0.00929039
4226.01695435,0.00914372
4227.94576172,0.00915371
4229.87456909,0.00912083
4231.80337646,0.00903264
4233.73218384,0.00918369
4235.66099121,0.00914565
4237.58979858,0.00910832
4239.51860596,0.00896777
4241.44741333,0.00907501
4243.37622070,0.00908062
4245.30502808,0.00886164
4247.23383545,0.00900842
4249.16264282,0.00904115
4251.09145020,0.00893565
4253.02025757,0.00886170
4254.94906494,0.00886282
4256.87787231,0.00887981
4258.80667969,0.00890416
4260.73548706,0.00882387
4262.66429443,0.00875078
4264.59310181,0.00882679
4266.52190918,0.00884685
4268.45071655,0.00883651
4270.37952393,0.00870273
4272.30833130,0.00873843
4274.23713867,0.00872644
4276.16594604,0.00868702
4278.09475342,0.00875059
4280.02356079,0.00865409
4281.95236816,0.00867359
4283.88117554,0.00862488
4285.80998291,0.00862874
4287.73879028,0.00856750
4289.66759766,0.00849573
4291.59640503,0.00851939
4293.52521240,0.00842627
4295.45401978,0.00850099
4297.38282715,0.00849042
4299.31163452,0.00847722
4301.24044189,0.00842107
4303.16924927,0.00840139
4305.09805664,0.00847204
4307.02686401,0.00837931
4308.95567139,0.00838437
4310.88447876,0.00832149
4312.81328613,0.00832167
4314.74209351,0.00837568
4316.67090088,0.00834542
4318.59970825,0.00828515
4320.52851562,0.00822836
4322.45732300,0.00825948
4324.38613037,0.00817760
4326.31493774,0.00814247
4328.24374512,0.00813086
4330.17255249,0.00811018
4332.10135986,0.00815664
4334.03016724,0.00817838
4335.95897461,0.00813475
4337.88778198,0.00808905
4339.81658936,0.00809668
4341.74539673,0.00805383
4343.67420410,0.00807366
4345.60301147,0.00803543
4347.53181885,0.00799156
4349.46062622,0.00798345
4351.38943359,0.00794560
4353.31824097,0.00796437
4355.24704834,0.00792921
4357.17585571,0.00792088
4359.10466309,0.00788722
4361.03347046,0.00785194
4362.96227783,0.00781748
4364.89108520,0.00783242
4366.81989258,0.00783746
4368.74869995,0.00781610
4370.67750732,0.00785900
4372.60631470,0.00777326
4374.53512207,0.00783273
4376.46392944,0.00779194
4378.39273682,0.00771846
4380.32154419,0.00777451
4382.25035156,0.00762488
4384.17915894,0.00768408
4386.10796631,0.00775549
4388.03677368,0.00769300
4389.96558105,0.00770056
4391.89438843,0.00764754
4393.82319580,0.00755649
4395.75200317,0.00756782
4397.68081055,0.00755478
4399.60961792,0.00744807
4401.53842529,0.00753445
4403.46723267,0.00752908
4405.39604004,0.00744387
4407.32484741,0.00746115
4409.25365478,0.00744922
4411.18246216,0.00744861
4413.11126953,0.00750636
4415.04007690,0.00749284
4416.96888428,0.00732547
4418.89769165,0.00735423
4420.82649902,0.00732902
4422.75530640,0.00731870
4424.68411377,0.00736174
4426.61292114,0.00725651
4428.54172852,0.00732588
4430.47053589,0.00724802
4432.39934326,0.00721147
4434.32815063,0.00724340
4436.25695801,0.00719631
4438.18576538,0.00721610
4440.11457275,0.00720467
4442.04338013,0.00722978
4443.97218750,0.00711815
4445.90099487,0.00719346
4447.82980225,0.00724416
4449.75860962,0.00711185
4451.68741699,0.00710192
4453.61622437,0.00699912
4455.54503174,0.00704181
4457.47383911,0.00704672
4459.40264648,0.00696583
4461.33145386,0.00697797
4463.26026123,0.00694809
4465.18906860,0.00699252
4467.11787598,0.00698340
4469.04668335,0.00694584
4470.97549072,0.00697654
4472.90429810,0.00694140
4474.83310547,0.00693044
4476.76191284,0.00691588
4478.69072021,0.00685478
4480.61952759,0.00691278
4482.54833496,0.00681366
4484.47714233,0.00675485
4486.40594971,0.00686538
4488.33475708,0.00677394
4490.26356445,0.00679952
4492.19237183,0.00682142
4494.12117920,0.00677234
4496.04998657,0.00671489
4497.97879395,0.00670430
4499.90760132,0.00682322
4501.83640869,0.00668133
4503.76521606,0.00668175
4505.69402344,0.00674851
4507.62283081,0.00660896
4509.55163818,0.00661284
4511.48044556,0.00662933
4513.40925293,0.00663673
4515.33806030,0.00664187
4517.26686768,0.00658518
4519.19567505,0.00653449
4521.12448242,0.00654304
4523.05328979,0.00653209
4524.98209717,0.00653223
4526.91090454,0.00649917
4528.83971191,0.00641248
4530.76851929,0.00648868
4532.69732666,0.00652464
4534.62613403,0.00643177
4536.55494141,0.00637309
4538.48374878,0.00644166
4540.41255615,0.00644762
4542.34136353,0.00637419
4544.27017090,0.00644514
4546.19897827,0.00638166
4548.12778564,0.00628562
4550.05659302,0.00639429
4551.98540039,0.00645680
4553.91420776,0.00634674
4555.84301514,0.00632125
4557.77182251,0.00634648
4559.70062988,0.00621138
4561.62943726,0.00618237
4563.55824463,0.00624146
4565.48705200,0.00625507
4567.41585937,0.00623623
4569.34466675,0.00621737
4571.27347412,0.00624508
4573.20228149,0.00619726
4575.13108887,0.00611047
4577.05989624,0.00611237
4578.98870361,0.00610820
4580.91751099,0.00606349
4582.84631836,0.00609302
4584.77512573,0.00605953
4586.70393311,0.00607062
4588.63274048,0.00607295
4590.56154785,0.00601164
4592.49035522,0.00604971
4594.41916260,0.00593865
4596.34796997,0.00595723
4598.27677734,0.00601659
4600.20558472,0.00589628
4602.13439209,0.00587302
4604.06319946,0.00590741
4605.99200684,0.00595707
4607.92081421,0.00591958
4609.84962158,0.00592639
4611.77842895,0.00586601
4613.70723633,0.00577418
4615.63604370,0.00584275
4617.56485107,0.00584135
4619.49365845,0.00580095
4621.42246582,0.00580774
4623.35127319,0.00583164
4625.28008057,0.00574197
4627.20888794,0.00578218
4629.13769531,0.00582516
4631.06650269,0.00574146
4632.99531006,0.00577389
4634.92411743,0.00566206
4636.85292480,0.00564291
4638.78173218,0.00570079
4640.71053955,0.00563927
4642.63934692,0.00559990
4644.56815430,0.00560150
4646.49696167,0.00561425
4648.42576904,0.00560734
4650.35457642,0.00568260
4652.28338379,0.00567137
4654.21219116,0.00564522
4656.14099853,0.00557763
4658.06980591,0.00554848
4659.99861328,0.00554640
4661.92742065,0.00544654
4663.85622803,0.00556941
4665.78503540,0.00555119
4667.71384277,0.00548297
4669.64265015,0.00547191
4671.57145752,0.00544776
4673.50026489,0.00553053
4675.42907227,0.00543018
4677.35787964,0.00540335
4679.28668701,0.00541060
4681.21549438,0.00539557
4683.14430176,0.00540487
4685.07310913,0.00540611
4687.00191650,0.00541033
4688.93072388,0.00529192
4690.85953125,0.00533048
4692.78833862,0.00537735
4694.71714600,0.00530567
4696.64595337,0.00527566
4698.57476074,0.00532846
4700.50356812,0.00529709
4702.43237549,0.00521212
4704.36118286,0.00529071
4706.28999023,0.00528864
4708.21879761,0.00528556
4710.14760498,0.00521812
4712.07641235,0.00520065
4714.00521973,0.00525663
4715.93402710,0.00514516
4717.86283447,0.00515349
4719.79164185,0.00513454
4721.72044922,0.00512885
4723.64925659,0.00512557
4725.57806396,0.00509869
4727.50687134,0.00516295
4729.43567871,0.00506360
4731.36448608,0.00503657
4733.29329346,0.00513964
4735.22210083,0.00514914
4737.15090820,0.00510353
4739.07971558,0.00505216
4741.00852295,0.00497753
4742.93733032,0.00499393
4744.86613770,0.00503399
4746.79494507,0.00498497
4748.72375244,0.00501598
4750.65255981,0.00499429
4752.58136719,0.00498600
4754.51017456,0.00497884
4756.43898193,0.00496641
4758.36778931,0.00504451
4760.29659668,0.00496493
4762.22540405,0.00491338
4764.15421143,0.00493098
4766.08301880,0.00490661
4768.01182617,0.00484534
4769.94063354,0.00480467
4771.86944092,0.00483554
4773.79824829,0.00479109
4775.72705566,0.00484326
4777.65586304,0.00488212
4779.58467041,0.00481815
4781.51347778,0.00482742
4783.44228516,0.00482456
4785.37109253,0.00480446
4787.29989990,0.00476714
4789.22870728,0.00473649
4791.15751465,0.00469473
4793.08632202,0.00470374
4795.01512939,0.00476495
4796.94393677,0.00473156
4798.87274414,0.00469906
4800.80155151,0.00467914
4802.73035889,0.00468525
4804.65916626,0.00472969
4806.58797363,0.00470231
4808.51678101,0.00463265
4810.44558838,0.00459692
4812.37439575,0.00463137
4814.30320312,0.00465968
4816.23201050,0.00464150
4818.16081787,0.00461810
4820.08962524,0.00461572
4822.01843262,0.00458224
4823.94723999,0.00449639
4825.87604736,0.00451584
4827.80485474,0.00453674
4829.73366211,0.00449804
4831.66246948,0.00450399
4833.59127686,0.00450849
4835.52008423,0.00451603
4837.44889160,0.00451906
4839.37769897,0.00456174
4841.30650635,0.00448687
4843.23531372,0.00439813
4845.16412109,0.00446898
4847.09292847,0.00444956
4849.02173584,0.00443006
4850.95054321,0.00440024
4852.87935059,0.00442831
4854.80815796,0.00446415
4856.73696533,0.00438965
4858.66577270,0.00442670
4860.59458008,0.00436793
4862.52338745,0.00433798
4864.45219482,0.00438616
4866.38100220,0.00431922
4868.30980957,0.00427129
4870.23861694,0.00430531
4872.16742432,0.00435706
4874.09623169,0.00427141
4876.02503906,0.00426322
4877.95384644,0.00424031
4879.88265381,0.00415208
4881.81146118,0.00423481
4883.74026855,0.00426845
4885.66907593,0.00421421
4887.59788330,0.00419115
4889.52669067,0.00423145
4891.45549805,0.00418737
4893.38430542,0.00415862
4895.31311279,0.00420905
4897.24192017,0.00417984
4899.17072754,0.00419194
4901.09953491,0.00417216
4903.02834228,0.00413784
4904.95714966,0.00413522
4906.88595703,0.00411398
4908.81476440,0.00408096
4910.74357178,0.00408589
4912.67237915,0.00408589
4914.60118652,0.00405394
4916.52999390,0.00412639
4918.45880127,0.00408063
4920.38760864,0.00402180
4922.31641602,0.00408102
4924.24522339,0.00409735
4926.17403076,0.00409214
4928.10283813,0.00402963
4930.03164551,0.00399505
4931.96045288,0.00398107
4933.88926025,0.00398337
4935.81806763,0.00395799
4937.74687500,0.00392831
4939.67568237,0.00392572
4941.60448975,0.00388823
4943.53329712,0.00391174
4945.46210449,0.00395771
4947.39091187,0.00396212
4949.31971924,0.00388240
4951.24852661,0.00389025
4953.17733398,0.00387746
4955.10614136,0.00380949
4957.03494873,0.00384753
4958.96375610,0.00383405
4960.89256348,0.00388779
4962.82137085,0.00383681
4964.75017822,0.00381943
4966.67898560,0.00389322
4968.60779297,0.00380723
4970.53660034,0.00381227
4972.46540771,0.00374536
4974.39421509,0.00372921
4976.32302246,0.00382761
4978.25182983,0.00376111
4980.18063721,0.00373171
4982.10944458,0.00378032
4984.03825195,0.00374018
4985.96705933,0.00372461
4987.89586670,0.00376609
4989.82467407,0.00373107
4991.75348145,0.00369483
4993.68228882,0.00365446
4995.61109619,0.00371304
4997.53990356,0.00368809
4999.46871094,0.00359147
5001.39751831,0.00365391
5003.32632568,0.00359288
5005.25513306,0.00359877
5007.18394043,0.00362910
5009.11274780,0.00360787
5011.04155518,0.00360547
5012.97036255,0.00357747
5014.89916992,0.00362011
5016.82797729,0.00355146
5018.75678467,0.00354059
5020.68559204,0.00359029
5022.61439941,0.00359821
5024.54320679,0.00353140
5026.47201416,0.00349859
5028.40082153,0.00356224
5030.32962891,0.00353414
5032.25843628,0.00356759
5034.18724365,0.00348525
5036.11605103,0.00350177
5038.04485840,0.00357591
5039.97366577,0.00347244
5041.90247314,0.00341209
5043.83128052,0.00337949
5045.76008789,0.00347131
5047.68889526,0.00341894
5049.61770264,0.00346300
5051.54651001,0.00348570
5053.47531738,0.00337506
5055.40412476,0.00348871
5057.33293213,0.00342131
5059.26173950,0.00338031
5061.19054687,0.00334704
5063.11935425,0.00341597
5065.04816162,0.00346175
5066.97696899,0.00326851
5068.90577637,0.00336176
5070.83458374,0.00336646
5072.76339111,0.00333504
5074.69219849,0.00332548
5076.62100586,0.00329073
5078.54981323,0.00336921
5080.47862061,0.00325011
5082.40742798,0.00319374
5084.33623535,0.00328203
5086.26504272,0.00334122
5088.19385010,0.00323250
5090.12265747,0.00317887
5092.05146484,0.00328651
5093.98027222,0.00321646
5095.90907959,0.00320997
5097.83788696,0.00325370
5099.76669434,0.00321339
5101.69550171,0.00320718
5103.62430908,0.00318716
5105.55311645,0.00317629
5107.48192383,0.00315936
5109.41073120,0.00319072
5111.33953857,0.00323059
5113.26834595,0.00318563
5115.19715332,0.00324316
5117.12596069,0.00325039
5119.05476807,0.00318652
5120.98357544,0.00319918
5122.91238281,0.00307521
5124.84119019,0.00305238
5126.76999756,0.00306262
5128.69880493,0.00307193
5130.62761230,0.00314732
5132.55641968,0.00308385
5134.48522705,0.00313007
5136.41403442,0.00304740
5138.34284180,0.00303904
5140.27164917,0.00309150
5142.20045654,0.00295760
5144.12926392,0.00304211
5146.05807129,0.00298811
5147.98687866,0.00298363
5149.91568603,0.00305087
5151.84449341,0.00301585
5153.77330078,0.00311876
5155.70210815,0.00304976
5157.63091553,0.00299021
5159.55972290,0.00302172
5161.48853027,0.00300156
5163.41733765,0.00299936
5165.34614502,0.00301098
5167.27495239,0.00298341
5169.20375977,0.00298022
5171.13256714,0.00298188
5173.06137451,0.00291436
5174.99018188,0.00295361
5176.91898926,0.00289414
5178.84779663,0.00289618
5180.77660400,0.00291633
5182.70541138,0.00280888
5184.63421875,0.00289878
5186.56302612,0.00286359
5188.49183350,0.00285902
5190.42064087,0.00292443
5192.34944824,0.00281950
5194.27825562,0.00281582
5196.20706299,0.00285014
5198.13587036,0.00282736
5200.06467773,0.00279661
5201.99348511,0.00280685
5203.92229248,0.00280730
5205.85109985,0.00273124
5207.77990723,0.00262726
5209.70871460,0.00273121
5211.63752197,0.00286316
5213.56632935,0.00278391
5215.49513672,0.00280785
5217.42394409,0.00279691
5219.35275146,0.00274335
5221.28155884,0.00274861
5223.21036621,0.00272268
5225.13917358,0.00267798
5227.06798096,0.00263904
5228.99678833,0.00273760
5230.92559570,0.00271866
5232.85440308,0.00267918
5234.78321045,0.00273687
5236.71201782,0.00266701
5238.64082520,0.00270441
5240.56963257,0.00282557
5242.49843994,0.00274136
5244.42724731,0.00262709
5246.35605469,0.00263915
5248.28486206,0.00255456
5250.21366943,0.00263638
5252.14247681,0.00275343
5254.07128418,0.00259901
5256.00009155,0.00262483
5257.92889893,0.00261671
5259.85770630,0.00261419
5261.78651367,0.00268649
5263.71532104,0.00256756
5265.64412842,0.00259546
5267.57293579,0.00262360
5269.50174316,0.00261976
5271.43055054,0.00265282
5273.35935791,0.00261425
5275.28816528,0.00261508
5277.21697266,0.00259388
5279.14578003,0.00259776
5281.07458740,0.00254646
5283.00339478,0.00256829
5284.93220215,0.00260911
5286.86100952,0.00252365
5288.78981689,0.00252688
5290.71862427,0.00244435
5292.64743164,0.00250925
5294.57623901,0.00255638
5296.50504639,0.00244894
5298.43385376,0.00255893
5300.36266113,0.00248992
5302.29146851,0.00246917
5304.22027588,0.00252309
5306.14908325,0.00246558
5308.07789062,0.00251034
5310.00669800,0.00247853
5311.93550537,0.00253597
5313.86431274,0.00250131
5315.79312012,0.00243873
5317.72192749,0.00248144
5319.65073486,0.00239547
5321.57954224,0.00240253
5323.50834961,0.00241958
5325.43715698,0.00245066
5327.36596436,0.00241016
5329.29477173,0.00235200
5331.22357910,0.00245133
5333.15238647,0.00238525
5335.08119385,0.00233365
5337.01000122,0.00239822
5338.93880859,0.00229313
5340.86761597,0.00226734
5342.79642334,0.00238536
5344.72523071,0.00220437
5346.65403809,0.00219428
5348.58284546,0.00240953
5350.51165283,0.00229587
5352.44046020,0.00231379
5354.36926758,0.00232004
5356.29807495,0.00225162
5358.22688232,0.00233941
5360.15568970,0.00233876
5362.08449707,0.00233144
5364.01330444,0.00231148
5365.94211182,0.00233642
5367.87091919,0.00229154
5369.79972656,0.00228779
5371.72853394,0.00235682
5373.65734131,0.00225005
5375.58614868,0.00218925
5377.51495605,0.00214729
5379.44376343,0.00221635
5381.37257080,0.00225442
5383.30137817,0.00220990
5385.23018555,0.00225693
5387.15899292,0.00215249
5389.08780029,0.00220617
5391.01660767,0.00227330
5392.94541504,0.00215707
5394.87422241,0.00217405
5396.80302978,0.00217698
5398.73183716,0.00225195
5400.66064453,0.00223263
5402.58945190,0.00210151
5404.51825928,0.00218779
5406.44706665,0.00219587
5408.37587402,0.00216143
5410.30468140,0.00215192
5412.23348877,0.00209920
5414.16229614,0.00210582
5416.09110352,0.00214602
5418.01991089,0.00223116
5419.94871826,0.00215003
5421.87752563,0.00211182
5423.80633301,0.00213094
5425.73514038,0.00209505
5427.66394775,0.00217751
5429.59275513,0.00202066
5431.52156250,0.00201395
5433.45036987,0.00212428
5435.37917725,0.00196381
5437.30798462,0.00202674
5439.23679199,0.00211104
5441.16559936,0.00207879
5443.09440674,0.00210702
5445.02321411,0.00206957
5446.95202148,0.00201978
5448.88082886,0.00209860
5450.80963623,0.00207318
5452.73844360,0.00203164
5454.66725098,0.00205032
5456.59605835,0.00193992
5458.52486572,0.00210830
5460.45367310,0.00208149
5462.38248047,0.00195443
5464.31128784,0.00207017
5466.24009521,0.00196160
5468.16890259,0.00200108
5470.09770996,0.00195233
5472.02651733,0.00200958
5473.95532471,0.00204421
5475.88413208,0.00183450
5477.81293945,0.00201298
5479.74174683,0.00198752
5481.67055420,0.00196807
5483.59936157,0.00202898
5485.52816895,0.00194201
5487.45697632,0.00196352
5489.38578369,0.00185889
5491.31459106,0.00189604
5493.24339844,0.00193139
5495.17220581,0.00192768
5497.10101318,0.00195627
5499.02982056,0.00193303
5500.95862793,0.00195753
5502.88743530,0.00188923
5504.81624268,0.00194132
5506.74505005,0.00196494
5508.67385742,0.00186958
5510.60266479,0.00192142
5512.53147217,0.00192131
5514.46027954,0.00182844
5516.38908691,0.00192008
5518.31789429,0.00196434
5520.24670166,0.00184540
5522.17550903,0.00186746
5524.10431641,0.00185461
5526.03312378,0.00185034
5527.96193115,0.00185476
5529.89073853,0.00183250
5531.81954590,0.00186544
5533.74835327,0.00183441
5535.67716064,0.00183311
5537.60596802,0.00182097
5539.53477539,0.00189621
5541.46358276,0.00182524
5543.39239014,0.00175026
5545.32119751,0.00188950
5547.25000488,0.00179438
5549.17881226,0.00179259
5551.10761963,0.00179212
5553.03642700,0.00174246
5554.96523437,0.00182327
5556.89404175,0.00174267
5558.82284912,0.00175632
5560.75165649,0.00183566
5562.68046387,0.00181051
5564.60927124,0.00180055
5566.53807861,0.00179107
5568.46688599,0.00175039
5570.39569336,0.00177206
5572.32450073,0.00176546
5574.25330811,0.00170852
5576.18211548,0.00174219
5578.11092285,0.00173486
5580.03973022,0.00176102
5581.96853760,0.00178350
5583.89734497,0.00177592
5585.82615234,0.00169075
5587.75495972,0.00166130
5589.68376709,0.00180730
5591.61257446,0.00172330
5593.54138184,0.00171878
5595.47018921,0.00171475
5597.39899658,0.00162431
5599.32780395,0.00167267
5601.25661133,0.00166154
5603.18541870,0.00175840
5605.11422607,0.00167225
5607.04303345,0.00163146
5608.97184082,0.00170696
5610.90064819,0.00161254
5612.82945557,0.00169641
5614.75826294,0.00166681
5616.68707031,0.00164052
5618.61587769,0.00170329
5620.54468506,0.00167887
5622.47349243,0.00170305
5624.40229980,0.00166334
5626.33110718,0.00165985
5628.25991455,0.00170207
5630.18872192,0.00164412
5632.11752930,0.00154968
5634.04633667,0.00164073
5635.97514404,0.00167701
5637.90395142,0.00162323
5639.83275879,0.00165192
5641.76156616,0.00156237
5643.69037353,0.00159683
5645.61918091,0.00160766
5647.54798828,0.00157917
5649.47679565,0.00164388
5651.40560303,0.00155738
5653.33441040,0.00152476
5655.26321777,0.00155294
5657.19202515,0.00157948
5659.12083252,0.00157714
5661.04963989,0.00158498
5662.97844727,0.00157979
5664.90725464,0.00156406
5666.83606201,0.00158139
5668.76486938,0.00146721
5670.69367676,0.00155154
5672.62248413,0.00160186
5674.55129150,0.00150061
5676.48009888,0.00157848
5678.40890625,0.00156562
5680.33771362,0.00155847
5682.26652100,0.00149771
5684.19532837,0.00142828
5686.12413574,0.00152762
5688.05294311,0.00150182
5689.98175049,0.00148222
5691.91055786,0.00152015
5693.83936523,0.00147264
5695.76817261,0.00154289
5697.69697998,0.00155185
5699.62578735,0.00139669
5701.55459473,0.00149357
5703.48340210,0.00155114
5705.41220947,0.00144725
5707.34101685,0.00148987
5709.26982422,0.00148944
5711.19863159,0.00144960
5713.12743896,0.00139554
5715.05624634,0.00141115
5716.98505371,0.00148533
5718.91386108,0.00147924
5720.84266846,0.00146280
5722.77147583,0.00144716
5724.70028320,0.00144613
5726.62909058,0.00136694
5728.55789795,0.00133303
5730.48670532,0.00139582
5732.41551270,0.00139413
5734.34432007,0.00134873
5736.27312744,0.00139676
5738.20193481,0.00143827
5740.13074219,0.00135495
5742.05954956,0.00139282
5743.98835693,0.00139680
5745.91716431,0.00140823
5747.84597168,0.00138615
5749.77477905,0.00130745
5751.70358643,0.00141894
5753.63239380,0.00134212
5755.56120117,0.00135534
5757.49000854,0.00140865
5759.41881592,0.00136458
5761.34762329,0.00144417
5763.27643066,0.00133557
5765.20523804,0.00135788
5767.13404541,0.00134844
5769.06285278,0.00124167
5770.99166016,0.00133111
5772.92046753,0.00137038
5774.84927490,0.00135521
5776.77808228,0.00131591
5778.70688965,0.00136149
5780.63569702,0.00135770
5782.56450439,0.00131716
5784.49331177,0.00133931
5786.42211914,0.00132807
5788.35092651,0.00129194
5790.27973389,0.00126510
5792.20854126,0.00135479
5794.13734863,0.00128955
5796.06615601,0.00127164
5797.99496338,0.00137122
5799.92377075,0.00126456
5801.85257812,0.00128335
5803.78138550,0.00133883
5805.71019287,0.00125408
5807.63900024,0.00124826
5809.56780762,0.00128274
5811.49661499,0.00124645
5813.42542236,0.00126169
5815.35422974,0.00124601
5817.28303711,0.00117732
5819.21184448,0.00124372
5821.14065186,0.00126358
5823.06945923,0.00123065
5824.99826660,0.00118108
5826.92707397,0.00117859
5828.85588135,0.00123094
5830.78468872,0.00119627
5832.71349609,0.00120799
5834.64230347,0.00120539
5836.57111084,0.00121577
5838.49991821,0.00122850
5840.42872559,0.00116809
5842.35753296,0.00118624
5844.28634033,0.00121824
5846.21514770,0.00122655
5848.14395508,0.00121892
5850.07276245,0.00113420
5852.00156982,0.00116708
5853.93037720,0.00126246
5855.85918457,0.00117934
5857.78799194,0.00120330
5859.71679932,0.00120287
5861.64560669,0.00115075
5863.57441406,0.00125218
5865.50322144,0.00113878
5867.43202881,0.00106882
5869.36083618,0.00113481
5871.28964355,0.00111341
5873.21845093,0.00109317
5875.14725830,0.00110801
5877.07606567,0.00115275
5879.00487305,0.00111729
5880.93368042,0.00113099
5882.86248779,0.00113484
5884.79129517,0.00116152
5886.72010254,0.00112371
5888.64890991,0.00105429
5890.57771728,0.00114203
5892.50652466,0.00107502
5894.43533203,0.00117276
5896.36413940,0.00122785
5898.29294678,0.00111766
5900.22175415,0.00119812
5902.15056152,0.00115570
5904.07936890,0.00114307
5906.00817627,0.00113139
5907.93698364,0.00114449
5909.86579102,0.00113932
5911.79459839,0.00104433
5913.72340576,0.00114393
5915.65221313,0.00112661
5917.58102051,0.00109398
5919.50982788,0.00116791
5921.43863525,0.00117054
5923.36744263,0.00112629
5925.29625000,0.00102183
5927.22505737,0.00102882
5929.15386475,0.00107672
5931.08267212,0.00107100
5933.01147949,0.00107894
5934.94028686,0.00105564
5936.86909424,0.00104390
5938.79790161,0.00109171
5940.72670898,0.00108435
5942.65551636,0.00101384
5944.58432373,0.00101627
5946.51313110,0.00102477
5948.44193848,0.00102898
5950.37074585,0.00109246
5952.29955322,0.00103591
5954.22836060,0.00097513
5956.15716797,0.00107933
5958.08597534,0.00103733
5960.01478271,0.00095804
5961.94359009,0.00096519
5963.87239746,0.00099568
5965.80120483,0.00104363
5967.73001221,0.00090491
5969.65881958,0.00095003
5971.58762695,0.00102161
5973.51643433,0.00094173
5975.44524170,0.00100302
5977.37404907,0.00092423
5979.30285645,0.00096380
5981.23166382,0.00100923
5983.16047119,0.00093641
5985.08927856,0.00099822
5987.01808594,0.00096873
5988.94689331,0.00099035
5990.87570068,0.00099541
5992.80450806,0.00100700
5994.73331543,0.00100611
5996.66212280,0.00093541
5998.59093018,0.00105219
6000.51973755,0.00101090
