399.26312622,0.00020726
401.19193359,0.00023627
403.12074097,0.00067543
405.04954834,0.00099961
406.97835571,0.00035126
408.90716309,0.00053102
410.83597046,0.00045266
412.76477783,0.00012336
414.69358521,0.00071228
416.62239258,0.00059653
418.55119995,0.00025991
420.48000732,0.00040707
422.40881470,0.00026464
424.33762207,0.00045458
426.26642944,0.00026636
428.19523682,-0.00005169
430.12404419,0.00045835
432.05285156,0.00022931
433.98165894,0.00042053
435.91046631,0.00078514
437.83927368,-0.00005519
439.76808105,0.00026726
441.69688843,0.00063722
443.62569580,0.00033362
445.55450317,0.00043183
447.48331055,0.00019231
449.41211792,0.00019417
451.34092529,0.00016033
453.26973267,-0.00003750
455.19854004,0.00044351
457.12734741,0.00046053
459.05615479,-0.00009002
460.98496216,0.00032275
462.91376953,0.00048359
464.84257690,0.00012832
466.77138428,0.00017376
468.70019165,0.00013941
470.62899902,0.00035971
472.55780640,0.00009250
474.48661377,-0.00008599
476.41542114,0.00016885
478.34422852,0.00012981
480.27303589,0.00021664
482.20184326,0.00016882
484.13065063,0.00029748
486.05945801,0.00027478
487.98826538,0.00016720
489.91707275,0.00008999
491.84588013,0.00006157
493.77468750,0.00024173
495.70349487,0.00012301
497.63230225,0.00006639
499.56110962,-0.00006055
501.48991699,-0.00005628
503.41872437,-0.00004410
505.34753174,0.00021067
507.27633911,0.00053424
509.20514648,-0.00003125
511.13395386,0.00010119
513.06276123,0.00026915
514.99156860,-0.00016257
516.92037598,0.00013477
518.84918335,0.00031625
520.77799072,0.00032829
522.70679810,0.00030608
524.63560547,0.00031785
526.56441284,0.00035935
528.49322021,0.00027469
530.42202759,0.00015980
532.35083496,0.00021732
534.27964233,0.00021561
536.20844971,-0.00007331
538.13725708,0.00003180
540.06606445,0.00002260
541.99487183,0.00007404
543.92367920,0.00022142
545.85248657,-0.00003234
547.78129395,0.00022488
549.71010132,0.00047016
551.63890869,0.00022509
553.56771606,0.00002298
555.49652344,0.00013576
557.42533081,0.00017928
559.35413818,0.00002845
561.28294556,0.00001441
563.21175293,0.00021982
565.14056030,0.00027254
567.06936768,-0.00013634
568.99817505,-0.00016852
570.92698242,-0.00004529
572.85578979,-0.00012385
574.78459717,0.00032116
576.71340454,0.00020140
578.64221191,-0.00015745
580.57101929,0.00030851
582.49982666,0.00008978
584.42863403,0.00000091
586.35744141,0.00020445
588.28624878,-0.00005715
590.21505615,0.00019585
592.14386353,0.00054988
594.07267090,0.00045475
596.00147827,0.00023923
597.93028564,0.00003173
599.85909302,0.00005509
601.78790039,0.00029699
603.71670776,0.00027258
605.64551514,0.00012124
607.57432251,0.00005068
609.50312988,0.00000590
611.43193726,-0.00009187
613.36074463,0.00018846
615.28955200,0.00017630
617.21835938,-0.00008743
619.14716675,0.00016228
621.07597412,-0.00000503
623.00478149,0.00009564
624.93358887,0.00011353
626.86239624,-0.00020668
628.79120361,0.00006048
630.72001099,0.00006295
632.64881836,0.00013131
634.57762573,0.00028851
636.50643311,0.00028159
638.43524048,0.00031883
640.36404785,0.00027797
642.29285522,0.00026230
644.22166260,0.00052252
646.15046997,0.00073821
648.07927734,0.00056059
650.00808472,0.00059566
651.93689209,0.00063383
653.86569946,0.00054130
655.79450684,0.00064587
657.72331421,0.00077078
659.65212158,0.00061129
661.58092896,0.00039489
663.50973633,0.00049401
665.43854370,0.00053106
667.36735107,0.00061076
669.29615845,0.00069594
671.22496582,0.00075488
673.15377319,0.00073593
675.08258057,0.00065131
677.01138794,0.00085563
678.94019531,0.00084936
680.86900269,0.00086542
682.79781006,0.00090300
684.72661743,0.00076448
686.65542480,0.00083791
688.58423218,0.00060982
690.51303955,0.00049240
692.44184692,0.00088594
694.37065430,0.00112672
696.29946167,0.00123191
698.22826904,0.00107521
700.15707642,0.00115385
702.08588379,0.00146676
704.01469116,0.00099999
705.94349854,0.00096349
707.87230591,0.00109293
709.80111328,0.00051820
711.72992065,0.00049930
713.65872803,0.00038476
715.58753540,0.00035769
717.51634277,0.00034771
719.44515015,-0.00021250
721.37395752,0.00016212
723.30276489,0.00032179
725.23157227,-0.00002218
727.16037964,0.00016831
729.08918701,0.00014230
731.01799438,0.00018655
732.94680176,0.00028782
734.87560913,0.00011352
736.80441650,-0.00015558
738.73322388,0.00001450
740.66203125,0.00034459
742.59083862,0.00027190
744.51964600,0.00034442
746.44845337,0.00041672
748.37726074,0.00023078
750.30606812,0.00032277
752.23487549,0.00015430
754.16368286,0.00016419
756.09249023,0.00026257
758.02129761,0.00013185
759.95010498,0.00042767
761.87891235,0.00030639
763.80771973,0.00009979
765.73652710,0.00032161
767.66533447,0.00036189
769.59414185,0.00031906
771.52294922,0.00024947
773.45175659,0.00035353
775.38056396,0.00040164
777.30937134,0.00017114
779.23817871,0.00012867
781.16698608,0.00026553
783.09579346,0.00016570
785.02460083,0.00013126
786.95340820,0.00026653
788.88221558,0.00022147
790.81102295,0.00011502
792.73983032,0.00013680
794.66863770,0.00038587
796.59744507,0.00020379
798.52625244,-0.00003324
800.45505981,0.00034131
802.38386719,0.00026411
804.31267456,0.00008274
806.24148193,0.00035975
808.17028931,0.00046093
810.09909668,0.00025334
812.02790405,0.00012666
813.95671143,0.00031209
815.88551880,0.00040479
817.81432617,0.00019177
819.74313354,0.00002368
821.67194092,0.00015389
823.60074829,0.00015558
825.52955566,0.00007586
827.45836304,0.00025575
829.38717041,0.00030821
831.31597778,0.00023405
833.24478516,0.00014552
835.17359253,0.00020595
837.10239990,0.00036672
839.03120728,0.00039106
840.96001465,0.00025897
842.88882202,0.00023931
844.81762939,0.00036413
846.74643677,0.00025861
848.67524414,0.00056471
850.60405151,0.00052281
852.53285889,0.00026048
854.46166626,0.00066448
856.39047363,0.00037504
858.31928101,0.00026801
860.24808838,0.00042243
862.17689575,0.00028501
864.10570313,0.00031328
866.03451050,0.00005969
867.96331787,0.00023120
869.89212524,0.00048485
871.82093262,0.00049362
873.74973999,0.00032728
875.67854736,0.00023180
877.60735474,0.00051581
879.53616211,0.00028965
881.46496948,0.00034415
883.39377686,0.00036183
885.32258423,0.00011142
887.25139160,0.00046688
889.18019897,0.00039905
891.10900635,0.00026714
893.03781372,0.00045978
894.96662109,0.00050658
896.89542847,0.00060010
898.82423584,0.00057055
900.75304321,0.00038597
902.68185059,0.00025565
904.61065796,0.00037436
906.53946533,0.00054087
908.46827271,0.00037324
910.39708008,0.00025558
912.32588745,0.00046770
914.25469482,0.00051421
916.18350220,0.00067588
918.11230957,0.00069918
920.04111694,0.00032666
921.96992432,0.00050238
923.89873169,0.00059743
925.82753906,0.00057207
927.75634644,0.00067867
929.68515381,0.00052079
931.61396118,0.00065751
933.54276855,0.00073090
935.47157593,0.00066448
937.40038330,0.00067442
939.32919067,0.00058197
941.25799805,0.00060584
943.18680542,0.00073932
945.11561279,0.00070125
947.04442017,0.00045299
948.97322754,0.00053945
950.90203491,0.00073728
952.83084229,0.00069842
954.75964966,0.00069727
956.68845703,0.00078352
958.61726440,0.00083754
960.54607178,0.00067771
962.47487915,0.00071968
964.40368652,0.00101050
966.33249390,0.00083248
968.26130127,0.00060713
970.19010864,0.00072963
972.11891602,0.00058723
974.04772339,0.00076832
975.97653076,0.00105981
977.90533813,0.00090438
979.83414551,0.00103501
981.76295288,0.00103566
983.69176025,0.00106575
985.62056763,0.00116851
987.54937500,0.00109919
989.47818237,0.00117641
991.40698975,0.00120948
993.33579712,0.00145013
995.26460449,0.00165244
997.19341187,0.00165126
999.12221924,0.00162487
1001.05102661,0.00174900
1002.97983398,0.00196347
1004.90864136,0.00200511
1006.83744873,0.00211700
1008.76625610,0.00215433
1010.69506348,0.00235323
1012.62387085,0.00262003
1014.55267822,0.00266666
1016.48148560,0.00269782
1018.41029297,0.00264725
1020.33910034,0.00277484
1022.26790771,0.00299185
1024.19671509,0.00303396
1026.12552246,0.00305983
1028.05432983,0.00321194
1029.98313721,0.00319238
1031.91194458,0.00321197
1033.84075195,0.00351362
1035.76955933,0.00342790
1037.69836670,0.00337433
1039.62717407,0.00353964
1041.55598145,0.00350187
1043.48478882,0.00355188
1045.41359619,0.00358668
1047.34240356,0.00355243
1049.27121094,0.00340304
1051.20001831,0.00328435
1053.12882568,0.00345343
1055.05763306,0.00342675
1056.98644043,0.00315861
1058.91524780,0.00301898
1060.84405518,0.00307888
1062.77286255,0.00304052
1064.70166992,0.00271740
1066.63047729,0.00267659
1068.55928467,0.00269566
1070.48809204,0.00248768
1072.41689941,0.00261302
1074.34570679,0.00263066
1076.27451416,0.00238530
1078.20332153,0.00239843
1080.13212891,0.00232406
1082.06093628,0.00206492
1083.98974365,0.00193847
1085.91855103,0.00178919
1087.84735840,0.00177950
1089.77616577,0.00193643
1091.70497314,0.00189511
1093.63378052,0.00188012
1095.56258789,0.00170857
1097.49139526,0.00158800
1099.42020264,0.00169254
1101.34901001,0.00148965
1103.27781738,0.00151026
1105.20662476,0.00155432
1107.13543213,0.00147093
1109.06423950,0.00164039
1110.99304687,0.00163471
1112.92185425,0.00166063
1114.85066162,0.00158635
1116.77946899,0.00138778
1118.70827637,0.00151212
1120.63708374,0.00164281
1122.56589111,0.00158392
1124.49469849,0.00152904
1126.42350586,0.00154566
1128.35231323,0.00163863
1130.28112061,0.00182739
1132.20992798,0.00169116
1134.13873535,0.00155249
1136.06754272,0.00173693
1137.99635010,0.00175285
1139.92515747,0.00187042
1141.85396484,0.00200699
1143.78277222,0.00202623
1145.71157959,0.00213078
1147.64038696,0.00223179
1149.56919434,0.00248100
1151.49800171,0.00267036
1153.42680908,0.00259897
1155.35561646,0.00255865
1157.28442383,0.00270503
1159.21323120,0.00283539
1161.14203857,0.00267930
1163.07084595,0.00267727
1164.99965332,0.00302184
1166.92846069,0.00300024
1168.85726807,0.00312533
1170.78607544,0.00346580
1172.71488281,0.00337652
1174.64369019,0.00351770
1176.57249756,0.00368034
1178.50130493,0.00376830
1180.43011230,0.00396838
1182.35891968,0.00408762
1184.28772705,0.00418668
1186.21653442,0.00431411
1188.14534180,0.00472472
1190.07414917,0.00477228
1192.00295654,0.00489601
1193.93176392,0.00525721
1195.86057129,0.00516840
1197.78937866,0.00551333
1199.71818604,0.00594527
1201.64699341,0.00611287
1203.57580078,0.00637567
1205.50460815,0.00655580
1207.43341553,0.00680971
1209.36222290,0.00714646
1211.29103027,0.00729916
1213.21983765,0.00729845
1215.14864502,0.00740840
1217.07745239,0.00757982
1219.00625977,0.00781303
1220.93506714,0.00783722
1222.86387451,0.00792058
1224.79268188,0.00810564
1226.72148926,0.00801191
1228.65029663,0.00812538
1230.57910400,0.00816346
1232.50791138,0.00813109
1234.43671875,0.00807724
1236.36552612,0.00812089
1238.29433350,0.00828267
1240.22314087,0.00801959
1242.15194824,0.00796635
1244.08075562,0.00801123
1246.00956299,0.00806051
1247.93837036,0.00804154
1249.86717773,0.00778555
1251.79598511,0.00784807
1253.72479248,0.00777243
1255.65359985,0.00758952
1257.58240723,0.00760608
1259.51121460,0.00761919
1261.44002197,0.00748316
1263.36882935,0.00731522
1265.29763672,0.00714892
1267.22644409,0.00694703
1269.15525146,0.00696028
1271.08405884,0.00694292
1273.01286621,0.00688253
1274.94167358,0.00669673
1276.87048096,0.00651513
1278.79928833,0.00646993
1280.72809570,0.00639050
1282.65690308,0.00636824
1284.58571045,0.00617493
1286.51451782,0.00600930
1288.44332520,0.00579712
1290.37213257,0.00567173
1292.30093994,0.00582760
1294.22974731,0.00583211
1296.15855469,0.00572967
1298.08736206,0.00582076
1300.01616943,0.00592033
1301.94497681,0.00567849
1303.87378418,0.00581636
1305.80259155,0.00593631
1307.73139893,0.00594942
1309.66020630,0.00618222
1311.58901367,0.00595918
1313.51782104,0.00623985
1315.44662842,0.00646087
1317.37543579,0.00631295
1319.30424316,0.00666915
1321.23305054,0.00691251
1323.16185791,0.00697895
1325.09066528,0.00706739
1327.01947266,0.00739908
1328.94828003,0.00752287
1330.87708740,0.00768826
1332.80589478,0.00800663
1334.73470215,0.00796024
1336.66350952,0.00807862
1338.59231689,0.00795277
1340.52112427,0.00802477
1342.44993164,0.00846059
1344.37873901,0.00853701
1346.30754639,0.00858765
1348.23635376,0.00850972
1350.16516113,0.00832203
1352.09396851,0.00826623
1354.02277588,0.00832584
1355.95158325,0.00822140
1357.88039062,0.00811834
1359.80919800,0.00804780
1361.73800537,0.00764165
1363.66681274,0.00762685
1365.59562012,0.00793304
1367.52442749,0.00777749
1369.45323486,0.00770289
1371.38204224,0.00773428
1373.31084961,0.00746672
1375.23965698,0.00744986
1377.16846436,0.00751628
1379.09727173,0.00758312
1381.02607910,0.00767031
1382.95488647,0.00760735
1384.88369385,0.00766608
1386.81250122,0.00738022
1388.74130859,0.00737420
1390.67011597,0.00790063
1392.59892334,0.00760999
1394.52773071,0.00710029
1396.45653809,0.00758741
1398.38534546,0.00760207
1400.31415283,0.00739864
1402.24296021,0.00810593
1404.17176758,0.00757882
1406.10057495,0.00751440
1408.02938232,0.00805091
1409.95818970,0.00742672
1411.88699707,0.00764190
1413.81580444,0.00765715
1415.74461182,0.00764098
1417.67341919,0.00693011
1419.60222656,0.00607922
1421.53103394,0.00706792
1423.45984131,0.00695539
1425.38864868,0.00691039
1427.31745605,0.00706717
1429.24626343,0.00635995
1431.17507080,0.00636014
1433.10387817,0.00643493
1435.03268555,0.00580585
1436.96149292,0.00498803
1438.89030029,0.00573645
1440.81910767,0.00596151
1442.74791504,0.00561034
1444.67672241,0.00594459
1446.60552979,0.00524715
1448.53433716,0.00542159
1450.46314453,0.00563083
1452.39195190,0.00566083
1454.32075928,0.00593970
1456.24956665,0.00478024
1458.17837402,0.00509749
1460.10718140,0.00648995
1462.03598877,0.00689445
1463.96479614,0.00704087
1465.89360352,0.00702970
1467.82241089,0.00800683
1469.75121826,0.00834888
1471.68002563,0.00728810
1473.60883301,0.00774816
1475.53764038,0.00880254
1477.46644775,0.00967756
1479.39525513,0.01041347
1481.32406250,0.01044475
1483.25286987,0.01121591
1485.18167725,0.01154889
1487.11048462,0.01131812
1489.03929199,0.01100597
1490.96809937,0.01105354
1492.89690674,0.01300574
1494.82571411,0.01257321
1496.75452148,0.01126623
1498.68332886,0.01284468
1500.61213623,0.01319673
1502.54094360,0.01414945
1504.46975098,0.01309252
1506.39855835,0.00920749
1508.32736572,0.01174350
1510.25617310,0.01369499
1512.18498047,0.01317197
1514.11378784,0.01449767
1516.04259521,0.01274070
1517.97140259,0.01354521
1519.90020996,0.01300851
1521.82901733,0.01097257
1523.75782471,0.01388572
1525.68663208,0.01345318
1527.61543945,0.01340785
1529.54424683,0.01509503
1531.47305420,0.01442106
1533.40186157,0.01307554
1535.33066895,0.01403031
1537.25947632,0.01500642
1539.18828369,0.01018216
1541.11709106,0.01097938
1543.04589844,0.01326859
1544.97470581,0.01257043
1546.90351318,0.01538222
1548.83232056,0.01407004
1550.76112793,0.01471753
1552.68993530,0.01463725
1554.61874268,0.01299694
1556.54755005,0.01400645
1558.47635742,0.00935121
1560.40516479,0.01058257
1562.33397217,0.01545382
1564.26277954,0.01439025
1566.19158691,0.01507234
1568.12039429,0.01459549
1570.04920166,0.01293320
1571.97800903,0.01530139
1573.90681641,0.01516841
1575.83562378,0.01181654
1577.76443115,0.01371242
1579.69323853,0.01562521
1581.62204590,0.01485500
1583.55085327,0.01530715
1585.47966064,0.01493847
1587.40846802,0.01501951
1589.33727539,0.01506464
1591.26608276,0.01495967
1593.19489014,0.01494581
1595.12369751,0.01475923
1597.05250488,0.01498700
1598.98131226,0.01499499
1600.91011963,0.01495534
1602.83892700,0.01465009
1604.76773437,0.01500416
1606.69654175,0.01475163
1608.62534912,0.01480097
1610.55415649,0.01480810
1612.48296387,0.01491136
1614.41177124,0.01493632
1616.34057861,0.01195906
1618.26938599,0.01348745
1620.19819336,0.01576215
1622.12700073,0.01362402
1624.05580811,0.01375970
1625.98461548,0.01453259
1627.91342285,0.01446292
1629.84223022,0.01449429
1631.77103760,0.01554472
1633.69984497,0.01385612
1635.62865234,0.01141013
1637.55745972,0.01386259
1639.48626709,0.01509037
1641.41507446,0.01478662
1643.34388184,0.01521960
1645.27268921,0.01351355
1647.20149658,0.01179182
1649.13030396,0.01484203
1651.05911133,0.01395733
1652.98791870,0.00858548
1654.91672607,0.01230071
1656.84553345,0.01548482
1658.77434082,0.01460370
1660.70314819,0.01529502
1662.63195557,0.01363806
1664.56076294,0.01452739
1666.48957031,0.01577339
1668.41837769,0.01333007
1670.34718506,0.01306381
1672.27599243,0.01499734
1674.20479980,0.01355278
1676.13360718,0.01301183
1678.06241455,0.01505971
1679.99122192,0.01452992
1681.92002930,0.01422692
1683.84883667,0.01105872
1685.77764404,0.01145113
1687.70645142,0.01585180
1689.63525879,0.01336446
1691.56406616,0.01521962
1693.49287354,0.01513133
1695.42168091,0.01082322
1697.35048828,0.01367585
1699.27929565,0.01165105
1701.20810303,0.01080067
1703.13691040,0.01475086
1705.06571777,0.01320570
1706.99452515,0.01366529
1708.92333252,0.01495015
1710.85213989,0.01424053
1712.78094727,0.01443895
1714.70975464,0.01322883
1716.63856201,0.01166367
1718.56736938,0.01149419
1720.49617676,0.01395697
1722.42498413,0.01450879
1724.35379150,0.01330835
1726.28259888,0.01449464
1728.21140625,0.01334871
1730.14021362,0.01351899
1732.06902100,0.01294761
1733.99782837,0.00977892
1735.92663574,0.01258615
1737.85544312,0.01360080
1739.78425049,0.01208670
1741.71305786,0.01329498
1743.64186523,0.01331699
1745.57067261,0.01356799
1747.49947998,0.01357006
1749.42828735,0.01268367
1751.35709473,0.01213203
1753.28590210,0.01381929
1755.21470947,0.01418421
1757.14351685,0.01257676
1759.07232422,0.01433998
1761.00113159,0.01319865
1762.92993896,0.01269568
1764.85874634,0.01482959
1766.78755371,0.01316930
1768.71636108,0.01353880
1770.64516846,0.01318638
1772.57397583,0.01174679
1774.50278320,0.01345438
1776.43159058,0.01400407
1778.36039795,0.01374074
1780.28920532,0.01351480
1782.21801270,0.01368651
1784.14682007,0.01374499
1786.07562744,0.01332111
1788.00443481,0.01412476
1789.93324219,0.01366854
1791.86204956,0.01222008
1793.79085693,0.01296514
1795.71966431,0.01387084
1797.64847168,0.01368204
1799.57727905,0.01347564
1801.50608643,0.01303087
1803.43489380,0.01368614
1805.36370117,0.01414620
1807.29250854,0.01369442
1809.22131592,0.01364037
1811.15012329,0.01330954
1813.07893066,0.01379085
1815.00773804,0.01391356
1816.93654541,0.01369098
1818.86535278,0.01368005
1820.79416016,0.01371602
1822.72296753,0.01384381
1824.65177490,0.01268129
1826.58058228,0.01332461
1828.50938965,0.01330305
1830.43819702,0.01232125
1832.36700439,0.01353188
1834.29581177,0.01353843
1836.22461914,0.01370796
1838.15342651,0.01348612
1840.08223389,0.01355160
1842.01104126,0.01359419
1843.93984863,0.01186316
1845.86865601,0.01283452
1847.79746338,0.01343364
1849.72627075,0.01311560
1851.65507812,0.01360096
1853.58388550,0.01310895
1855.51269287,0.01327389
1857.44150024,0.01325284
1859.37030762,0.01321585
1861.29911499,0.01335021
1863.22792236,0.01328306
1865.15672974,0.01335710
1867.08553711,0.01271837
1869.01434448,0.01222543
1870.94315186,0.01270355
1872.87195923,0.01329030
1874.80076660,0.01303932
1876.72957397,0.01306815
1878.65838135,0.01310589
1880.58718872,0.01296231
1882.51599609,0.01311016
1884.44480347,0.01279253
1886.37361084,0.01301183
1888.30241821,0.01267956
1890.23122559,0.01228739
1892.16003296,0.01287437
1894.08884033,0.01268833
1896.01764771,0.01273779
1897.94645508,0.01284739
1899.87526245,0.01263315
1901.80406982,0.01263870
1903.73287720,0.01264916
1905.66168457,0.01281465
1907.59049194,0.01252748
1909.51929932,0.01248775
1911.44810669,0.01246434
1913.37691406,0.01241655
1915.30572144,0.01270918
1917.23452881,0.01189628
1919.16333618,0.01197236
1921.09214355,0.01261535
1923.02095093,0.01198064
1924.94975830,0.01232015
1926.87856567,0.01267815
1928.80737305,0.01242050
1930.73618042,0.01247784
1932.66498779,0.01228439
1934.59379517,0.01221324
1936.52260254,0.01221747
1938.45140991,0.01239339
1940.38021729,0.01215581
1942.30902466,0.01182235
1944.23783203,0.01210992
1946.16663940,0.01208843
1948.09544678,0.01209816
1950.02425415,0.01209055
1951.95306152,0.01208200
1953.88186890,0.01217057
1955.81067627,0.01208647
1957.73948364,0.01210091
1959.66829102,0.01205594
1961.59709839,0.01209082
1963.52590576,0.01204969
1965.45471313,0.01196459
1967.38352051,0.01188816
1969.31232788,0.01197730
1971.24113525,0.01205807
1973.16994263,0.01183511
1975.09875000,0.01197867
1977.02755737,0.01186355
1978.95636475,0.01172155
1980.88517212,0.01190317
1982.81397949,0.01177322
1984.74278687,0.01175640
1986.67159424,0.01179456
1988.60040161,0.01173469
1990.52920898,0.01150135
1992.45801636,0.01144195
1994.38682373,0.01166261
1996.31563110,0.01160606
1998.24443848,0.01147683
2000.17324585,0.01151672
2002.10205322,0.01152639
2004.03086060,0.01150998
2005.95966797,0.01163449
2007.88847534,0.01141187
2009.81728271,0.01136756
2011.74609009,0.01159855
2013.67489746,0.01136752
2015.60370483,0.01130066
2017.53251221,0.01120085
2019.46131958,0.01118389
2021.39012695,0.01129822
2023.31893433,0.01115273
2025.24774170,0.01114477
2027.17654907,0.01103815
2029.10535645,0.01104090
2031.03416382,0.01109360
2032.96297119,0.01094284
2034.89177856,0.01091318
2036.82058594,0.01099932
2038.74939331,0.01103630
2040.67820068,0.01089181
2042.60700806,0.01084359
2044.53581543,0.01084604
2046.46462280,0.01082317
2048.39343018,0.01084817
2050.32223755,0.01079121
2052.25104492,0.01078716
2054.17985229,0.01078075
2056.10865967,0.01069697
2058.03746704,0.01064419
2059.96627441,0.01062553
2061.89508179,0.01054738
2063.82388916,0.01047575
2065.75269653,0.01048893
2067.68150391,0.01053150
2069.61031128,0.01056497
2071.53911865,0.01054564
2073.46792603,0.01050750
2075.39673340,0.01043371
2077.32554077,0.01043383
2079.25434814,0.01048685
2081.18315552,0.01034480
2083.11196289,0.01017866
2085.04077026,0.01025090
2086.96957764,0.01032512
2088.89838501,0.01023485
2090.82719238,0.01018814
2092.75599976,0.01021200
2094.68480713,0.01024236
2096.61361450,0.01016818
2098.54242187,0.01011710
2100.47122925,0.01014174
2102.40003662,0.01002766
2104.32884399,0.01004200
2106.25765137,0.01011508
2108.18645874,0.01005999
2110.11526611,0.01004178
2112.04407349,0.00997888
2113.97288086,0.00991407
2115.90168823,0.00987137
2117.83049561,0.00985649
2119.75930298,0.01001575
2121.68811035,0.01001918
2123.61691772,0.00985009
2125.54572510,0.00982890
2127.47453247,0.00970423
2129.40333984,0.00976437
2131.33214722,0.00982235
2133.26095459,0.00960414
2135.18976196,0.00966010
2137.11856934,0.00961518
2139.04737671,0.00967174
2140.97618408,0.00969279
2142.90499146,0.00944872
2144.83379883,0.00957919
2146.76260620,0.00957099
2148.69141357,0.00953881
2150.62022095,0.00951648
2152.54902832,0.00948267
2154.47783569,0.00964787
2156.40664307,0.00948877
2158.33545044,0.00941726
2160.26425781,0.00943341
2162.19306519,0.00941737
2164.12187256,0.00944227
2166.05067993,0.00937810
2167.97948730,0.00942464
2169.90829468,0.00937193
2171.83710205,0.00932263
2173.76590942,0.00927257
2175.69471680,0.00925525
2177.62352417,0.00926956
2179.55233154,0.00918394
2181.48113892,0.00924597
2183.40994629,0.00922447
2185.33875366,0.00919039
2187.26756104,0.00920784
2189.19636841,0.00921564
2191.12517578,0.00926116
2193.05398315,0.00916680
2194.98279053,0.00916321
2196.91159790,0.00919105
2198.84040527,0.00915297
2200.76921265,0.00910644
2202.69802002,0.00895975
2204.62682739,0.00897949
2206.55563477,0.00906479
2208.48444214,0.00895981
2210.41324951,0.00898718
2212.34205688,0.00902303
2214.27086426,0.00887676
2216.19967163,0.00893683
2218.12847900,0.00894705
2220.05728638,0.00878089
2221.98609375,0.00879430
2223.91490112,0.00877451
2225.84370850,0.00870737
2227.77251587,0.00882987
2229.70132324,0.00888134
2231.63013062,0.00871014
2233.55893799,0.00866271
2235.48774536,0.00868193
2237.41655273,0.00866626
2239.34536011,0.00872552
2241.27416748,0.00875017
2243.20297485,0.00878398
2245.13178223,0.00870534
2247.06058960,0.00859677
2248.98939697,0.00859392
2250.91820435,0.00854459
2252.84701172,0.00853690
2254.77581909,0.00862442
2256.70462646,0.00862433
2258.63343384,0.00847652
2260.56224121,0.00854310
2262.49104858,0.00856683
2264.41985596,0.00841071
2266.34866333,0.00844704
2268.27747070,0.00839360
2270.20627808,0.00836531
2272.13508545,0.00839408
2274.06389282,0.00831406
2275.99270020,0.00827015
2277.92150757,0.00828907
2279.85031494,0.00829276
2281.77912231,0.00818971
2283.70792969,0.00826907
2285.63673706,0.00826954
2287.56554443,0.00820552
2289.49435181,0.00826379
2291.42315918,0.00807691
2293.35196655,0.00809438
2295.28077393,0.00815922
2297.20958130,0.00809485
2299.13838867,0.00817116
2301.06719604,0.00799757
2302.99600342,0.00785937
2304.92481079,0.00791556
2306.85361816,0.00786832
2308.78242554,0.00778320
2310.71123291,0.00774150
2312.64004028,0.00773705
2314.56884766,0.00760592
2316.49765503,0.00748110
2318.42646240,0.00744628
2320.35526978,0.00733294
2322.28407715,0.00729862
2324.21288452,0.00728142
2326.14169189,0.00711659
2328.07049927,0.00698396
2329.99930664,0.00702155
2331.92811401,0.00699470
2333.85692139,0.00676310
2335.78572876,0.00677692
2337.71453613,0.00688497
2339.64334351,0.00679449
2341.57215088,0.00683083
2343.50095825,0.00689058
2345.42976562,0.00695652
2347.35857300,0.00718409
2349.28738037,0.00741628
2351.21618774,0.00724177
2353.14499512,0.00691688
2355.07380249,0.00681780
2357.00260986,0.00652019
2358.93141724,0.00642048
2360.86022461,0.00641147
2362.78903198,0.00626929
2364.71783936,0.00636004
2366.64664673,0.00626790
2368.57545410,0.00633414
2370.50426147,0.00654524
2372.43306885,0.00671269
2374.36187622,0.00693383
2376.29068359,0.00694724
2378.21949097,0.00715636
2380.14829834,0.00729729
2382.07710571,0.00730977
2384.00591309,0.00737932
2385.93472046,0.00732937
2387.86352783,0.00743425
2389.79233521,0.00745939
2391.72114258,0.00739530
2393.64994995,0.00733259
2395.57875732,0.00721577
2397.50756470,0.00727121
2399.43637207,0.00734962
2401.36517944,0.00730354
2403.29398682,0.00720478
2405.22279419,0.00715145
2407.15160156,0.00721361
2409.08040894,0.00724606
2411.00921631,0.00713277
2412.93802368,0.00710083
2414.86683105,0.00709540
2416.79563843,0.00716107
2418.72444580,0.00731872
2420.65325317,0.00715643
2422.58206055,0.00710493
2424.51086792,0.00715815
2426.43967529,0.00703695
2428.36848267,0.00707722
2430.29729004,0.00698918
2432.22609741,0.00697815
2434.15490479,0.00709964
2436.08371216,0.00695018
2438.01251953,0.00688781
2439.94132690,0.00691860
2441.87013428,0.00701082
2443.79894165,0.00703514
2445.72774902,0.00687641
2447.65655640,0.00692429
2449.58536377,0.00680569
2451.51417114,0.00675156
2453.44297852,0.00700499
2455.37178589,0.00684878
2457.30059326,0.00670579
2459.22940063,0.00675640
2461.15820801,0.00675158
2463.08701538,0.00676580
2465.01582275,0.00669870
2466.94463013,0.00668451
2468.87343750,0.00665838
2470.80224487,0.00666791
2472.73105225,0.00663857
2474.65985962,0.00668541
2476.58866699,0.00675602
2478.51747437,0.00656297
2480.44628174,0.00665687
2482.37508911,0.00666900
2484.30389648,0.00647384
2486.23270386,0.00654246
2488.16151123,0.00657241
2490.09031860,0.00655467
2492.01912598,0.00642785
2493.94793335,0.00645176
2495.87674072,0.00654713
2497.80554810,0.00639183
2499.73435547,0.00645221
2501.66316284,0.00646122
2503.59197021,0.00635026
2505.52077759,0.00647533
2507.44958496,0.00641772
2509.37839233,0.00636260
2511.30719971,0.00646952
2513.23600708,0.00633473
2515.16481445,0.00629466
2517.09362183,0.00634061
2519.02242920,0.00634862
2520.95123657,0.00641070
2522.88004395,0.00632087
2524.80885132,0.00637423
2526.73765869,0.00633001
2528.66646606,0.00615271
2530.59527344,0.00628763
2532.52408081,0.00636166
2534.45288818,0.00631259
2536.38169556,0.00621702
2538.31050293,0.00617851
2540.23931030,0.00623116
2542.16811768,0.00614280
2544.09692505,0.00618132
2546.02573242,0.00625357
2547.95453979,0.00608380
2549.88334717,0.00602370
2551.81215454,0.00610951
2553.74096191,0.00605613
2555.66976929,0.00596799
2557.59857666,0.00600551
2559.52738403,0.00607977
2561.45619141,0.00603444
2563.38499878,0.00601958
2565.31380615,0.00602644
2567.24261353,0.00592297
2569.17142090,0.00595496
2571.10022827,0.00594490
2573.02903564,0.00594172
2574.95784302,0.00607469
2576.88665039,0.00603508
2578.81545776,0.00599983
2580.74426514,0.00589316
2582.67307251,0.00581584
2584.60187988,0.00593522
2586.53068726,0.00579682
2588.45949463,0.00578647
2590.38830200,0.00594858
2592.31710937,0.00573077
2594.24591675,0.00573403
2596.17472412,0.00584752
2598.10353149,0.00569913
2600.03233887,0.00579440
2601.96114624,0.00574636
2603.88995361,0.00563630
2605.81876099,0.00578131
2607.74756836,0.00580252
2609.67637573,0.00576768
2611.60518311,0.00567683
2613.53399048,0.00564845
2615.46279785,0.00565975
2617.39160522,0.00564808
2619.32041260,0.00568452
2621.24921997,0.00563535
2623.17802734,0.00560461
2625.10683472,0.00563307
2627.03564209,0.00565873
2628.96444946,0.00552563
2630.89325684,0.00555205
2632.82206421,0.00574447
2634.75087158,0.00561240
2636.67967895,0.00547632
2638.60848633,0.00555741
2640.53729370,0.00558769
2642.46610107,0.00542677
2644.39490845,0.00552280
2646.32371582,0.00556430
2648.25252319,0.00529862
2650.18133057,0.00538299
2652.11013794,0.00543299
2654.03894531,0.00550242
2655.96775269,0.00554760
2657.89656006,0.00536492
2659.82536743,0.00534862
2661.75417480,0.00527086
2663.68298218,0.00532594
2665.61178955,0.00535356
2667.54059692,0.00531186
2669.46940430,0.00543248
2671.39821167,0.00535897
2673.32701904,0.00533291
2675.25582642,0.00536561
2677.18463379,0.00531898
2679.11344116,0.00525654
2681.04224854,0.00517271
2682.97105591,0.00521072
2684.89986328,0.00526189
2686.82867065,0.00524288
2688.75747803,0.00522319
2690.68628540,0.00520710
2692.61509277,0.00518714
2694.54390015,0.00514637
2696.47270752,0.00513336
2698.40151489,0.00513828
2700.33032227,0.00505594
2702.25912964,0.00510253
2704.18793701,0.00514532
2706.11674438,0.00501476
2708.04555176,0.00506004
2709.97435913,0.00508663
2711.90316650,0.00505693
2713.83197388,0.00503321
2715.76078125,0.00503510
2717.68958862,0.00508882
2719.61839600,0.00497137
2721.54720337,0.00502168
2723.47601074,0.00499433
2725.40481812,0.00486519
2727.33362549,0.00497587
2729.26243286,0.00495024
2731.19124023,0.00497452
2733.12004761,0.00495631
2735.04885498,0.00479911
2736.97766235,0.00479529
2738.90646973,0.00486136
2740.83527710,0.00495370
2742.76408447,0.00492933
2744.69289185,0.00485512
2746.62169922,0.00479220
2748.55050659,0.00475058
2750.47931396,0.00479994
2752.40812134,0.00473224
2754.33692871,0.00470329
2756.26573608,0.00486535
2758.19454346,0.00487165
2760.12335083,0.00475273
2762.05215820,0.00465589
2763.98096558,0.00456619
2765.90977295,0.00473103
2767.83858032,0.00475802
2769.76738770,0.00461830
2771.69619507,0.00475492
2773.62500244,0.00468773
2775.55380981,0.00461575
2777.48261719,0.00467368
2779.41142456,0.00458550
2781.34023193,0.00458449
2783.26903931,0.00454574
2785.19784668,0.00453181
2787.12665405,0.00454264
2789.05546143,0.00459822
2790.98426880,0.00462887
2792.91307617,0.00453802
2794.84188354,0.00453774
2796.77069092,0.00439751
2798.69949829,0.00443189
2800.62830566,0.00453668
2802.55711304,0.00443581
2804.48592041,0.00445055
2806.41472778,0.00433625
2808.34353516,0.00434501
2810.27234253,0.00442788
2812.20114990,0.00437512
2814.12995728,0.00435595
2816.05876465,0.00426243
2817.98757202,0.00432935
2819.91637939,0.00438453
2821.84518677,0.00429307
2823.77399414,0.00422200
2825.70280151,0.00419837
2827.63160889,0.00428249
2829.56041626,0.00429333
2831.48922363,0.00424809
2833.41803101,0.00426138
2835.34683838,0.00423714
2837.27564575,0.00417510
2839.20445312,0.00417583
2841.13326050,0.00415640
2843.06206787,0.00417290
2844.99087524,0.00418494
2846.91968262,0.00412630
2848.84848999,0.00413208
2850.77729736,0.00407963
2852.70610474,0.00412481
2854.63491211,0.00408316
2856.56371948,0.00397267
2858.49252686,0.00405615
2860.42133423,0.00402628
2862.35014160,0.00401600
2864.27894897,0.00399654
2866.20775635,0.00397630
2868.13656372,0.00398238
2870.06537109,0.00408104
2871.99417847,0.00410872
2873.92298584,0.00386366
2875.85179321,0.00395820
2877.78060059,0.00397015
2879.70940796,0.00393090
2881.63821533,0.00403569
2883.56702270,0.00392457
2885.49583008,0.00396865
2887.42463745,0.00388619
2889.35344482,0.00389597
2891.28225220,0.00400391
2893.21105957,0.00386082
2895.13986694,0.00379450
2897.06867432,0.00374922
2898.99748169,0.00374975
2900.92628906,0.00385816
2902.85509644,0.00397749
2904.78390381,0.00385289
2906.71271118,0.00383102
2908.64151855,0.00388524
2910.57032593,0.00370042
2912.49913330,0.00374646
2914.42794067,0.00380252
2916.35674805,0.00382195
2918.28555542,0.00380934
2920.21436279,0.00380180
2922.14317017,0.00387513
2924.07197754,0.00372137
2926.00078491,0.00371374
2927.92959229,0.00377769
2929.85839966,0.00379242
2931.78720703,0.00383471
2933.71601440,0.00370007
2935.64482178,0.00367824
2937.57362915,0.00375537
2939.50243652,0.00367576
2941.43124390,0.00372673
2943.36005127,0.00378978
2945.28885864,0.00368709
2947.21766602,0.00372303
2949.14647339,0.00363026
2951.07528076,0.00361175
2953.00408813,0.00363942
2954.93289551,0.00351169
2956.86170288,0.00370124
2958.79051025,0.00372932
2960.71931763,0.00357239
2962.64812500,0.00352404
2964.57693237,0.00365702
2966.50573975,0.00366228
2968.43454712,0.00341970
2970.36335449,0.00354475
2972.29216187,0.00350010
2974.22096924,0.00354072
2976.14977661,0.00360286
2978.07858398,0.00344818
2980.00739136,0.00364194
2981.93619873,0.00347722
2983.86500610,0.00348259
2985.79381348,0.00361943
2987.72262085,0.00339424
2989.65142822,0.00350027
2991.58023560,0.00348932
2993.50904297,0.00345436
2995.43785034,0.00352056
2997.36665771,0.00340621
2999.29546509,0.00343889
3001.22427246,0.00343553
3003.15307983,0.00334519
3005.08188721,0.00339105
3007.01069458,0.00336403
3008.93950195,0.00333305
3010.86830933,0.00338194
3012.79711670,0.00330082
3014.72592407,0.00327160
3016.65473145,0.00337653
3018.58353882,0.00340156
3020.51234619,0.00330678
3022.44115356,0.00338636
3024.36996094,0.00341009
3026.29876831,0.00325765
3028.22757568,0.00335823
3030.15638306,0.00332054
3032.08519043,0.00330555
3034.01399780,0.00330996
3035.94280518,0.00318377
3037.87161255,0.00333490
3039.80041992,0.00326636
3041.72922729,0.00316661
3043.65803467,0.00318940
3045.58684204,0.00312866
3047.51564941,0.00312177
3049.44445679,0.00313958
3051.37326416,0.00324609
3053.30207153,0.00319853
3055.23087891,0.00319037
3057.15968628,0.00320716
3059.08849365,0.00320325
3061.01730103,0.00321852
3062.94610840,0.00306962
3064.87491577,0.00311762
3066.80372314,0.00311946
3068.73253052,0.00308591
3070.66133789,0.00313767
3072.59014526,0.00311302
3074.51895264,0.00313629
3076.44776001,0.00304450
3078.37656738,0.00307661
3080.30537476,0.00314123
3082.23418213,0.00306937
3084.16298950,0.00310708
3086.09179687,0.00309877
3088.02060425,0.00305528
3089.94941162,0.00307561
3091.87821899,0.00303518
3093.80702637,0.00299931
3095.73583374,0.00305562
3097.66464111,0.00301343
3099.59344849,0.00298932
3101.52225586,0.00303953
3103.45106323,0.00301722
3105.37987061,0.00300714
3107.30867798,0.00298759
3109.23748535,0.00303809
3111.16629272,0.00302856
3113.09510010,0.00290100
3115.02390747,0.00291335
3116.95271484,0.00297699
3118.88152222,0.00294815
3120.81032959,0.00297875
3122.73913696,0.00307670
3124.66794434,0.00299199
3126.59675171,0.00296572
3128.52555908,0.00302299
3130.45436645,0.00291909
3132.38317383,0.00287264
3134.31198120,0.00290497
3136.24078857,0.00293652
3138.16959595,0.00289806
3140.09840332,0.00285947
3142.02721069,0.00285365
3143.95601807,0.00286014
3145.88482544,0.00290436
3147.81363281,0.00282215
3149.74244019,0.00282819
3151.67124756,0.00288079
3153.60005493,0.00285831
3155.52886230,0.00287635
3157.45766968,0.00282065
3159.38647705,0.00281584
3161.31528442,0.00279279
3163.24409180,0.00274384
3165.17289917,0.00280425
3167.10170654,0.00281390
3169.03051392,0.00276829
3170.95932129,0.00280268
3172.88812866,0.00278013
3174.81693604,0.00265304
3176.74574341,0.00277450
3178.67455078,0.00278601
3180.60335815,0.00266915
3182.53216553,0.00282347
3184.46097290,0.00274858
3186.38978027,0.00270076
3188.31858765,0.00279078
3190.24739502,0.00267865
3192.17620239,0.00271732
3194.10500977,0.00278493
3196.03381714,0.00275206
3197.96262451,0.00270320
3199.89143188,0.00263292
3201.82023926,0.00268261
3203.74904663,0.00276037
3205.67785400,0.00270186
3207.60666138,0.00267348
3209.53546875,0.00271104
3211.46427612,0.00268314
3213.39308350,0.00269531
3215.32189087,0.00260198
3217.25069824,0.00260620
3219.17950562,0.00274550
3221.10831299,0.00263598
3223.03712036,0.00263156
3224.96592773,0.00267768
3226.89473511,0.00266758
3228.82354248,0.00269443
3230.75234985,0.00265018
3232.68115723,0.00262625
3234.60996460,0.00256701
3236.53877197,0.00263427
3238.46757935,0.00265671
3240.39638672,0.00256905
3242.32519409,0.00260363
3244.25400146,0.00262573
3246.18280884,0.00257701
3248.11161621,0.00246365
3250.04042358,0.00261856
3251.96923096,0.00272924
3253.89803833,0.00257513
3255.82684570,0.00264181
3257.75565308,0.00268013
3259.68446045,0.00260678
3261.61326782,0.00259002
3263.54207520,0.00271016
3265.47088257,0.00277854
3267.39968994,0.00264081
3269.32849731,0.00266462
3271.25730469,0.00271410
3273.18611206,0.00268458
3275.11491943,0.00271246
3277.04372681,0.00274565
3278.97253418,0.00273068
3280.90134155,0.00269952
3282.83014893,0.00271775
3284.75895630,0.00268401
3286.68776367,0.00265520
3288.61657104,0.00260075
3290.54537842,0.00265006
3292.47418579,0.00277793
3294.40299316,0.00266281
3296.33180054,0.00266660
3298.26060791,0.00273367
3300.18941528,0.00267094
3302.11822266,0.00271205
3304.04703003,0.00267534
3305.97583740,0.00263783
3307.90464478,0.00264747
3309.83345215,0.00261723
3311.76225952,0.00268001
3313.69106689,0.00269723
3315.61987427,0.00266574
3317.54868164,0.00263100
3319.47748901,0.00260181
3321.40629639,0.00271398
3323.33510376,0.00275108
3325.26391113,0.00265715
3327.19271851,0.00266950
3329.12152588,0.00268473
3331.05033325,0.00271693
3332.97914062,0.00279173
3334.90794800,0.00267154
3336.83675537,0.00261985
3338.76556274,0.00271631
3340.69437012,0.00271434
3342.62317749,0.00273770
3344.55198486,0.00272353
3346.48079224,0.00273040
3348.40959961,0.00269932
3350.33840698,0.00267158
3352.26721436,0.00274543
3354.19602173,0.00258880
3356.12482910,0.00264475
3358.05363647,0.00276927
3359.98244385,0.00267939
3361.91125122,0.00274643
3363.84005859,0.00262675
3365.76886597,0.00258788
3367.69767334,0.00267525
3369.62648071,0.00262624
3371.55528809,0.00268451
3373.48409546,0.00271218
3375.41290283,0.00274114
3377.34171020,0.00270791
3379.27051758,0.00268795
3381.19932495,0.00279484
3383.12813232,0.00278196
3385.05693970,0.00269169
3386.98574707,0.00270994
3388.91455444,0.00279540
3390.84336182,0.00270227
3392.77216919,0.00259644
3394.70097656,0.00261751
3396.62978394,0.00265050
3398.55859131,0.00270516
3400.48739868,0.00270890
3402.41620605,0.00265894
3404.34501343,0.00259125
3406.27382080,0.00258388
3408.20262817,0.00262180
3410.13143555,0.00267104
3412.06024292,0.00273206
3413.98905029,0.00268357
3415.91785767,0.00259149
3417.84666504,0.00266612
3419.77547241,0.00273085
3421.70427979,0.00260899
3423.63308716,0.00261206
3425.56189453,0.00267881
3427.49070190,0.00269289
3429.41950928,0.00266618
3431.34831665,0.00260578
3433.27712402,0.00265536
3435.20593140,0.00259391
3437.13473877,0.00257957
3439.06354614,0.00259413
3440.99235352,0.00250046
3442.92116089,0.00257131
3444.84996826,0.00261049
3446.77877563,0.00258941
3448.70758301,0.00257554
3450.63639038,0.00254652
3452.56519775,0.00258660
3454.49400513,0.00261126
3456.42281250,0.00252362
3458.35161987,0.00253049
3460.28042725,0.00262779
3462.20923462,0.00255762
3464.13804199,0.00255398
3466.06684937,0.00255567
3467.99565674,0.00255145
3469.92446411,0.00257239
3471.85327148,0.00254505
3473.78207886,0.00257648
3475.71088623,0.00247413
3477.63969360,0.00249118
3479.56850098,0.00254110
3481.49730835,0.00256192
3483.42611572,0.00258632
3485.35492310,0.00243888
3487.28373047,0.00247028
3489.21253784,0.00250270
3491.14134521,0.00256057
3493.07015259,0.00251461
3494.99895996,0.00238538
3496.92776733,0.00247546
3498.85657471,0.00246285
3500.78538208,0.00247874
3502.71418945,0.00242826
3504.64299683,0.00247575
3506.57180420,0.00252621
3508.50061157,0.00241540
3510.42941895,0.00252687
3512.35822632,0.00250798
3514.28703369,0.00248243
3516.21584106,0.00250209
3518.14464844,0.00249043
3520.07345581,0.00247565
3522.00226318,0.00238152
3523.93107056,0.00242692
3525.85987793,0.00240295
3527.78868530,0.00238915
3529.71749268,0.00237978
3531.64630005,0.00238576
3533.57510742,0.00243917
3535.50391479,0.00233283
3537.43272217,0.00237859
3539.36152954,0.00242114
3541.29033691,0.00237461
3543.21914429,0.00240096
3545.14795166,0.00227671
3547.07675903,0.00221441
3549.00556641,0.00232431
3550.93437378,0.00232408
3552.86318115,0.00235611
3554.79198853,0.00240028
3556.72079590,0.00233614
3558.64960327,0.00235560
3560.57841064,0.00231583
3562.50721802,0.00230770
3564.43602539,0.00229514
3566.36483276,0.00204560
3568.29364014,0.00197670
3570.22244751,0.00221362
3572.15125488,0.00226375
3574.08006226,0.00220457
3576.00886963,0.00233356
3577.93767700,0.00228491
3579.86648437,0.00225463
3581.79529175,0.00230155
3583.72409912,0.00224279
3585.65290649,0.00213300
3587.58171387,0.00194255
3589.51052124,0.00213174
3591.43932861,0.00223061
3593.36813599,0.00215438
3595.29694336,0.00212504
3597.22575073,0.00206507
3599.15455811,0.00221157
3601.08336548,0.00210046
3603.01217285,0.00216228
3604.94098022,0.00227586
3606.86978760,0.00213697
3608.79859497,0.00199856
3610.72740234,0.00193256
3612.65620972,0.00210452
3614.58501709,0.00203464
3616.51382446,0.00221236
3618.44263184,0.00210258
3620.37143921,0.00191187
3622.30024658,0.00215747
3624.22905395,0.00198869
3626.15786133,0.00219522
3628.08666870,0.00184245
3630.01547607,0.00160828
3631.94428345,0.00220803
3633.87309082,0.00201908
3635.80189819,0.00204837
3637.73070557,0.00214460
3639.65951294,0.00203599
3641.58832031,0.00213060
3643.51712769,0.00217556
3645.44593506,0.00212171
3647.37474243,0.00179609
3649.30354980,0.00160943
3651.23235718,0.00170519
3653.16116455,0.00211030
3655.08997192,0.00199910
3657.01877930,0.00181836
3658.94758667,0.00209728
3660.87639404,0.00200209
3662.80520142,0.00213200
3664.73400879,0.00209164
3666.66281616,0.00206574
3668.59162354,0.00193947
3670.52043091,0.00156454
3672.44923828,0.00199400
3674.37804565,0.00174729
3676.30685303,0.00145578
3678.23566040,0.00199899
3680.16446777,0.00202242
3682.09327515,0.00200710
3684.02208252,0.00200680
3685.95088989,0.00191245
3687.87969727,0.00174143
3689.80850464,0.00154859
3691.73731201,0.00176896
3693.66611938,0.00186843
3695.59492676,0.00188332
3697.52373413,0.00193851
3699.45254150,0.00185521
3701.38134888,0.00173930
3703.31015625,0.00177174
3705.23896362,0.00192736
3707.16777100,0.00171112
3709.09657837,0.00169400
3711.02538574,0.00171905
3712.95419312,0.00151900
3714.88300049,0.00178631
3716.81180786,0.00180425
3718.74061523,0.00175282
3720.66942261,0.00181376
3722.59822998,0.00171415
3724.52703735,0.00170305
3726.45584473,0.00164256
3728.38465210,0.00181282
3730.31345947,0.00166891
3732.24226685,0.00153424
3734.17107422,0.00156415
3736.09988159,0.00134485
3738.02868896,0.00154524
3739.95749634,0.00166203
3741.88630371,0.00169010
3743.81511108,0.00135036
3745.74391846,0.00116224
3747.67272583,0.00167321
3749.60153320,0.00138839
3751.53034058,0.00125948
3753.45914795,0.00154712
3755.38795532,0.00158634
3757.31676270,0.00172623
3759.24557007,0.00155053
3761.17437744,0.00157181
3763.10318481,0.00167679
3765.03199219,0.00162154
3766.96079956,0.00167213
3768.88960693,0.00149213
3770.81841431,0.00152071
3772.74722168,0.00165661
3774.67602905,0.00158506
3776.60483643,0.00169645
3778.53364380,0.00165882
3780.46245117,0.00158238
3782.39125854,0.00171690
3784.32006592,0.00162042
3786.24887329,0.00153732
3788.17768066,0.00166580
3790.10648804,0.00168348
3792.03529541,0.00160748
3793.96410278,0.00168390
3795.89291016,0.00153900
3797.82171753,0.00147561
3799.75052490,0.00159424
3801.67933228,0.00119551
3803.60813965,0.00141578
3805.53694702,0.00155455
3807.46575439,0.00120664
3809.39456177,0.00157761
3811.32336914,0.00160038
3813.25217651,0.00161232
3815.18098389,0.00144146
3817.10979126,0.00123680
3819.03859863,0.00155622
3820.96740601,0.00126429
3822.89621338,0.00134881
3824.82502075,0.00154975
3826.75382812,0.00139599
3828.68263550,0.00151865
3830.61144287,0.00146807
3832.54025024,0.00139351
3834.46905762,0.00137159
3836.39786499,0.00131996
3838.32667236,0.00116778
3840.25547974,0.00128486
3842.18428711,0.00143049
3844.11309448,0.00137695
3846.04190186,0.00151991
3847.97070923,0.00150528
3849.89951660,0.00147346
3851.82832397,0.00126706
3853.75713135,0.00098322
3855.68593872,0.00108898
3857.61474609,0.00141906
3859.54355347,0.00155280
3861.47236084,0.00139734
3863.40116821,0.00137936
3865.32997559,0.00131073
3867.25878296,0.00133359
3869.18759033,0.00128099
3871.11639770,0.00122731
3873.04520508,0.00138925
3874.97401245,0.00127636
3876.90281982,0.00139182
3878.83162720,0.00134918
3880.76043457,0.00121294
3882.68924194,0.00142986
3884.61804932,0.00126131
3886.54685669,0.00120304
3888.47566406,0.00135565
3890.40447144,0.00130674
3892.33327881,0.00133879
3894.26208618,0.00134931
3896.19089355,0.00135337
3898.11970093,0.00132252
3900.04850830,0.00116558
3901.97731567,0.00124219
3903.90612305,0.00127485
3905.83493042,0.00127535
3907.76373779,0.00143750
3909.69254517,0.00132893
3911.62135254,0.00134221
3913.55015991,0.00134367
3915.47896728,0.00127998
3917.40777466,0.00132746
3919.33658203,0.00124503
3921.26538940,0.00133641
3923.19419678,0.00123882
3925.12300415,0.00120870
3927.05181152,0.00131274
3928.98061890,0.00122190
3930.90942627,0.00123205
3932.83823364,0.00117630
3934.76704102,0.00127322
3936.69584839,0.00126878
3938.62465576,0.00122030
3940.55346313,0.00131508
3942.48227051,0.00123015
3944.41107788,0.00125233
3946.33988525,0.00127762
3948.26869263,0.00127544
3950.19750000,0.00123183
3952.12630737,0.00119035
3954.05511475,0.00121300
3955.98392212,0.00123606
3957.91272949,0.00127682
3959.84153687,0.00117582
3961.77034424,0.00122232
3963.69915161,0.00123561
3965.62795898,0.00116660
3967.55676636,0.00125258
3969.48557373,0.00118519
3971.41438110,0.00114685
3973.34318848,0.00126573
3975.27199585,0.00129846
3977.20080322,0.00122345
3979.12961060,0.00118091
3981.05841797,0.00120426
3982.98722534,0.00126228
3984.91603271,0.00124406
3986.84484009,0.00123947
3988.77364746,0.00130604
3990.70245483,0.00122135
3992.63126221,0.00118124
3994.56006958,0.00119920
3996.48887695,0.00117464
3998.41768433,0.00117285
4000.34649170,0.00120772
4002.27529907,0.00120476
4004.20410645,0.00113174
4006.13291382,0.00123442
4008.06172119,0.00125922
4009.99052856,0.00118400
4011.91933594,0.00114396
4013.84814331,0.00105340
4015.77695068,0.00117063
4017.70575806,0.00120319
4019.63456543,0.00102913
4021.56337280,0.00110754
4023.49218018,0.00122345
4025.42098755,0.00111310
4027.34979492,0.00113930
4029.27860229,0.00112918
4031.20740967,0.00105752
4033.13621704,0.00119082
4035.06502441,0.00113409
4036.99383179,0.00107923
4038.92263916,0.00114646
4040.85144653,0.00117554
4042.78025391,0.00120128
4044.70906128,0.00110388
4046.63786865,0.00109751
4048.56667603,0.00117357
4050.49548340,0.00119298
4052.42429077,0.00110037
4054.35309814,0.00103073
4056.28190552,0.00108786
4058.21071289,0.00109142
4060.13952026,0.00106852
4062.06832764,0.00103452
4063.99713501,0.00106728
4065.92594238,0.00110052
4067.85474976,0.00107137
4069.78355713,0.00101605
4071.71236450,0.00099376
4073.64117187,0.00100489
4075.56997925,0.00094875
4077.49878662,0.00103315
4079.42759399,0.00103918
4081.35640137,0.00098683
4083.28520874,0.00106849
4085.21401611,0.00102436
4087.14282349,0.00101555
4089.07163086,0.00102287
4091.00043823,0.00099618
4092.92924561,0.00104678
4094.85805298,0.00107571
4096.78686035,0.00101292
4098.71566772,0.00099127
4100.64447510,0.00107201
4102.57328247,0.00106717
4104.50208984,0.00108182
4106.43089722,0.00106368
4108.35970459,0.00098315
4110.28851196,0.00102638
4112.21731934,0.00106810
4114.14612671,0.00105350
4116.07493408,0.00103983
4118.00374145,0.00102846
4119.93254883,0.00096109
4121.86135620,0.00099568
4123.79016357,0.00108621
4125.71897095,0.00100031
4127.64777832,0.00101000
4129.57658569,0.00107539
4131.50539307,0.00098831
4133.43420044,0.00094260
4135.36300781,0.00095125
4137.29181519,0.00096197
4139.22062256,0.00093163
4141.14942993,0.00089631
4143.07823730,0.00098728
4145.00704468,0.00097433
4146.93585205,0.00096478
4148.86465942,0.00104498
4150.79346680,0.00093103
4152.72227417,0.00091716
4154.65108154,0.00095979
4156.57988892,0.00090000
4158.50869629,0.00091928
4160.43750366,0.00094914
4162.36631103,0.00097493
4164.29511841,0.00093399
4166.22392578,0.00094739
4168.15273315,0.00097768
4170.08154053,0.00089099
4172.01034790,0.00085008
4173.93915527,0.00090407
4175.86796265,0.00097392
4177.79677002,0.00092492
4179.72557739,0.00093916
4181.65438477,0.00092745
4183.58319214,0.00083169
4185.51199951,0.00091069
4187.44080688,0.00094222
4189.36961426,0.00091923
4191.29842163,0.00093198
4193.22722900,0.00093134
4195.15603638,0.00089120
4197.08484375,0.00086174
4199.01365112,0.00087562
4200.94245850,0.00084682
4202.87126587,0.00089208
4204.80007324,0.00083767
4206.72888062,0.00079844
4208.65768799,0.00091755
4210.58649536,0.00091148
4212.51530273,0.00089882
4214.44411011,0.00087527
4216.37291748,0.00086186
4218.30172485,0.00087418
4220.23053223,0.00088116
4222.15933960,0.00091886
4224.08814697,0.00086682
4226.01695435,0.00086281
4227.94576172,0.00086294
4229.87456909,0.00089504
4231.80337646,0.00091561
4233.73218384,0.00083258
4235.66099121,0.00086318
4237.58979858,0.00077780
4239.51860596,0.00073758
4241.44741333,0.00086207
4243.37622070,0.00086215
4245.30502808,0.00084352
4247.23383545,0.00083317
4249.16264282,0.00088529
4251.09145020,0.00082331
4253.02025757,0.00075819
4254.94906494,0.00087008
4256.87787231,0.00084866
4258.80667969,0.00081853
4260.73548706,0.00076556
4262.66429443,0.00078665
4264.59310181,0.00086446
4266.52190918,0.00079149
4268.45071655,0.00081398
4270.37952393,0.00071654
4272.30833130,0.00070156
4274.23713867,0.00088679
4276.16594604,0.00078334
4278.09475342,0.00070535
4280.02356079,0.00075964
4281.95236816,0.00070666
4283.88117554,0.00072641
4285.80998291,0.00079642
4287.73879028,0.00079105
4289.66759766,0.00084187
4291.59640503,0.00081993
4293.52521240,0.00075369
4295.45401978,0.00083948
4297.38282715,0.00081728
4299.31163452,0.00079577
4301.24044189,0.00078240
4303.16924927,0.00069636
4305.09805664,0.00071295
4307.02686401,0.00066316
4308.95567139,0.00069015
4310.88447876,0.00072804
4312.81328613,0.00069902
4314.74209351,0.00073664
4316.67090088,0.00068371
4318.59970825,0.00076722
4320.52851562,0.00080880
4322.45732300,0.00071892
4324.38613037,0.00081470
4326.31493774,0.00080353
4328.24374512,0.00073134
4330.17255249,0.00074289
4332.10135986,0.00070922
4334.03016724,0.00071302
4335.95897461,0.00072790
4337.88778198,0.00071830
4339.81658936,0.00070600
4341.74539673,0.00073847
4343.67420410,0.00076890
4345.60301147,0.00072293
4347.53181885,0.00073956
4349.46062622,0.00080698
4351.38943359,0.00076361
4353.31824097,0.00065889
4355.24704834,0.00065066
4357.17585571,0.00066684
4359.10466309,0.00072492
4361.03347046,0.00079883
4362.96227783,0.00065943
4364.89108520,0.00063347
4366.81989258,0.00071796
4368.74869995,0.00059844
4370.67750732,0.00059995
4372.60631470,0.00071529
4374.53512207,0.00071588
4376.46392944,0.00067992
4378.39273682,0.00065573
4380.32154419,0.00063241
4382.25035156,0.00066468
4384.17915894,0.00071125
4386.10796631,0.00070358
4388.03677368,0.00072266
4389.96558105,0.00065691
4391.89438843,0.00060821
4393.82319580,0.00066843
4395.75200317,0.00068169
4397.68081055,0.00070107
4399.60961792,0.00064863
4401.53842529,0.00061154
4403.46723267,0.00065611
4405.39604004,0.00060864
4407.32484741,0.00058722
4409.25365478,0.00067031
4411.18246216,0.00066348
4413.11126953,0.00064587
4415.04007690,0.00073543
4416.96888428,0.00068335
4418.89769165,0.00062891
4420.82649902,0.00062280
4422.75530640,0.00058948
4424.68411377,0.00063105
4426.61292114,0.00059847
4428.54172852,0.00066359
4430.47053589,0.00071040
4432.39934326,0.00063823
4434.32815063,0.00063075
4436.25695801,0.00060695
4438.18576538,0.00065847
4440.11457275,0.00064403
4442.04338013,0.00065227
4443.97218750,0.00070540
4445.90099487,0.00061740
4447.82980225,0.00065035
4449.75860962,0.00067883
4451.68741699,0.00063224
4453.61622437,0.00064640
4455.54503174,0.00058750
4457.47383911,0.00055631
4459.40264648,0.00066784
4461.33145386,0.00068171
4463.26026123,0.00059122
4465.18906860,0.00058339
4467.11787598,0.00056164
4469.04668335,0.00056312
4470.97549072,0.00060732
4472.90429810,0.00059437
4474.83310547,0.00058492
4476.76191284,0.00062160
4478.69072021,0.00064888
4480.61952759,0.00063372
4482.54833496,0.00056371
4484.47714233,0.00050040
4486.40594971,0.00059604
4488.33475708,0.00059633
4490.26356445,0.00050845
4492.19237183,0.00057314
4494.12117920,0.00057826
4496.04998657,0.00056222
4497.97879395,0.00053956
4499.90760132,0.00052220
4501.83640869,0.00059717
4503.76521606,0.00062766
4505.69402344,0.00058578
4507.62283081,0.00057165
4509.55163818,0.00059086
4511.48044556,0.00058742
4513.40925293,0.00062466
4515.33806030,0.00058486
4517.26686768,0.00059169
4519.19567505,0.00059774
4521.12448242,0.00052113
4523.05328979,0.00061537
4524.98209717,0.00053618
4526.91090454,0.00051638
4528.83971191,0.00060220
4530.76851929,0.00051783
4532.69732666,0.00056869
4534.62613403,0.00055307
4536.55494141,0.00053791
4538.48374878,0.00055446
4540.41255615,0.00055264
4542.34136353,0.00054897
4544.27017090,0.00050619
4546.19897827,0.00057365
4548.12778564,0.00053302
4550.05659302,0.00055543
4551.98540039,0.00054574
4553.91420776,0.00043498
4555.84301514,0.00052999
4557.77182251,0.00055288
4559.70062988,0.00049414
4561.62943726,0.00048503
4563.55824463,0.00053927
4565.48705200,0.00051686
4567.41585937,0.00050645
4569.34466675,0.00054879
4571.27347412,0.00047920
4573.20228149,0.00052438
4575.13108887,0.00048377
4577.05989624,0.00047805
4578.98870361,0.00056553
4580.91751099,0.00051740
4582.84631836,0.00054881
4584.77512573,0.00049181
4586.70393311,0.00046785
4588.63274048,0.00054463
4590.56154785,0.00054242
4592.49035522,0.00049825
4594.41916260,0.00045706
4596.34796997,0.00052113
4598.27677734,0.00047354
4600.20558472,0.00044505
4602.13439209,0.00051269
4604.06319946,0.00046017
4605.99200684,0.00049094
4607.92081421,0.00051057
4609.84962158,0.00045977
4611.77842895,0.00048230
4613.70723633,0.00044533
4615.63604370,0.00043785
4617.56485107,0.00048510
4619.49365845,0.00045542
4621.42246582,0.00050317
4623.35127319,0.00051177
4625.28008057,0.00045290
4627.20888794,0.00050941
4629.13769531,0.00049060
4631.06650269,0.00047444
4632.99531006,0.00052409
4634.92411743,0.00048989
4636.85292480,0.00044634
4638.78173218,0.00045588
4640.71053955,0.00046938
4642.63934692,0.00045201
4644.56815430,0.00051159
4646.49696167,0.00051400
4648.42576904,0.00042403
4650.35457642,0.00044925
4652.28338379,0.00046930
4654.21219116,0.00043715
4656.14099853,0.00044012
4658.06980591,0.00046942
4659.99861328,0.00051205
4661.92742065,0.00049987
4663.85622803,0.00041962
4665.78503540,0.00043511
4667.71384277,0.00046309
4669.64265015,0.00041403
4671.57145752,0.00046280
4673.50026489,0.00045905
4675.42907227,0.00041389
4677.35787964,0.00045034
4679.28668701,0.00044154
4681.21549438,0.00041379
4683.14430176,0.00045481
4685.07310913,0.00051982
4687.00191650,0.00044442
4688.93072388,0.00039086
4690.85953125,0.00043758
4692.78833862,0.00040972
4694.71714600,0.00039175
4696.64595337,0.00045110
4698.57476074,0.00050906
4700.50356812,0.00045681
4702.43237549,0.00043903
4704.36118286,0.00042584
4706.28999023,0.00036047
4708.21879761,0.00043907
4710.14760498,0.00047274
4712.07641235,0.00042142
4714.00521973,0.00042857
4715.93402710,0.00047909
4717.86283447,0.00045719
4719.79164185,0.00039597
4721.72044922,0.00046513
4723.64925659,0.00043357
4725.57806396,0.00035707
4727.50687134,0.00041879
4729.43567871,0.00040519
4731.36448608,0.00034152
4733.29329346,0.00037264
4735.22210083,0.00041228
4737.15090820,0.00037947
4739.07971558,0.00034023
4741.00852295,0.00036343
4742.93733032,0.00042803
4744.86613770,0.00037073
4746.79494507,0.00034311
4748.72375244,0.00045610
4750.65255981,0.00041349
4752.58136719,0.00037603
4754.51017456,0.00044380
4756.43898193,0.00041063
4758.36778931,0.00036958
4760.29659668,0.00040394
4762.22540405,0.00042445
4764.15421143,0.00037724
4766.08301880,0.00033083
4768.01182617,0.00038906
4769.94063354,0.00048482
4771.86944092,0.00041397
4773.79824829,0.00032200
4775.72705566,0.00031159
4777.65586304,0.00034127
4779.58467041,0.00043132
4781.51347778,0.00037069
4783.44228516,0.00035917
4785.37109253,0.00039122
4787.29989990,0.00034683
4789.22870728,0.00044879
4791.15751465,0.00037822
4793.08632202,0.00031648
4795.01512939,0.00042332
4796.94393677,0.00032574
4798.87274414,0.00030063
4800.80155151,0.00038204
4802.73035889,0.00038666
4804.65916626,0.00037634
4806.58797363,0.00032354
4808.51678101,0.00036155
4810.44558838,0.00040362
4812.37439575,0.00036164
4814.30320312,0.00038992
4816.23201050,0.00038124
4818.16081787,0.00035991
4820.08962524,0.00036000
4822.01843262,0.00035443
4823.94723999,0.00040322
4825.87604736,0.00036914
4827.80485474,0.00030190
4829.73366211,0.00031228
4831.66246948,0.00037415
4833.59127686,0.00033364
4835.52008423,0.00028033
4837.44889160,0.00038601
4839.37769897,0.00039628
4841.30650635,0.00038176
4843.23531372,0.00035605
4845.16412109,0.00034840
4847.09292847,0.00042532
4849.02173584,0.00034791
4850.95054321,0.00031562
4852.87935059,0.00035379
4854.80815796,0.00038580
4856.73696533,0.00038860
4858.66577270,0.00030796
4860.59458008,0.00032392
4862.52338745,0.00038381
4864.45219482,0.00039152
4866.38100220,0.00034443
4868.30980957,0.00037209
4870.23861694,0.00034006
4872.16742432,0.00025184
4874.09623169,0.00034305
4876.02503906,0.00029250
4877.95384644,0.00021840
4879.88265381,0.00029748
4881.81146118,0.00030480
4883.74026855,0.00030362
4885.66907593,0.00033291
4887.59788330,0.00035642
4889.52669067,0.00034559
4891.45549805,0.00030205
4893.38430542,0.00029943
4895.31311279,0.00033600
4897.24192017,0.00032038
4899.17072754,0.00033759
4901.09953491,0.00033791
4903.02834228,0.00028986
4904.95714966,0.00028114
4906.88595703,0.00020243
4908.81476440,0.00026962
4910.74357178,0.00034735
4912.67237915,0.00032947
4914.60118652,0.00042313
4916.52999390,0.00037567
4918.45880127,0.00032305
4920.38760864,0.00031835
4922.31641602,0.00029605
4924.24522339,0.00035158
4926.17403076,0.00036946
4928.10283813,0.00036146
4930.03164551,0.00030982
4931.96045288,0.00034181
4933.88926025,0.00033166
4935.81806763,0.00021686
4937.74687500,0.00027793
4939.67568237,0.00030807
4941.60448975,0.00023483
4943.53329712,0.00026248
4945.46210449,0.00036217
4947.39091187,0.00037363
4949.31971924,0.00036875
4951.24852661,0.00036703
4953.17733398,0.00029277
4955.10614136,0.00031119
4957.03494873,0.00027132
4958.96375610,0.00025058
4960.89256348,0.00030882
4962.82137085,0.00024780
4964.75017822,0.00030277
4966.67898560,0.00033565
4968.60779297,0.00030071
4970.53660034,0.00030520
4972.46540771,0.00030112
4974.39421509,0.00033152
4976.32302246,0.00020636
4978.25182983,0.00022617
4980.18063721,0.00033017
4982.10944458,0.00025425
4984.03825195,0.00029912
4985.96705933,0.00029177
4987.89586670,0.00028479
4989.82467407,0.00030296
4991.75348145,0.00026584
4993.68228882,0.00030807
4995.61109619,0.00029725
4997.53990356,0.00030471
4999.46871094,0.00028823
5001.39751831,0.00025583
5003.32632568,0.00023943
5005.25513306,0.00023132
5007.18394043,0.00026798
5009.11274780,0.00026341
5011.04155518,0.00031914
5012.97036255,0.00025267
5014.89916992,0.00024269
5016.82797729,0.00032657
5018.75678467,0.00020508
5020.68559204,0.00021559
5022.61439941,0.00022424
5024.54320679,0.00018343
5026.47201416,0.00020422
5028.40082153,0.00018917
5030.32962891,0.00027659
5032.25843628,0.00028830
5034.18724365,0.00025855
5036.11605103,0.00026527
5038.04485840,0.00020683
5039.97366577,0.00021860
5041.90247314,0.00028062
5043.83128052,0.00030750
5045.76008789,0.00032689
5047.68889526,0.00028635
5049.61770264,0.00023416
5051.54651001,0.00028988
5053.47531738,0.00029785
5055.40412476,0.00025832
5057.33293213,0.00024827
5059.26173950,0.00024199
5061.19054687,0.00027857
5063.11935425,0.00024274
5065.04816162,0.00021181
5066.97696899,0.00025488
5068.90577637,0.00024707
5070.83458374,0.00022599
5072.76339111,0.00022164
5074.69219849,0.00021296
5076.62100586,0.00023321
5078.54981323,0.00022717
5080.47862061,0.00022889
5082.40742798,0.00031231
5084.33623535,0.00026800
5086.26504272,0.00021745
5088.19385010,0.00025804
5090.12265747,0.00023163
5092.05146484,0.00025083
5093.98027222,0.00026330
5095.90907959,0.00028418
5097.83788696,0.00024543
5099.76669434,0.00014582
5101.69550171,0.00022417
5103.62430908,0.00025749
5105.55311645,0.00023363
5107.48192383,0.00026976
5109.41073120,0.00020458
5111.33953857,0.00018700
5113.26834595,0.00024805
5115.19715332,0.00020499
5117.12596069,0.00020006
5119.05476807,0.00023538
5120.98357544,0.00021243
5122.91238281,0.00020604
5124.84119019,0.00022645
5126.76999756,0.00028339
5128.69880493,0.00022009
5130.62761230,0.00015972
5132.55641968,0.00022639
5134.48522705,0.00020522
5136.41403442,0.00024693
5138.34284180,0.00024762
5140.27164917,0.00015349
5142.20045654,0.00023725
5144.12926392,0.00025575
5146.05807129,0.00016005
5147.98687866,0.00020586
5149.91568603,0.00022445
5151.84449341,0.00019618
5153.77330078,0.00020208
5155.70210815,0.00015972
5157.63091553,0.00026295
5159.55972290,0.00027224
5161.48853027,0.00015090
5163.41733765,0.00023155
5165.34614502,0.00023224
5167.27495239,0.00019429
5169.20375977,0.00019241
5171.13256714,0.00017227
5173.06137451,0.00024241
5174.99018188,0.00027147
5176.91898926,0.00024681
5178.84779663,0.00027927
5180.77660400,0.00030694
5182.70541138,0.00022285
5184.63421875,0.00025354
5186.56302612,0.00028263
5188.49183350,0.00021108
5190.42064087,0.00023106
5192.34944824,0.00015590
5194.27825562,0.00022444
5196.20706299,0.00027051
5198.13587036,0.00011712
5200.06467773,0.00014301
5201.99348511,0.00012497
5203.92229248,0.00019399
5205.85109985,0.00025289
5207.77990723,0.00012589
5209.70871460,0.00018606
5211.63752197,0.00021543
5213.56632935,0.00022601
5215.49513672,0.00023842
5217.42394409,0.00016277
5219.35275146,0.00024858
5221.28155884,0.00025524
5223.21036621,0.00022275
5225.13917358,0.00026997
5227.06798096,0.00016756
5228.99678833,0.00018269
5230.92559570,0.00024696
5232.85440308,0.00017977
5234.78321045,0.00023879
5236.71201782,0.00027369
5238.64082520,0.00018757
5240.56963257,0.00014568
5242.49843994,0.00014614
5244.42724731,0.00017248
5246.35605469,0.00021407
5248.28486206,0.00022915
5250.21366943,0.00019948
5252.14247681,0.00015621
5254.07128418,0.00018104
5256.00009155,0.00020914
5257.92889893,0.00015110
5259.85770630,0.00020506
5261.78651367,0.00023772
5263.71532104,0.00016348
5265.64412842,0.00019687
5267.57293579,0.00018161
5269.50174316,0.00018535
5271.43055054,0.00016255
5273.35935791,0.00010550
5275.28816528,0.00021208
5277.21697266,0.00019470
5279.14578003,0.00013781
5281.07458740,0.00021256
5283.00339478,0.00023737
5284.93220215,0.00021069
5286.86100952,0.00016501
5288.78981689,0.00013780
5290.71862427,0.00016519
5292.64743164,0.00016511
5294.57623901,0.00016246
5296.50504639,0.00016017
5298.43385376,0.00007134
5300.36266113,0.00010875
5302.29146851,0.00018673
5304.22027588,0.00018319
5306.14908325,0.00020214
5308.07789062,0.00017556
5310.00669800,0.00025571
5311.93550537,0.00023535
5313.86431274,0.00010215
5315.79312012,0.00016485
5317.72192749,0.00018409
5319.65073486,0.00012653
5321.57954224,0.00016518
5323.50834961,0.00017332
5325.43715698,0.00011172
5327.36596436,0.00021867
5329.29477173,0.00019772
5331.22357910,0.00008178
5333.15238647,0.00020980
5335.08119385,0.00014510
5337.01000122,0.00012403
5338.93880859,0.00017563
5340.86761597,0.00009996
5342.79642334,0.00020126
5344.72523071,0.00015455
5346.65403809,0.00015487
5348.58284546,0.00024307
5350.51165283,0.00014073
5352.44046020,0.00020787
5354.36926758,0.00019576
5356.29807495,0.00009015
5358.22688232,0.00018447
5360.15568970,0.00018177
5362.08449707,0.00010613
5364.01330444,0.00015141
5365.94211182,0.00020538
5367.87091919,0.00019250
5369.79972656,0.00017923
5371.72853394,0.00014671
5373.65734131,0.00010089
5375.58614868,0.00008778
5377.51495605,0.00011244
5379.44376343,0.00021965
5381.37257080,0.00017750
5383.30137817,0.00008208
5385.23018555,0.00020876
5387.15899292,0.00022693
5389.08780029,0.00018527
5391.01660767,0.00021760
5392.94541504,0.00016060
5394.87422241,0.00015177
5396.80302978,0.00015467
5398.73183716,0.00014134
5400.66064453,0.00016131
5402.58945190,0.00009484
5404.51825928,0.00007413
5406.44706665,0.00015650
5408.37587402,0.00017459
5410.30468140,0.00019026
5412.23348877,0.00020848
5414.16229614,0.00014921
5416.09110352,0.00011510
5418.01991089,0.00016208
5419.94871826,0.00019186
5421.87752563,0.00011650
5423.80633301,0.00013488
5425.73514038,0.00021161
5427.66394775,0.00014844
5429.59275513,0.00016720
5431.52156250,0.00019690
5433.45036987,0.00016929
5435.37917725,0.00020012
5437.30798462,0.00015698
5439.23679199,0.00013870
5441.16559936,0.00020829
5443.09440674,0.00020309
5445.02321411,0.00011735
5446.95202148,0.00012285
5448.88082886,0.00018932
5450.80963623,0.00016001
5452.73844360,0.00016413
5454.66725098,0.00020925
5456.59605835,0.00018529
5458.52486572,0.00013772
5460.45367310,0.00011085
5462.38248047,0.00014063
5464.31128784,0.00020919
5466.24009521,0.00024861
5468.16890259,0.00016503
5470.09770996,0.00007675
5472.02651733,0.00013593
5473.95532471,0.00015444
5475.88413208,0.00012198
5477.81293945,0.00012261
5479.74174683,0.00009271
5481.67055420,0.00011609
5483.59936157,0.00013421
5485.52816895,0.00014797
5487.45697632,0.00017435
5489.38578369,0.00015630
5491.31459106,0.00017632
5493.24339844,0.00010932
5495.17220581,0.00007587
5497.10101318,0.00015083
5499.02982056,0.00013672
5500.95862793,0.00012671
5502.88743530,0.00008691
5504.81624268,0.00006730
5506.74505005,0.00011287
5508.67385742,0.00011286
5510.60266479,0.00012173
5512.53147217,0.00010444
5514.46027954,0.00008121
5516.38908691,0.00012443
5518.31789429,0.00016625
5520.24670166,0.00013250
5522.17550903,0.00008443
5524.10431641,0.00013177
5526.03312378,0.00016304
5527.96193115,0.00012015
5529.89073853,0.00014440
5531.81954590,0.00015143
5533.74835327,0.00008827
5535.67716064,0.00010283
5537.60596802,0.00013120
5539.53477539,0.00010158
5541.46358276,0.00005145
5543.39239014,0.00010729
5545.32119751,0.00017223
5547.25000488,0.00012817
5549.17881226,0.00015401
5551.10761963,0.00010240
5553.03642700,0.00010971
5554.96523437,0.00017684
5556.89404175,0.00008660
5558.82284912,0.00015203
5560.75165649,0.00017674
5562.68046387,0.00011305
5564.60927124,0.00016951
5566.53807861,0.00018535
5568.46688599,0.00012282
5570.39569336,0.00006864
5572.32450073,0.00010920
5574.25330811,0.00009215
5576.18211548,0.00007709
5578.11092285,0.00010832
5580.03973022,0.00010595
5581.96853760,0.00012184
5583.89734497,0.00010383
5585.82615234,0.00012165
5587.75495972,0.00010378
5589.68376709,0.00008364
5591.61257446,0.00014599
5593.54138184,0.00019184
5595.47018921,0.00019769
5597.39899658,0.00013936
5599.32780395,0.00009046
5601.25661133,0.00007251
5603.18541870,0.00011452
5605.11422607,0.00015090
5607.04303345,0.00015017
5608.97184082,0.00013442
5610.90064819,0.00009562
5612.82945557,0.00016786
5614.75826294,0.00017516
5616.68707031,0.00008845
5618.61587769,0.00011538
5620.54468506,0.00017339
5622.47349243,0.00014900
5624.40229980,0.00008190
5626.33110718,0.00005985
5628.25991455,0.00012096
5630.18872192,0.00017747
5632.11752930,0.00010950
5634.04633667,0.00007024
5635.97514404,0.00011573
5637.90395142,0.00012328
5639.83275879,0.00007785
5641.76156616,0.00004935
5643.69037353,0.00008148
5645.61918091,0.00013856
5647.54798828,0.00020790
5649.47679565,0.00015053
5651.40560303,0.00010076
5653.33441040,0.00013990
5655.26321777,0.00010788
5657.19202515,0.00010520
5659.12083252,0.00008337
5661.04963989,0.00011134
5662.97844727,0.00021405
5664.90725464,0.00016957
5666.83606201,0.00012163
5668.76486938,0.00016182
5670.69367676,0.00011286
5672.62248413,0.00011890
5674.55129150,0.00016461
5676.48009888,0.00006987
5678.40890625,0.00005425
5680.33771362,0.00006431
5682.26652100,0.00009039
5684.19532837,0.00010560
5686.12413574,0.00005578
5688.05294311,0.00013793
5689.98175049,0.00013840
5691.91055786,0.00009026
5693.83936523,0.00011324
5695.76817261,0.00012208
5697.69697998,0.00010262
5699.62578735,0.00010296
5701.55459473,0.00014487
5703.48340210,0.00009526
5705.41220947,0.00009160
5707.34101685,0.00008451
5709.26982422,0.00005763
5711.19863159,0.00008655
5713.12743896,0.00009254
5715.05624634,0.00012617
5716.98505371,0.00012699
5718.91386108,0.00015464
5720.84266846,0.00011209
5722.77147583,0.00001342
5724.70028320,0.00007215
5726.62909058,0.00016785
5728.55789795,0.00012556
5730.48670532,0.00004649
5732.41551270,0.00011563
5734.34432007,0.00012919
5736.27312744,0.00010787
5738.20193481,0.00006630
5740.13074219,0.00005169
5742.05954956,0.00015249
5743.98835693,0.00008353
5745.91716431,0.00008879
5747.84597168,0.00011180
5749.77477905,0.00006769
5751.70358643,0.00011719
5753.63239380,0.00006995
5755.56120117,0.00010502
5757.49000854,0.00012785
5759.41881592,0.00006833
5761.34762329,0.00007207
5763.27643066,0.00007735
5765.20523804,0.00009391
5767.13404541,0.00001494
5769.06285278,0.00000643
5770.99166016,0.00014774
5772.92046753,0.00014212
5774.84927490,0.00011534
5776.77808228,0.00016899
5778.70688965,0.00013787
5780.63569702,0.00011286
5782.56450439,0.00011487
5784.49331177,0.00012678
5786.42211914,0.00014136
5788.35092651,0.00013755
5790.27973389,0.00010196
5792.20854126,0.00005049
5794.13734863,0.00009134
5796.06615601,0.00007586
5797.99496338,0.00009950
5799.92377075,0.00008954
5801.85257812,0.00002022
5803.78138550,0.00014982
5805.71019287,0.00011332
5807.63900024,0.00005694
5809.56780762,0.00006556
5811.49661499,0.00001014
5813.42542236,0.00009646
5815.35422974,0.00011894
5817.28303711,0.00011968
5819.21184448,0.00009880
5821.14065186,0.00012665
5823.06945923,0.00016816
5824.99826660,0.00005469
5826.92707397,0.00006796
5828.85588135,0.00008191
5830.78468872,0.00007130
5832.71349609,0.00010946
5834.64230347,0.00007676
5836.57111084,0.00008729
5838.49991821,0.00010375
5840.42872559,0.00009309
5842.35753296,0.00010197
5844.28634033,0.00010286
5846.21514770,0.00009508
5848.14395508,0.00005651
5850.07276245,0.00003471
5852.00156982,0.00006213
5853.93037720,0.00007529
5855.85918457,0.00009533
5857.78799194,0.00006066
5859.71679932,0.00004413
5861.64560669,0.00011342
5863.57441406,0.00008763
5865.50322144,0.00004187
5867.43202881,0.00003917
5869.36083618,0.00010492
5871.28964355,0.00014365
5873.21845093,0.00010826
5875.14725830,0.00016034
5877.07606567,0.00015022
5879.00487305,0.00009221
5880.93368042,0.00006787
5882.86248779,0.00008847
5884.79129517,0.00006001
5886.72010254,-0.00000395
5888.64890991,0.00008890
5890.57771728,0.00008868
5892.50652466,0.00007975
5894.43533203,0.00010075
5896.36413940,0.00006310
5898.29294678,0.00012062
5900.22175415,0.00009813
5902.15056152,0.00007978
5904.07936890,0.00009261
5906.00817627,0.00009250
5907.93698364,0.00010638
5909.86579102,0.00004850
5911.79459839,0.00003132
5913.72340576,0.00008586
5915.65221313,0.00010564
5917.58102051,0.00006873
5919.50982788,0.00007066
5921.43863525,0.00004583
5923.36744263,0.00003600
5925.29625000,0.00008964
5927.22505737,0.00013201
5929.15386475,0.00009934
5931.08267212,0.00001548
5933.01147949,0.00010060
5934.94028686,0.00010197
5936.86909424,0.00006312
5938.79790161,0.00008690
5940.72670898,0.00007033
5942.65551636,0.00012164
5944.58432373,0.00008998
5946.51313110,0.00014715
5948.44193848,0.00011895
5950.37074585,0.00000591
5952.29955322,0.00008710
5954.22836060,0.00010898
5956.15716797,0.00008436
5958.08597534,0.00004629
5960.01478271,0.00008208
5961.94359009,0.00008713
5963.87239746,0.00007294
5965.80120483,0.00011905
5967.73001221,0.00004715
5969.65881958,0.00006640
5971.58762695,0.00009489
5973.51643433,0.00007969
5975.44524170,0.00010925
5977.37404907,0.00006299
5979.30285645,0.00003581
5981.23166382,0.00004543
5983.16047119,0.00005463
5985.08927856,0.00010652
5987.01808594,0.00008337
5988.94689331,0.00002312
5990.87570068,0.00012836
5992.80450806,0.00016964
5994.73331543,0.00009670
5996.66212280,0.00006755
5998.59093018,0.00002254
6000.51973755,0.00001808
