399.26312622,0.00097532
401.19193359,0.00046329
403.12074097,0.00077428
405.04954834,0.00112118
406.97835571,0.00095681
408.90716309,0.00072948
410.83597046,0.00088283
412.76477783,0.00098085
414.69358521,0.00110941
416.62239258,0.00138664
418.55119995,0.00108518
420.48000732,0.00112156
422.40881470,0.00125838
424.33762207,0.00121560
426.26642944,0.00115855
428.19523682,0.00097106
430.12404419,0.00110161
432.05285156,0.00128116
433.98165894,0.00123534
435.91046631,0.00101725
437.83927368,0.00116287
439.76808105,0.00152387
441.69688843,0.00125974
443.62569580,0.00078601
445.55450317,0.00080551
447.48331055,0.00105049
449.41211792,0.00105035
451.34092529,0.00080282
453.26973267,0.00085588
455.19854004,0.00090829
457.12734741,0.00059366
459.05615479,0.00081388
460.98496216,0.00084260
462.91376953,0.00066041
464.84257690,0.00060925
466.77138428,0.00037629
468.70019165,0.00043246
470.62899902,0.00010447
472.55780640,0.00041452
474.48661377,0.00052265
476.41542114,-0.00001527
478.34422852,0.00032771
480.27303589,0.00020586
482.20184326,0.00049511
484.13065063,0.00025083
486.05945801,-0.00052508
487.98826538,0.00027295
489.91707275,0.00034814
491.84588013,0.00007442
493.77468750,0.00015510
495.70349487,-0.00008091
497.63230225,0.00027261
499.56110962,0.00029150
501.48991699,0.00019952
503.41872437,0.00038853
505.34753174,-0.00004007
507.27633911,0.00006597
509.20514648,-0.00003816
511.13395386,-0.00018709
513.06276123,0.00026556
514.99156860,-0.00015892
516.92037598,-0.00008647
518.84918335,0.00018229
520.77799072,0.00007954
522.70679810,0.00032208
524.63560547,0.00024029
526.56441284,0.00028278
528.49322021,0.00028454
530.42202759,0.00039584
532.35083496,0.00019761
534.27964233,0.00028643
536.20844971,0.00061263
538.13725708,0.00018609
540.06606445,0.00045961
541.99487183,0.00021362
543.92367920,-0.00011099
545.85248657,0.00012494
547.78129395,0.00028395
549.71010132,0.00023710
551.63890869,-0.00047502
553.56771606,0.00006907
555.49652344,0.00051520
557.42533081,0.00016194
559.35413818,0.00017781
561.28294556,-0.00010196
563.21175293,-0.00001064
565.14056030,0.00032269
567.06936768,0.00019674
568.99817505,0.00015929
570.92698242,0.00020444
572.85578979,0.00024109
574.78459717,0.00026659
576.71340454,-0.00007429
578.64221191,0.00010890
580.57101929,0.00032294
582.49982666,0.00020311
584.42863403,0.00025000
586.35744141,0.00012316
588.28624878,0.00027350
590.21505615,0.00013655
592.14386353,0.00030422
594.07267090,0.00026220
596.00147827,-0.00041734
597.93028564,-0.00002544
599.85909302,0.00028598
601.78790039,0.00031941
603.71670776,0.00018878
605.64551514,-0.00004021
607.57432251,-0.00005693
609.50312988,-0.00037384
611.43193726,0.00013096
613.36074463,0.00019625
615.28955200,0.00026718
617.21835938,0.00039381
619.14716675,-0.00019408
621.07597412,0.00008147
623.00478149,-0.00007867
624.93358887,0.00005431
626.86239624,0.00009555
628.79120361,-0.00017288
630.72001099,0.00047432
632.64881836,0.00058798
634.57762573,0.00058500
636.50643311,0.00066003
638.43524048,0.00088482
640.36404785,0.00108015
642.29285522,0.00099418
644.22166260,0.00105102
646.15046997,0.00117060
648.07927734,0.00129802
650.00808472,0.00141508
651.93689209,0.00140696
653.86569946,0.00145196
655.79450684,0.00191608
657.72331421,0.00170768
659.65212158,0.00180746
661.58092896,0.00188402
663.50973633,0.00154069
665.43854370,0.00209845
667.36735107,0.00190683
669.29615845,0.00207915
671.22496582,0.00235092
673.15377319,0.00221527
675.08258057,0.00238095
677.01138794,0.00206377
678.94019531,0.00239504
680.86900269,0.00245160
682.79781006,0.00217718
684.72661743,0.00210665
686.65542480,0.00240104
688.58423218,0.00268162
690.51303955,0.00252027
692.44184692,0.00292100
694.37065430,0.00276100
696.29946167,0.00291845
698.22826904,0.00347132
700.15707642,0.00375040
702.08588379,0.00389586
704.01469116,0.00344130
705.94349854,0.00311079
707.87230591,0.00244134
709.80111328,0.00222480
711.72992065,0.00201344
713.65872803,0.00116444
715.58753540,0.00068704
717.51634277,0.00045951
719.44515015,0.00038761
721.37395752,0.00007799
723.30276489,0.00016188
725.23157227,0.00040428
727.16037964,0.00022366
729.08918701,-0.00005517
731.01799438,0.00002248
732.94680176,0.00007640
734.87560913,-0.00004619
736.80441650,0.00025828
738.73322388,0.00025423
740.66203125,0.00051084
742.59083862,0.00034072
744.51964600,-0.00006921
746.44845337,0.00007181
748.37726074,0.00002737
750.30606812,0.00021435
752.23487549,0.00026978
754.16368286,0.00048880
756.09249023,0.00014523
758.02129761,0.00001170
759.95010498,0.00055323
761.87891235,0.00032163
763.80771973,0.00022152
765.73652710,0.00021104
767.66533447,0.00046261
769.59414185,0.00038168
771.52294922,0.00009983
773.45175659,0.00037083
775.38056396,0.00031328
777.30937134,0.00026909
779.23817871,0.00009613
781.16698608,0.00029615
783.09579346,0.00045967
785.02460083,0.00035990
786.95340820,0.00039282
788.88221558,0.00011130
790.81102295,0.00000509
792.73983032,0.00025711
794.66863770,0.00056869
796.59744507,0.00038326
798.52625244,0.00052389
800.45505981,0.00056786
802.38386719,0.00036264
804.31267456,0.00043744
806.24148193,0.00017641
808.17028931,0.00028423
810.09909668,0.00025883
812.02790405,0.00019587
813.95671143,0.00027765
815.88551880,0.00043432
817.81432617,0.00041752
819.74313354,0.00032665
821.67194092,0.00061626
823.60074829,0.00014049
825.52955566,0.00039821
827.45836304,0.00048425
829.38717041,0.00000781
831.31597778,0.00071712
833.24478516,0.00088406
835.17359253,0.00089226
837.10239990,0.00092519
839.03120728,0.00083217
840.96001465,0.00083868
842.88882202,0.00065599
844.81762939,0.00073258
846.74643677,0.00071008
848.67524414,0.00071547
850.60405151,0.00075406
852.53285889,0.00047519
854.46166626,0.00035183
856.39047363,0.00068281
858.31928101,0.00056457
860.24808838,0.00041657
862.17689575,0.00047641
864.10570313,0.00035722
866.03451050,0.00051209
867.96331787,0.00032478
869.89212524,0.00013602
871.82093262,0.00019530
873.74973999,0.00042354
875.67854736,0.00042899
877.60735474,0.00021729
879.53616211,0.00036677
881.46496948,0.00040192
883.39377686,0.00043745
885.32258423,0.00022125
887.25139160,0.00033753
889.18019897,0.00057099
891.10900635,0.00035174
893.03781372,0.00031237
894.96662109,0.00032747
896.89542847,0.00047851
898.82423584,0.00017564
900.75304321,0.00042630
902.68185059,0.00075957
904.61065796,0.00041005
906.53946533,0.00053467
908.46827271,0.00035726
910.39708008,0.00055735
912.32588745,0.00030353
914.25469482,0.00018095
916.18350220,0.00088700
918.11230957,0.00061347
920.04111694,0.00080765
921.96992432,0.00071797
923.89873169,0.00054265
925.82753906,0.00081901
927.75634644,0.00079232
929.68515381,0.00130429
931.61396118,0.00119932
933.54276855,0.00114772
935.47157593,0.00143863
937.40038330,0.00128957
939.32919067,0.00131421
941.25799805,0.00131148
943.18680542,0.00141370
945.11561279,0.00150208
947.04442017,0.00133547
948.97322754,0.00120777
950.90203491,0.00135773
952.83084229,0.00143177
954.75964966,0.00135433
956.68845703,0.00141381
958.61726440,0.00131059
960.54607178,0.00112864
962.47487915,0.00132612
964.40368652,0.00149547
966.33249390,0.00130770
968.26130127,0.00147302
970.19010864,0.00155038
972.11891602,0.00133280
974.04772339,0.00154790
975.97653076,0.00184894
977.90533813,0.00189392
979.83414551,0.00196055
981.76295288,0.00229296
983.69176025,0.00251498
985.62056763,0.00260406
987.54937500,0.00289359
989.47818237,0.00337159
991.40698975,0.00362983
993.33579712,0.00387305
995.26460449,0.00427496
997.19341187,0.00443154
999.12221924,0.00500216
1001.05102661,0.00542179
1002.97983398,0.00573263
1004.90864136,0.00625609
1006.83744873,0.00636505
1008.76625610,0.00700592
1010.69506348,0.00757215
1012.62387085,0.00772765
1014.55267822,0.00798589
1016.48148560,0.00837796
1018.41029297,0.00888334
1020.33910034,0.00906037
1022.26790771,0.00954256
1024.19671509,0.01002738
1026.12552246,0.01036735
1028.05432983,0.01084796
1029.98313721,0.01101816
1031.91194458,0.01106667
1033.84075195,0.01130847
1035.76955933,0.01160452
1037.69836670,0.01156476
1039.62717407,0.01177500
1041.55598145,0.01194263
1043.48478882,0.01151743
1045.41359619,0.01122199
1047.34240356,0.01106755
1049.27121094,0.01104583
1051.20001831,0.01114304
1053.12882568,0.01095183
1055.05763306,0.01058944
1056.98644043,0.01035991
1058.91524780,0.01013642
1060.84405518,0.00994699
1062.77286255,0.00953585
1064.70166992,0.00909777
1066.63047729,0.00903837
1068.55928467,0.00866649
1070.48809204,0.00811283
1072.41689941,0.00774987
1074.34570679,0.00749791
1076.27451416,0.00699257
1078.20332153,0.00658972
1080.13212891,0.00642941
1082.06093628,0.00604705
1083.98974365,0.00620932
1085.91855103,0.00594672
1087.84735840,0.00540685
1089.77616577,0.00532713
1091.70497314,0.00485258
1093.63378052,0.00481233
1095.56258789,0.00459227
1097.49139526,0.00422527
1099.42020264,0.00450037
1101.34901001,0.00429235
1103.27781738,0.00401789
1105.20662476,0.00420431
1107.13543213,0.00415427
1109.06423950,0.00373658
1110.99304687,0.00366907
1112.92185425,0.00404552
1114.85066162,0.00411158
1116.77946899,0.00401589
1118.70827637,0.00395284
1120.63708374,0.00385149
1122.56589111,0.00401450
1124.49469849,0.00385466
1126.42350586,0.00371776
1128.35231323,0.00411083
1130.28112061,0.00405721
1132.20992798,0.00411582
1134.13873535,0.00430044
1136.06754272,0.00445980
1137.99635010,0.00495335
1139.92515747,0.00505517
1141.85396484,0.00527741
1143.78277222,0.00567391
1145.71157959,0.00612885
1147.64038696,0.00651042
1149.56919434,0.00667914
1151.49800171,0.00721229
1153.42680908,0.00740008
1155.35561646,0.00768710
1157.28442383,0.00818425
1159.21323120,0.00821036
1161.14203857,0.00859918
1163.07084595,0.00911302
1164.99965332,0.00940351
1166.92846069,0.00981824
1168.85726807,0.01013852
1170.78607544,0.01040795
1172.71488281,0.01070980
1174.64369019,0.01103619
1176.57249756,0.01159168
1178.50130493,0.01198632
1180.43011230,0.01231613
1182.35891968,0.01290656
1184.28772705,0.01353105
1186.21653442,0.01415630
1188.14534180,0.01471730
1190.07414917,0.01549754
1192.00295654,0.01618391
1193.93176392,0.01687332
1195.86057129,0.01776337
1197.78937866,0.01843274
1199.71818604,0.01926039
1201.64699341,0.02004880
1203.57580078,0.02088517
1205.50460815,0.02166380
1207.43341553,0.02241933
1209.36222290,0.02330492
1211.29103027,0.02378413
1213.21983765,0.02432309
1215.14864502,0.02490020
1217.07745239,0.02558048
1219.00625977,0.02605164
1220.93506714,0.02634862
1222.86387451,0.02686148
1224.79268188,0.02694016
1226.72148926,0.02717034
1228.65029663,0.02727553
1230.57910400,0.02733897
1232.50791138,0.02763329
1234.43671875,0.02742387
1236.36552612,0.02749381
1238.29433350,0.02746890
1240.22314087,0.02717267
1242.15194824,0.02736662
1244.08075562,0.02726813
1246.00956299,0.02699567
1247.93837036,0.02701587
1249.86717773,0.02684170
1251.79598511,0.02666305
1253.72479248,0.02633731
1255.65359985,0.02597829
1257.58240723,0.02579648
1259.51121460,0.02520636
1261.44002197,0.02479342
1263.36882935,0.02460813
1265.29763672,0.02436802
1267.22644409,0.02400098
1269.15525146,0.02356526
1271.08405884,0.02345014
1273.01286621,0.02289670
1274.94167358,0.02248885
1276.87048096,0.02234329
1278.79928833,0.02178776
1280.72809570,0.02131808
1282.65690308,0.02084041
1284.58571045,0.02054810
1286.51451782,0.02023892
1288.44332520,0.01979817
1290.37213257,0.01948295
1292.30093994,0.01935738
1294.22974731,0.01935421
1296.15855469,0.01909649
1298.08736206,0.01907886
1300.01616943,0.01927820
1301.94497681,0.01940360
1303.87378418,0.01956426
1305.80259155,0.01963862
1307.73139893,0.01981161
1309.66020630,0.02011310
1311.58901367,0.02043318
1313.51782104,0.02093921
1315.44662842,0.02144138
1317.37543579,0.02169778
1319.30424316,0.02235054
1321.23305054,0.02330229
1323.16185791,0.02394004
1325.09066528,0.02445849
1327.01947266,0.02524228
1328.94828003,0.02602394
1330.87708740,0.02640025
1332.80589478,0.02694643
1334.73470215,0.02753056
1336.66350952,0.02779354
1338.59231689,0.02756149
1340.52112427,0.02781870
1342.44993164,0.02914294
1344.37873901,0.02947244
1346.30754639,0.02935483
1348.23635376,0.02928668
1350.16516113,0.02903758
1352.09396851,0.02901043
1354.02277588,0.02854873
1355.95158325,0.02843918
1357.88039062,0.02817555
1359.80919800,0.02757890
1361.73800537,0.02616098
1363.66681274,0.02575706
1365.59562012,0.02754620
1367.52442749,0.02664770
1369.45323486,0.02632985
1371.38204224,0.02695949
1373.31084961,0.02528392
1375.23965698,0.02567725
1377.16846436,0.02642139
1379.09727173,0.02634920
1381.02607910,0.02638338
1382.95488647,0.02635581
1384.88369385,0.02639480
1386.81250122,0.02493187
1388.74130859,0.02518588
1390.67011597,0.02769883
1392.59892334,0.02715211
1394.52773071,0.02484182
1396.45653809,0.02612182
1398.38534546,0.02602982
1400.31415283,0.02587184
1402.24296021,0.02844394
1404.17176758,0.02638808
1406.10057495,0.02698977
1408.02938232,0.02838191
1409.95818970,0.02681118
1411.88699707,0.02750414
1413.81580444,0.02620443
1415.74461182,0.02690848
1417.67341919,0.02396218
1419.60222656,0.02088713
1421.53103394,0.02511814
1423.45984131,0.02420866
1425.38864868,0.02345293
1427.31745605,0.02410662
1429.24626343,0.02191678
1431.17507080,0.02131111
1433.10387817,0.02193904
1435.03268555,0.01992099
1436.96149292,0.01624480
1438.89030029,0.01899092
1440.81910767,0.01995449
1442.74791504,0.01819932
1444.67672241,0.01931746
1446.60552979,0.01742108
1448.53433716,0.01764569
1450.46314453,0.01866340
1452.39195190,0.01874189
1454.32075928,0.01928705
1456.24956665,0.01544849
1458.17837402,0.01601149
1460.10718140,0.02233453
1462.03598877,0.02372270
1463.96479614,0.02304018
1465.89360352,0.02427270
1467.82241089,0.02813001
1469.75121826,0.03008905
1471.68002563,0.02591587
1473.60883301,0.02713105
1475.53764038,0.03160588
1477.46644775,0.03429404
1479.39525513,0.03794236
1481.32406250,0.03839688
1483.25286987,0.04095675
1485.18167725,0.04214979
1487.11048462,0.04091579
1489.03929199,0.04015137
1490.96809937,0.04009107
1492.89690674,0.04812276
1494.82571411,0.04668184
1496.75452148,0.04065727
1498.68332886,0.04703647
1500.61213623,0.04860037
1502.54094360,0.05263665
1504.46975098,0.04920786
1506.39855835,0.03298300
1508.32736572,0.04195660
1510.25617310,0.05090488
1512.18498047,0.04911092
1514.11378784,0.05394582
1516.04259521,0.04734859
1517.97140259,0.04978633
1519.90020996,0.04806801
1521.82901733,0.04011611
1523.75782471,0.05118221
1525.68663208,0.05014297
1527.61543945,0.04958545
1529.54424683,0.05618796
1531.47305420,0.05369888
1533.40186157,0.04799385
1535.33066895,0.05133643
1537.25947632,0.05591308
1539.18828369,0.03748302
1541.11709106,0.03919591
1543.04589844,0.04877044
1544.97470581,0.04647296
1546.90351318,0.05715641
1548.83232056,0.05265294
1550.76112793,0.05437747
1552.68993530,0.05438172
1554.61874268,0.04824246
1556.54755005,0.05230025
1558.47635742,0.03421304
1560.40516479,0.03738108
1562.33397217,0.05749241
1564.26277954,0.05384065
1566.19158691,0.05565499
1568.12039429,0.05465753
1570.04920166,0.04706402
1571.97800903,0.05632704
1573.90681641,0.05715605
1575.83562378,0.04320151
1577.76443115,0.05001301
1579.69323853,0.05785365
1581.62204590,0.05490207
1583.55085327,0.05653544
1585.47966064,0.05569080
1587.40846802,0.05597217
1589.33727539,0.05547979
1591.26608276,0.05541153
1593.19489014,0.05533990
1595.12369751,0.05453070
1597.05250488,0.05553679
1598.98131226,0.05527829
1600.91011963,0.05521050
1602.83892700,0.05386761
1604.76773437,0.05521060
1606.69654175,0.05415787
1608.62534912,0.05382359
1610.55415649,0.05398414
1612.48296387,0.05446599
1614.41177124,0.05525827
1616.34057861,0.04349028
1618.26938599,0.04784229
1620.19819336,0.05747043
1622.12700073,0.04963870
1624.05580811,0.04984248
1625.98461548,0.05323414
1627.91342285,0.05254868
1629.84223022,0.05242389
1631.77103760,0.05688111
1633.69984497,0.05168303
1635.62865234,0.04114321
1637.55745972,0.04939593
1639.48626709,0.05595265
1641.41507446,0.05453325
1643.34388184,0.05629974
1645.27268921,0.04993949
1647.20149658,0.04234833
1649.13030396,0.05548935
1651.05911133,0.05278835
1652.98791870,0.03067034
1654.91672607,0.04451822
1656.84553345,0.05889107
1658.77434082,0.05639234
1660.70314819,0.05817453
1662.63195557,0.05210290
1664.56076294,0.05536234
1666.48957031,0.06065309
1668.41837769,0.05160086
1670.34718506,0.04962951
1672.27599243,0.05816798
1674.20479980,0.05297500
1676.13360718,0.05048682
1678.06241455,0.05996400
1679.99122192,0.05745015
1681.92002930,0.05645992
1683.84883667,0.04419479
1685.77764404,0.04393181
1687.70645142,0.06388945
1689.63525879,0.05423629
1691.56406616,0.06069737
1693.49287354,0.06217639
1695.42168091,0.04270635
1697.35048828,0.05500447
1699.27929565,0.04696462
1701.20810303,0.04130714
1703.13691040,0.06016302
1705.06571777,0.05405367
1706.99452515,0.05490109
1708.92333252,0.06077545
1710.85213989,0.05805532
1712.78094727,0.05935342
1714.70975464,0.05405835
1716.63856201,0.04754353
1718.56736938,0.04650524
1720.49617676,0.05728389
1722.42498413,0.06027608
1724.35379150,0.05502476
1726.28259888,0.06116009
1728.21140625,0.05572252
1730.14021362,0.05574126
1732.06902100,0.05454080
1733.99782837,0.03923324
1735.92663574,0.05101615
1737.85544312,0.05760814
1739.78425049,0.04989054
1741.71305786,0.05514957
1743.64186523,0.05597416
1745.57067261,0.05608342
1747.49947998,0.05641984
1749.42828735,0.05328517
1751.35709473,0.05066139
1753.28590210,0.05729930
1755.21470947,0.06055818
1757.14351685,0.05415210
1759.07232422,0.06073770
1761.00113159,0.05643430
1762.92993896,0.05380117
1764.85874634,0.06339172
1766.78755371,0.05584445
1768.71636108,0.05644764
1770.64516846,0.05605832
1772.57397583,0.04915845
1774.50278320,0.05624966
1776.43159058,0.05994643
1778.36039795,0.05903088
1780.28920532,0.05811309
1782.21801270,0.05851858
1784.14682007,0.05850604
1786.07562744,0.05719166
1788.00443481,0.06075864
1789.93324219,0.05882309
1791.86204956,0.05199865
1793.79085693,0.05477803
1795.71966431,0.05958182
1797.64847168,0.05851701
1799.57727905,0.05759360
1801.50608643,0.05630941
1803.43489380,0.05853684
1805.36370117,0.06031237
1807.29250854,0.05919926
1809.22131592,0.05934888
1811.15012329,0.05738926
1813.07893066,0.05970342
1815.00773804,0.05997994
1816.93654541,0.05898468
1818.86535278,0.05974111
1820.79416016,0.05947679
1822.72296753,0.06046679
1824.65177490,0.05536932
1826.58058228,0.05801664
1828.50938965,0.05831009
1830.43819702,0.05354875
1832.36700439,0.05962064
1834.29581177,0.05916882
1836.22461914,0.05906247
1838.15342651,0.05884200
1840.08223389,0.05922748
1842.01104126,0.05957164
1843.93984863,0.05133308
1845.86865601,0.05550235
1847.79746338,0.05923871
1849.72627075,0.05769338
1851.65507812,0.05991932
1853.58388550,0.05830485
1855.51269287,0.05907628
1857.44150024,0.05851021
1859.37030762,0.05813779
1861.29911499,0.05884994
1863.22792236,0.05774685
1865.15672974,0.05867043
1867.08553711,0.05632555
1869.01434448,0.05329029
1870.94315186,0.05609198
1872.87195923,0.05867308
1874.80076660,0.05749604
1876.72957397,0.05797343
1878.65838135,0.05776896
1880.58718872,0.05732157
1882.51599609,0.05790598
1884.44480347,0.05690592
1886.37361084,0.05807234
1888.30241821,0.05627598
1890.23122559,0.05470497
1892.16003296,0.05744692
1894.08884033,0.05646385
1896.01764771,0.05616405
1897.94645508,0.05701818
1899.87526245,0.05667048
1901.80406982,0.05690959
1903.73287720,0.05622322
1905.66168457,0.05663532
1907.59049194,0.05610126
1909.51929932,0.05541332
1911.44810669,0.05594642
1913.37691406,0.05606498
1915.30572144,0.05673125
1917.23452881,0.05365861
1919.16333618,0.05364153
1921.09214355,0.05637622
1923.02095093,0.05408427
1924.94975830,0.05549126
1926.87856567,0.05614302
1928.80737305,0.05514770
1930.73618042,0.05615482
1932.66498779,0.05522088
1934.59379517,0.05596427
1936.52260254,0.05531979
1938.45140991,0.05553374
1940.38021729,0.05561552
1942.30902466,0.05321540
1944.23783203,0.05460877
1946.16663940,0.05518676
1948.09544678,0.05499102
1950.02425415,0.05542435
1951.95306152,0.05513569
1953.88186890,0.05523944
1955.81067627,0.05495706
1957.73948364,0.05515634
1959.66829102,0.05495361
1961.59709839,0.05484615
1963.52590576,0.05506864
1965.45471313,0.05451208
1967.38352051,0.05379983
1969.31232788,0.05443799
1971.24113525,0.05496493
1973.16994263,0.05442195
1975.09875000,0.05480605
1977.02755737,0.05446444
1978.95636475,0.05442793
1980.88517212,0.05450728
1982.81397949,0.05416360
1984.74278687,0.05454486
1986.67159424,0.05394666
1988.60040161,0.05390427
1990.52920898,0.05320726
1992.45801636,0.05253170
1994.38682373,0.05377141
1996.31563110,0.05375861
1998.24443848,0.05341272
2000.17324585,0.05359502
2002.10205322,0.05336605
2004.03086060,0.05335879
2005.95966797,0.05323081
2007.88847534,0.05293769
2009.81728271,0.05294954
2011.74609009,0.05276578
2013.67489746,0.05268426
2015.60370483,0.05237651
2017.53251221,0.05188927
2019.46131958,0.05223796
2021.39012695,0.05223091
2023.31893433,0.05206306
2025.24774170,0.05198443
2027.17654907,0.05190523
2029.10535645,0.05195370
2031.03416382,0.05158413
2032.96297119,0.05153081
2034.89177856,0.05139167
2036.82058594,0.05134460
2038.74939331,0.05134930
2040.67820068,0.05105173
2042.60700806,0.05105057
2044.53581543,0.05087124
2046.46462280,0.05071630
2048.39343018,0.05066468
2050.32223755,0.05066134
2052.25104492,0.05059844
2054.17985229,0.05040114
2056.10865967,0.05045035
2058.03746704,0.05032212
2059.96627441,0.05005585
2061.89508179,0.05009286
2063.82388916,0.04985289
2065.75269653,0.04951009
2067.68150391,0.04976902
2069.61031128,0.04973511
2071.53911865,0.04955629
2073.46792603,0.04951379
2075.39673340,0.04937299
2077.32554077,0.04931548
2079.25434814,0.04904073
2081.18315552,0.04900832
2083.11196289,0.04900286
2085.04077026,0.04898803
2086.96957764,0.04888800
2088.89838501,0.04866407
2090.82719238,0.04869821
2092.75599976,0.04852033
2094.68480713,0.04844311
2096.61361450,0.04831658
2098.54242187,0.04830602
2100.47122925,0.04838091
2102.40003662,0.04824190
2104.32884399,0.04810558
2106.25765137,0.04783887
2108.18645874,0.04789986
2110.11526611,0.04785620
2112.04407349,0.04771321
2113.97288086,0.04764441
2115.90168823,0.04757303
2117.83049561,0.04761149
2119.75930298,0.04748310
2121.68811035,0.04737118
2123.61691772,0.04729818
2125.54572510,0.04742368
2127.47453247,0.04726610
2129.40333984,0.04716180
2131.33214722,0.04717939
2133.26095459,0.04695197
2135.18976196,0.04703348
2137.11856934,0.04689313
2139.04737671,0.04690306
2140.97618408,0.04685076
2142.90499146,0.04669646
2144.83379883,0.04676212
2146.76260620,0.04662975
2148.69141357,0.04676048
2150.62022095,0.04658009
2152.54902832,0.04638631
2154.47783569,0.04642487
2156.40664307,0.04633577
2158.33545044,0.04640028
2160.26425781,0.04633746
2162.19306519,0.04625493
2164.12187256,0.04614582
2166.05067993,0.04611018
2167.97948730,0.04612907
2169.90829468,0.04604827
2171.83710205,0.04597076
2173.76590942,0.04590048
2175.69471680,0.04591925
2177.62352417,0.04587003
2179.55233154,0.04567600
2181.48113892,0.04565456
2183.40994629,0.04574721
2185.33875366,0.04555739
2187.26756104,0.04551169
2189.19636841,0.04547761
2191.12517578,0.04539528
2193.05398315,0.04544812
2194.98279053,0.04531536
2196.91159790,0.04540685
2198.84040527,0.04531629
2200.76921265,0.04507788
2202.69802002,0.04514036
2204.62682739,0.04517039
2206.55563477,0.04515881
2208.48444214,0.04509011
2210.41324951,0.04500543
2212.34205688,0.04494601
2214.27086426,0.04497951
2216.19967163,0.04486187
2218.12847900,0.04473758
2220.05728638,0.04466654
2221.98609375,0.04463635
2223.91490112,0.04467859
2225.84370850,0.04442056
2227.77251587,0.04441214
2229.70132324,0.04444598
2231.63013062,0.04426705
2233.55893799,0.04422106
2235.48774536,0.04423500
2237.41655273,0.04416798
2239.34536011,0.04401591
2241.27416748,0.04396868
2243.20297485,0.04386859
2245.13178223,0.04393868
2247.06058960,0.04381159
2248.98939697,0.04371811
2250.91820435,0.04379043
2252.84701172,0.04358412
2254.77581909,0.04360617
2256.70462646,0.04342695
2258.63343384,0.04337549
2260.56224121,0.04339182
2262.49104858,0.04330619
2264.41985596,0.04330219
2266.34866333,0.04316472
2268.27747070,0.04329951
2270.20627808,0.04307568
2272.13508545,0.04303983
2274.06389282,0.04303000
2275.99270020,0.04277936
2277.92150757,0.04303767
2279.85031494,0.04298013
2281.77912231,0.04283545
2283.70792969,0.04281624
2285.63673706,0.04283367
2287.56554443,0.04263485
2289.49435181,0.04244375
2291.42315918,0.04260545
2293.35196655,0.04231867
2295.28077393,0.04211143
2297.20958130,0.04214874
2299.13838867,0.04200484
2301.06719604,0.04181328
2302.99600342,0.04174241
2304.92481079,0.04158110
2306.85361816,0.04121334
2308.78242554,0.04100589
2310.71123291,0.04073121
2312.64004028,0.04035182
2314.56884766,0.04004024
2316.49765503,0.03968719
2318.42646240,0.03910536
2320.35526978,0.03869123
2322.28407715,0.03817020
2324.21288452,0.03755889
2326.14169189,0.03744861
2328.07049927,0.03693284
2329.99930664,0.03648976
2331.92811401,0.03629017
2333.85692139,0.03596477
2335.78572876,0.03594944
2337.71453613,0.03598465
2339.64334351,0.03593800
2341.57215088,0.03591106
2343.50095825,0.03644716
2345.42976562,0.03707818
2347.35857300,0.03834750
2349.28738037,0.03950848
2351.21618774,0.03830803
2353.14499512,0.03661438
2355.07380249,0.03538081
2357.00260986,0.03434862
2358.93141724,0.03379895
2360.86022461,0.03344192
2362.78903198,0.03334587
2364.71783936,0.03340220
2366.64664673,0.03389356
2368.57545410,0.03453296
2370.50426147,0.03526840
2372.43306885,0.03614386
2374.36187622,0.03707471
2376.29068359,0.03803103
2378.21949097,0.03861706
2380.14829834,0.03922188
2382.07710571,0.03956093
2384.00591309,0.03971872
2385.93472046,0.03993578
2387.86352783,0.03982855
2389.79233521,0.03987031
2391.72114258,0.03989566
2393.64994995,0.03980263
2395.57875732,0.03983065
2397.50756470,0.03970420
2399.43637207,0.03963786
2401.36517944,0.03968757
2403.29398682,0.03961954
2405.22279419,0.03954016
2407.15160156,0.03942301
2409.08040894,0.03932552
2411.00921631,0.03932376
2412.93802368,0.03927406
2414.86683105,0.03911700
2416.79563843,0.03906345
2418.72444580,0.03913388
2420.65325317,0.03904220
2422.58206055,0.03902804
2424.51086792,0.03897828
2426.43967529,0.03890034
2428.36848267,0.03893029
2430.29729004,0.03879158
2432.22609741,0.03880442
2434.15490479,0.03874277
2436.08371216,0.03863414
2438.01251953,0.03866973
2439.94132690,0.03862145
2441.87013428,0.03852896
2443.79894165,0.03840317
2445.72774902,0.03842159
2447.65655640,0.03827354
2449.58536377,0.03820933
2451.51417114,0.03826344
2453.44297852,0.03815261
2455.37178589,0.03814142
2457.30059326,0.03801570
2459.22940063,0.03802526
2461.15820801,0.03802862
2463.08701538,0.03793006
2465.01582275,0.03788707
2466.94463013,0.03779306
2468.87343750,0.03782160
2470.80224487,0.03775377
2472.73105225,0.03767088
2474.65985962,0.03765655
2476.58866699,0.03761898
2478.51747437,0.03758981
2480.44628174,0.03759299
2482.37508911,0.03746914
2484.30389648,0.03735055
2486.23270386,0.03741968
2488.16151123,0.03732831
2490.09031860,0.03732023
2492.01912598,0.03727226
2493.94793335,0.03718428
2495.87674072,0.03712738
2497.80554810,0.03696585
2499.73435547,0.03698853
2501.66316284,0.03688249
2503.59197021,0.03685879
2505.52077759,0.03687492
2507.44958496,0.03673851
2509.37839233,0.03667128
2511.30719971,0.03665072
2513.23600708,0.03668986
2515.16481445,0.03656062
2517.09362183,0.03655301
2519.02242920,0.03654635
2520.95123657,0.03642340
2522.88004395,0.03637191
2524.80885132,0.03625664
2526.73765869,0.03627995
2528.66646606,0.03634064
2530.59527344,0.03628303
2532.52408081,0.03618482
2534.45288818,0.03617213
2536.38169556,0.03605360
2538.31050293,0.03602742
2540.23931030,0.03607507
2542.16811768,0.03594103
2544.09692505,0.03599288
2546.02573242,0.03580128
2547.95453979,0.03569362
2549.88334717,0.03578573
2551.81215454,0.03563326
2553.74096191,0.03565044
2555.66976929,0.03555340
2557.59857666,0.03541965
2559.52738403,0.03545653
2561.45619141,0.03549142
2563.38499878,0.03540818
2565.31380615,0.03525264
2567.24261353,0.03520773
2569.17142090,0.03512701
2571.10022827,0.03513578
2573.02903564,0.03511644
2574.95784302,0.03504123
2576.88665039,0.03506266
2578.81545776,0.03496403
2580.74426514,0.03481914
2582.67307251,0.03478637
2584.60187988,0.03480779
2586.53068726,0.03479394
2588.45949463,0.03464466
2590.38830200,0.03454755
2592.31710937,0.03463668
2594.24591675,0.03453631
2596.17472412,0.03453829
2598.10353149,0.03455667
2600.03233887,0.03438971
2601.96114624,0.03451142
2603.88995361,0.03437131
2605.81876099,0.03420221
2607.74756836,0.03419990
2609.67637573,0.03407450
2611.60518311,0.03419240
2613.53399048,0.03408113
2615.46279785,0.03390490
2617.39160522,0.03391054
2619.32041260,0.03385341
2621.24921997,0.03384160
2623.17802734,0.03376174
2625.10683472,0.03376576
2627.03564209,0.03373422
2628.96444946,0.03360354
2630.89325684,0.03352424
2632.82206421,0.03343152
2634.75087158,0.03345302
2636.67967895,0.03345044
2638.60848633,0.03339848
2640.53729370,0.03334731
2642.46610107,0.03322364
2644.39490845,0.03317891
2646.32371582,0.03313949
2648.25252319,0.03311604
2650.18133057,0.03304192
2652.11013794,0.03292330
2654.03894531,0.03303457
2655.96775269,0.03304677
2657.89656006,0.03292284
2659.82536743,0.03286140
2661.75417480,0.03278029
2663.68298218,0.03273186
2665.61178955,0.03266603
2667.54059692,0.03260291
2669.46940430,0.03251391
2671.39821167,0.03245007
2673.32701904,0.03239727
2675.25582642,0.03233975
2677.18463379,0.03230442
2679.11344116,0.03216238
2681.04224854,0.03215130
2682.97105591,0.03224678
2684.89986328,0.03221129
2686.82867065,0.03209601
2688.75747803,0.03199257
2690.68628540,0.03188345
2692.61509277,0.03188648
2694.54390015,0.03197806
2696.47270752,0.03185924
2698.40151489,0.03173013
2700.33032227,0.03169155
2702.25912964,0.03173341
2704.18793701,0.03164390
2706.11674438,0.03149636
2708.04555176,0.03157272
2709.97435913,0.03142447
2711.90316650,0.03133083
2713.83197388,0.03140732
2715.76078125,0.03138639
2717.68958862,0.03131378
2719.61839600,0.03118603
2721.54720337,0.03112094
2723.47601074,0.03108124
2725.40481812,0.03112465
2727.33362549,0.03100426
2729.26243286,0.03085424
2731.19124023,0.03076713
2733.12004761,0.03074515
2735.04885498,0.03079526
2736.97766235,0.03058586
2738.90646973,0.03066995
2740.83527710,0.03065735
2742.76408447,0.03048285
2744.69289185,0.03055233
2746.62169922,0.03038158
2748.55050659,0.03029224
2750.47931396,0.03019141
2752.40812134,0.03015910
2754.33692871,0.03025184
2756.26573608,0.03009936
2758.19454346,0.03000454
2760.12335083,0.03002239
2762.05215820,0.02993448
2763.98096558,0.02984825
2765.90977295,0.02994842
2767.83858032,0.02983347
2769.76738770,0.02966754
2771.69619507,0.02974055
2773.62500244,0.02961051
2775.55380981,0.02939774
2777.48261719,0.02945764
2779.41142456,0.02946289
2781.34023193,0.02929249
2783.26903931,0.02931756
2785.19784668,0.02917465
2787.12665405,0.02905373
2789.05546143,0.02903529
2790.98426880,0.02889220
2792.91307617,0.02894067
2794.84188354,0.02882807
2796.77069092,0.02878419
2798.69949829,0.02873417
2800.62830566,0.02866112
2802.55711304,0.02868868
2804.48592041,0.02855643
2806.41472778,0.02859756
2808.34353516,0.02841200
2810.27234253,0.02825425
2812.20114990,0.02828605
2814.12995728,0.02822632
2816.05876465,0.02812704
2817.98757202,0.02796192
2819.91637939,0.02807739
2821.84518677,0.02806066
2823.77399414,0.02798718
2825.70280151,0.02787856
2827.63160889,0.02769290
2829.56041626,0.02770254
2831.48922363,0.02756632
2833.41803101,0.02748080
2835.34683838,0.02736962
2837.27564575,0.02726426
2839.20445312,0.02712150
2841.13326050,0.02693690
2843.06206787,0.02687642
2844.99087524,0.02659366
2846.91968262,0.02631810
2848.84848999,0.02618161
2850.77729736,0.02623571
2852.70610474,0.02636032
2854.63491211,0.02643253
2856.56371948,0.02646643
2858.49252686,0.02646231
2860.42133423,0.02650975
2862.35014160,0.02638418
2864.27894897,0.02638807
2866.20775635,0.02634001
2868.13656372,0.02620402
2870.06537109,0.02623717
2871.99417847,0.02607830
2873.92298584,0.02597084
2875.85179321,0.02594466
2877.78060059,0.02591161
2879.70940796,0.02584136
2881.63821533,0.02575437
2883.56702270,0.02569884
2885.49583008,0.02559555
2887.42463745,0.02560757
2889.35344482,0.02547281
2891.28225220,0.02534203
2893.21105957,0.02531954
2895.13986694,0.02512029
2897.06867432,0.02507297
2898.99748169,0.02507690
2900.92628906,0.02489160
2902.85509644,0.02482208
2904.78390381,0.02473505
2906.71271118,0.02453486
2908.64151855,0.02454031
2910.57032593,0.02449643
2912.49913330,0.02430620
2914.42794067,0.02415358
2916.35674805,0.02400875
2918.28555542,0.02399823
2920.21436279,0.02406307
2922.14317017,0.02406000
2924.07197754,0.02409006
2926.00078491,0.02421571
2927.92959229,0.02420537
2929.85839966,0.02418861
2931.78720703,0.02426949
2933.71601440,0.02429308
2935.64482178,0.02437008
2937.57362915,0.02433996
2939.50243652,0.02422644
2941.43124390,0.02420791
2943.36005127,0.02426284
2945.28885864,0.02419147
2947.21766602,0.02405514
2949.14647339,0.02398564
2951.07528076,0.02378883
2953.00408813,0.02376028
2954.93289551,0.02379366
2956.86170288,0.02369899
2958.79051025,0.02352235
2960.71931763,0.02341749
2962.64812500,0.02351188
2964.57693237,0.02336695
2966.50573975,0.02334142
2968.43454712,0.02339589
2970.36335449,0.02332617
2972.29216187,0.02335291
2974.22096924,0.02328965
2976.14977661,0.02328793
2978.07858398,0.02322634
2980.00739136,0.02325072
2981.93619873,0.02322077
2983.86500610,0.02305551
2985.79381348,0.02305037
2987.72262085,0.02288640
2989.65142822,0.02295533
2991.58023560,0.02295811
2993.50904297,0.02266806
2995.43785034,0.02277681
2997.36665771,0.02272867
2999.29546509,0.02248689
3001.22427246,0.02257929
3003.15307983,0.02250772
3005.08188721,0.02231297
3007.01069458,0.02233405
3008.93950195,0.02224087
3010.86830933,0.02211283
3012.79711670,0.02203076
3014.72592407,0.02193647
3016.65473145,0.02184861
3018.58353882,0.02170961
3020.51234619,0.02166555
3022.44115356,0.02161655
3024.36996094,0.02159362
3026.29876831,0.02152872
3028.22757568,0.02142342
3030.15638306,0.02129759
3032.08519043,0.02111601
3034.01399780,0.02116905
3035.94280518,0.02103022
3037.87161255,0.02093210
3039.80041992,0.02096164
3041.72922729,0.02075596
3043.65803467,0.02082789
3045.58684204,0.02066785
3047.51564941,0.02044233
3049.44445679,0.02054541
3051.37326416,0.02041305
3053.30207153,0.02036535
3055.23087891,0.02021025
3057.15968628,0.02000530
3059.08849365,0.02010118
3061.01730103,0.02007629
3062.94610840,0.02005642
3064.87491577,0.01986950
3066.80372314,0.01968043
3068.73253052,0.01973785
3070.66133789,0.01953244
3072.59014526,0.01949727
3074.51895264,0.01952836
3076.44776001,0.01939351
3078.37656738,0.01929819
3080.30537476,0.01905729
3082.23418213,0.01912679
3084.16298950,0.01903431
3086.09179687,0.01882540
3088.02060425,0.01900958
3089.94941162,0.01885198
3091.87821899,0.01873334
3093.80702637,0.01869743
3095.73583374,0.01847731
3097.66464111,0.01850049
3099.59344849,0.01849192
3101.52225586,0.01835109
3103.45106323,0.01828757
3105.37987061,0.01822949
3107.30867798,0.01809277
3109.23748535,0.01794798
3111.16629272,0.01779532
3113.09510010,0.01771002
3115.02390747,0.01764175
3116.95271484,0.01753108
3118.88152222,0.01748186
3120.81032959,0.01741957
3122.73913696,0.01736217
3124.66794434,0.01719005
3126.59675171,0.01710939
3128.52555908,0.01713865
3130.45436645,0.01705846
3132.38317383,0.01695397
3134.31198120,0.01676270
3136.24078857,0.01676664
3138.16959595,0.01668472
3140.09840332,0.01652441
3142.02721069,0.01658185
3143.95601807,0.01643539
3145.88482544,0.01631696
3147.81363281,0.01625380
3149.74244019,0.01616349
3151.67124756,0.01612361
3153.60005493,0.01604468
3155.52886230,0.01598684
3157.45766968,0.01584359
3159.38647705,0.01577578
3161.31528442,0.01572424
3163.24409180,0.01556812
3165.17289917,0.01555514
3167.10170654,0.01554753
3169.03051392,0.01545926
3170.95932129,0.01539766
3172.88812866,0.01528209
3174.81693604,0.01521507
3176.74574341,0.01511900
3178.67455078,0.01504580
3180.60335815,0.01507464
3182.53216553,0.01488227
3184.46097290,0.01486954
3186.38978027,0.01492521
3188.31858765,0.01484944
3190.24739502,0.01484990
3192.17620239,0.01467659
3194.10500977,0.01471389
3196.03381714,0.01464970
3197.96262451,0.01445722
3199.89143188,0.01451398
3201.82023926,0.01447208
3203.74904663,0.01446473
3205.67785400,0.01436289
3207.60666138,0.01437142
3209.53546875,0.01441041
3211.46427612,0.01423762
3213.39308350,0.01422002
3215.32189087,0.01423338
3217.25069824,0.01417313
3219.17950562,0.01408584
3221.10831299,0.01411247
3223.03712036,0.01404947
3224.96592773,0.01402625
3226.89473511,0.01407595
3228.82354248,0.01395497
3230.75234985,0.01407213
3232.68115723,0.01403013
3234.60996460,0.01391244
3236.53877197,0.01398324
3238.46757935,0.01388868
3240.39638672,0.01395146
3242.32519409,0.01397978
3244.25400146,0.01381443
3246.18280884,0.01383294
3248.11161621,0.01388872
3250.04042358,0.01383320
3251.96923096,0.01386750
3253.89803833,0.01385526
3255.82684570,0.01380262
3257.75565308,0.01391070
3259.68446045,0.01389737
3261.61326782,0.01379884
3263.54207520,0.01385950
3265.47088257,0.01397401
3267.39968994,0.01389549
3269.32849731,0.01371504
3271.25730469,0.01381347
3273.18611206,0.01390061
3275.11491943,0.01373188
3277.04372681,0.01381610
3278.97253418,0.01389614
3280.90134155,0.01372849
3282.83014893,0.01381427
3284.75895630,0.01384605
3286.68776367,0.01384846
3288.61657104,0.01386599
3290.54537842,0.01372881
3292.47418579,0.01377100
3294.40299316,0.01374645
3296.33180054,0.01374473
3298.26060791,0.01375922
3300.18941528,0.01374662
3302.11822266,0.01381063
3304.04703003,0.01375013
3305.97583740,0.01376060
3307.90464478,0.01373141
3309.83345215,0.01370746
3311.76225952,0.01368325
3313.69106689,0.01366170
3315.61987427,0.01372985
3317.54868164,0.01371398
3319.47748901,0.01374837
3321.40629639,0.01372902
3323.33510376,0.01369965
3325.26391113,0.01372592
3327.19271851,0.01375232
3329.12152588,0.01369320
3331.05033325,0.01363841
3332.97914062,0.01370070
3334.90794800,0.01367745
3336.83675537,0.01370084
3338.76556274,0.01370112
3340.69437012,0.01372569
3342.62317749,0.01370866
3344.55198486,0.01368298
3346.48079224,0.01372638
3348.40959961,0.01362103
3350.33840698,0.01368545
3352.26721436,0.01372131
3354.19602173,0.01366048
3356.12482910,0.01363583
3358.05363647,0.01361429
3359.98244385,0.01366590
3361.91125122,0.01371074
3363.84005859,0.01368284
3365.76886597,0.01360691
3367.69767334,0.01374951
3369.62648071,0.01365761
3371.55528809,0.01358117
3373.48409546,0.01374380
3375.41290283,0.01368540
3377.34171020,0.01371094
3379.27051758,0.01368404
3381.19932495,0.01368218
3383.12813232,0.01368169
3385.05693970,0.01371696
3386.98574707,0.01377935
3388.91455444,0.01371990
3390.84336182,0.01374129
3392.77216919,0.01369665
3394.70097656,0.01380963
3396.62978394,0.01380025
3398.55859131,0.01376410
3400.48739868,0.01384449
3402.41620605,0.01383439
3404.34501343,0.01384712
3406.27382080,0.01376024
3408.20262817,0.01393195
3410.13143555,0.01392706
3412.06024292,0.01382824
3413.98905029,0.01392958
3415.91785767,0.01391889
3417.84666504,0.01398506
3419.77547241,0.01391467
3421.70427979,0.01384686
3423.63308716,0.01392861
3425.56189453,0.01404156
3427.49070190,0.01396269
3429.41950928,0.01399270
3431.34831665,0.01407411
3433.27712402,0.01396282
3435.20593140,0.01402742
3437.13473877,0.01393311
3439.06354614,0.01402807
3440.99235352,0.01406110
3442.92116089,0.01402235
3444.84996826,0.01406643
3446.77877563,0.01379033
3448.70758301,0.01399863
3450.63639038,0.01416081
3452.56519775,0.01412239
3454.49400513,0.01422909
3456.42281250,0.01423627
3458.35161987,0.01427862
3460.28042725,0.01418450
3462.20923462,0.01413100
3464.13804199,0.01412503
3466.06684937,0.01418484
3467.99565674,0.01425055
3469.92446411,0.01432474
3471.85327148,0.01436501
3473.78207886,0.01432209
3475.71088623,0.01436452
3477.63969360,0.01438695
3479.56850098,0.01436427
3481.49730835,0.01415408
3483.42611572,0.01427883
3485.35492310,0.01449903
3487.28373047,0.01436925
3489.21253784,0.01437032
3491.14134521,0.01447948
3493.07015259,0.01456890
3494.99895996,0.01447865
3496.92776733,0.01444013
3498.85657471,0.01450268
3500.78538208,0.01453204
3502.71418945,0.01425404
3504.64299683,0.01425818
3506.57180420,0.01472604
3508.50061157,0.01457540
3510.42941895,0.01458142
3512.35822632,0.01467617
3514.28703369,0.01462354
3516.21584106,0.01470113
3518.14464844,0.01466305
3520.07345581,0.01480707
3522.00226318,0.01457221
3523.93107056,0.01439745
3525.85987793,0.01450947
3527.78868530,0.01446540
3529.71749268,0.01463047
3531.64630005,0.01487055
3533.57510742,0.01488497
3535.50391479,0.01480987
3537.43272217,0.01483982
3539.36152954,0.01486254
3541.29033691,0.01502681
3543.21914429,0.01487444
3545.14795166,0.01435108
3547.07675903,0.01426931
3549.00556641,0.01482333
3550.93437378,0.01498730
3552.86318115,0.01460274
3554.79198853,0.01494473
3556.72079590,0.01512897
3558.64960327,0.01499954
3560.57841064,0.01489625
3562.50721802,0.01486975
3564.43602539,0.01493507
3566.36483276,0.01373211
3568.29364014,0.01334308
3570.22244751,0.01471808
3572.15125488,0.01523255
3574.08006226,0.01501951
3576.00886963,0.01512127
3577.93767700,0.01503155
3579.86648437,0.01503214
3581.79529175,0.01516009
3583.72409912,0.01522664
3585.65290649,0.01490995
3587.58171387,0.01340947
3589.51052124,0.01380668
3591.43932861,0.01540815
3593.36813599,0.01492439
3595.29694336,0.01451416
3597.22575073,0.01483155
3599.15455811,0.01502152
3601.08336548,0.01488813
3603.01217285,0.01512114
3604.94098022,0.01545606
3606.86978760,0.01477206
3608.79859497,0.01371937
3610.72740234,0.01417214
3612.65620972,0.01453311
3614.58501709,0.01392247
3616.51382446,0.01528555
3618.44263184,0.01388452
3620.37143921,0.01324981
3622.30024658,0.01551944
3624.22905395,0.01498357
3626.15786133,0.01585149
3628.08666870,0.01309220
3630.01547607,0.01158453
3631.94428345,0.01532006
3633.87309082,0.01490550
3635.80189819,0.01521383
3637.73070557,0.01551955
3639.65951294,0.01530573
3641.58832031,0.01555177
3643.51712769,0.01527042
3645.44593506,0.01543615
3647.37474243,0.01354631
3649.30354980,0.01224277
3651.23235718,0.01237607
3653.16116455,0.01529296
3655.08997192,0.01521708
3657.01877930,0.01331055
3658.94758667,0.01576887
3660.87639404,0.01533237
3662.80520142,0.01556339
3664.73400879,0.01552653
3666.66281616,0.01535278
3668.59162354,0.01492320
3670.52043091,0.01173092
3672.44923828,0.01478641
3674.37804565,0.01388357
3676.30685303,0.01109159
3678.23566040,0.01465720
3680.16446777,0.01489781
3682.09327515,0.01504403
3684.02208252,0.01557981
3685.95088989,0.01519136
3687.87969727,0.01356523
3689.80850464,0.01218019
3691.73731201,0.01414604
3693.66611938,0.01476099
3695.59492676,0.01520621
3697.52373413,0.01518285
3699.45254150,0.01502181
3701.38134888,0.01456049
3703.31015625,0.01389385
3705.23896362,0.01550850
3707.16777100,0.01463480
3709.09657837,0.01416102
3711.02538574,0.01312626
3712.95419312,0.01210793
3714.88300049,0.01469487
3716.81180786,0.01454708
3718.74061523,0.01462525
3720.66942261,0.01425913
3722.59822998,0.01368092
3724.52703735,0.01425457
3726.45584473,0.01310388
3728.38465210,0.01438907
3730.31345947,0.01421819
3732.24226685,0.01294589
3734.17107422,0.01252674
3736.09988159,0.01166797
3738.02868896,0.01250583
3739.95749634,0.01368883
3741.88630371,0.01444570
3743.81511108,0.01087354
3745.74391846,0.01010086
3747.67272583,0.01370204
3749.60153320,0.01151921
3751.53034058,0.01049335
3753.45914795,0.01233128
3755.38795532,0.01331789
3757.31676270,0.01398213
3759.24557007,0.01274087
3761.17437744,0.01327457
3763.10318481,0.01426359
3765.03199219,0.01306436
3766.96079956,0.01352562
3768.88960693,0.01339575
3770.81841431,0.01252319
3772.74722168,0.01381073
3774.67602905,0.01391533
3776.60483643,0.01388089
3778.53364380,0.01344316
3780.46245117,0.01279492
3782.39125854,0.01379995
3784.32006592,0.01347170
3786.24887329,0.01329013
3788.17768066,0.01361045
3790.10648804,0.01361175
3792.03529541,0.01341181
3793.96410278,0.01367907
3795.89291016,0.01278500
3797.82171753,0.01244673
3799.75052490,0.01335976
3801.67933228,0.01013027
3803.60813965,0.01215651
3805.53694702,0.01350489
3807.46575439,0.01052063
3809.39456177,0.01330030
3811.32336914,0.01302964
3813.25217651,0.01353306
3815.18098389,0.01212511
3817.10979126,0.01027115
3819.03859863,0.01349547
3820.96740601,0.01050674
3822.89621338,0.01107033
3824.82502075,0.01328580
3826.75382812,0.01192789
3828.68263550,0.01296442
3830.61144287,0.01229673
3832.54025024,0.01188462
3834.46905762,0.01210905
3836.39786499,0.01152462
3838.32667236,0.01024306
3840.25547974,0.01112669
3842.18428711,0.01227372
3844.11309448,0.01159782
3846.04190186,0.01266716
3847.97070923,0.01247246
3849.89951660,0.01250461
3851.82832397,0.01107038
3853.75713135,0.00785180
3855.68593872,0.00962052
3857.61474609,0.01254778
3859.54355347,0.01220189
3861.47236084,0.01195133
3863.40116821,0.01168051
3865.32997559,0.01064957
3867.25878296,0.01217986
3869.18759033,0.01109772
3871.11639770,0.00998121
3873.04520508,0.01213164
3874.97401245,0.01096053
3876.90281982,0.01208573
3878.83162720,0.01245131
3880.76043457,0.01029878
3882.68924194,0.01208138
3884.61804932,0.01118760
3886.54685669,0.01008885
3888.47566406,0.01217411
3890.40447144,0.01141806
3892.33327881,0.01055190
3894.26208618,0.01185756
3896.19089355,0.01207676
3898.11970093,0.01139117
3900.04850830,0.01065748
3901.97731567,0.01039937
3903.90612305,0.01030149
3905.83493042,0.01051922
3907.76373779,0.01176604
3909.69254517,0.01174902
3911.62135254,0.01160816
3913.55015991,0.01185912
3915.47896728,0.01135781
3917.40777466,0.01101128
3919.33658203,0.01082046
3921.26538940,0.01142965
3923.19419678,0.01137358
3925.12300415,0.01095057
3927.05181152,0.01131396
3928.98061890,0.01147345
3930.90942627,0.01118860
3932.83823364,0.01074115
3934.76704102,0.01124657
3936.69584839,0.01139459
3938.62465576,0.01132906
3940.55346313,0.01145309
3942.48227051,0.01076104
3944.41107788,0.01084616
3946.33988525,0.01123701
3948.26869263,0.01095169
3950.19750000,0.01087646
3952.12630737,0.01106139
3954.05511475,0.01106959
3955.98392212,0.01112677
3957.91272949,0.01111667
3959.84153687,0.01097058
3961.77034424,0.01088695
3963.69915161,0.01090037
3965.62795898,0.01110952
3967.55676636,0.01090817
3969.48557373,0.01078766
3971.41438110,0.01086804
3973.34318848,0.01081792
3975.27199585,0.01080028
3977.20080322,0.01073940
3979.12961060,0.01086317
3981.05841797,0.01078604
3982.98722534,0.01081624
3984.91603271,0.01080905
3986.84484009,0.01069330
3988.77364746,0.01071026
3990.70245483,0.01058582
3992.63126221,0.01063739
3994.56006958,0.01057080
3996.48887695,0.01055574
3998.41768433,0.01058558
4000.34649170,0.01057452
4002.27529907,0.01053565
4004.20410645,0.01048487
4006.13291382,0.01051087
4008.06172119,0.01033309
4009.99052856,0.01046325
4011.91933594,0.01049661
4013.84814331,0.01037350
4015.77695068,0.01039555
4017.70575806,0.01037417
4019.63456543,0.01032033
4021.56337280,0.01022985
4023.49218018,0.01029901
4025.42098755,0.01020248
4027.34979492,0.01021756
4029.27860229,0.01022105
4031.20740967,0.01022953
4033.13621704,0.01018556
4035.06502441,0.01003971
4036.99383179,0.01024120
4038.92263916,0.01006535
4040.85144653,0.01004030
4042.78025391,0.01002882
4044.70906128,0.00987065
4046.63786865,0.00997570
4048.56667603,0.00989959
4050.49548340,0.00997803
4052.42429077,0.00992873
4054.35309814,0.00987191
4056.28190552,0.00983213
4058.21071289,0.00986316
4060.13952026,0.00989184
4062.06832764,0.00972155
4063.99713501,0.00983103
4065.92594238,0.00975956
4067.85474976,0.00975601
4069.78355713,0.00976429
4071.71236450,0.00964902
4073.64117187,0.00966695
4075.56997925,0.00960988
4077.49878662,0.00959799
4079.42759399,0.00956976
4081.35640137,0.00960071
4083.28520874,0.00956569
4085.21401611,0.00950600
4087.14282349,0.00940667
4089.07163086,0.00947450
4091.00043823,0.00950091
4092.92924561,0.00931998
4094.85805298,0.00950715
4096.78686035,0.00944784
4098.71566772,0.00937481
4100.64447510,0.00938878
4102.57328247,0.00924377
4104.50208984,0.00929042
4106.43089722,0.00929972
4108.35970459,0.00929432
4110.28851196,0.00919285
4112.21731934,0.00919968
4114.14612671,0.00921112
4116.07493408,0.00916951
4118.00374145,0.00914375
4119.93254883,0.00905111
4121.86135620,0.00911963
4123.79016357,0.00911406
4125.71897095,0.00912215
4127.64777832,0.00909313
4129.57658569,0.00900174
4131.50539307,0.00897133
4133.43420044,0.00898941
4135.36300781,0.00897998
4137.29181519,0.00890981
4139.22062256,0.00896126
4141.14942993,0.00890134
4143.07823730,0.00888675
4145.00704468,0.00887152
4146.93585205,0.00883718
4148.86465942,0.00882849
4150.79346680,0.00875691
4152.72227417,0.00878036
4154.65108154,0.00868809
4156.57988892,0.00870700
4158.50869629,0.00872822
4160.43750366,0.00870232
4162.36631103,0.00871810
4164.29511841,0.00866445
4166.22392578,0.00866139
4168.15273315,0.00856276
4170.08154053,0.00854529
4172.01034790,0.00855269
4173.93915527,0.00850851
4175.86796265,0.00847337
4177.79677002,0.00851914
4179.72557739,0.00853061
4181.65438477,0.00840910
4183.58319214,0.00838850
4185.51199951,0.00839222
4187.44080688,0.00844800
4189.36961426,0.00832382
4191.29842163,0.00827236
4193.22722900,0.00832279
4195.15603638,0.00828720
4197.08484375,0.00832032
4199.01365112,0.00818622
4200.94245850,0.00823054
4202.87126587,0.00825689
4204.80007324,0.00824280
4206.72888062,0.00823760
4208.65768799,0.00810926
4210.58649536,0.00813752
4212.51530273,0.00809507
4214.44411011,0.00806263
4216.37291748,0.00807775
4218.30172485,0.00813734
4220.23053223,0.00801651
4222.15933960,0.00803585
4224.08814697,0.00810702
4226.01695435,0.00787119
4227.94576172,0.00800377
4229.87456909,0.00794890
4231.80337646,0.00786034
4233.73218384,0.00792965
4235.66099121,0.00786325
4237.58979858,0.00788343
4239.51860596,0.00782103
4241.44741333,0.00790083
4243.37622070,0.00785170
4245.30502808,0.00780997
4247.23383545,0.00778366
4249.16264282,0.00768120
4251.09145020,0.00774206
4253.02025757,0.00775508
4254.94906494,0.00772185
4256.87787231,0.00759399
4258.80667969,0.00768519
4260.73548706,0.00766645
4262.66429443,0.00758821
4264.59310181,0.00767333
4266.52190918,0.00762505
4268.45071655,0.00769512
4270.37952393,0.00763085
4272.30833130,0.00751509
4274.23713867,0.00744897
4276.16594604,0.00749046
4278.09475342,0.00746811
4280.02356079,0.00738783
4281.95236816,0.00749870
4283.88117554,0.00739281
4285.80998291,0.00739664
4287.73879028,0.00735811
4289.66759766,0.00732712
4291.59640503,0.00743349
4293.52521240,0.00728258
4295.45401978,0.00727643
4297.38282715,0.00736954
4299.31163452,0.00733999
4301.24044189,0.00724114
4303.16924927,0.00724698
4305.09805664,0.00730452
4307.02686401,0.00727151
4308.95567139,0.00712025
4310.88447876,0.00707580
4312.81328613,0.00722680
4314.74209351,0.00717164
4316.67090088,0.00713931
4318.59970825,0.00710675
4320.52851562,0.00711135
4322.45732300,0.00711822
4324.38613037,0.00702829
4326.31493774,0.00704888
4328.24374512,0.00699292
4330.17255249,0.00705521
4332.10135986,0.00700636
4334.03016724,0.00695383
4335.95897461,0.00701226
4337.88778198,0.00693360
4339.81658936,0.00693783
4341.74539673,0.00686057
4343.67420410,0.00679590
4345.60301147,0.00677829
4347.53181885,0.00681748
4349.46062622,0.00680478
4351.38943359,0.00681067
4353.31824097,0.00688265
4355.24704834,0.00671946
4357.17585571,0.00666900
4359.10466309,0.00671767
4361.03347046,0.00677880
4362.96227783,0.00670994
4364.89108520,0.00670233
4366.81989258,0.00681077
4368.74869995,0.00662713
4370.67750732,0.00662506
4372.60631470,0.00665217
4374.53512207,0.00659498
4376.46392944,0.00659229
4378.39273682,0.00651967
4380.32154419,0.00653960
4382.25035156,0.00657526
4384.17915894,0.00659511
4386.10796631,0.00650498
4388.03677368,0.00647989
4389.96558105,0.00655206
4391.89438843,0.00645166
4393.82319580,0.00640400
4395.75200317,0.00646974
4397.68081055,0.00641968
4399.60961792,0.00644663
4401.53842529,0.00651606
4403.46723267,0.00641242
4405.39604004,0.00634834
4407.32484741,0.00626978
4409.25365478,0.00630286
4411.18246216,0.00627822
4413.11126953,0.00616581
4415.04007690,0.00631141
4416.96888428,0.00632638
4418.89769165,0.00626361
4420.82649902,0.00623049
4422.75530640,0.00621448
4424.68411377,0.00621556
4426.61292114,0.00623111
4428.54172852,0.00624308
4430.47053589,0.00615065
4432.39934326,0.00617377
4434.32815063,0.00613005
4436.25695801,0.00618663
4438.18576538,0.00616531
4440.11457275,0.00602512
4442.04338013,0.00610878
4443.97218750,0.00604001
4445.90099487,0.00603731
4447.82980225,0.00600032
4449.75860962,0.00599225
4451.68741699,0.00602325
4453.61622437,0.00587678
4455.54503174,0.00593640
4457.47383911,0.00596216
4459.40264648,0.00594734
4461.33145386,0.00591683
4463.26026123,0.00586449
4465.18906860,0.00587851
4467.11787598,0.00590172
4469.04668335,0.00591967
4470.97549072,0.00580276
4472.90429810,0.00576171
4474.83310547,0.00578800
4476.76191284,0.00586378
4478.69072021,0.00584792
4480.61952759,0.00580348
4482.54833496,0.00582526
4484.47714233,0.00570211
4486.40594971,0.00575791
4488.33475708,0.00573239
4490.26356445,0.00568302
4492.19237183,0.00575101
4494.12117920,0.00561965
4496.04998657,0.00565914
4497.97879395,0.00568039
4499.90760132,0.00559061
4501.83640869,0.00558169
4503.76521606,0.00549706
4505.69402344,0.00552935
4507.62283081,0.00560795
4509.55163818,0.00555090
4511.48044556,0.00550288
4513.40925293,0.00552424
4515.33806030,0.00553196
4517.26686768,0.00544923
4519.19567505,0.00542127
4521.12448242,0.00543526
4523.05328979,0.00538610
4524.98209717,0.00542115
4526.91090454,0.00542038
4528.83971191,0.00536676
4530.76851929,0.00536779
4532.69732666,0.00534743
4534.62613403,0.00530471
4536.55494141,0.00528915
4538.48374878,0.00536675
4540.41255615,0.00533919
4542.34136353,0.00529794
4544.27017090,0.00531942
4546.19897827,0.00527681
4548.12778564,0.00530089
4550.05659302,0.00521056
4551.98540039,0.00519503
4553.91420776,0.00527802
4555.84301514,0.00517055
4557.77182251,0.00518200
4559.70062988,0.00519425
4561.62943726,0.00511403
4563.55824463,0.00516766
4565.48705200,0.00517690
4567.41585937,0.00514979
4569.34466675,0.00518107
4571.27347412,0.00513103
4573.20228149,0.00505713
4575.13108887,0.00508037
4577.05989624,0.00508474
4578.98870361,0.00501134
4580.91751099,0.00502280
4582.84631836,0.00500830
4584.77512573,0.00497512
4586.70393311,0.00504854
4588.63274048,0.00500738
4590.56154785,0.00503396
4592.49035522,0.00499562
4594.41916260,0.00487049
4596.34796997,0.00493497
4598.27677734,0.00486140
4600.20558472,0.00485442
4602.13439209,0.00487174
4604.06319946,0.00483246
4605.99200684,0.00485793
4607.92081421,0.00477934
4609.84962158,0.00482218
4611.77842895,0.00477230
4613.70723633,0.00469902
4615.63604370,0.00478153
4617.56485107,0.00477310
4619.49365845,0.00474269
4621.42246582,0.00470133
4623.35127319,0.00474617
4625.28008057,0.00480539
4627.20888794,0.00471899
4629.13769531,0.00466208
4631.06650269,0.00474491
4632.99531006,0.00474233
4634.92411743,0.00465096
4636.85292480,0.00465937
4638.78173218,0.00464856
4640.71053955,0.00465576
4642.63934692,0.00470083
4644.56815430,0.00460463
4646.49696167,0.00452197
4648.42576904,0.00462544
4650.35457642,0.00458794
4652.28338379,0.00452174
4654.21219116,0.00452900
4656.14099853,0.00446470
4658.06980591,0.00453245
4659.99861328,0.00449223
4661.92742065,0.00451771
4663.85622803,0.00456006
4665.78503540,0.00445647
4667.71384277,0.00444348
4669.64265015,0.00435930
4671.57145752,0.00441965
4673.50026489,0.00440240
4675.42907227,0.00436845
4677.35787964,0.00443345
4679.28668701,0.00438597
4681.21549438,0.00444184
4683.14430176,0.00440227
4685.07310913,0.00435347
4687.00191650,0.00431866
4688.93072388,0.00434332
4690.85953125,0.00430342
4692.78833862,0.00420259
4694.71714600,0.00428990
4696.64595337,0.00424310
4698.57476074,0.00430267
4700.50356812,0.00429843
4702.43237549,0.00419297
4704.36118286,0.00419935
4706.28999023,0.00417399
4708.21879761,0.00423704
4710.14760498,0.00421268
4712.07641235,0.00423979
4714.00521973,0.00420716
4715.93402710,0.00415507
4717.86283447,0.00420680
4719.79164185,0.00411233
4721.72044922,0.00409825
4723.64925659,0.00411536
4725.57806396,0.00409726
4727.50687134,0.00408296
4729.43567871,0.00407324
4731.36448608,0.00411719
4733.29329346,0.00412241
4735.22210083,0.00403766
4737.15090820,0.00407711
4739.07971558,0.00415528
4741.00852295,0.00407388
4742.93733032,0.00408624
4744.86613770,0.00401075
4746.79494507,0.00397771
4748.72375244,0.00403660
4750.65255981,0.00396498
4752.58136719,0.00395013
4754.51017456,0.00393837
4756.43898193,0.00397833
4758.36778931,0.00401253
4760.29659668,0.00400642
4762.22540405,0.00387668
4764.15421143,0.00388416
4766.08301880,0.00396462
4768.01182617,0.00379870
4769.94063354,0.00389638
4771.86944092,0.00388283
4773.79824829,0.00378850
4775.72705566,0.00388231
4777.65586304,0.00384510
4779.58467041,0.00387066
4781.51347778,0.00388172
4783.44228516,0.00385430
4785.37109253,0.00384683
4787.29989990,0.00387541
4789.22870728,0.00378666
4791.15751465,0.00373448
4793.08632202,0.00380359
4795.01512939,0.00371770
4796.94393677,0.00374553
4798.87274414,0.00376889
4800.80155151,0.00369898
4802.73035889,0.00370281
4804.65916626,0.00374573
4806.58797363,0.00371968
4808.51678101,0.00367051
4810.44558838,0.00361603
4812.37439575,0.00358123
4814.30320312,0.00369833
4816.23201050,0.00364477
4818.16081787,0.00366473
4820.08962524,0.00366721
4822.01843262,0.00357665
4823.94723999,0.00363615
4825.87604736,0.00352811
4827.80485474,0.00357976
4829.73366211,0.00361905
4831.66246948,0.00356354
4833.59127686,0.00353164
4835.52008423,0.00348946
4837.44889160,0.00354557
4839.37769897,0.00345651
4841.30650635,0.00346709
4843.23531372,0.00346907
4845.16412109,0.00350416
4847.09292847,0.00352976
4849.02173584,0.00345578
4850.95054321,0.00349902
4852.87935059,0.00344486
4854.80815796,0.00349441
4856.73696533,0.00344889
4858.66577270,0.00338677
4860.59458008,0.00345046
4862.52338745,0.00345802
4864.45219482,0.00344607
4866.38100220,0.00330505
4868.30980957,0.00338000
4870.23861694,0.00344126
4872.16742432,0.00337282
4874.09623169,0.00336391
4876.02503906,0.00334517
4877.95384644,0.00336831
4879.88265381,0.00333777
4881.81146118,0.00336177
4883.74026855,0.00331995
4885.66907593,0.00329726
4887.59788330,0.00331787
4889.52669067,0.00326985
4891.45549805,0.00325471
4893.38430542,0.00323348
4895.31311279,0.00327796
4897.24192017,0.00326392
4899.17072754,0.00324135
4901.09953491,0.00321390
4903.02834228,0.00322096
4904.95714966,0.00325864
4906.88595703,0.00320103
4908.81476440,0.00321884
4910.74357178,0.00316231
4912.67237915,0.00311256
4914.60118652,0.00313784
4916.52999390,0.00312103
4918.45880127,0.00309979
4920.38760864,0.00314379
4922.31641602,0.00316665
4924.24522339,0.00307693
4926.17403076,0.00318136
4928.10283813,0.00313246
4930.03164551,0.00300319
4931.96045288,0.00314048
4933.88926025,0.00308254
4935.81806763,0.00301879
4937.74687500,0.00307615
4939.67568237,0.00306725
4941.60448975,0.00302454
4943.53329712,0.00300571
4945.46210449,0.00301918
4947.39091187,0.00299923
4949.31971924,0.00304175
4951.24852661,0.00300105
4953.17733398,0.00293337
4955.10614136,0.00297683
4957.03494873,0.00296239
4958.96375610,0.00294755
4960.89256348,0.00291656
4962.82137085,0.00291520
4964.75017822,0.00298042
4966.67898560,0.00296194
4968.60779297,0.00291904
4970.53660034,0.00289203
4972.46540771,0.00290581
4974.39421509,0.00289351
4976.32302246,0.00283942
4978.25182983,0.00294102
4980.18063721,0.00295273
4982.10944458,0.00279946
4984.03825195,0.00283025
4985.96705933,0.00287040
4987.89586670,0.00284744
4989.82467407,0.00292112
4991.75348145,0.00289066
4993.68228882,0.00281886
4995.61109619,0.00280425
4997.53990356,0.00280949
4999.46871094,0.00281749
5001.39751831,0.00273325
5003.32632568,0.00275753
5005.25513306,0.00275703
5007.18394043,0.00275185
5009.11274780,0.00282721
5011.04155518,0.00271765
5012.97036255,0.00274757
5014.89916992,0.00277424
5016.82797729,0.00275192
5018.75678467,0.00279150
5020.68559204,0.00269059
5022.61439941,0.00271671
5024.54320679,0.00273282
5026.47201416,0.00274348
5028.40082153,0.00275399
5030.32962891,0.00269023
5032.25843628,0.00262015
5034.18724365,0.00257521
5036.11605103,0.00267962
5038.04485840,0.00265067
5039.97366577,0.00265464
5041.90247314,0.00265096
5043.83128052,0.00260091
5045.76008789,0.00262687
5047.68889526,0.00256362
5049.61770264,0.00262148
5051.54651001,0.00259690
5053.47531738,0.00259452
5055.40412476,0.00258968
5057.33293213,0.00249555
5059.26173950,0.00252225
5061.19054687,0.00253296
5063.11935425,0.00256373
5065.04816162,0.00250870
5066.97696899,0.00255590
5068.90577637,0.00256521
5070.83458374,0.00253653
5072.76339111,0.00257248
5074.69219849,0.00251246
5076.62100586,0.00254576
5078.54981323,0.00242320
5080.47862061,0.00249423
5082.40742798,0.00255422
5084.33623535,0.00240744
5086.26504272,0.00247077
5088.19385010,0.00243638
5090.12265747,0.00246030
5092.05146484,0.00241730
5093.98027222,0.00242327
5095.90907959,0.00247247
5097.83788696,0.00238227
5099.76669434,0.00244875
5101.69550171,0.00237667
5103.62430908,0.00237555
5105.55311645,0.00247901
5107.48192383,0.00237635
5109.41073120,0.00228348
5111.33953857,0.00234217
5113.26834595,0.00244357
5115.19715332,0.00243165
5117.12596069,0.00233919
5119.05476807,0.00235072
5120.98357544,0.00243461
5122.91238281,0.00238947
5124.84119019,0.00238845
5126.76999756,0.00230397
5128.69880493,0.00225451
5130.62761230,0.00229848
5132.55641968,0.00226360
5134.48522705,0.00236183
5136.41403442,0.00229177
5138.34284180,0.00231522
5140.27164917,0.00229526
5142.20045654,0.00218075
5144.12926392,0.00231932
5146.05807129,0.00224828
5147.98687866,0.00225829
5149.91568603,0.00225685
5151.84449341,0.00221818
5153.77330078,0.00225903
5155.70210815,0.00221163
5157.63091553,0.00227513
5159.55972290,0.00219518
5161.48853027,0.00210721
5163.41733765,0.00216377
5165.34614502,0.00225806
5167.27495239,0.00216809
5169.20375977,0.00208606
5171.13256714,0.00217149
5173.06137451,0.00213038
5174.99018188,0.00221415
5176.91898926,0.00215288
5178.84779663,0.00206779
5180.77660400,0.00212392
5182.70541138,0.00209664
5184.63421875,0.00213296
5186.56302612,0.00206597
5188.49183350,0.00206179
5190.42064087,0.00208093
5192.34944824,0.00212239
5194.27825562,0.00215108
5196.20706299,0.00202675
5198.13587036,0.00201954
5200.06467773,0.00202671
5201.99348511,0.00209818
5203.92229248,0.00213432
5205.85109985,0.00201403
5207.77990723,0.00199949
5209.70871460,0.00205507
5211.63752197,0.00203266
5213.56632935,0.00202684
5215.49513672,0.00202909
5217.42394409,0.00196618
5219.35275146,0.00203458
5221.28155884,0.00205336
5223.21036621,0.00196092
5225.13917358,0.00197772
5227.06798096,0.00204727
5228.99678833,0.00204171
5230.92559570,0.00197470
5232.85440308,0.00200117
5234.78321045,0.00198914
5236.71201782,0.00197685
5238.64082520,0.00197776
5240.56963257,0.00194758
5242.49843994,0.00194626
5244.42724731,0.00190576
5246.35605469,0.00193752
5248.28486206,0.00184087
5250.21366943,0.00178489
5252.14247681,0.00195180
5254.07128418,0.00191600
5256.00009155,0.00185205
5257.92889893,0.00190098
5259.85770630,0.00189453
5261.78651367,0.00191708
5263.71532104,0.00188354
5265.64412842,0.00183317
5267.57293579,0.00191378
5269.50174316,0.00190177
5271.43055054,0.00193765
5273.35935791,0.00199534
5275.28816528,0.00188837
5277.21697266,0.00193928
5279.14578003,0.00189862
5281.07458740,0.00182769
5283.00339478,0.00187121
5284.93220215,0.00179134
5286.86100952,0.00186689
5288.78981689,0.00184341
5290.71862427,0.00173651
5292.64743164,0.00185325
5294.57623901,0.00183746
5296.50504639,0.00177434
5298.43385376,0.00184206
5300.36266113,0.00185664
5302.29146851,0.00182772
5304.22027588,0.00186104
5306.14908325,0.00180446
5308.07789062,0.00172142
5310.00669800,0.00181046
5311.93550537,0.00179537
5313.86431274,0.00177687
5315.79312012,0.00184947
5317.72192749,0.00177705
5319.65073486,0.00180240
5321.57954224,0.00182605
5323.50834961,0.00176043
5325.43715698,0.00176051
5327.36596436,0.00170421
5329.29477173,0.00171966
5331.22357910,0.00172296
5333.15238647,0.00167076
5335.08119385,0.00172542
5337.01000122,0.00171968
5338.93880859,0.00157760
5340.86761597,0.00157851
5342.79642334,0.00172325
5344.72523071,0.00164917
5346.65403809,0.00161514
5348.58284546,0.00168596
5350.51165283,0.00167714
5352.44046020,0.00166820
5354.36926758,0.00157066
5356.29807495,0.00162811
5358.22688232,0.00171486
5360.15568970,0.00167313
5362.08449707,0.00167543
5364.01330444,0.00163853
5365.94211182,0.00163359
5367.87091919,0.00165311
5369.79972656,0.00161702
5371.72853394,0.00155241
5373.65734131,0.00161528
5375.58614868,0.00160992
5377.51495605,0.00149014
5379.44376343,0.00158909
5381.37257080,0.00158667
5383.30137817,0.00152009
5385.23018555,0.00161178
5387.15899292,0.00162084
5389.08780029,0.00163577
5391.01660767,0.00163274
5392.94541504,0.00150199
5394.87422241,0.00151458
5396.80302978,0.00156676
5398.73183716,0.00150556
5400.66064453,0.00155782
5402.58945190,0.00152845
5404.51825928,0.00147692
5406.44706665,0.00152744
5408.37587402,0.00152138
5410.30468140,0.00154198
5412.23348877,0.00145851
5414.16229614,0.00142956
5416.09110352,0.00151000
5418.01991089,0.00147509
5419.94871826,0.00152496
5421.87752563,0.00156604
5423.80633301,0.00144548
5425.73514038,0.00148087
5427.66394775,0.00153528
5429.59275513,0.00142584
5431.52156250,0.00146743
5433.45036987,0.00147552
5435.37917725,0.00143738
5437.30798462,0.00148440
5439.23679199,0.00149616
5441.16559936,0.00144728
5443.09440674,0.00137255
5445.02321411,0.00145013
5446.95202148,0.00140251
5448.88082886,0.00146619
5450.80963623,0.00151675
5452.73844360,0.00132238
5454.66725098,0.00147240
5456.59605835,0.00144786
5458.52486572,0.00137422
5460.45367310,0.00142449
5462.38248047,0.00134310
5464.31128784,0.00142525
5466.24009521,0.00139604
5468.16890259,0.00139249
5470.09770996,0.00133247
5472.02651733,0.00130099
5473.95532471,0.00139328
5475.88413208,0.00128113
5477.81293945,0.00134538
5479.74174683,0.00140852
5481.67055420,0.00137193
5483.59936157,0.00138754
5485.52816895,0.00133375
5487.45697632,0.00138654
5489.38578369,0.00144228
5491.31459106,0.00136687
5493.24339844,0.00132084
5495.17220581,0.00135001
5497.10101318,0.00137210
5499.02982056,0.00136982
5500.95862793,0.00135168
5502.88743530,0.00139305
5504.81624268,0.00141136
5506.74505005,0.00134709
5508.67385742,0.00131161
5510.60266479,0.00132107
5512.53147217,0.00133452
5514.46027954,0.00132467
5516.38908691,0.00134570
5518.31789429,0.00126337
5520.24670166,0.00126887
5522.17550903,0.00131780
5524.10431641,0.00122934
5526.03312378,0.00131273
5527.96193115,0.00128388
5529.89073853,0.00126136
5531.81954590,0.00131130
5533.74835327,0.00122750
5535.67716064,0.00128838
5537.60596802,0.00126885
5539.53477539,0.00123149
5541.46358276,0.00132176
5543.39239014,0.00128970
5545.32119751,0.00120876
5547.25000488,0.00129078
5549.17881226,0.00133058
5551.10761963,0.00122233
5553.03642700,0.00123348
5554.96523437,0.00123496
5556.89404175,0.00122642
5558.82284912,0.00125846
5560.75165649,0.00122388
5562.68046387,0.00117996
5564.60927124,0.00120991
5566.53807861,0.00124826
5568.46688599,0.00123059
5570.39569336,0.00121303
5572.32450073,0.00112699
5574.25330811,0.00120846
5576.18211548,0.00122922
5578.11092285,0.00112320
5580.03973022,0.00116828
5581.96853760,0.00112703
5583.89734497,0.00121039
5585.82615234,0.00117683
5587.75495972,0.00111186
5589.68376709,0.00119111
5591.61257446,0.00113053
5593.54138184,0.00121221
5595.47018921,0.00116136
5597.39899658,0.00114195
5599.32780395,0.00120311
5601.25661133,0.00108869
5603.18541870,0.00112105
5605.11422607,0.00113699
5607.04303345,0.00113816
5608.97184082,0.00113992
5610.90064819,0.00114037
5612.82945557,0.00114370
5614.75826294,0.00110155
5616.68707031,0.00113795
5618.61587769,0.00113746
5620.54468506,0.00111731
5622.47349243,0.00106581
5624.40229980,0.00105454
5626.33110718,0.00108994
5628.25991455,0.00109395
5630.18872192,0.00112741
5632.11752930,0.00110150
5634.04633667,0.00109639
5635.97514404,0.00105185
5637.90395142,0.00103580
5639.83275879,0.00115508
5641.76156616,0.00110620
5643.69037353,0.00104700
5645.61918091,0.00110883
5647.54798828,0.00105847
5649.47679565,0.00106791
5651.40560303,0.00107933
5653.33441040,0.00099573
5655.26321777,0.00105393
5657.19202515,0.00105493
5659.12083252,0.00103528
5661.04963989,0.00105030
5662.97844727,0.00098948
5664.90725464,0.00104906
5666.83606201,0.00104776
5668.76486938,0.00098953
5670.69367676,0.00102916
5672.62248413,0.00107479
5674.55129150,0.00108515
5676.48009888,0.00103773
5678.40890625,0.00100810
5680.33771362,0.00099189
5682.26652100,0.00099948
5684.19532837,0.00096208
5686.12413574,0.00093540
5688.05294311,0.00101220
5689.98175049,0.00101445
5691.91055786,0.00096598
5693.83936523,0.00098679
5695.76817261,0.00102943
5697.69697998,0.00095632
5699.62578735,0.00093663
5701.55459473,0.00101998
5703.48340210,0.00098536
5705.41220947,0.00096374
5707.34101685,0.00099886
5709.26982422,0.00099364
5711.19863159,0.00099525
5713.12743896,0.00102110
5715.05624634,0.00096128
5716.98505371,0.00093792
5718.91386108,0.00097093
5720.84266846,0.00091979
5722.77147583,0.00096134
5724.70028320,0.00092620
5726.62909058,0.00087072
5728.55789795,0.00096725
5730.48670532,0.00096371
5732.41551270,0.00091691
5734.34432007,0.00090432
5736.27312744,0.00095697
5738.20193481,0.00097134
5740.13074219,0.00089646
5742.05954956,0.00087985
5743.98835693,0.00089516
5745.91716431,0.00091519
5747.84597168,0.00095234
5749.77477905,0.00093638
5751.70358643,0.00084550
5753.63239380,0.00092029
5755.56120117,0.00096422
5757.49000854,0.00089869
5759.41881592,0.00093790
5761.34762329,0.00089575
5763.27643066,0.00091638
5765.20523804,0.00087976
5767.13404541,0.00085232
5769.06285278,0.00096946
5770.99166016,0.00089611
5772.92046753,0.00090491
5774.84927490,0.00096701
5776.77808228,0.00090677
5778.70688965,0.00083512
5780.63569702,0.00083067
5782.56450439,0.00087810
5784.49331177,0.00084810
5786.42211914,0.00088159
5788.35092651,0.00087036
5790.27973389,0.00082960
5792.20854126,0.00081091
5794.13734863,0.00076310
5796.06615601,0.00083609
5797.99496338,0.00088495
5799.92377075,0.00085781
5801.85257812,0.00081854
5803.78138550,0.00080887
5805.71019287,0.00080896
5807.63900024,0.00082816
5809.56780762,0.00082006
5811.49661499,0.00074829
5813.42542236,0.00082519
5815.35422974,0.00087469
5817.28303711,0.00082406
5819.21184448,0.00081983
5821.14065186,0.00085562
5823.06945923,0.00085010
5824.99826660,0.00078346
5826.92707397,0.00078089
5828.85588135,0.00077209
5830.78468872,0.00079012
5832.71349609,0.00075627
5834.64230347,0.00075372
5836.57111084,0.00079636
5838.49991821,0.00069056
5840.42872559,0.00075310
5842.35753296,0.00082836
5844.28634033,0.00083125
5846.21514770,0.00082630
5848.14395508,0.00072802
5850.07276245,0.00078084
5852.00156982,0.00072347
5853.93037720,0.00065560
5855.85918457,0.00079468
5857.78799194,0.00077029
5859.71679932,0.00072392
5861.64560669,0.00070418
5863.57441406,0.00062791
5865.50322144,0.00073124
5867.43202881,0.00076631
5869.36083618,0.00072210
5871.28964355,0.00077848
5873.21845093,0.00065695
5875.14725830,0.00060938
5877.07606567,0.00069386
5879.00487305,0.00073185
5880.93368042,0.00076727
5882.86248779,0.00068164
5884.79129517,0.00069851
5886.72010254,0.00071947
5888.64890991,0.00069200
5890.57771728,0.00073869
5892.50652466,0.00068712
5894.43533203,0.00065378
5896.36413940,0.00062731
5898.29294678,0.00063920
5900.22175415,0.00073110
5902.15056152,0.00072443
5904.07936890,0.00064433
5906.00817627,0.00065476
5907.93698364,0.00064206
5909.86579102,0.00063671
5911.79459839,0.00078643
5913.72340576,0.00070601
5915.65221313,0.00062986
5917.58102051,0.00068706
5919.50982788,0.00060009
5921.43863525,0.00066663
5923.36744263,0.00071138
5925.29625000,0.00070853
5927.22505737,0.00076159
5929.15386475,0.00069428
5931.08267212,0.00067625
5933.01147949,0.00069733
5934.94028686,0.00067313
5936.86909424,0.00067425
5938.79790161,0.00070535
5940.72670898,0.00067280
5942.65551636,0.00063920
5944.58432373,0.00069477
5946.51313110,0.00068666
5948.44193848,0.00062991
5950.37074585,0.00063290
5952.29955322,0.00060628
5954.22836060,0.00057972
5956.15716797,0.00065117
5958.08597534,0.00066521
5960.01478271,0.00063862
5961.94359009,0.00063667
5963.87239746,0.00058989
5965.80120483,0.00059935
5967.73001221,0.00061083
5969.65881958,0.00056844
5971.58762695,0.00058362
5973.51643433,0.00062824
5975.44524170,0.00063637
5977.37404907,0.00064699
5979.30285645,0.00060215
5981.23166382,0.00055773
5983.16047119,0.00064266
5985.08927856,0.00062428
5987.01808594,0.00057376
5988.94689331,0.00062015
5990.87570068,0.00054284
5992.80450806,0.00052719
5994.73331543,0.00061047
5996.66212280,0.00059593
5998.59093018,0.00063933
6000.51973755,0.00065280
