399.26312622,0.00060576
401.19193359,0.00008776
403.12074097,0.00093818
405.04954834,0.00094794
406.97835571,0.00114039
408.90716309,0.00106663
410.83597046,0.00072454
412.76477783,0.00117732
414.69358521,0.00091036
416.62239258,0.00135225
418.55119995,0.00135215
420.48000732,0.00076360
422.40881470,0.00150571
424.33762207,0.00109397
426.26642944,0.00099123
428.19523682,0.00124351
430.12404419,0.00108249
432.05285156,0.00144337
433.98165894,0.00112409
435.91046631,0.00113677
437.83927368,0.00101902
439.76808105,0.00097232
441.69688843,0.00119976
443.62569580,0.00126591
445.55450317,0.00143574
447.48331055,0.00121365
449.41211792,0.00124854
451.34092529,0.00077241
453.26973267,0.00081725
455.19854004,0.00086708
457.12734741,0.00044510
459.05615479,0.00117862
460.98496216,0.00100772
462.91376953,0.00071763
464.84257690,0.00077871
466.77138428,0.00058089
468.70019165,0.00071663
470.62899902,0.00075867
472.55780640,0.00088189
474.48661377,0.00047620
476.41542114,0.00035774
478.34422852,0.00050092
480.27303589,0.00030312
482.20184326,0.00027019
484.13065063,0.00013645
486.05945801,0.00021925
487.98826538,0.00002698
489.91707275,0.00007250
491.84588013,0.00051026
493.77468750,0.00018771
495.70349487,0.00009803
497.63230225,0.00044519
499.56110962,0.00011092
501.48991699,-0.00002121
503.41872437,0.00036414
505.34753174,0.00008739
507.27633911,0.00002599
509.20514648,0.00041743
511.13395386,0.00031392
513.06276123,0.00029692
514.99156860,0.00048603
516.92037598,0.00017164
518.84918335,-0.00014367
520.77799072,0.00010942
522.70679810,0.00012633
524.63560547,-0.00001463
526.56441284,0.00009725
528.49322021,0.00013573
530.42202759,0.00017210
532.35083496,0.00038126
534.27964233,0.00061103
536.20844971,0.00033306
538.13725708,-0.00003569
540.06606445,0.00003731
541.99487183,-0.00002513
543.92367920,-0.00001377
545.85248657,0.00032682
547.78129395,0.00039014
549.71010132,0.00006375
551.63890869,0.00002100
553.56771606,0.00047027
555.49652344,0.00041808
557.42533081,0.00005433
559.35413818,0.00009206
561.28294556,0.00008801
563.21175293,-0.00006503
565.14056030,-0.00002799
567.06936768,0.00006478
568.99817505,-0.00001615
570.92698242,0.00038700
572.85578979,0.00001823
574.78459717,-0.00008478
576.71340454,0.00005739
578.64221191,0.00006010
580.57101929,0.00050757
582.49982666,0.00001844
584.42863403,0.00031080
586.35744141,0.00047627
588.28624878,0.00000529
590.21505615,0.00014773
592.14386353,0.00008071
594.07267090,0.00028507
596.00147827,0.00033781
597.93028564,0.00027087
599.85909302,0.00013777
601.78790039,0.00018012
603.71670776,0.00033137
605.64551514,-0.00003481
607.57432251,0.00016490
609.50312988,0.00048345
611.43193726,0.00044896
613.36074463,0.00025469
615.28955200,-0.00008091
617.21835938,0.00006476
619.14716675,-0.00007413
621.07597412,-0.00003094
623.00478149,0.00016178
624.93358887,-0.00015086
626.86239624,0.00008418
628.79120361,0.00025195
630.72001099,0.00041707
632.64881836,0.00091142
634.57762573,0.00084317
636.50643311,0.00072403
638.43524048,0.00105650
640.36404785,0.00110508
642.29285522,0.00067799
644.22166260,0.00117463
646.15046997,0.00154333
648.07927734,0.00122479
650.00808472,0.00144370
651.93689209,0.00147043
653.86569946,0.00148382
655.79450684,0.00178344
657.72331421,0.00196346
659.65212158,0.00173200
661.58092896,0.00148732
663.50973633,0.00193991
665.43854370,0.00220990
667.36735107,0.00201803
669.29615845,0.00227336
671.22496582,0.00252392
673.15377319,0.00228756
675.08258057,0.00263224
677.01138794,0.00270201
678.94019531,0.00218515
680.86900269,0.00251608
682.79781006,0.00253522
684.72661743,0.00255198
686.65542480,0.00309685
688.58423218,0.00260117
690.51303955,0.00239326
692.44184692,0.00287503
694.37065430,0.00273732
696.29946167,0.00313535
698.22826904,0.00390508
700.15707642,0.00405461
702.08588379,0.00380710
704.01469116,0.00339949
705.94349854,0.00326029
707.87230591,0.00272884
709.80111328,0.00199601
711.72992065,0.00153754
713.65872803,0.00092701
715.58753540,0.00063506
717.51634277,0.00065607
719.44515015,0.00046892
721.37395752,0.00002216
723.30276489,0.00012132
725.23157227,0.00027683
727.16037964,0.00018595
729.08918701,0.00028268
731.01799438,0.00007019
732.94680176,0.00037827
734.87560913,0.00035459
736.80441650,0.00004452
738.73322388,0.00027886
740.66203125,0.00006652
742.59083862,0.00012563
744.51964600,0.00033449
746.44845337,0.00016307
748.37726074,-0.00002685
750.30606812,0.00000986
752.23487549,0.00020892
754.16368286,0.00025429
756.09249023,0.00011223
758.02129761,-0.00008005
759.95010498,0.00005995
761.87891235,0.00029644
763.80771973,0.00016182
765.73652710,-0.00007557
767.66533447,0.00007140
769.59414185,0.00029276
771.52294922,0.00026552
773.45175659,0.00027781
775.38056396,0.00026634
777.30937134,0.00043539
779.23817871,0.00048763
781.16698608,0.00010977
783.09579346,-0.00001579
785.02460083,0.00032570
786.95340820,0.00053923
788.88221558,0.00052006
790.81102295,0.00047880
792.73983032,-0.00005679
794.66863770,-0.00000914
796.59744507,0.00064383
798.52625244,0.00049730
800.45505981,0.00038144
802.38386719,0.00047337
804.31267456,0.00034633
806.24148193,0.00009979
808.17028931,0.00010468
810.09909668,0.00044615
812.02790405,0.00052075
813.95671143,0.00019959
815.88551880,-0.00007220
817.81432617,0.00013472
819.74313354,0.00016834
821.67194092,0.00022325
823.60074829,0.00045466
825.52955566,0.00042798
827.45836304,0.00069426
829.38717041,0.00072534
831.31597778,0.00070764
833.24478516,0.00100255
835.17359253,0.00097228
837.10239990,0.00106489
839.03120728,0.00088708
840.96001465,0.00055469
842.88882202,0.00093267
844.81762939,0.00087975
846.74643677,0.00047008
848.67524414,0.00045638
850.60405151,0.00038297
852.53285889,0.00055055
854.46166626,0.00063322
856.39047363,0.00058483
858.31928101,0.00059078
860.24808838,0.00044885
862.17689575,0.00030283
864.10570313,0.00018800
866.03451050,0.00056569
867.96331787,0.00034661
869.89212524,-0.00007659
871.82093262,0.00029602
873.74973999,0.00021228
875.67854736,0.00026682
877.60735474,0.00034060
879.53616211,0.00026081
881.46496948,0.00044798
883.39377686,0.00037415
885.32258423,0.00048093
887.25139160,0.00038961
889.18019897,0.00017004
891.10900635,0.00044527
893.03781372,0.00043646
894.96662109,0.00024969
896.89542847,0.00036417
898.82423584,0.00053317
900.75304321,0.00053916
902.68185059,0.00027372
904.61065796,0.00010612
906.53946533,0.00044765
908.46827271,0.00052768
910.39708008,0.00043546
912.32588745,0.00065303
914.25469482,0.00059591
916.18350220,0.00055524
918.11230957,0.00057546
920.04111694,0.00061859
921.96992432,0.00077933
923.89873169,0.00062076
925.82753906,0.00056911
927.75634644,0.00078414
929.68515381,0.00079819
931.61396118,0.00095490
933.54276855,0.00115284
935.47157593,0.00104605
937.40038330,0.00115623
939.32919067,0.00108580
941.25799805,0.00105280
943.18680542,0.00138864
945.11561279,0.00120970
947.04442017,0.00112999
948.97322754,0.00145030
950.90203491,0.00144371
952.83084229,0.00129618
954.75964966,0.00120848
956.68845703,0.00126222
958.61726440,0.00153133
960.54607178,0.00125337
962.47487915,0.00098140
964.40368652,0.00148248
966.33249390,0.00152801
968.26130127,0.00138923
970.19010864,0.00144772
972.11891602,0.00141679
974.04772339,0.00160559
975.97653076,0.00180690
977.90533813,0.00188767
979.83414551,0.00187468
981.76295288,0.00211890
983.69176025,0.00239371
985.62056763,0.00266343
987.54937500,0.00291605
989.47818237,0.00309262
991.40698975,0.00347124
993.33579712,0.00368296
995.26460449,0.00413473
997.19341187,0.00448564
999.12221924,0.00471702
1001.05102661,0.00509045
1002.97983398,0.00528055
1004.90864136,0.00574076
1006.83744873,0.00607037
1008.76625610,0.00644569
1010.69506348,0.00677042
1012.62387085,0.00719314
1014.55267822,0.00771279
1016.48148560,0.00766515
1018.41029297,0.00818834
1020.33910034,0.00862403
1022.26790771,0.00870974
1024.19671509,0.00933800
1026.12552246,0.00976514
1028.05432983,0.01001946
1029.98313721,0.01025059
1031.91194458,0.01053425
1033.84075195,0.01094413
1035.76955933,0.01104181
1037.69836670,0.01104638
1039.62717407,0.01115708
1041.55598145,0.01101174
1043.48478882,0.01092872
1045.41359619,0.01096569
1047.34240356,0.01071372
1049.27121094,0.01046540
1051.20001831,0.01040003
1053.12882568,0.01026560
1055.05763306,0.00983609
1056.98644043,0.00960626
1058.91524780,0.00957904
1060.84405518,0.00935172
1062.77286255,0.00894865
1064.70166992,0.00859597
1066.63047729,0.00856229
1068.55928467,0.00805785
1070.48809204,0.00757319
1072.41689941,0.00757334
1074.34570679,0.00710314
1076.27451416,0.00655114
1078.20332153,0.00620854
1080.13212891,0.00588994
1082.06093628,0.00583925
1083.98974365,0.00577130
1085.91855103,0.00524931
1087.84735840,0.00502631
1089.77616577,0.00490951
1091.70497314,0.00446967
1093.63378052,0.00441629
1095.56258789,0.00432917
1097.49139526,0.00422016
1099.42020264,0.00411693
1101.34901001,0.00406609
1103.27781738,0.00410175
1105.20662476,0.00377130
1107.13543213,0.00361104
1109.06423950,0.00353917
1110.99304687,0.00362852
1112.92185425,0.00365752
1114.85066162,0.00331846
1116.77946899,0.00350291
1118.70827637,0.00376840
1120.63708374,0.00360051
1122.56589111,0.00369117
1124.49469849,0.00371877
1126.42350586,0.00354099
1128.35231323,0.00372519
1130.28112061,0.00383576
1132.20992798,0.00410751
1134.13873535,0.00421726
1136.06754272,0.00425445
1137.99635010,0.00465489
1139.92515747,0.00441938
1141.85396484,0.00474284
1143.78277222,0.00529437
1145.71157959,0.00551135
1147.64038696,0.00605085
1149.56919434,0.00619371
1151.49800171,0.00664704
1153.42680908,0.00695698
1155.35561646,0.00709392
1157.28442383,0.00744569
1159.21323120,0.00750403
1161.14203857,0.00776118
1163.07084595,0.00808203
1164.99965332,0.00852279
1166.92846069,0.00897417
1168.85726807,0.00924680
1170.78607544,0.00945050
1172.71488281,0.00986386
1174.64369019,0.01031282
1176.57249756,0.01064052
1178.50130493,0.01107540
1180.43011230,0.01121616
1182.35891968,0.01166895
1184.28772705,0.01234943
1186.21653442,0.01284467
1188.14534180,0.01340803
1190.07414917,0.01414588
1192.00295654,0.01476035
1193.93176392,0.01509758
1195.86057129,0.01588814
1197.78937866,0.01666817
1199.71818604,0.01762734
1201.64699341,0.01834604
1203.57580078,0.01872984
1205.50460815,0.01973473
1207.43341553,0.02042121
1209.36222290,0.02110649
1211.29103027,0.02178465
1213.21983765,0.02237828
1215.14864502,0.02287299
1217.07745239,0.02309451
1219.00625977,0.02374091
1220.93506714,0.02410533
1222.86387451,0.02425612
1224.79268188,0.02447270
1226.72148926,0.02475819
1228.65029663,0.02497300
1230.57910400,0.02496349
1232.50791138,0.02496698
1234.43671875,0.02487643
1236.36552612,0.02492163
1238.29433350,0.02475264
1240.22314087,0.02477294
1242.15194824,0.02480045
1244.08075562,0.02454583
1246.00956299,0.02460782
1247.93837036,0.02445583
1249.86717773,0.02416401
1251.79598511,0.02385133
1253.72479248,0.02366478
1255.65359985,0.02367514
1257.58240723,0.02334923
1259.51121460,0.02263569
1261.44002197,0.02242756
1263.36882935,0.02249665
1265.29763672,0.02199219
1267.22644409,0.02164659
1269.15525146,0.02124693
1271.08405884,0.02106757
1273.01286621,0.02087676
1274.94167358,0.02038069
1276.87048096,0.02020508
1278.79928833,0.01962003
1280.72809570,0.01916581
1282.65690308,0.01868523
1284.58571045,0.01833726
1286.51451782,0.01813107
1288.44332520,0.01756372
1290.37213257,0.01775374
1292.30093994,0.01772140
1294.22974731,0.01732667
1296.15855469,0.01730177
1298.08736206,0.01733675
1300.01616943,0.01729169
1301.94497681,0.01725570
1303.87378418,0.01751819
1305.80259155,0.01756599
1307.73139893,0.01770259
1309.66020630,0.01815644
1311.58901367,0.01846289
1313.51782104,0.01868491
1315.44662842,0.01925193
1317.37543579,0.01967856
1319.30424316,0.01992089
1321.23305054,0.02068798
1323.16185791,0.02122029
1325.09066528,0.02194842
1327.01947266,0.02271189
1328.94828003,0.02308130
1330.87708740,0.02370441
1332.80589478,0.02422644
1334.73470215,0.02476479
1336.66350952,0.02479546
1338.59231689,0.02439144
1340.52112427,0.02483760
1342.44993164,0.02588414
1344.37873901,0.02605601
1346.30754639,0.02599108
1348.23635376,0.02611094
1350.16516113,0.02575190
1352.09396851,0.02588686
1354.02277588,0.02555866
1355.95158325,0.02513390
1357.88039062,0.02518182
1359.80919800,0.02466021
1361.73800537,0.02347272
1363.66681274,0.02305446
1365.59562012,0.02443561
1367.52442749,0.02377705
1369.45323486,0.02353244
1371.38204224,0.02435086
1373.31084961,0.02255698
1375.23965698,0.02269552
1377.16846436,0.02360417
1379.09727173,0.02345515
1381.02607910,0.02353747
1382.95488647,0.02356933
1384.88369385,0.02358172
1386.81250122,0.02214378
1388.74130859,0.02246921
1390.67011597,0.02472899
1392.59892334,0.02386446
1394.52773071,0.02198296
1396.45653809,0.02328223
1398.38534546,0.02312014
1400.31415283,0.02302726
1402.24296021,0.02516946
1404.17176758,0.02348168
1406.10057495,0.02387284
1408.02938232,0.02483663
1409.95818970,0.02377213
1411.88699707,0.02445871
1413.81580444,0.02341244
1415.74461182,0.02385674
1417.67341919,0.02116303
1419.60222656,0.01876016
1421.53103394,0.02213649
1423.45984131,0.02141351
1425.38864868,0.02084800
1427.31745605,0.02126149
1429.24626343,0.01943912
1431.17507080,0.01899013
1433.10387817,0.01953279
1435.03268555,0.01729383
1436.96149292,0.01446096
1438.89030029,0.01700433
1440.81910767,0.01738768
1442.74791504,0.01623994
1444.67672241,0.01710694
1446.60552979,0.01539027
1448.53433716,0.01567982
1450.46314453,0.01642869
1452.39195190,0.01668073
1454.32075928,0.01707091
1456.24956665,0.01355372
1458.17837402,0.01415940
1460.10718140,0.01978628
1462.03598877,0.02102585
1463.96479614,0.02038174
1465.89360352,0.02125496
1467.82241089,0.02493030
1469.75121826,0.02668621
1471.68002563,0.02276383
1473.60883301,0.02409651
1475.53764038,0.02766242
1477.46644775,0.03000041
1479.39525513,0.03340095
1481.32406250,0.03353115
1483.25286987,0.03588615
1485.18167725,0.03674620
1487.11048462,0.03557763
1489.03929199,0.03507637
1490.96809937,0.03515078
1492.89690674,0.04208880
1494.82571411,0.04067226
1496.75452148,0.03559194
1498.68332886,0.04097873
1500.61213623,0.04236228
1502.54094360,0.04596158
1504.46975098,0.04271171
1506.39855835,0.02888075
1508.32736572,0.03691214
1510.25617310,0.04445319
1512.18498047,0.04282058
1514.11378784,0.04699240
1516.04259521,0.04124390
1517.97140259,0.04346017
1519.90020996,0.04192931
1521.82901733,0.03507776
1523.75782471,0.04457126
1525.68663208,0.04347742
1527.61543945,0.04320074
1529.54424683,0.04895096
1531.47305420,0.04667863
1533.40186157,0.04182750
1535.33066895,0.04503884
1537.25947632,0.04876245
1539.18828369,0.03234776
1541.11709106,0.03434005
1543.04589844,0.04271226
1544.97470581,0.04047617
1546.90351318,0.04968148
1548.83232056,0.04554001
1550.76112793,0.04714069
1552.68993530,0.04713745
1554.61874268,0.04186853
1556.54755005,0.04514380
1558.47635742,0.02942038
1560.40516479,0.03278215
1562.33397217,0.04978722
1564.26277954,0.04638841
1566.19158691,0.04816720
1568.12039429,0.04712088
1570.04920166,0.04078389
1571.97800903,0.04861183
1573.90681641,0.04925207
1575.83562378,0.03754317
1577.76443115,0.04341764
1579.69323853,0.05036702
1581.62204590,0.04775972
1583.55085327,0.04886523
1585.47966064,0.04807403
1587.40846802,0.04820208
1589.33727539,0.04775523
1591.26608276,0.04766396
1593.19489014,0.04770049
1595.12369751,0.04710880
1597.05250488,0.04768497
1598.98131226,0.04765619
1600.91011963,0.04767857
1602.83892700,0.04635362
1604.76773437,0.04778551
1606.69654175,0.04665500
1608.62534912,0.04648522
1610.55415649,0.04673336
1612.48296387,0.04680931
1614.41177124,0.04776704
1616.34057861,0.03783451
1618.26938599,0.04173768
1620.19819336,0.04993033
1622.12700073,0.04316595
1624.05580811,0.04349416
1625.98461548,0.04642893
1627.91342285,0.04614008
1629.84223022,0.04600891
1631.77103760,0.05004049
1633.69984497,0.04548133
1635.62865234,0.03626394
1637.55745972,0.04376099
1639.48626709,0.04918257
1641.41507446,0.04796041
1643.34388184,0.04965852
1645.27268921,0.04403572
1647.20149658,0.03750845
1649.13030396,0.04897790
1651.05911133,0.04623520
1652.98791870,0.02719411
1654.91672607,0.03996266
1656.84553345,0.05193745
1658.77434082,0.04969188
1660.70314819,0.05127171
1662.63195557,0.04563753
1664.56076294,0.04904863
1666.48957031,0.05331752
1668.41837769,0.04523975
1670.34718506,0.04402544
1672.27599243,0.05107496
1674.20479980,0.04645465
1676.13360718,0.04448265
1678.06241455,0.05239208
1679.99122192,0.05026885
1681.92002930,0.04949787
1683.84883667,0.03858712
1685.77764404,0.03861941
1687.70645142,0.05568659
1689.63525879,0.04706436
1691.56406616,0.05287586
1693.49287354,0.05395342
1695.42168091,0.03729519
1697.35048828,0.04786965
1699.27929565,0.04065740
1701.20810303,0.03588634
1703.13691040,0.05221895
1705.06571777,0.04693980
1706.99452515,0.04747773
1708.92333252,0.05255430
1710.85213989,0.05010445
1712.78094727,0.05112236
1714.70975464,0.04672129
1716.63856201,0.04110039
1718.56736938,0.04039916
1720.49617676,0.04958355
1722.42498413,0.05185079
1724.35379150,0.04747973
1726.28259888,0.05256970
1728.21140625,0.04786935
1730.14021362,0.04821729
1732.06902100,0.04681859
1733.99782837,0.03374220
1735.92663574,0.04420866
1737.85544312,0.04971503
1739.78425049,0.04314216
1741.71305786,0.04760471
1743.64186523,0.04822186
1745.57067261,0.04816717
1747.49947998,0.04855931
1749.42828735,0.04592456
1751.35709473,0.04363185
1753.28590210,0.04970790
1755.21470947,0.05219427
1757.14351685,0.04661648
1759.07232422,0.05232606
1761.00113159,0.04838227
1762.92993896,0.04645134
1764.85874634,0.05461250
1766.78755371,0.04809157
1768.71636108,0.04870789
1770.64516846,0.04822373
1772.57397583,0.04229499
1774.50278320,0.04838306
1776.43159058,0.05165174
1778.36039795,0.05076553
1780.28920532,0.05001853
1782.21801270,0.05057567
1784.14682007,0.05036265
1786.07562744,0.04922637
1788.00443481,0.05247090
1789.93324219,0.05068609
1791.86204956,0.04486541
1793.79085693,0.04731117
1795.71966431,0.05146474
1797.64847168,0.05066650
1799.57727905,0.04957626
1801.50608643,0.04846037
1803.43489380,0.05064373
1805.36370117,0.05203971
1807.29250854,0.05096717
1809.22131592,0.05123427
1811.15012329,0.04962520
1813.07893066,0.05145957
1815.00773804,0.05171225
1816.93654541,0.05091817
1818.86535278,0.05158933
1820.79416016,0.05119424
1822.72296753,0.05201813
1824.65177490,0.04797658
1826.58058228,0.04998574
1828.50938965,0.05010560
1830.43819702,0.04626156
1832.36700439,0.05159997
1834.29581177,0.05127128
1836.22461914,0.05094248
1838.15342651,0.05083402
1840.08223389,0.05114901
1842.01104126,0.05122373
1843.93984863,0.04430295
1845.86865601,0.04787885
1847.79746338,0.05113932
1849.72627075,0.04984024
1851.65507812,0.05158307
1853.58388550,0.05034225
1855.51269287,0.05106676
1857.44150024,0.05062306
1859.37030762,0.05027170
1861.29911499,0.05072727
1863.22792236,0.05011195
1865.15672974,0.05073268
1867.08553711,0.04847726
1869.01434448,0.04609004
1870.94315186,0.04831013
1872.87195923,0.05066509
1874.80076660,0.04974732
1876.72957397,0.05000314
1878.65838135,0.04983124
1880.58718872,0.04952355
1882.51599609,0.05004382
1884.44480347,0.04894494
1886.37361084,0.05008604
1888.30241821,0.04859722
1890.23122559,0.04728076
1892.16003296,0.04968865
1894.08884033,0.04862534
1896.01764771,0.04841770
1897.94645508,0.04908526
1899.87526245,0.04881286
1901.80406982,0.04900728
1903.73287720,0.04854663
1905.66168457,0.04899909
1907.59049194,0.04825981
1909.51929932,0.04789638
1911.44810669,0.04829519
1913.37691406,0.04820037
1915.30572144,0.04880069
1917.23452881,0.04618573
1919.16333618,0.04640135
1921.09214355,0.04852382
1923.02095093,0.04642553
1924.94975830,0.04768702
1926.87856567,0.04824919
1928.80737305,0.04758800
1930.73618042,0.04839103
1932.66498779,0.04751282
1934.59379517,0.04807917
1936.52260254,0.04749571
1938.45140991,0.04771250
1940.38021729,0.04764767
1942.30902466,0.04568842
1944.23783203,0.04687860
1946.16663940,0.04733547
1948.09544678,0.04736987
1950.02425415,0.04754148
1951.95306152,0.04722936
1953.88186890,0.04740227
1955.81067627,0.04709331
1957.73948364,0.04740901
1959.66829102,0.04708144
1961.59709839,0.04694877
1963.52590576,0.04729999
1965.45471313,0.04675102
1967.38352051,0.04618419
1969.31232788,0.04666914
1971.24113525,0.04706398
1973.16994263,0.04651399
1975.09875000,0.04673917
1977.02755737,0.04665292
1978.95636475,0.04658229
1980.88517212,0.04649121
1982.81397949,0.04624113
1984.74278687,0.04643221
1986.67159424,0.04590540
1988.60040161,0.04608392
1990.52920898,0.04558622
1992.45801636,0.04485217
1994.38682373,0.04574896
1996.31563110,0.04597047
1998.24443848,0.04562990
2000.17324585,0.04558790
2002.10205322,0.04550225
2004.03086060,0.04535851
2005.95966797,0.04520408
2007.88847534,0.04512567
2009.81728271,0.04525159
2011.74609009,0.04502816
2013.67489746,0.04485650
2015.60370483,0.04458416
2017.53251221,0.04409188
2019.46131958,0.04448868
2021.39012695,0.04447275
2023.31893433,0.04429700
2025.24774170,0.04421448
2027.17654907,0.04398527
2029.10535645,0.04408600
2031.03416382,0.04391289
2032.96297119,0.04387434
2034.89177856,0.04357410
2036.82058594,0.04350789
2038.74939331,0.04351207
2040.67820068,0.04310019
2042.60700806,0.04313254
2044.53581543,0.04320548
2046.46462280,0.04319103
2048.39343018,0.04293871
2050.32223755,0.04280347
2052.25104492,0.04271436
2054.17985229,0.04262305
2056.10865967,0.04264944
2058.03746704,0.04246649
2059.96627441,0.04241782
2061.89508179,0.04233713
2063.82388916,0.04210477
2065.75269653,0.04188672
2067.68150391,0.04208498
2069.61031128,0.04204278
2071.53911865,0.04182755
2073.46792603,0.04179068
2075.39673340,0.04155277
2077.32554077,0.04157329
2079.25434814,0.04140316
2081.18315552,0.04141031
2083.11196289,0.04130282
2085.04077026,0.04113622
2086.96957764,0.04123803
2088.89838501,0.04092213
2090.82719238,0.04093427
2092.75599976,0.04092876
2094.68480713,0.04085120
2096.61361450,0.04073229
2098.54242187,0.04060603
2100.47122925,0.04062368
2102.40003662,0.04046031
2104.32884399,0.04034410
2106.25765137,0.04026361
2108.18645874,0.04041084
2110.11526611,0.04015085
2112.04407349,0.04009315
2113.97288086,0.04025610
2115.90168823,0.04012371
2117.83049561,0.04011619
2119.75930298,0.03988445
2121.68811035,0.03985513
2123.61691772,0.03963204
2125.54572510,0.03968152
2127.47453247,0.03963806
2129.40333984,0.03946468
2131.33214722,0.03965545
2133.26095459,0.03940612
2135.18976196,0.03962537
2137.11856934,0.03932890
2139.04737671,0.03929039
2140.97618408,0.03953021
2142.90499146,0.03909054
2144.83379883,0.03934415
2146.76260620,0.03909663
2148.69141357,0.03905270
2150.62022095,0.03916878
2152.54902832,0.03896148
2154.47783569,0.03903830
2156.40664307,0.03886260
2158.33545044,0.03898641
2160.26425781,0.03890294
2162.19306519,0.03888365
2164.12187256,0.03884509
2166.05067993,0.03865049
2167.97948730,0.03881828
2169.90829468,0.03868148
2171.83710205,0.03864653
2173.76590942,0.03870765
2175.69471680,0.03861772
2177.62352417,0.03853049
2179.55233154,0.03849255
2181.48113892,0.03847328
2183.40994629,0.03833819
2185.33875366,0.03831516
2187.26756104,0.03843516
2189.19636841,0.03837771
2191.12517578,0.03820681
2193.05398315,0.03832136
2194.98279053,0.03828224
2196.91159790,0.03813805
2198.84040527,0.03814834
2200.76921265,0.03812977
2202.69802002,0.03805874
2204.62682739,0.03792876
2206.55563477,0.03800890
2208.48444214,0.03803462
2210.41324951,0.03796928
2212.34205688,0.03792743
2214.27086426,0.03784933
2216.19967163,0.03775232
2218.12847900,0.03780447
2220.05728638,0.03784286
2221.98609375,0.03765659
2223.91490112,0.03777719
2225.84370850,0.03762571
2227.77251587,0.03749117
2229.70132324,0.03764128
2231.63013062,0.03746316
2233.55893799,0.03747533
2235.48774536,0.03740589
2237.41655273,0.03730591
2239.34536011,0.03730694
2241.27416748,0.03728366
2243.20297485,0.03727031
2245.13178223,0.03716899
2247.06058960,0.03709279
2248.98939697,0.03698154
2250.91820435,0.03708881
2252.84701172,0.03701987
2254.77581909,0.03687639
2256.70462646,0.03690636
2258.63343384,0.03679848
2260.56224121,0.03675413
2262.49104858,0.03665125
2264.41985596,0.03666385
2266.34866333,0.03673314
2268.27747070,0.03669615
2270.20627808,0.03668759
2272.13508545,0.03660304
2274.06389282,0.03647923
2275.99270020,0.03652555
2277.92150757,0.03661395
2279.85031494,0.03653003
2281.77912231,0.03655573
2283.70792969,0.03649295
2285.63673706,0.03636139
2287.56554443,0.03631438
2289.49435181,0.03626938
2291.42315918,0.03623350
2293.35196655,0.03605083
2295.28077393,0.03588365
2297.20958130,0.03581733
2299.13838867,0.03591006
2301.06719604,0.03574556
2302.99600342,0.03552154
2304.92481079,0.03549110
2306.85361816,0.03519782
2308.78242554,0.03497922
2310.71123291,0.03461257
2312.64004028,0.03426861
2314.56884766,0.03413284
2316.49765503,0.03369191
2318.42646240,0.03331595
2320.35526978,0.03311168
2322.28407715,0.03264759
2324.21288452,0.03217601
2326.14169189,0.03193307
2328.07049927,0.03149815
2329.99930664,0.03121348
2331.92811401,0.03105310
2333.85692139,0.03087609
2335.78572876,0.03080156
2337.71453613,0.03060443
2339.64334351,0.03068915
2341.57215088,0.03087519
2343.50095825,0.03124928
2345.42976562,0.03186297
2347.35857300,0.03294887
2349.28738037,0.03382150
2351.21618774,0.03276261
2353.14499512,0.03133370
2355.07380249,0.03042412
2357.00260986,0.02956991
2358.93141724,0.02906482
2360.86022461,0.02867665
2362.78903198,0.02862687
2364.71783936,0.02881859
2366.64664673,0.02921012
2368.57545410,0.02968640
2370.50426147,0.03021896
2372.43306885,0.03101364
2374.36187622,0.03183220
2376.29068359,0.03266688
2378.21949097,0.03334076
2380.14829834,0.03373650
2382.07710571,0.03400170
2384.00591309,0.03431971
2385.93472046,0.03445555
2387.86352783,0.03435310
2389.79233521,0.03429481
2391.72114258,0.03420080
2393.64994995,0.03430317
2395.57875732,0.03437879
2397.50756470,0.03413995
2399.43637207,0.03403999
2401.36517944,0.03409212
2403.29398682,0.03410882
2405.22279419,0.03408873
2407.15160156,0.03400229
2409.08040894,0.03397593
2411.00921631,0.03387725
2412.93802368,0.03388148
2414.86683105,0.03399745
2416.79563843,0.03381462
2418.72444580,0.03383187
2420.65325317,0.03380887
2422.58206055,0.03368488
2424.51086792,0.03373809
2426.43967529,0.03354070
2428.36848267,0.03357121
2430.29729004,0.03361305
2432.22609741,0.03345484
2434.15490479,0.03341661
2436.08371216,0.03342687
2438.01251953,0.03344560
2439.94132690,0.03332181
2441.87013428,0.03334354
2443.79894165,0.03338324
2445.72774902,0.03327847
2447.65655640,0.03319892
2449.58536377,0.03323618
2451.51417114,0.03317319
2453.44297852,0.03302618
2455.37178589,0.03311767
2457.30059326,0.03304911
2459.22940063,0.03308372
2461.15820801,0.03308126
2463.08701538,0.03284885
2465.01582275,0.03282460
2466.94463013,0.03284927
2468.87343750,0.03291497
2470.80224487,0.03278666
2472.73105225,0.03269730
2474.65985962,0.03267702
2476.58866699,0.03262980
2478.51747437,0.03264821
2480.44628174,0.03249082
2482.37508911,0.03253928
2484.30389648,0.03248182
2486.23270386,0.03232916
2488.16151123,0.03244921
2490.09031860,0.03240935
2492.01912598,0.03230822
2493.94793335,0.03232116
2495.87674072,0.03228023
2497.80554810,0.03221799
2499.73435547,0.03220740
2501.66316284,0.03213298
2503.59197021,0.03211075
2505.52077759,0.03204610
2507.44958496,0.03203001
2509.37839233,0.03215872
2511.30719971,0.03211493
2513.23600708,0.03212191
2515.16481445,0.03203791
2517.09362183,0.03191988
2519.02242920,0.03198844
2520.95123657,0.03182014
2522.88004395,0.03164145
2524.80885132,0.03171485
2526.73765869,0.03166441
2528.66646606,0.03161100
2530.59527344,0.03159099
2532.52408081,0.03143613
2534.45288818,0.03158271
2536.38169556,0.03152582
2538.31050293,0.03128131
2540.23931030,0.03142973
2542.16811768,0.03140179
2544.09692505,0.03127700
2546.02573242,0.03122160
2547.95453979,0.03127660
2549.88334717,0.03126321
2551.81215454,0.03112240
2553.74096191,0.03113497
2555.66976929,0.03103075
2557.59857666,0.03099782
2559.52738403,0.03101865
2561.45619141,0.03095847
2563.38499878,0.03088546
2565.31380615,0.03093523
2567.24261353,0.03092037
2569.17142090,0.03070213
2571.10022827,0.03076398
2573.02903564,0.03071872
2574.95784302,0.03071284
2576.88665039,0.03075721
2578.81545776,0.03051862
2580.74426514,0.03054115
2582.67307251,0.03059459
2584.60187988,0.03056311
2586.53068726,0.03053068
2588.45949463,0.03042766
2590.38830200,0.03036834
2592.31710937,0.03034283
2594.24591675,0.03025324
2596.17472412,0.03014009
2598.10353149,0.03013799
2600.03233887,0.03010752
2601.96114624,0.03018105
2603.88995361,0.03014891
2605.81876099,0.02998665
2607.74756836,0.02998124
2609.67637573,0.02985700
2611.60518311,0.02981672
2613.53399048,0.02986068
2615.46279785,0.02980592
2617.39160522,0.02978700
2619.32041260,0.02968812
2621.24921997,0.02963627
2623.17802734,0.02963452
2625.10683472,0.02957496
2627.03564209,0.02955939
2628.96444946,0.02942769
2630.89325684,0.02940973
2632.82206421,0.02942917
2634.75087158,0.02926506
2636.67967895,0.02930736
2638.60848633,0.02922280
2640.53729370,0.02912212
2642.46610107,0.02914603
2644.39490845,0.02909760
2646.32371582,0.02903965
2648.25252319,0.02885773
2650.18133057,0.02891839
2652.11013794,0.02885018
2654.03894531,0.02885166
2655.96775269,0.02889328
2657.89656006,0.02864942
2659.82536743,0.02881190
2661.75417480,0.02867856
2663.68298218,0.02861123
2665.61178955,0.02877464
2667.54059692,0.02858400
2669.46940430,0.02852146
2671.39821167,0.02842381
2673.32701904,0.02839310
2675.25582642,0.02832480
2677.18463379,0.02838044
2679.11344116,0.02840528
2681.04224854,0.02824338
2682.97105591,0.02825091
2684.89986328,0.02807640
2686.82867065,0.02805224
2688.75747803,0.02801473
2690.68628540,0.02796538
2692.61509277,0.02798764
2694.54390015,0.02782603
2696.47270752,0.02783332
2698.40151489,0.02775573
2700.33032227,0.02765564
2702.25912964,0.02764752
2704.18793701,0.02769695
2706.11674438,0.02766426
2708.04555176,0.02749888
2709.97435913,0.02742781
2711.90316650,0.02739266
2713.83197388,0.02747357
2715.76078125,0.02736545
2717.68958862,0.02731503
2719.61839600,0.02737224
2721.54720337,0.02712940
2723.47601074,0.02704941
2725.40481812,0.02708870
2727.33362549,0.02701197
2729.26243286,0.02702309
2731.19124023,0.02700985
2733.12004761,0.02681158
2735.04885498,0.02675586
2736.97766235,0.02676359
2738.90646973,0.02665355
2740.83527710,0.02664744
2742.76408447,0.02668184
2744.69289185,0.02658291
2746.62169922,0.02635163
2748.55050659,0.02635657
2750.47931396,0.02634280
2752.40812134,0.02622968
2754.33692871,0.02626917
2756.26573608,0.02619113
2758.19454346,0.02608737
2760.12335083,0.02592384
2762.05215820,0.02590068
2763.98096558,0.02592682
2765.90977295,0.02582514
2767.83858032,0.02579585
2769.76738770,0.02570999
2771.69619507,0.02563801
2773.62500244,0.02551236
2775.55380981,0.02550758
2777.48261719,0.02544672
2779.41142456,0.02534852
2781.34023193,0.02544707
2783.26903931,0.02529098
2785.19784668,0.02516582
2787.12665405,0.02510500
2789.05546143,0.02501712
2790.98426880,0.02495657
2792.91307617,0.02487691
2794.84188354,0.02488095
2796.77069092,0.02482273
2798.69949829,0.02480593
2800.62830566,0.02467915
2802.55711304,0.02457318
2804.48592041,0.02452845
2806.41472778,0.02437662
2808.34353516,0.02434496
2810.27234253,0.02433298
2812.20114990,0.02433818
2814.12995728,0.02417228
2816.05876465,0.02399513
2817.98757202,0.02404946
2819.91637939,0.02403172
2821.84518677,0.02387355
2823.77399414,0.02377861
2825.70280151,0.02383617
2827.63160889,0.02367779
2829.56041626,0.02362846
2831.48922363,0.02359810
2833.41803101,0.02332772
2835.34683838,0.02338602
2837.27564575,0.02321119
2839.20445312,0.02296147
2841.13326050,0.02303444
2843.06206787,0.02288118
2844.99087524,0.02266831
2846.91968262,0.02253188
2848.84848999,0.02249295
2850.77729736,0.02235027
2852.70610474,0.02232086
2854.63491211,0.02252217
2856.56371948,0.02240436
2858.49252686,0.02235642
2860.42133423,0.02236336
2862.35014160,0.02225872
2864.27894897,0.02220649
2866.20775635,0.02202237
2868.13656372,0.02194130
2870.06537109,0.02193913
2871.99417847,0.02190397
2873.92298584,0.02180680
2875.85179321,0.02170278
2877.78060059,0.02170618
2879.70940796,0.02162053
2881.63821533,0.02146169
2883.56702270,0.02136137
2885.49583008,0.02138978
2887.42463745,0.02125434
2889.35344482,0.02113603
2891.28225220,0.02116104
2893.21105957,0.02098298
2895.13986694,0.02098739
2897.06867432,0.02092356
2898.99748169,0.02071881
2900.92628906,0.02063867
2902.85509644,0.02048861
2904.78390381,0.02050053
2906.71271118,0.02041269
2908.64151855,0.02027805
2910.57032593,0.02026754
2912.49913330,0.02011552
2914.42794067,0.01998248
2916.35674805,0.01977210
2918.28555542,0.01971653
2920.21436279,0.01986124
2922.14317017,0.01971212
2924.07197754,0.01964688
2926.00078491,0.01969921
2927.92959229,0.01962585
2929.85839966,0.01972250
2931.78720703,0.01973046
2933.71601440,0.01965650
2935.64482178,0.01960975
2937.57362915,0.01950029
2939.50243652,0.01946123
2941.43124390,0.01935241
2943.36005127,0.01928610
2945.28885864,0.01912427
2947.21766602,0.01912162
2949.14647339,0.01922680
2951.07528076,0.01892981
2953.00408813,0.01895649
2954.93289551,0.01896696
2956.86170288,0.01875463
2958.79051025,0.01869614
2960.71931763,0.01852008
2962.64812500,0.01855091
2964.57693237,0.01852150
2966.50573975,0.01840191
2968.43454712,0.01835004
2970.36335449,0.01815915
2972.29216187,0.01813141
2974.22096924,0.01815299
2976.14977661,0.01807605
2978.07858398,0.01812227
2980.00739136,0.01811450
2981.93619873,0.01784967
2983.86500610,0.01780512
2985.79381348,0.01777447
2987.72262085,0.01755008
2989.65142822,0.01757389
2991.58023560,0.01752326
2993.50904297,0.01744343
2995.43785034,0.01737681
2997.36665771,0.01725372
2999.29546509,0.01725923
3001.22427246,0.01714948
3003.15307983,0.01697489
3005.08188721,0.01688953
3007.01069458,0.01690318
3008.93950195,0.01680008
3010.86830933,0.01659936
3012.79711670,0.01655117
3014.72592407,0.01646589
3016.65473145,0.01635710
3018.58353882,0.01635254
3020.51234619,0.01625611
3022.44115356,0.01608293
3024.36996094,0.01605866
3026.29876831,0.01598603
3028.22757568,0.01584926
3030.15638306,0.01572933
3032.08519043,0.01559974
3034.01399780,0.01559156
3035.94280518,0.01549715
3037.87161255,0.01540732
3039.80041992,0.01540085
3041.72922729,0.01526840
3043.65803467,0.01506829
3045.58684204,0.01504222
3047.51564941,0.01502435
3049.44445679,0.01478047
3051.37326416,0.01482422
3053.30207153,0.01477432
3055.23087891,0.01450924
3057.15968628,0.01455772
3059.08849365,0.01450425
3061.01730103,0.01445756
3062.94610840,0.01433368
3064.87491577,0.01415681
3066.80372314,0.01419374
3068.73253052,0.01405758
3070.66133789,0.01397580
3072.59014526,0.01397251
3074.51895264,0.01385456
3076.44776001,0.01377672
3078.37656738,0.01377838
3080.30537476,0.01365929
3082.23418213,0.01344031
3084.16298950,0.01347734
3086.09179687,0.01339417
3088.02060425,0.01326978
3089.94941162,0.01326112
3091.87821899,0.01306718
3093.80702637,0.01309071
3095.73583374,0.01304474
3097.66464111,0.01286757
3099.59344849,0.01282752
3101.52225586,0.01275585
3103.45106323,0.01279449
3105.37987061,0.01259276
3107.30867798,0.01241266
3109.23748535,0.01249677
3111.16629272,0.01249940
3113.09510010,0.01240393
3115.02390747,0.01219469
3116.95271484,0.01224271
3118.88152222,0.01222352
3120.81032959,0.01214333
3122.73913696,0.01213474
3124.66794434,0.01190388
3126.59675171,0.01196313
3128.52555908,0.01191425
3130.45436645,0.01177235
3132.38317383,0.01177299
3134.31198120,0.01165141
3136.24078857,0.01168239
3138.16959595,0.01163347
3140.09840332,0.01159896
3142.02721069,0.01148522
3143.95601807,0.01135623
3145.88482544,0.01143078
3147.81363281,0.01129352
3149.74244019,0.01122034
3151.67124756,0.01125335
3153.60005493,0.01120655
3155.52886230,0.01109667
3157.45766968,0.01101117
3159.38647705,0.01099487
3161.31528442,0.01088864
3163.24409180,0.01089286
3165.17289917,0.01091896
3167.10170654,0.01081907
3169.03051392,0.01077246
3170.95932129,0.01076180
3172.88812866,0.01071048
3174.81693604,0.01069591
3176.74574341,0.01067943
3178.67455078,0.01065170
3180.60335815,0.01065497
3182.53216553,0.01058151
3184.46097290,0.01052983
3186.38978027,0.01050282
3188.31858765,0.01050561
3190.24739502,0.01047448
3192.17620239,0.01045298
3194.10500977,0.01050948
3196.03381714,0.01036738
3197.96262451,0.01031142
3199.89143188,0.01041921
3201.82023926,0.01037518
3203.74904663,0.01024611
3205.67785400,0.01023185
3207.60666138,0.01022944
3209.53546875,0.01018876
3211.46427612,0.01023361
3213.39308350,0.01018886
3215.32189087,0.01018154
3217.25069824,0.01011654
3219.17950562,0.01015485
3221.10831299,0.01024257
3223.03712036,0.01008482
3224.96592773,0.01021479
3226.89473511,0.01016071
3228.82354248,0.01002113
3230.75234985,0.01018459
3232.68115723,0.01013214
3234.60996460,0.01006901
3236.53877197,0.01012423
3238.46757935,0.01017265
3240.39638672,0.01016876
3242.32519409,0.01020252
3244.25400146,0.01011783
3246.18280884,0.01011727
3248.11161621,0.01021576
3250.04042358,0.01008818
3251.96923096,0.01013099
3253.89803833,0.01011191
3255.82684570,0.01012512
3257.75565308,0.01021877
3259.68446045,0.01024825
3261.61326782,0.01029926
3263.54207520,0.01014539
3265.47088257,0.01022041
3267.39968994,0.01025595
3269.32849731,0.01017505
3271.25730469,0.01027229
3273.18611206,0.01024127
3275.11491943,0.01017652
3277.04372681,0.01019181
3278.97253418,0.01026244
3280.90134155,0.01024286
3282.83014893,0.01028309
3284.75895630,0.01025577
3286.68776367,0.01013559
3288.61657104,0.01023171
3290.54537842,0.01026718
3292.47418579,0.01024202
3294.40299316,0.01027583
3296.33180054,0.01026909
3298.26060791,0.01022909
3300.18941528,0.01025951
3302.11822266,0.01027366
3304.04703003,0.01032418
3305.97583740,0.01035090
3307.90464478,0.01030924
3309.83345215,0.01030563
3311.76225952,0.01019965
3313.69106689,0.01036454
3315.61987427,0.01039988
3317.54868164,0.01029079
3319.47748901,0.01041391
3321.40629639,0.01032312
3323.33510376,0.01036329
3325.26391113,0.01037004
3327.19271851,0.01034210
3329.12152588,0.01037466
3331.05033325,0.01027027
3332.97914062,0.01030140
3334.90794800,0.01029628
3336.83675537,0.01033187
3338.76556274,0.01042479
3340.69437012,0.01043446
3342.62317749,0.01031713
3344.55198486,0.01034269
3346.48079224,0.01049145
3348.40959961,0.01049627
3350.33840698,0.01049238
3352.26721436,0.01034553
3354.19602173,0.01036905
3356.12482910,0.01046306
3358.05363647,0.01044876
3359.98244385,0.01045045
3361.91125122,0.01047699
3363.84005859,0.01060870
3365.76886597,0.01051485
3367.69767334,0.01047775
3369.62648071,0.01051155
3371.55528809,0.01050911
3373.48409546,0.01059200
3375.41290283,0.01062795
3377.34171020,0.01064084
3379.27051758,0.01061146
3381.19932495,0.01069649
3383.12813232,0.01067822
3385.05693970,0.01062732
3386.98574707,0.01067043
3388.91455444,0.01070223
3390.84336182,0.01069571
3392.77216919,0.01066199
3394.70097656,0.01077858
3396.62978394,0.01075915
3398.55859131,0.01073334
3400.48739868,0.01075372
3402.41620605,0.01081456
3404.34501343,0.01087473
3406.27382080,0.01082662
3408.20262817,0.01085817
3410.13143555,0.01083189
3412.06024292,0.01089915
3413.98905029,0.01082971
3415.91785767,0.01091966
3417.84666504,0.01109054
3419.77547241,0.01088564
3421.70427979,0.01092795
3423.63308716,0.01100417
3425.56189453,0.01103135
3427.49070190,0.01103607
3429.41950928,0.01104512
3431.34831665,0.01106923
3433.27712402,0.01103644
3435.20593140,0.01111982
3437.13473877,0.01109124
3439.06354614,0.01109972
3440.99235352,0.01107663
3442.92116089,0.01115550
3444.84996826,0.01116936
3446.77877563,0.01102427
3448.70758301,0.01114808
3450.63639038,0.01123748
3452.56519775,0.01127788
3454.49400513,0.01128581
3456.42281250,0.01133516
3458.35161987,0.01131570
3460.28042725,0.01129138
3462.20923462,0.01130699
3464.13804199,0.01129460
3466.06684937,0.01139579
3467.99565674,0.01132981
3469.92446411,0.01143724
3471.85327148,0.01147085
3473.78207886,0.01137041
3475.71088623,0.01136500
3477.63969360,0.01139617
3479.56850098,0.01148960
3481.49730835,0.01132539
3483.42611572,0.01142994
3485.35492310,0.01154822
3487.28373047,0.01154093
3489.21253784,0.01156338
3491.14134521,0.01159198
3493.07015259,0.01169927
3494.99895996,0.01154864
3496.92776733,0.01163564
3498.85657471,0.01170849
3500.78538208,0.01168454
3502.71418945,0.01154445
3504.64299683,0.01157324
3506.57180420,0.01188371
3508.50061157,0.01164742
3510.42941895,0.01167054
3512.35822632,0.01178322
3514.28703369,0.01183490
3516.21584106,0.01194751
3518.14464844,0.01184639
3520.07345581,0.01193018
3522.00226318,0.01182605
3523.93107056,0.01166605
3525.85987793,0.01166272
3527.78868530,0.01179909
3529.71749268,0.01184434
3531.64630005,0.01204616
3533.57510742,0.01222585
3535.50391479,0.01188737
3537.43272217,0.01199295
3539.36152954,0.01223810
3541.29033691,0.01213585
3543.21914429,0.01199366
3545.14795166,0.01173442
3547.07675903,0.01157262
3549.00556641,0.01214115
3550.93437378,0.01230939
3552.86318115,0.01178721
3554.79198853,0.01220906
3556.72079590,0.01233010
3558.64960327,0.01216073
3560.57841064,0.01220635
3562.50721802,0.01217531
3564.43602539,0.01221633
3566.36483276,0.01116126
3568.29364014,0.01088336
3570.22244751,0.01207606
3572.15125488,0.01248651
3574.08006226,0.01235003
3576.00886963,0.01241847
3577.93767700,0.01239659
3579.86648437,0.01239743
3581.79529175,0.01237007
3583.72409912,0.01242899
3585.65290649,0.01210852
3587.58171387,0.01089150
3589.51052124,0.01144150
3591.43932861,0.01269270
3593.36813599,0.01233308
3595.29694336,0.01207857
3597.22575073,0.01226765
3599.15455811,0.01248831
3601.08336548,0.01229517
3603.01217285,0.01246323
3604.94098022,0.01273202
3606.86978760,0.01225249
3608.79859497,0.01145653
3610.72740234,0.01169546
3612.65620972,0.01211783
3614.58501709,0.01160408
3616.51382446,0.01264243
3618.44263184,0.01158168
3620.37143921,0.01114350
3622.30024658,0.01297996
3624.22905395,0.01242456
3626.15786133,0.01317125
3628.08666870,0.01087450
3630.01547607,0.00963868
3631.94428345,0.01277890
3633.87309082,0.01245345
3635.80189819,0.01264848
3637.73070557,0.01298052
3639.65951294,0.01286115
3641.58832031,0.01295196
3643.51712769,0.01293754
3645.44593506,0.01296373
3647.37474243,0.01127516
3649.30354980,0.01036649
3651.23235718,0.01045499
3653.16116455,0.01296426
3655.08997192,0.01274057
3657.01877930,0.01112624
3658.94758667,0.01333840
3660.87639404,0.01302038
3662.80520142,0.01324994
3664.73400879,0.01314311
3666.66281616,0.01307483
3668.59162354,0.01267529
3670.52043091,0.00996943
3672.44923828,0.01259737
3674.37804565,0.01181698
3676.30685303,0.00941857
3678.23566040,0.01244853
3680.16446777,0.01282987
3682.09327515,0.01283632
3684.02208252,0.01331159
3685.95088989,0.01311303
3687.87969727,0.01161199
3689.80850464,0.01050778
3691.73731201,0.01224701
3693.66611938,0.01270305
3695.59492676,0.01297540
3697.52373413,0.01301255
3699.45254150,0.01299925
3701.38134888,0.01251165
3703.31015625,0.01192509
3705.23896362,0.01339467
3707.16777100,0.01263972
3709.09657837,0.01223021
3711.02538574,0.01132146
3712.95419312,0.01039027
3714.88300049,0.01266951
3716.81180786,0.01252885
3718.74061523,0.01262054
3720.66942261,0.01231205
3722.59822998,0.01171520
3724.52703735,0.01231755
3726.45584473,0.01122902
3728.38465210,0.01238292
3730.31345947,0.01243271
3732.24226685,0.01106396
3734.17107422,0.01065508
3736.09988159,0.01003651
3738.02868896,0.01077481
3739.95749634,0.01182857
3741.88630371,0.01238883
3743.81511108,0.00929885
3745.74391846,0.00867314
3747.67272583,0.01179594
3749.60153320,0.00987080
3751.53034058,0.00892060
3753.45914795,0.01059503
3755.38795532,0.01152720
3757.31676270,0.01206354
3759.24557007,0.01095903
3761.17437744,0.01147832
3763.10318481,0.01239257
3765.03199219,0.01137128
3766.96079956,0.01166066
3768.88960693,0.01142335
3770.81841431,0.01082505
3772.74722168,0.01198015
3774.67602905,0.01198075
3776.60483643,0.01208160
3778.53364380,0.01166627
3780.46245117,0.01104253
3782.39125854,0.01196287
3784.32006592,0.01158011
3786.24887329,0.01153082
3788.17768066,0.01186970
3790.10648804,0.01171963
3792.03529541,0.01172526
3793.96410278,0.01198507
3795.89291016,0.01106621
3797.82171753,0.01092541
3799.75052490,0.01164955
3801.67933228,0.00873316
3803.60813965,0.01059299
3805.53694702,0.01175504
3807.46575439,0.00916706
3809.39456177,0.01159079
3811.32336914,0.01129807
3813.25217651,0.01175568
3815.18098389,0.01053104
3817.10979126,0.00882164
3819.03859863,0.01166016
3820.96740601,0.00907229
3822.89621338,0.00959366
3824.82502075,0.01165464
3826.75382812,0.01034941
3828.68263550,0.01130363
3830.61144287,0.01082703
3832.54025024,0.01032089
3834.46905762,0.01051195
3836.39786499,0.00998083
3838.32667236,0.00886300
3840.25547974,0.00963826
3842.18428711,0.01056422
3844.11309448,0.00999037
3846.04190186,0.01104301
3847.97070923,0.01089855
3849.89951660,0.01088738
3851.82832397,0.00976134
3853.75713135,0.00687424
3855.68593872,0.00832829
3857.61474609,0.01086742
3859.54355347,0.01049294
3861.47236084,0.01045062
3863.40116821,0.01019181
3865.32997559,0.00918693
3867.25878296,0.01055939
3869.18759033,0.00952533
3871.11639770,0.00861661
3873.04520508,0.01061183
3874.97401245,0.00950175
3876.90281982,0.01049533
3878.83162720,0.01081657
3880.76043457,0.00887121
3882.68924194,0.01060480
3884.61804932,0.00977773
3886.54685669,0.00876260
3888.47566406,0.01070686
3890.40447144,0.00993408
3892.33327881,0.00919315
3894.26208618,0.01026320
3896.19089355,0.01046058
3898.11970093,0.00998075
3900.04850830,0.00920869
3901.97731567,0.00914698
3903.90612305,0.00916689
3905.83493042,0.00915935
3907.76373779,0.01023767
3909.69254517,0.01025148
3911.62135254,0.01009858
3913.55015991,0.01038923
3915.47896728,0.00988897
3917.40777466,0.00957528
3919.33658203,0.00955286
3921.26538940,0.00988787
3923.19419678,0.00991637
3925.12300415,0.00974585
3927.05181152,0.00984446
3928.98061890,0.00996333
3930.90942627,0.00968807
3932.83823364,0.00933761
3934.76704102,0.00989450
3936.69584839,0.00990380
3938.62465576,0.00980883
3940.55346313,0.00988656
3942.48227051,0.00939082
3944.41107788,0.00959844
3946.33988525,0.00978316
3948.26869263,0.00945434
3950.19750000,0.00944422
3952.12630737,0.00963816
3954.05511475,0.00963904
3955.98392212,0.00965883
3957.91272949,0.00961895
3959.84153687,0.00950793
3961.77034424,0.00950523
3963.69915161,0.00939813
3965.62795898,0.00953170
3967.55676636,0.00957317
3969.48557373,0.00947735
3971.41438110,0.00942640
3973.34318848,0.00933346
3975.27199585,0.00931476
3977.20080322,0.00936070
3979.12961060,0.00950077
3981.05841797,0.00937203
3982.98722534,0.00938888
3984.91603271,0.00941817
3986.84484009,0.00927540
3988.77364746,0.00928826
3990.70245483,0.00928438
3992.63126221,0.00928337
3994.56006958,0.00915503
3996.48887695,0.00925899
3998.41768433,0.00923897
4000.34649170,0.00905491
4002.27529907,0.00913692
4004.20410645,0.00916191
4006.13291382,0.00917921
4008.06172119,0.00912753
4009.99052856,0.00916451
4011.91933594,0.00912581
4013.84814331,0.00903203
4015.77695068,0.00904062
4017.70575806,0.00897858
4019.63456543,0.00895046
4021.56337280,0.00897103
4023.49218018,0.00896553
4025.42098755,0.00884267
4027.34979492,0.00892951
4029.27860229,0.00893790
4031.20740967,0.00885404
4033.13621704,0.00885675
4035.06502441,0.00876863
4036.99383179,0.00885502
4038.92263916,0.00885470
4040.85144653,0.00883781
4042.78025391,0.00875863
4044.70906128,0.00865978
4046.63786865,0.00871346
4048.56667603,0.00870913
4050.49548340,0.00867497
4052.42429077,0.00866776
4054.35309814,0.00872010
4056.28190552,0.00857991
4058.21071289,0.00858167
4060.13952026,0.00862946
4062.06832764,0.00861429
4063.99713501,0.00861899
4065.92594238,0.00849403
4067.85474976,0.00851955
4069.78355713,0.00843814
4071.71236450,0.00846364
4073.64117187,0.00836258
4075.56997925,0.00833228
4077.49878662,0.00843678
4079.42759399,0.00821774
4081.35640137,0.00835539
4083.28520874,0.00834943
4085.21401611,0.00829370
4087.14282349,0.00829708
4089.07163086,0.00822702
4091.00043823,0.00827290
4092.92924561,0.00821580
4094.85805298,0.00832516
4096.78686035,0.00815368
4098.71566772,0.00816077
4100.64447510,0.00820171
4102.57328247,0.00803179
4104.50208984,0.00817218
4106.43089722,0.00806487
4108.35970459,0.00803479
4110.28851196,0.00805906
4112.21731934,0.00801358
4114.14612671,0.00794260
4116.07493408,0.00795266
4118.00374145,0.00809094
4119.93254883,0.00797059
4121.86135620,0.00799873
4123.79016357,0.00797192
4125.71897095,0.00792291
4127.64777832,0.00790567
4129.57658569,0.00780504
4131.50539307,0.00785793
4133.43420044,0.00778756
4135.36300781,0.00780737
4137.29181519,0.00784292
4139.22062256,0.00779635
4141.14942993,0.00780746
4143.07823730,0.00774920
4145.00704468,0.00772440
4146.93585205,0.00767352
4148.86465942,0.00764730
4150.79346680,0.00770680
4152.72227417,0.00765020
4154.65108154,0.00761186
4156.57988892,0.00765559
4158.50869629,0.00756267
4160.43750366,0.00753085
4162.36631103,0.00757742
4164.29511841,0.00759023
4166.22392578,0.00755829
4168.15273315,0.00753171
4170.08154053,0.00752031
4172.01034790,0.00740684
4173.93915527,0.00748722
4175.86796265,0.00748861
4177.79677002,0.00736454
4179.72557739,0.00736589
4181.65438477,0.00740718
4183.58319214,0.00744523
4185.51199951,0.00730867
4187.44080688,0.00738068
4189.36961426,0.00734854
4191.29842163,0.00720093
4193.22722900,0.00725814
4195.15603638,0.00722946
4197.08484375,0.00727424
4199.01365112,0.00718118
4200.94245850,0.00722942
4202.87126587,0.00727915
4204.80007324,0.00714096
4206.72888062,0.00721623
4208.65768799,0.00710906
4210.58649536,0.00708123
4212.51530273,0.00717118
4214.44411011,0.00709250
4216.37291748,0.00708891
4218.30172485,0.00708454
4220.23053223,0.00703487
4222.15933960,0.00701880
4224.08814697,0.00697120
4226.01695435,0.00693385
4227.94576172,0.00691675
4229.87456909,0.00686729
4231.80337646,0.00691605
4233.73218384,0.00690343
4235.66099121,0.00687972
4237.58979858,0.00689496
4239.51860596,0.00686851
4241.44741333,0.00683306
4243.37622070,0.00673638
4245.30502808,0.00682653
4247.23383545,0.00684207
4249.16264282,0.00680136
4251.09145020,0.00682232
4253.02025757,0.00672422
4254.94906494,0.00668029
4256.87787231,0.00661828
4258.80667969,0.00665507
4260.73548706,0.00664491
4262.66429443,0.00660576
4264.59310181,0.00664179
4266.52190918,0.00662787
4268.45071655,0.00661132
4270.37952393,0.00656673
4272.30833130,0.00666189
4274.23713867,0.00656838
4276.16594604,0.00643691
4278.09475342,0.00650838
4280.02356079,0.00650801
4281.95236816,0.00649379
4283.88117554,0.00642588
4285.80998291,0.00646075
4287.73879028,0.00647851
4289.66759766,0.00646538
4291.59640503,0.00646538
4293.52521240,0.00641977
4295.45401978,0.00641594
4297.38282715,0.00631361
4299.31163452,0.00636940
4301.24044189,0.00645124
4303.16924927,0.00633732
4305.09805664,0.00627569
4307.02686401,0.00626024
4308.95567139,0.00626179
4310.88447876,0.00628786
4312.81328613,0.00625187
4314.74209351,0.00622404
4316.67090088,0.00627335
4318.59970825,0.00622479
4320.52851562,0.00618168
4322.45732300,0.00617449
4324.38613037,0.00621684
4326.31493774,0.00622564
4328.24374512,0.00605551
4330.17255249,0.00604121
4332.10135986,0.00609953
4334.03016724,0.00609794
4335.95897461,0.00606551
4337.88778198,0.00604408
4339.81658936,0.00603444
4341.74539673,0.00597264
4343.67420410,0.00603103
4345.60301147,0.00603608
4347.53181885,0.00597082
4349.46062622,0.00598194
4351.38943359,0.00598655
4353.31824097,0.00590887
4355.24704834,0.00583955
4357.17585571,0.00588213
4359.10466309,0.00591473
4361.03347046,0.00586684
4362.96227783,0.00584186
4364.89108520,0.00589348
4366.81989258,0.00578039
4368.74869995,0.00576221
4370.67750732,0.00579156
4372.60631470,0.00569395
4374.53512207,0.00579931
4376.46392944,0.00579668
4378.39273682,0.00574828
4380.32154419,0.00567550
4382.25035156,0.00564006
4384.17915894,0.00566647
4386.10796631,0.00557959
4388.03677368,0.00569285
4389.96558105,0.00566769
4391.89438843,0.00566394
4393.82319580,0.00572089
4395.75200317,0.00561737
4397.68081055,0.00560596
4399.60961792,0.00556215
4401.53842529,0.00561002
4403.46723267,0.00553943
4405.39604004,0.00546301
4407.32484741,0.00555884
4409.25365478,0.00553102
4411.18246216,0.00550010
4413.11126953,0.00545338
4415.04007690,0.00542399
4416.96888428,0.00547455
4418.89769165,0.00544768
4420.82649902,0.00536626
4422.75530640,0.00543962
4424.68411377,0.00541616
4426.61292114,0.00536053
4428.54172852,0.00546566
4430.47053589,0.00537430
4432.39934326,0.00533768
4434.32815063,0.00536285
4436.25695801,0.00529607
4438.18576538,0.00530919
4440.11457275,0.00530107
4442.04338013,0.00524704
4443.97218750,0.00525123
4445.90099487,0.00524378
4447.82980225,0.00519052
4449.75860962,0.00525504
4451.68741699,0.00516282
4453.61622437,0.00510453
4455.54503174,0.00522080
4457.47383911,0.00517865
4459.40264648,0.00514309
4461.33145386,0.00508338
4463.26026123,0.00511297
4465.18906860,0.00507585
4467.11787598,0.00503944
4469.04668335,0.00516885
4470.97549072,0.00504731
4472.90429810,0.00499992
4474.83310547,0.00501869
4476.76191284,0.00493638
4478.69072021,0.00499151
4480.61952759,0.00505851
4482.54833496,0.00499202
4484.47714233,0.00488526
4486.40594971,0.00494494
4488.33475708,0.00502958
4490.26356445,0.00499285
4492.19237183,0.00493155
4494.12117920,0.00493685
4496.04998657,0.00490156
4497.97879395,0.00481724
4499.90760132,0.00485494
4501.83640869,0.00489073
4503.76521606,0.00489921
4505.69402344,0.00492003
4507.62283081,0.00487350
4509.55163818,0.00478277
4511.48044556,0.00476616
4513.40925293,0.00481663
4515.33806030,0.00477275
4517.26686768,0.00467079
4519.19567505,0.00466275
4521.12448242,0.00468951
4523.05328979,0.00470092
4524.98209717,0.00473342
4526.91090454,0.00469182
4528.83971191,0.00465399
4530.76851929,0.00463651
4532.69732666,0.00463594
4534.62613403,0.00467966
4536.55494141,0.00464449
4538.48374878,0.00459307
4540.41255615,0.00459884
4542.34136353,0.00465007
4544.27017090,0.00455221
4546.19897827,0.00455179
4548.12778564,0.00465363
4550.05659302,0.00453143
4551.98540039,0.00454618
4553.91420776,0.00451923
4555.84301514,0.00444629
4557.77182251,0.00447247
4559.70062988,0.00444702
4561.62943726,0.00448309
4563.55824463,0.00445582
4565.48705200,0.00443698
4567.41585937,0.00443445
4569.34466675,0.00443291
4571.27347412,0.00441205
4573.20228149,0.00441939
4575.13108887,0.00441279
4577.05989624,0.00435267
4578.98870361,0.00445458
4580.91751099,0.00438434
4582.84631836,0.00434501
4584.77512573,0.00434168
4586.70393311,0.00424800
4588.63274048,0.00437346
4590.56154785,0.00431442
4592.49035522,0.00421954
4594.41916260,0.00421070
4596.34796997,0.00418093
4598.27677734,0.00427836
4600.20558472,0.00428845
4602.13439209,0.00421963
4604.06319946,0.00419826
4605.99200684,0.00421473
4607.92081421,0.00423595
4609.84962158,0.00417886
4611.77842895,0.00409849
4613.70723633,0.00415336
4615.63604370,0.00412589
4617.56485107,0.00406850
4619.49365845,0.00407366
4621.42246582,0.00405766
4623.35127319,0.00412665
4625.28008057,0.00404028
4627.20888794,0.00408472
4629.13769531,0.00415201
4631.06650269,0.00405097
4632.99531006,0.00406719
4634.92411743,0.00398463
4636.85292480,0.00406131
4638.78173218,0.00407167
4640.71053955,0.00394196
4642.63934692,0.00396452
4644.56815430,0.00393482
4646.49696167,0.00396333
4648.42576904,0.00392404
4650.35457642,0.00395313
4652.28338379,0.00405051
4654.21219116,0.00394794
4656.14099853,0.00389239
4658.06980591,0.00392697
4659.99861328,0.00391596
4661.92742065,0.00384373
4663.85622803,0.00380875
4665.78503540,0.00388677
4667.71384277,0.00387926
4669.64265015,0.00377019
4671.57145752,0.00382849
4673.50026489,0.00382196
4675.42907227,0.00377996
4677.35787964,0.00380803
4679.28668701,0.00375854
4681.21549438,0.00381107
4683.14430176,0.00373802
4685.07310913,0.00368354
4687.00191650,0.00371388
4688.93072388,0.00367748
4690.85953125,0.00372415
4692.78833862,0.00370082
4694.71714600,0.00369143
4696.64595337,0.00365021
4698.57476074,0.00367642
4700.50356812,0.00375313
4702.43237549,0.00373522
4704.36118286,0.00366449
4706.28999023,0.00356113
4708.21879761,0.00363663
4710.14760498,0.00361289
4712.07641235,0.00359729
4714.00521973,0.00361031
4715.93402710,0.00357711
4717.86283447,0.00366007
4719.79164185,0.00356207
4721.72044922,0.00353389
4723.64925659,0.00358817
4725.57806396,0.00361291
4727.50687134,0.00357185
4729.43567871,0.00349985
4731.36448608,0.00353996
4733.29329346,0.00342520
4735.22210083,0.00342277
4737.15090820,0.00348336
4739.07971558,0.00347714
4741.00852295,0.00344724
4742.93733032,0.00334608
4744.86613770,0.00344189
4746.79494507,0.00347894
4748.72375244,0.00346068
4750.65255981,0.00346338
4752.58136719,0.00334465
4754.51017456,0.00335286
4756.43898193,0.00338993
4758.36778931,0.00330844
4760.29659668,0.00330823
4762.22540405,0.00339094
4764.15421143,0.00342460
4766.08301880,0.00343186
4768.01182617,0.00342074
4769.94063354,0.00338100
4771.86944092,0.00331377
4773.79824829,0.00332027
4775.72705566,0.00334888
4777.65586304,0.00328305
4779.58467041,0.00326724
4781.51347778,0.00326709
4783.44228516,0.00325104
4785.37109253,0.00323855
4787.29989990,0.00321908
4789.22870728,0.00323718
4791.15751465,0.00328439
4793.08632202,0.00327101
4795.01512939,0.00322471
4796.94393677,0.00325708
4798.87274414,0.00321006
4800.80155151,0.00318327
4802.73035889,0.00315477
4804.65916626,0.00307171
4806.58797363,0.00314548
4808.51678101,0.00316442
4810.44558838,0.00310418
4812.37439575,0.00305829
4814.30320312,0.00309557
4816.23201050,0.00315402
4818.16081787,0.00308911
4820.08962524,0.00311528
4822.01843262,0.00317467
4823.94723999,0.00315008
4825.87604736,0.00310604
4827.80485474,0.00303396
4829.73366211,0.00300119
4831.66246948,0.00307212
4833.59127686,0.00307123
4835.52008423,0.00300327
4837.44889160,0.00298919
4839.37769897,0.00298433
4841.30650635,0.00304492
4843.23531372,0.00300589
4845.16412109,0.00296323
4847.09292847,0.00300181
4849.02173584,0.00300194
4850.95054321,0.00297311
4852.87935059,0.00290767
4854.80815796,0.00301361
4856.73696533,0.00295558
4858.66577270,0.00284786
4860.59458008,0.00288059
4862.52338745,0.00277806
4864.45219482,0.00292547
4866.38100220,0.00298135
4868.30980957,0.00290223
4870.23861694,0.00293636
4872.16742432,0.00283506
4874.09623169,0.00287346
4876.02503906,0.00287146
4877.95384644,0.00284658
4879.88265381,0.00293947
4881.81146118,0.00286815
4883.74026855,0.00280183
4885.66907593,0.00279789
4887.59788330,0.00280925
4889.52669067,0.00284965
4891.45549805,0.00280999
4893.38430542,0.00274685
4895.31311279,0.00277745
4897.24192017,0.00280084
4899.17072754,0.00270927
4901.09953491,0.00271050
4903.02834228,0.00278740
4904.95714966,0.00272116
4906.88595703,0.00274464
4908.81476440,0.00276164
4910.74357178,0.00265875
4912.67237915,0.00274220
4914.60118652,0.00272697
4916.52999390,0.00264468
4918.45880127,0.00267664
4920.38760864,0.00268174
4922.31641602,0.00275240
4924.24522339,0.00265502
4926.17403076,0.00261709
4928.10283813,0.00273267
4930.03164551,0.00269491
4931.96045288,0.00275953
4933.88926025,0.00273902
4935.81806763,0.00260439
4937.74687500,0.00259635
4939.67568237,0.00259828
4941.60448975,0.00257556
4943.53329712,0.00251952
4945.46210449,0.00255107
4947.39091187,0.00254673
4949.31971924,0.00251492
4951.24852661,0.00260791
4953.17733398,0.00260446
4955.10614136,0.00257579
4957.03494873,0.00256576
4958.96375610,0.00251284
4960.89256348,0.00249190
4962.82137085,0.00251092
4964.75017822,0.00253391
4966.67898560,0.00251949
4968.60779297,0.00255228
4970.53660034,0.00250628
4972.46540771,0.00245271
4974.39421509,0.00250289
4976.32302246,0.00248308
4978.25182983,0.00250460
4980.18063721,0.00246317
4982.10944458,0.00238445
4984.03825195,0.00241977
4985.96705933,0.00240702
4987.89586670,0.00237446
4989.82467407,0.00237934
4991.75348145,0.00241109
4993.68228882,0.00237951
4995.61109619,0.00231960
4997.53990356,0.00232341
4999.46871094,0.00237621
5001.39751831,0.00239371
5003.32632568,0.00233187
5005.25513306,0.00230866
5007.18394043,0.00228784
5009.11274780,0.00234893
5011.04155518,0.00237077
5012.97036255,0.00233380
5014.89916992,0.00236110
5016.82797729,0.00228606
5018.75678467,0.00229423
5020.68559204,0.00225960
5022.61439941,0.00224672
5024.54320679,0.00231028
5026.47201416,0.00224108
5028.40082153,0.00230400
5030.32962891,0.00227983
5032.25843628,0.00223549
5034.18724365,0.00223444
5036.11605103,0.00218928
5038.04485840,0.00224171
5039.97366577,0.00219265
5041.90247314,0.00225382
5043.83128052,0.00227242
5045.76008789,0.00220675
5047.68889526,0.00223351
5049.61770264,0.00218076
5051.54651001,0.00220449
5053.47531738,0.00215316
5055.40412476,0.00213630
5057.33293213,0.00217458
5059.26173950,0.00214705
5061.19054687,0.00218068
5063.11935425,0.00210276
5065.04816162,0.00211616
5066.97696899,0.00211806
5068.90577637,0.00211737
5070.83458374,0.00220396
5072.76339111,0.00207651
5074.69219849,0.00211219
5076.62100586,0.00214369
5078.54981323,0.00203463
5080.47862061,0.00210565
5082.40742798,0.00205723
5084.33623535,0.00204486
5086.26504272,0.00210439
5088.19385010,0.00201415
5090.12265747,0.00199686
5092.05146484,0.00202789
5093.98027222,0.00204968
5095.90907959,0.00204865
5097.83788696,0.00200586
5099.76669434,0.00200720
5101.69550171,0.00202080
5103.62430908,0.00202526
5105.55311645,0.00198969
5107.48192383,0.00196793
5109.41073120,0.00202093
5111.33953857,0.00199331
5113.26834595,0.00196314
5115.19715332,0.00201158
5117.12596069,0.00196431
5119.05476807,0.00192989
5120.98357544,0.00195902
5122.91238281,0.00196236
5124.84119019,0.00192057
5126.76999756,0.00186892
5128.69880493,0.00194444
5130.62761230,0.00193651
5132.55641968,0.00188145
5134.48522705,0.00192662
5136.41403442,0.00185456
5138.34284180,0.00182410
5140.27164917,0.00189563
5142.20045654,0.00190591
5144.12926392,0.00185670
5146.05807129,0.00186415
5147.98687866,0.00189657
5149.91568603,0.00186003
5151.84449341,0.00190062
5153.77330078,0.00187607
5155.70210815,0.00186451
5157.63091553,0.00192622
5159.55972290,0.00183896
5161.48853027,0.00182884
5163.41733765,0.00181402
5165.34614502,0.00175364
5167.27495239,0.00178461
5169.20375977,0.00178501
5171.13256714,0.00180367
5173.06137451,0.00177625
5174.99018188,0.00174491
5176.91898926,0.00177908
5178.84779663,0.00176129
5180.77660400,0.00174372
5182.70541138,0.00176279
5184.63421875,0.00175758
5186.56302612,0.00175032
5188.49183350,0.00179696
5190.42064087,0.00175433
5192.34944824,0.00174696
5194.27825562,0.00183837
5196.20706299,0.00173037
5198.13587036,0.00173520
5200.06467773,0.00182038
5201.99348511,0.00172263
5203.92229248,0.00172732
5205.85109985,0.00167448
5207.77990723,0.00163894
5209.70871460,0.00168535
5211.63752197,0.00165071
5213.56632935,0.00171993
5215.49513672,0.00174135
5217.42394409,0.00170988
5219.35275146,0.00167749
5221.28155884,0.00168477
5223.21036621,0.00171371
5225.13917358,0.00160733
5227.06798096,0.00164697
5228.99678833,0.00169082
5230.92559570,0.00163091
5232.85440308,0.00161202
5234.78321045,0.00161024
5236.71201782,0.00165532
5238.64082520,0.00158553
5240.56963257,0.00158594
5242.49843994,0.00163100
5244.42724731,0.00157684
5246.35605469,0.00157108
5248.28486206,0.00155361
5250.21366943,0.00160321
5252.14247681,0.00165838
5254.07128418,0.00161397
5256.00009155,0.00152853
5257.92889893,0.00155195
5259.85770630,0.00161876
5261.78651367,0.00156312
5263.71532104,0.00152787
5265.64412842,0.00147773
5267.57293579,0.00152737
5269.50174316,0.00161484
5271.43055054,0.00162584
5273.35935791,0.00162313
5275.28816528,0.00148980
5277.21697266,0.00150883
5279.14578003,0.00156389
5281.07458740,0.00152893
5283.00339478,0.00157605
5284.93220215,0.00157554
5286.86100952,0.00156107
5288.78981689,0.00146979
5290.71862427,0.00147955
5292.64743164,0.00152165
5294.57623901,0.00146183
5296.50504639,0.00154749
5298.43385376,0.00153921
5300.36266113,0.00147604
5302.29146851,0.00145674
5304.22027588,0.00149598
5306.14908325,0.00154069
5308.07789062,0.00139458
5310.00669800,0.00140892
5311.93550537,0.00148897
5313.86431274,0.00148550
5315.79312012,0.00150509
5317.72192749,0.00146662
5319.65073486,0.00147503
5321.57954224,0.00148182
5323.50834961,0.00150221
5325.43715698,0.00149437
5327.36596436,0.00143947
5329.29477173,0.00142547
5331.22357910,0.00144589
5333.15238647,0.00142909
5335.08119385,0.00139464
5337.01000122,0.00143248
5338.93880859,0.00131352
5340.86761597,0.00140012
5342.79642334,0.00149341
5344.72523071,0.00130960
5346.65403809,0.00142808
5348.58284546,0.00140799
5350.51165283,0.00138087
5352.44046020,0.00140569
5354.36926758,0.00130380
5356.29807495,0.00140970
5358.22688232,0.00133076
5360.15568970,0.00136862
5362.08449707,0.00140637
5364.01330444,0.00130423
5365.94211182,0.00139719
5367.87091919,0.00136459
5369.79972656,0.00133976
5371.72853394,0.00131965
5373.65734131,0.00135266
5375.58614868,0.00138697
5377.51495605,0.00132809
5379.44376343,0.00134629
5381.37257080,0.00133136
5383.30137817,0.00131630
5385.23018555,0.00130910
5387.15899292,0.00137686
5389.08780029,0.00133879
5391.01660767,0.00131888
5392.94541504,0.00136575
5394.87422241,0.00122561
5396.80302978,0.00124628
5398.73183716,0.00128275
5400.66064453,0.00129135
5402.58945190,0.00129864
5404.51825928,0.00124776
5406.44706665,0.00129947
5408.37587402,0.00122598
5410.30468140,0.00117330
5412.23348877,0.00126685
5414.16229614,0.00129044
5416.09110352,0.00123112
5418.01991089,0.00126486
5419.94871826,0.00123225
5421.87752563,0.00119886
5423.80633301,0.00131218
5425.73514038,0.00123019
5427.66394775,0.00128384
5429.59275513,0.00129117
5431.52156250,0.00114487
5433.45036987,0.00122018
5435.37917725,0.00115280
5437.30798462,0.00118819
5439.23679199,0.00122056
5441.16559936,0.00113922
5443.09440674,0.00127846
5445.02321411,0.00124403
5446.95202148,0.00118057
5448.88082886,0.00122740
5450.80963623,0.00115561
5452.73844360,0.00116195
5454.66725098,0.00117593
5456.59605835,0.00113244
5458.52486572,0.00116045
5460.45367310,0.00114214
5462.38248047,0.00117298
5464.31128784,0.00121857
5466.24009521,0.00114314
5468.16890259,0.00117239
5470.09770996,0.00119252
5472.02651733,0.00119447
5473.95532471,0.00124481
5475.88413208,0.00115305
5477.81293945,0.00113224
5479.74174683,0.00116771
5481.67055420,0.00110029
5483.59936157,0.00108858
5485.52816895,0.00108710
5487.45697632,0.00110829
5489.38578369,0.00115764
5491.31459106,0.00114995
5493.24339844,0.00111954
5495.17220581,0.00104682
5497.10101318,0.00108106
5499.02982056,0.00109143
5500.95862793,0.00103976
5502.88743530,0.00114458
5504.81624268,0.00115305
5506.74505005,0.00113619
5508.67385742,0.00110231
5510.60266479,0.00106444
5512.53147217,0.00113595
5514.46027954,0.00108469
5516.38908691,0.00108726
5518.31789429,0.00111000
5520.24670166,0.00109851
5522.17550903,0.00107821
5524.10431641,0.00103368
5526.03312378,0.00105891
5527.96193115,0.00101464
5529.89073853,0.00104473
5531.81954590,0.00102957
5533.74835327,0.00096518
5535.67716064,0.00101569
5537.60596802,0.00101755
5539.53477539,0.00102137
5541.46358276,0.00103521
5543.39239014,0.00107071
5545.32119751,0.00104692
5547.25000488,0.00101749
5549.17881226,0.00097498
5551.10761963,0.00095240
5553.03642700,0.00104033
5554.96523437,0.00096074
5556.89404175,0.00093933
5558.82284912,0.00102310
5560.75165649,0.00100241
5562.68046387,0.00098251
5564.60927124,0.00101971
5566.53807861,0.00099127
5568.46688599,0.00088027
5570.39569336,0.00098417
5572.32450073,0.00104122
5574.25330811,0.00096722
5576.18211548,0.00099804
5578.11092285,0.00102146
5580.03973022,0.00100018
5581.96853760,0.00094647
5583.89734497,0.00093975
5585.82615234,0.00094756
5587.75495972,0.00098494
5589.68376709,0.00091892
5591.61257446,0.00086163
5593.54138184,0.00094668
5595.47018921,0.00088763
5597.39899658,0.00093643
5599.32780395,0.00102735
5601.25661133,0.00096313
5603.18541870,0.00093396
5605.11422607,0.00093053
5607.04303345,0.00090795
5608.97184082,0.00085673
5610.90064819,0.00087863
5612.82945557,0.00094194
5614.75826294,0.00098351
5616.68707031,0.00091822
5618.61587769,0.00087304
5620.54468506,0.00091831
5622.47349243,0.00085825
5624.40229980,0.00090610
5626.33110718,0.00098565
5628.25991455,0.00090880
5630.18872192,0.00085778
5632.11752930,0.00090517
5634.04633667,0.00097959
5635.97514404,0.00098063
5637.90395142,0.00090218
5639.83275879,0.00083180
5641.76156616,0.00085548
5643.69037353,0.00092424
5645.61918091,0.00093770
5647.54798828,0.00087410
5649.47679565,0.00090400
5651.40560303,0.00090996
5653.33441040,0.00080006
5655.26321777,0.00079726
5657.19202515,0.00082476
5659.12083252,0.00088784
5661.04963989,0.00085567
5662.97844727,0.00082092
5664.90725464,0.00086543
5666.83606201,0.00084219
5668.76486938,0.00090070
5670.69367676,0.00083967
5672.62248413,0.00084267
5674.55129150,0.00084725
5676.48009888,0.00070655
5678.40890625,0.00079713
5680.33771362,0.00086858
5682.26652100,0.00085190
5684.19532837,0.00084296
5686.12413574,0.00089373
5688.05294311,0.00086288
5689.98175049,0.00073732
5691.91055786,0.00080985
5693.83936523,0.00082828
5695.76817261,0.00080705
5697.69697998,0.00081148
5699.62578735,0.00079554
5701.55459473,0.00079413
5703.48340210,0.00082569
5705.41220947,0.00083954
5707.34101685,0.00073108
5709.26982422,0.00078218
5711.19863159,0.00078386
5713.12743896,0.00074442
5715.05624634,0.00083856
5716.98505371,0.00076625
5718.91386108,0.00072517
5720.84266846,0.00075476
5722.77147583,0.00078572
5724.70028320,0.00074948
5726.62909058,0.00068965
5728.55789795,0.00080703
5730.48670532,0.00080440
5732.41551270,0.00073969
5734.34432007,0.00077529
5736.27312744,0.00077254
5738.20193481,0.00081665
5740.13074219,0.00080033
5742.05954956,0.00069308
5743.98835693,0.00072935
5745.91716431,0.00078068
5747.84597168,0.00074356
5749.77477905,0.00074623
5751.70358643,0.00071517
5753.63239380,0.00065163
5755.56120117,0.00070272
5757.49000854,0.00076284
5759.41881592,0.00071411
5761.34762329,0.00070944
5763.27643066,0.00072714
5765.20523804,0.00073537
5767.13404541,0.00075101
5769.06285278,0.00069953
5770.99166016,0.00071338
5772.92046753,0.00073112
5774.84927490,0.00069554
5776.77808228,0.00066666
5778.70688965,0.00070446
5780.63569702,0.00075954
5782.56450439,0.00065004
5784.49331177,0.00067257
5786.42211914,0.00073920
5788.35092651,0.00066770
5790.27973389,0.00070404
5792.20854126,0.00067205
5794.13734863,0.00062742
5796.06615601,0.00067783
5797.99496338,0.00066003
5799.92377075,0.00068056
5801.85257812,0.00072321
5803.78138550,0.00067502
5805.71019287,0.00070043
5807.63900024,0.00074097
5809.56780762,0.00065327
5811.49661499,0.00065166
5813.42542236,0.00067509
5815.35422974,0.00064292
5817.28303711,0.00064514
5819.21184448,0.00061292
5821.14065186,0.00065078
5823.06945923,0.00069597
5824.99826660,0.00061787
5826.92707397,0.00060327
5828.85588135,0.00060597
5830.78468872,0.00056317
5832.71349609,0.00062598
5834.64230347,0.00061217
5836.57111084,0.00057787
5838.49991821,0.00069442
5840.42872559,0.00065492
5842.35753296,0.00061274
5844.28634033,0.00069113
5846.21514770,0.00061951
5848.14395508,0.00057920
5850.07276245,0.00061017
5852.00156982,0.00061761
5853.93037720,0.00064104
5855.85918457,0.00054134
5857.78799194,0.00055407
5859.71679932,0.00066683
5861.64560669,0.00058626
5863.57441406,0.00062322
5865.50322144,0.00059936
5867.43202881,0.00051407
5869.36083618,0.00060996
5871.28964355,0.00051369
5873.21845093,0.00054053
5875.14725830,0.00063285
5877.07606567,0.00055687
5879.00487305,0.00062221
5880.93368042,0.00057813
5882.86248779,0.00053474
5884.79129517,0.00057605
5886.72010254,0.00053193
5888.64890991,0.00058262
5890.57771728,0.00064132
5892.50652466,0.00059327
5894.43533203,0.00059786
5896.36413940,0.00066060
5898.29294678,0.00062520
5900.22175415,0.00057236
5902.15056152,0.00052571
5904.07936890,0.00050839
5906.00817627,0.00054172
5907.93698364,0.00052272
5909.86579102,0.00053372
5911.79459839,0.00057044
5913.72340576,0.00060327
5915.65221313,0.00056962
5917.58102051,0.00053814
5919.50982788,0.00056556
5921.43863525,0.00050223
5923.36744263,0.00054127
5925.29625000,0.00063665
5927.22505737,0.00057405
5929.15386475,0.00048510
5931.08267212,0.00050076
5933.01147949,0.00057890
5934.94028686,0.00055201
5936.86909424,0.00052744
5938.79790161,0.00056303
5940.72670898,0.00054376
5942.65551636,0.00056147
5944.58432373,0.00055499
5946.51313110,0.00049726
5948.44193848,0.00051645
5950.37074585,0.00053131
5952.29955322,0.00052098
5954.22836060,0.00051982
5956.15716797,0.00051438
5958.08597534,0.00050388
5960.01478271,0.00046873
5961.94359009,0.00048831
5963.87239746,0.00052017
5965.80120483,0.00050970
5967.73001221,0.00048124
5969.65881958,0.00046733
5971.58762695,0.00049590
5973.51643433,0.00049710
5975.44524170,0.00051674
5977.37404907,0.00050104
5979.30285645,0.00048137
5981.23166382,0.00050963
5983.16047119,0.00047326
5985.08927856,0.00047962
5987.01808594,0.00048813
5988.94689331,0.00047456
5990.87570068,0.00049649
5992.80450806,0.00047110
5994.73331543,0.00042384
5996.66212280,0.00046882
5998.59093018,0.00055473
6000.51973755,0.00045730
