399.26312622,0.00056451
401.19193359,0.00086872
403.12074097,0.00019210
405.04954834,0.00004618
406.97835571,0.00068650
408.90716309,0.00115645
410.83597046,0.00049558
412.76477783,0.00070788
414.69358521,0.00091358
416.62239258,0.00055001
418.55119995,0.00076719
420.48000732,0.00037729
422.40881470,0.00024072
424.33762207,0.00075255
426.26642944,0.00095046
428.19523682,0.00111472
430.12404419,0.00090858
432.05285156,0.00062158
433.98165894,0.00087231
435.91046631,0.00066512
437.83927368,0.00043124
439.76808105,0.00032995
441.69688843,0.00023543
443.62569580,0.00069825
445.55450317,0.00061397
447.48331055,0.00074675
449.41211792,0.00085166
451.34092529,0.00038739
453.26973267,0.00059953
455.19854004,0.00055268
457.12734741,0.00046943
459.05615479,0.00048088
460.98496216,0.00038005
462.91376953,0.00071832
464.84257690,0.00051825
466.77138428,0.00001342
468.70019165,0.00010855
470.62899902,0.00004865
472.55780640,0.00008140
474.48661377,0.00075204
476.41542114,0.00053278
478.34422852,-0.00008892
480.27303589,-0.00005731
482.20184326,0.00002231
484.13065063,0.00024402
486.05945801,0.00039061
487.98826538,0.00021094
489.91707275,0.00011809
491.84588013,0.00016790
493.77468750,0.00013114
495.70349487,0.00028479
497.63230225,0.00047928
499.56110962,0.00040505
501.48991699,0.00011734
503.41872437,-0.00005077
505.34753174,0.00016616
507.27633911,0.00016430
509.20514648,0.00015845
511.13395386,0.00036441
513.06276123,0.00030895
514.99156860,0.00007908
516.92037598,0.00015527
518.84918335,0.00030545
520.77799072,0.00001607
522.70679810,0.00016275
524.63560547,0.00038322
526.56441284,0.00020731
528.49322021,0.00007463
530.42202759,0.00021732
532.35083496,0.00025968
534.27964233,0.00004005
536.20844971,-0.00011991
538.13725708,-0.00002388
540.06606445,0.00010923
541.99487183,-0.00019068
543.92367920,0.00039032
545.85248657,0.00077061
547.78129395,0.00042650
549.71010132,0.00060680
551.63890869,0.00002204
553.56771606,0.00007988
555.49652344,0.00031055
557.42533081,0.00009183
559.35413818,0.00053872
561.28294556,-0.00013886
563.21175293,-0.00030667
565.14056030,0.00031631
567.06936768,0.00020492
568.99817505,0.00027401
570.92698242,0.00005799
572.85578979,-0.00014802
574.78459717,0.00023344
576.71340454,0.00041355
578.64221191,-0.00013980
580.57101929,-0.00024875
582.49982666,0.00005281
584.42863403,-0.00005281
586.35744141,0.00027139
588.28624878,0.00040927
590.21505615,0.00010374
592.14386353,0.00002421
594.07267090,0.00018041
596.00147827,0.00002425
597.93028564,0.00006283
599.85909302,0.00038889
601.78790039,0.00024736
603.71670776,0.00027580
605.64551514,0.00024232
607.57432251,0.00034615
609.50312988,0.00016723
611.43193726,0.00007809
613.36074463,0.00032373
615.28955200,-0.00008037
617.21835938,0.00003334
619.14716675,0.00008685
621.07597412,0.00003265
623.00478149,-0.00007466
624.93358887,-0.00032930
626.86239624,0.00009261
628.79120361,0.00019041
630.72001099,0.00033907
632.64881836,0.00036486
634.57762573,0.00027147
636.50643311,0.00047142
638.43524048,0.00040911
640.36404785,0.00080738
642.29285522,0.00088456
644.22166260,0.00047475
646.15046997,0.00073772
648.07927734,0.00100195
650.00808472,0.00105985
651.93689209,0.00096875
653.86569946,0.00097835
655.79450684,0.00111398
657.72331421,0.00098734
659.65212158,0.00118858
661.58092896,0.00118115
663.50973633,0.00127883
665.43854370,0.00145774
667.36735107,0.00095531
669.29615845,0.00139817
671.22496582,0.00182324
673.15377319,0.00172525
675.08258057,0.00186107
677.01138794,0.00164521
678.94019531,0.00199298
680.86900269,0.00195515
682.79781006,0.00161442
684.72661743,0.00216137
686.65542480,0.00215432
688.58423218,0.00158100
690.51303955,0.00177465
692.44184692,0.00215806
694.37065430,0.00204468
696.29946167,0.00230068
698.22826904,0.00274005
700.15707642,0.00295900
702.08588379,0.00259112
704.01469116,0.00230464
705.94349854,0.00263750
707.87230591,0.00221929
709.80111328,0.00145251
711.72992065,0.00076530
713.65872803,0.00076275
715.58753540,0.00072810
717.51634277,0.00011070
719.44515015,0.00044555
721.37395752,0.00036762
723.30276489,-0.00016059
725.23157227,0.00008573
727.16037964,0.00042358
729.08918701,0.00017130
731.01799438,0.00007419
732.94680176,0.00017361
734.87560913,0.00004935
736.80441650,0.00014756
738.73322388,-0.00003632
740.66203125,0.00020869
742.59083862,0.00022934
744.51964600,-0.00011874
746.44845337,0.00021741
748.37726074,0.00002245
750.30606812,0.00016999
752.23487549,0.00045439
754.16368286,0.00004988
756.09249023,0.00033580
758.02129761,0.00032982
759.95010498,0.00021081
761.87891235,0.00033012
763.80771973,-0.00010657
765.73652710,0.00019813
767.66533447,0.00062590
769.59414185,0.00025549
771.52294922,0.00011132
773.45175659,0.00029335
775.38056396,0.00037456
777.30937134,0.00041240
779.23817871,0.00044244
781.16698608,0.00036738
783.09579346,0.00019451
785.02460083,0.00008582
786.95340820,0.00034998
788.88221558,0.00056374
790.81102295,0.00028607
792.73983032,0.00020345
794.66863770,0.00034886
796.59744507,0.00031471
798.52625244,0.00035545
800.45505981,0.00017656
802.38386719,0.00007271
804.31267456,0.00038373
806.24148193,0.00027437
808.17028931,0.00014017
810.09909668,0.00034575
812.02790405,0.00036495
813.95671143,0.00041436
815.88551880,0.00036260
817.81432617,0.00010434
819.74313354,0.00008402
821.67194092,0.00015248
823.60074829,0.00026521
825.52955566,0.00040232
827.45836304,0.00047860
829.38717041,0.00067218
831.31597778,0.00063373
833.24478516,0.00060928
835.17359253,0.00067011
837.10239990,0.00070530
839.03120728,0.00083273
840.96001465,0.00045842
842.88882202,0.00040487
844.81762939,0.00072624
846.74643677,0.00062319
848.67524414,0.00045608
850.60405151,0.00053611
852.53285889,0.00051685
854.46166626,0.00008853
856.39047363,0.00023085
858.31928101,0.00048013
860.24808838,0.00048085
862.17689575,0.00041488
864.10570313,0.00021969
866.03451050,0.00034223
867.96331787,0.00028929
869.89212524,0.00044372
871.82093262,0.00039849
873.74973999,0.00024299
875.67854736,0.00039995
877.60735474,0.00030020
879.53616211,0.00038566
881.46496948,0.00051018
883.39377686,0.00056776
885.32258423,0.00028432
887.25139160,0.00029544
889.18019897,0.00027179
891.10900635,-0.00001712
893.03781372,0.00025479
894.96662109,-0.00002385
896.89542847,0.00025711
898.82423584,0.00045412
900.75304321,0.00011077
902.68185059,0.00055260
904.61065796,0.00045792
906.53946533,0.00037847
908.46827271,0.00027822
910.39708008,0.00037367
912.32588745,0.00069181
914.25469482,0.00026429
916.18350220,0.00044375
918.11230957,0.00068163
920.04111694,0.00049400
921.96992432,0.00050721
923.89873169,0.00050377
925.82753906,0.00053286
927.75634644,0.00071179
929.68515381,0.00095480
931.61396118,0.00079767
933.54276855,0.00065914
935.47157593,0.00087709
937.40038330,0.00097317
939.32919067,0.00104934
941.25799805,0.00123494
943.18680542,0.00118373
945.11561279,0.00099929
947.04442017,0.00098639
948.97322754,0.00123567
950.90203491,0.00141442
952.83084229,0.00116051
954.75964966,0.00116203
956.68845703,0.00120218
958.61726440,0.00103308
960.54607178,0.00102128
962.47487915,0.00096123
964.40368652,0.00119921
966.33249390,0.00129408
968.26130127,0.00118884
970.19010864,0.00141305
972.11891602,0.00139937
974.04772339,0.00126610
975.97653076,0.00154758
977.90533813,0.00189028
979.83414551,0.00185117
981.76295288,0.00181771
983.69176025,0.00194014
985.62056763,0.00200526
987.54937500,0.00230601
989.47818237,0.00279447
991.40698975,0.00307488
993.33579712,0.00335103
995.26460449,0.00370591
997.19341187,0.00384373
999.12221924,0.00405343
1001.05102661,0.00437347
1002.97983398,0.00454609
1004.90864136,0.00490175
1006.83744873,0.00541092
1008.76625610,0.00564918
1010.69506348,0.00588610
1012.62387085,0.00623177
1014.55267822,0.00661276
1016.48148560,0.00706928
1018.41029297,0.00731498
1020.33910034,0.00771113
1022.26790771,0.00800130
1024.19671509,0.00814731
1026.12552246,0.00854389
1028.05432983,0.00873135
1029.98313721,0.00918267
1031.91194458,0.00946127
1033.84075195,0.00927514
1035.76955933,0.00956985
1037.69836670,0.00986441
1039.62717407,0.00972108
1041.55598145,0.00985964
1043.48478882,0.01003431
1045.41359619,0.00965404
1047.34240356,0.00949029
1049.27121094,0.00930108
1051.20001831,0.00915298
1053.12882568,0.00914185
1055.05763306,0.00874599
1056.98644043,0.00859014
1058.91524780,0.00836931
1060.84405518,0.00820285
1062.77286255,0.00793541
1064.70166992,0.00771734
1066.63047729,0.00749659
1068.55928467,0.00676681
1070.48809204,0.00677670
1072.41689941,0.00664921
1074.34570679,0.00632278
1076.27451416,0.00598480
1078.20332153,0.00544787
1080.13212891,0.00559182
1082.06093628,0.00514972
1083.98974365,0.00472550
1085.91855103,0.00486111
1087.84735840,0.00469696
1089.77616577,0.00439448
1091.70497314,0.00416878
1093.63378052,0.00418463
1095.56258789,0.00405776
1097.49139526,0.00385046
1099.42020264,0.00354105
1101.34901001,0.00348494
1103.27781738,0.00357900
1105.20662476,0.00330898
1107.13543213,0.00323247
1109.06423950,0.00340741
1110.99304687,0.00334164
1112.92185425,0.00315115
1114.85066162,0.00339307
1116.77946899,0.00325175
1118.70827637,0.00299739
1120.63708374,0.00327008
1122.56589111,0.00330587
1124.49469849,0.00332824
1126.42350586,0.00343620
1128.35231323,0.00352003
1130.28112061,0.00347647
1132.20992798,0.00369285
1134.13873535,0.00391003
1136.06754272,0.00375689
1137.99635010,0.00391724
1139.92515747,0.00430673
1141.85396484,0.00458725
1143.78277222,0.00463015
1145.71157959,0.00520470
1147.64038696,0.00554207
1149.56919434,0.00548162
1151.49800171,0.00595414
1153.42680908,0.00617198
1155.35561646,0.00662253
1157.28442383,0.00699782
1159.21323120,0.00718409
1161.14203857,0.00738415
1163.07084595,0.00753388
1164.99965332,0.00795439
1166.92846069,0.00803574
1168.85726807,0.00846812
1170.78607544,0.00897001
1172.71488281,0.00922704
1174.64369019,0.00949596
1176.57249756,0.00977338
1178.50130493,0.01025067
1180.43011230,0.01040471
1182.35891968,0.01091366
1184.28772705,0.01148841
1186.21653442,0.01192466
1188.14534180,0.01257729
1190.07414917,0.01318353
1192.00295654,0.01397981
1193.93176392,0.01451870
1195.86057129,0.01511001
1197.78937866,0.01581060
1199.71818604,0.01641217
1201.64699341,0.01722037
1203.57580078,0.01779069
1205.50460815,0.01824518
1207.43341553,0.01917766
1209.36222290,0.01992391
1211.29103027,0.02016683
1213.21983765,0.02099766
1215.14864502,0.02156514
1217.07745239,0.02163938
1219.00625977,0.02223502
1220.93506714,0.02251136
1222.86387451,0.02263177
1224.79268188,0.02286388
1226.72148926,0.02300550
1228.65029663,0.02332269
1230.57910400,0.02344917
1232.50791138,0.02353809
1234.43671875,0.02372430
1236.36552612,0.02372606
1238.29433350,0.02367342
1240.22314087,0.02361767
1242.15194824,0.02355312
1244.08075562,0.02343052
1246.00956299,0.02340525
1247.93837036,0.02344780
1249.86717773,0.02317121
1251.79598511,0.02293910
1253.72479248,0.02289978
1255.65359985,0.02268491
1257.58240723,0.02214657
1259.51121460,0.02184950
1261.44002197,0.02180467
1263.36882935,0.02128165
1265.29763672,0.02098281
1267.22644409,0.02080123
1269.15525146,0.02061720
1271.08405884,0.02043162
1273.01286621,0.01985369
1274.94167358,0.01974204
1276.87048096,0.01935543
1278.79928833,0.01883548
1280.72809570,0.01862191
1282.65690308,0.01804584
1284.58571045,0.01780041
1286.51451782,0.01755431
1288.44332520,0.01713967
1290.37213257,0.01703650
1292.30093994,0.01699287
1294.22974731,0.01672860
1296.15855469,0.01672081
1298.08736206,0.01682660
1300.01616943,0.01656498
1301.94497681,0.01686104
1303.87378418,0.01726542
1305.80259155,0.01720237
1307.73139893,0.01723574
1309.66020630,0.01763247
1311.58901367,0.01793494
1313.51782104,0.01805010
1315.44662842,0.01869231
1317.37543579,0.01917041
1319.30424316,0.01967942
1321.23305054,0.02046448
1323.16185791,0.02091856
1325.09066528,0.02138161
1327.01947266,0.02208053
1328.94828003,0.02283175
1330.87708740,0.02321332
1332.80589478,0.02375898
1334.73470215,0.02409903
1336.66350952,0.02400457
1338.59231689,0.02393256
1340.52112427,0.02421334
1342.44993164,0.02538952
1344.37873901,0.02570247
1346.30754639,0.02564004
1348.23635376,0.02579008
1350.16516113,0.02541730
1352.09396851,0.02541587
1354.02277588,0.02512008
1355.95158325,0.02494613
1357.88039062,0.02476281
1359.80919800,0.02431228
1361.73800537,0.02316390
1363.66681274,0.02255021
1365.59562012,0.02430257
1367.52442749,0.02365684
1369.45323486,0.02293015
1371.38204224,0.02373352
1373.31084961,0.02230980
1375.23965698,0.02251581
1377.16846436,0.02311859
1379.09727173,0.02297772
1381.02607910,0.02327165
1382.95488647,0.02329599
1384.88369385,0.02347155
1386.81250122,0.02184169
1388.74130859,0.02199272
1390.67011597,0.02448527
1392.59892334,0.02369217
1394.52773071,0.02188320
1396.45653809,0.02305687
1398.38534546,0.02301569
1400.31415283,0.02279883
1402.24296021,0.02502203
1404.17176758,0.02347063
1406.10057495,0.02336263
1408.02938232,0.02489071
1409.95818970,0.02388650
1411.88699707,0.02419860
1413.81580444,0.02336735
1415.74461182,0.02387902
1417.67341919,0.02121937
1419.60222656,0.01856066
1421.53103394,0.02215160
1423.45984131,0.02138216
1425.38864868,0.02082004
1427.31745605,0.02135839
1429.24626343,0.01934779
1431.17507080,0.01893655
1433.10387817,0.01942068
1435.03268555,0.01758248
1436.96149292,0.01436087
1438.89030029,0.01683952
1440.81910767,0.01768332
1442.74791504,0.01618402
1444.67672241,0.01733762
1446.60552979,0.01568160
1448.53433716,0.01590455
1450.46314453,0.01654149
1452.39195190,0.01670679
1454.32075928,0.01734477
1456.24956665,0.01371058
1458.17837402,0.01418016
1460.10718140,0.01973135
1462.03598877,0.02124086
1463.96479614,0.02077437
1465.89360352,0.02161817
1467.82241089,0.02494527
1469.75121826,0.02677571
1471.68002563,0.02324821
1473.60883301,0.02441289
1475.53764038,0.02821957
1477.46644775,0.03043922
1479.39525513,0.03403585
1481.32406250,0.03435567
1483.25286987,0.03656654
1485.18167725,0.03782728
1487.11048462,0.03646787
1489.03929199,0.03605654
1490.96809937,0.03608918
1492.89690674,0.04313571
1494.82571411,0.04212287
1496.75452148,0.03670656
1498.68332886,0.04229149
1500.61213623,0.04369809
1502.54094360,0.04742420
1504.46975098,0.04471145
1506.39855835,0.03007758
1508.32736572,0.03775981
1510.25617310,0.04613113
1512.18498047,0.04449657
1514.11378784,0.04892744
1516.04259521,0.04300404
1517.97140259,0.04486129
1519.90020996,0.04383070
1521.82901733,0.03623149
1523.75782471,0.04612633
1525.68663208,0.04556010
1527.61543945,0.04479074
1529.54424683,0.05104675
1531.47305420,0.04864252
1533.40186157,0.04347107
1535.33066895,0.04650087
1537.25947632,0.05102059
1539.18828369,0.03430386
1541.11709106,0.03535404
1543.04589844,0.04453412
1544.97470581,0.04195811
1546.90351318,0.05194604
1548.83232056,0.04812730
1550.76112793,0.04927678
1552.68993530,0.04985465
1554.61874268,0.04390344
1556.54755005,0.04780020
1558.47635742,0.03131479
1560.40516479,0.03369240
1562.33397217,0.05263277
1564.26277954,0.04916659
1566.19158691,0.05064682
1568.12039429,0.05024191
1570.04920166,0.04313602
1571.97800903,0.05119082
1573.90681641,0.05245681
1575.83562378,0.03965627
1577.76443115,0.04558977
1579.69323853,0.05334409
1581.62204590,0.05059497
1583.55085327,0.05181937
1585.47966064,0.05125500
1587.40846802,0.05166699
1589.33727539,0.05102518
1591.26608276,0.05109204
1593.19489014,0.05129637
1595.12369751,0.05053370
1597.05250488,0.05138668
1598.98131226,0.05098925
1600.91011963,0.05139304
1602.83892700,0.05024224
1604.76773437,0.05130786
1606.69654175,0.05040218
1608.62534912,0.04992739
1610.55415649,0.05010250
1612.48296387,0.05039323
1614.41177124,0.05149660
1616.34057861,0.04055754
1618.26938599,0.04416780
1620.19819336,0.05349991
1622.12700073,0.04636085
1624.05580811,0.04633955
1625.98461548,0.04923856
1627.91342285,0.04892209
1629.84223022,0.04873469
1631.77103760,0.05262443
1633.69984497,0.04811476
1635.62865234,0.03792736
1637.55745972,0.04541691
1639.48626709,0.05146053
1641.41507446,0.04995121
1643.34388184,0.05163028
1645.27268921,0.04605559
1647.20149658,0.03883321
1649.13030396,0.05036398
1651.05911133,0.04867043
1652.98791870,0.02808224
1654.91672607,0.04012893
1656.84553345,0.05376967
1658.77434082,0.05115125
1660.70314819,0.05273230
1662.63195557,0.04725744
1664.56076294,0.05008800
1666.48957031,0.05506751
1668.41837769,0.04676297
1670.34718506,0.04476114
1672.27599243,0.05260693
1674.20479980,0.04802993
1676.13360718,0.04536501
1678.06241455,0.05397734
1679.99122192,0.05186601
1681.92002930,0.05107848
1683.84883667,0.04013879
1685.77764404,0.03927976
1687.70645142,0.05740194
1689.63525879,0.04890141
1691.56406616,0.05448856
1693.49287354,0.05638383
1695.42168091,0.03850050
1697.35048828,0.04940582
1699.27929565,0.04274013
1701.20810303,0.03689925
1703.13691040,0.05401186
1705.06571777,0.04893204
1706.99452515,0.04911863
1708.92333252,0.05473156
1710.85213989,0.05238876
1712.78094727,0.05345903
1714.70975464,0.04881790
1716.63856201,0.04297140
1718.56736938,0.04199816
1720.49617676,0.05155552
1722.42498413,0.05468273
1724.35379150,0.04971515
1726.28259888,0.05498452
1728.21140625,0.05045813
1730.14021362,0.05049273
1732.06902100,0.04966769
1733.99782837,0.03547007
1735.92663574,0.04580813
1737.85544312,0.05217841
1739.78425049,0.04515241
1741.71305786,0.05000682
1743.64186523,0.05081735
1745.57067261,0.05075140
1747.49947998,0.05124598
1749.42828735,0.04849975
1751.35709473,0.04595883
1753.28590210,0.05206097
1755.21470947,0.05503989
1757.14351685,0.04910776
1759.07232422,0.05520865
1761.00113159,0.05119973
1762.92993896,0.04867834
1764.85874634,0.05771953
1766.78755371,0.05105617
1768.71636108,0.05133010
1770.64516846,0.05095271
1772.57397583,0.04478288
1774.50278320,0.05106171
1776.43159058,0.05472481
1778.36039795,0.05396713
1780.28920532,0.05283162
1782.21801270,0.05357315
1784.14682007,0.05361608
1786.07562744,0.05199241
1788.00443481,0.05542045
1789.93324219,0.05391783
1791.86204956,0.04749055
1793.79085693,0.04992509
1795.71966431,0.05441331
1797.64847168,0.05355606
1799.57727905,0.05276415
1801.50608643,0.05142968
1803.43489380,0.05350424
1805.36370117,0.05519761
1807.29250854,0.05407215
1809.22131592,0.05432086
1811.15012329,0.05255298
1813.07893066,0.05469624
1815.00773804,0.05511293
1816.93654541,0.05421774
1818.86535278,0.05475736
1820.79416016,0.05439321
1822.72296753,0.05567738
1824.65177490,0.05112379
1826.58058228,0.05325656
1828.50938965,0.05368601
1830.43819702,0.04924335
1832.36700439,0.05474062
1834.29581177,0.05453920
1836.22461914,0.05434594
1838.15342651,0.05423709
1840.08223389,0.05460271
1842.01104126,0.05470784
1843.93984863,0.04703481
1845.86865601,0.05093119
1847.79746338,0.05470348
1849.72627075,0.05316649
1851.65507812,0.05509895
1853.58388550,0.05384704
1855.51269287,0.05452967
1857.44150024,0.05411216
1859.37030762,0.05374295
1861.29911499,0.05437299
1863.22792236,0.05346933
1865.15672974,0.05421261
1867.08553711,0.05215682
1869.01434448,0.04925014
1870.94315186,0.05171681
1872.87195923,0.05437453
1874.80076660,0.05342469
1876.72957397,0.05376292
1878.65838135,0.05333863
1880.58718872,0.05310065
1882.51599609,0.05383033
1884.44480347,0.05266144
1886.37361084,0.05367858
1888.30241821,0.05222838
1890.23122559,0.05084579
1892.16003296,0.05323809
1894.08884033,0.05246975
1896.01764771,0.05227724
1897.94645508,0.05304849
1899.87526245,0.05274530
1901.80406982,0.05281968
1903.73287720,0.05245262
1905.66168457,0.05290184
1907.59049194,0.05216072
1909.51929932,0.05170565
1911.44810669,0.05231530
1913.37691406,0.05226793
1915.30572144,0.05294927
1917.23452881,0.05015184
1919.16333618,0.04991493
1921.09214355,0.05263496
1923.02095093,0.05048971
1924.94975830,0.05173491
1926.87856567,0.05269177
1928.80737305,0.05163024
1930.73618042,0.05251168
1932.66498779,0.05155678
1934.59379517,0.05225193
1936.52260254,0.05183070
1938.45140991,0.05182838
1940.38021729,0.05204096
1942.30902466,0.04985326
1944.23783203,0.05110478
1946.16663940,0.05168167
1948.09544678,0.05151629
1950.02425415,0.05207711
1951.95306152,0.05168869
1953.88186890,0.05185256
1955.81067627,0.05156802
1957.73948364,0.05155332
1959.66829102,0.05155569
1961.59709839,0.05155010
1963.52590576,0.05167470
1965.45471313,0.05125491
1967.38352051,0.05074146
1969.31232788,0.05117362
1971.24113525,0.05159483
1973.16994263,0.05113409
1975.09875000,0.05134777
1977.02755737,0.05118085
1978.95636475,0.05119850
1980.88517212,0.05113570
1982.81397949,0.05106501
1984.74278687,0.05137797
1986.67159424,0.05062564
1988.60040161,0.05089795
1990.52920898,0.05040858
1992.45801636,0.04967816
1994.38682373,0.05072764
1996.31563110,0.05075914
1998.24443848,0.05047666
2000.17324585,0.05045839
2002.10205322,0.05029762
2004.03086060,0.05035038
2005.95966797,0.05030562
2007.88847534,0.05013788
2009.81728271,0.05007675
2011.74609009,0.04995474
2013.67489746,0.04995016
2015.60370483,0.04968918
2017.53251221,0.04915540
2019.46131958,0.04955728
2021.39012695,0.04952005
2023.31893433,0.04935316
2025.24774170,0.04948957
2027.17654907,0.04911344
2029.10535645,0.04919688
2031.03416382,0.04907628
2032.96297119,0.04898091
2034.89177856,0.04896474
2036.82058594,0.04883092
2038.74939331,0.04878722
2040.67820068,0.04839311
2042.60700806,0.04844282
2044.53581543,0.04856087
2046.46462280,0.04842970
2048.39343018,0.04829348
2050.32223755,0.04827945
2052.25104492,0.04835601
2054.17985229,0.04804117
2056.10865967,0.04798447
2058.03746704,0.04800648
2059.96627441,0.04778798
2061.89508179,0.04780327
2063.82388916,0.04760376
2065.75269653,0.04743448
2067.68150391,0.04753342
2069.61031128,0.04743079
2071.53911865,0.04739992
2073.46792603,0.04720365
2075.39673340,0.04708415
2077.32554077,0.04713936
2079.25434814,0.04701473
2081.18315552,0.04715314
2083.11196289,0.04694268
2085.04077026,0.04679420
2086.96957764,0.04683862
2088.89838501,0.04650932
2090.82719238,0.04656168
2092.75599976,0.04665679
2094.68480713,0.04652868
2096.61361450,0.04637696
2098.54242187,0.04629521
2100.47122925,0.04630777
2102.40003662,0.04634762
2104.32884399,0.04626194
2106.25765137,0.04609191
2108.18645874,0.04610208
2110.11526611,0.04594879
2112.04407349,0.04590182
2113.97288086,0.04587423
2115.90168823,0.04577510
2117.83049561,0.04569329
2119.75930298,0.04565137
2121.68811035,0.04571227
2123.61691772,0.04543169
2125.54572510,0.04546053
2127.47453247,0.04550527
2129.40333984,0.04534060
2131.33214722,0.04533879
2133.26095459,0.04523735
2135.18976196,0.04530017
2137.11856934,0.04521858
2139.04737671,0.04507574
2140.97618408,0.04509297
2142.90499146,0.04514211
2144.83379883,0.04500886
2146.76260620,0.04493320
2148.69141357,0.04496250
2150.62022095,0.04474713
2152.54902832,0.04480743
2154.47783569,0.04481831
2156.40664307,0.04473542
2158.33545044,0.04470156
2160.26425781,0.04468505
2162.19306519,0.04464167
2164.12187256,0.04453661
2166.05067993,0.04468761
2167.97948730,0.04449462
2169.90829468,0.04434808
2171.83710205,0.04436136
2173.76590942,0.04436253
2175.69471680,0.04440907
2177.62352417,0.04423891
2179.55233154,0.04425590
2181.48113892,0.04417019
2183.40994629,0.04415549
2185.33875366,0.04422040
2187.26756104,0.04416272
2189.19636841,0.04401818
2191.12517578,0.04400739
2193.05398315,0.04415869
2194.98279053,0.04394851
2196.91159790,0.04390576
2198.84040527,0.04376977
2200.76921265,0.04374747
2202.69802002,0.04381455
2204.62682739,0.04361475
2206.55563477,0.04367601
2208.48444214,0.04352789
2210.41324951,0.04356427
2212.34205688,0.04359127
2214.27086426,0.04347056
2216.19967163,0.04352797
2218.12847900,0.04342951
2220.05728638,0.04343586
2221.98609375,0.04341182
2223.91490112,0.04327129
2225.84370850,0.04312270
2227.77251587,0.04317534
2229.70132324,0.04313949
2231.63013062,0.04310388
2233.55893799,0.04311544
2235.48774536,0.04287193
2237.41655273,0.04283836
2239.34536011,0.04278446
2241.27416748,0.04278901
2243.20297485,0.04278985
2245.13178223,0.04278263
2247.06058960,0.04266749
2248.98939697,0.04243926
2250.91820435,0.04252533
2252.84701172,0.04232553
2254.77581909,0.04227485
2256.70462646,0.04234231
2258.63343384,0.04222811
2260.56224121,0.04215729
2262.49104858,0.04210836
2264.41985596,0.04213987
2266.34866333,0.04198799
2268.27747070,0.04214248
2270.20627808,0.04213328
2272.13508545,0.04190893
2274.06389282,0.04187430
2275.99270020,0.04180874
2277.92150757,0.04198461
2279.85031494,0.04186277
2281.77912231,0.04170983
2283.70792969,0.04177080
2285.63673706,0.04162725
2287.56554443,0.04153720
2289.49435181,0.04156692
2291.42315918,0.04145620
2293.35196655,0.04129860
2295.28077393,0.04126223
2297.20958130,0.04107528
2299.13838867,0.04091442
2301.06719604,0.04088300
2302.99600342,0.04073864
2304.92481079,0.04043547
2306.85361816,0.04030575
2308.78242554,0.04003532
2310.71123291,0.03968203
2312.64004028,0.03958867
2314.56884766,0.03901909
2316.49765503,0.03866029
2318.42646240,0.03830533
2320.35526978,0.03772416
2322.28407715,0.03744540
2324.21288452,0.03692329
2326.14169189,0.03652554
2328.07049927,0.03611580
2329.99930664,0.03577958
2331.92811401,0.03549984
2333.85692139,0.03534927
2335.78572876,0.03532849
2337.71453613,0.03516971
2339.64334351,0.03524737
2341.57215088,0.03521003
2343.50095825,0.03567059
2345.42976562,0.03633075
2347.35857300,0.03767083
2349.28738037,0.03887843
2351.21618774,0.03758529
2353.14499512,0.03599175
2355.07380249,0.03481337
2357.00260986,0.03380095
2358.93141724,0.03329225
2360.86022461,0.03291667
2362.78903198,0.03286368
2364.71783936,0.03292289
2366.64664673,0.03341879
2368.57545410,0.03396606
2370.50426147,0.03468126
2372.43306885,0.03550798
2374.36187622,0.03642361
2376.29068359,0.03742352
2378.21949097,0.03797334
2380.14829834,0.03865300
2382.07710571,0.03897566
2384.00591309,0.03921575
2385.93472046,0.03929719
2387.86352783,0.03916363
2389.79233521,0.03934290
2391.72114258,0.03916568
2393.64994995,0.03924461
2395.57875732,0.03927615
2397.50756470,0.03914098
2399.43637207,0.03915335
2401.36517944,0.03896458
2403.29398682,0.03892927
2405.22279419,0.03894647
2407.15160156,0.03894078
2409.08040894,0.03882360
2411.00921631,0.03880817
2412.93802368,0.03887428
2414.86683105,0.03881744
2416.79563843,0.03868298
2418.72444580,0.03852846
2420.65325317,0.03851399
2422.58206055,0.03850668
2424.51086792,0.03853043
2426.43967529,0.03840519
2428.36848267,0.03844418
2430.29729004,0.03846750
2432.22609741,0.03828967
2434.15490479,0.03831410
2436.08371216,0.03824076
2438.01251953,0.03823164
2439.94132690,0.03815375
2441.87013428,0.03816424
2443.79894165,0.03816917
2445.72774902,0.03802964
2447.65655640,0.03807341
2449.58536377,0.03792550
2451.51417114,0.03795879
2453.44297852,0.03789115
2455.37178589,0.03781224
2457.30059326,0.03791363
2459.22940063,0.03763757
2461.15820801,0.03763583
2463.08701538,0.03763241
2465.01582275,0.03756004
2466.94463013,0.03765326
2468.87343750,0.03749428
2470.80224487,0.03747656
2472.73105225,0.03747567
2474.65985962,0.03738974
2476.58866699,0.03729940
2478.51747437,0.03716303
2480.44628174,0.03734560
2482.37508911,0.03729986
2484.30389648,0.03709766
2486.23270386,0.03721493
2488.16151123,0.03700002
2490.09031860,0.03690442
2492.01912598,0.03705037
2493.94793335,0.03698055
2495.87674072,0.03698185
2497.80554810,0.03685571
2499.73435547,0.03681130
2501.66316284,0.03680753
2503.59197021,0.03673127
2505.52077759,0.03678240
2507.44958496,0.03659854
2509.37839233,0.03650909
2511.30719971,0.03664156
2513.23600708,0.03654560
2515.16481445,0.03644917
2517.09362183,0.03648888
2519.02242920,0.03645174
2520.95123657,0.03645024
2522.88004395,0.03638569
2524.80885132,0.03625178
2526.73765869,0.03624311
2528.66646606,0.03615364
2530.59527344,0.03611015
2532.52408081,0.03612235
2534.45288818,0.03609641
2536.38169556,0.03605668
2538.31050293,0.03593060
2540.23931030,0.03588887
2542.16811768,0.03589186
2544.09692505,0.03585804
2546.02573242,0.03581835
2547.95453979,0.03578890
2549.88334717,0.03571432
2551.81215454,0.03564423
2553.74096191,0.03561633
2555.66976929,0.03557598
2557.59857666,0.03555579
2559.52738403,0.03553231
2561.45619141,0.03550126
2563.38499878,0.03537364
2565.31380615,0.03538615
2567.24261353,0.03535578
2569.17142090,0.03525301
2571.10022827,0.03529080
2573.02903564,0.03508683
2574.95784302,0.03511269
2576.88665039,0.03516158
2578.81545776,0.03501118
2580.74426514,0.03507164
2582.67307251,0.03499141
2584.60187988,0.03488693
2586.53068726,0.03483728
2588.45949463,0.03489372
2590.38830200,0.03488761
2592.31710937,0.03472813
2594.24591675,0.03478194
2596.17472412,0.03471778
2598.10353149,0.03446951
2600.03233887,0.03451747
2601.96114624,0.03459271
2603.88995361,0.03438227
2605.81876099,0.03451132
2607.74756836,0.03460784
2609.67637573,0.03438226
2611.60518311,0.03429653
2613.53399048,0.03412925
2615.46279785,0.03419518
2617.39160522,0.03426298
2619.32041260,0.03412941
2621.24921997,0.03413034
2623.17802734,0.03409081
2625.10683472,0.03409730
2627.03564209,0.03405504
2628.96444946,0.03389467
2630.89325684,0.03385454
2632.82206421,0.03390216
2634.75087158,0.03380427
2636.67967895,0.03379948
2638.60848633,0.03376931
2640.53729370,0.03366918
2642.46610107,0.03375067
2644.39490845,0.03358284
2646.32371582,0.03351978
2648.25252319,0.03352168
2650.18133057,0.03349136
2652.11013794,0.03360694
2654.03894531,0.03344251
2655.96775269,0.03334526
2657.89656006,0.03326889
2659.82536743,0.03324162
2661.75417480,0.03328049
2663.68298218,0.03314574
2665.61178955,0.03315434
2667.54059692,0.03311630
2669.46940430,0.03298392
2671.39821167,0.03296104
2673.32701904,0.03294718
2675.25582642,0.03286829
2677.18463379,0.03286123
2679.11344116,0.03277934
2681.04224854,0.03269316
2682.97105591,0.03272697
2684.89986328,0.03264223
2686.82867065,0.03264023
2688.75747803,0.03255788
2690.68628540,0.03254788
2692.61509277,0.03257257
2694.54390015,0.03236366
2696.47270752,0.03233742
2698.40151489,0.03224875
2700.33032227,0.03220390
2702.25912964,0.03229465
2704.18793701,0.03217082
2706.11674438,0.03206125
2708.04555176,0.03210930
2709.97435913,0.03207200
2711.90316650,0.03197159
2713.83197388,0.03196782
2715.76078125,0.03191231
2717.68958862,0.03192350
2719.61839600,0.03186850
2721.54720337,0.03180922
2723.47601074,0.03182198
2725.40481812,0.03171214
2727.33362549,0.03167135
2729.26243286,0.03160526
2731.19124023,0.03160063
2733.12004761,0.03150576
2735.04885498,0.03147482
2736.97766235,0.03143599
2738.90646973,0.03122249
2740.83527710,0.03143794
2742.76408447,0.03139018
2744.69289185,0.03119346
2746.62169922,0.03115960
2748.55050659,0.03103664
2750.47931396,0.03113757
2752.40812134,0.03098823
2754.33692871,0.03096141
2756.26573608,0.03103438
2758.19454346,0.03085248
2760.12335083,0.03079316
2762.05215820,0.03069565
2763.98096558,0.03075857
2765.90977295,0.03072614
2767.83858032,0.03056375
2769.76738770,0.03068507
2771.69619507,0.03067023
2773.62500244,0.03045107
2775.55380981,0.03037205
2777.48261719,0.03041793
2779.41142456,0.03034620
2781.34023193,0.03028420
2783.26903931,0.03024421
2785.19784668,0.03007506
2787.12665405,0.03005838
2789.05546143,0.03002782
2790.98426880,0.02992121
2792.91307617,0.02995371
2794.84188354,0.02986169
2796.77069092,0.02975893
2798.69949829,0.02968943
2800.62830566,0.02960971
2802.55711304,0.02966060
2804.48592041,0.02958302
2806.41472778,0.02949105
2808.34353516,0.02948571
2810.27234253,0.02947621
2812.20114990,0.02942359
2814.12995728,0.02925513
2816.05876465,0.02919759
2817.98757202,0.02914858
2819.91637939,0.02906247
2821.84518677,0.02898687
2823.77399414,0.02891532
2825.70280151,0.02892552
2827.63160889,0.02884218
2829.56041626,0.02878058
2831.48922363,0.02872833
2833.41803101,0.02859223
2835.34683838,0.02851691
2837.27564575,0.02850385
2839.20445312,0.02841246
2841.13326050,0.02811952
2843.06206787,0.02791391
2844.99087524,0.02777243
2846.91968262,0.02748422
2848.84848999,0.02733725
2850.77729736,0.02733769
2852.70610474,0.02741603
2854.63491211,0.02763909
2856.56371948,0.02768160
2858.49252686,0.02765917
2860.42133423,0.02773832
2862.35014160,0.02755403
2864.27894897,0.02751187
2866.20775635,0.02760963
2868.13656372,0.02744763
2870.06537109,0.02737233
2871.99417847,0.02723866
2873.92298584,0.02719514
2875.85179321,0.02736177
2877.78060059,0.02729974
2879.70940796,0.02723115
2881.63821533,0.02719852
2883.56702270,0.02707536
2885.49583008,0.02695910
2887.42463745,0.02685694
2889.35344482,0.02681341
2891.28225220,0.02678041
2893.21105957,0.02671811
2895.13986694,0.02656738
2897.06867432,0.02648119
2898.99748169,0.02644644
2900.92628906,0.02631200
2902.85509644,0.02633469
2904.78390381,0.02621995
2906.71271118,0.02597973
2908.64151855,0.02595964
2910.57032593,0.02578824
2912.49913330,0.02554020
2914.42794067,0.02539685
2916.35674805,0.02530079
2918.28555542,0.02524305
2920.21436279,0.02531674
2922.14317017,0.02540494
2924.07197754,0.02533914
2926.00078491,0.02549073
2927.92959229,0.02555060
2929.85839966,0.02549831
2931.78720703,0.02564013
2933.71601440,0.02570644
2935.64482178,0.02576577
2937.57362915,0.02581675
2939.50243652,0.02586976
2941.43124390,0.02577363
2943.36005127,0.02573588
2945.28885864,0.02573715
2947.21766602,0.02551915
2949.14647339,0.02555272
2951.07528076,0.02551926
2953.00408813,0.02536720
2954.93289551,0.02531531
2956.86170288,0.02530104
2958.79051025,0.02525602
2960.71931763,0.02512155
2962.64812500,0.02523370
2964.57693237,0.02514060
2966.50573975,0.02496418
2968.43454712,0.02500827
2970.36335449,0.02500352
2972.29216187,0.02510854
2974.22096924,0.02512824
2976.14977661,0.02506991
2978.07858398,0.02503543
2980.00739136,0.02504808
2981.93619873,0.02509991
2983.86500610,0.02508863
2985.79381348,0.02500098
2987.72262085,0.02495514
2989.65142822,0.02496747
2991.58023560,0.02485673
2993.50904297,0.02486193
2995.43785034,0.02474165
2997.36665771,0.02463835
2999.29546509,0.02476386
3001.22427246,0.02463602
3003.15307983,0.02447368
3005.08188721,0.02435372
3007.01069458,0.02439468
3008.93950195,0.02447828
3010.86830933,0.02426788
3012.79711670,0.02413160
3014.72592407,0.02418925
3016.65473145,0.02407805
3018.58353882,0.02390921
3020.51234619,0.02395486
3022.44115356,0.02387687
3024.36996094,0.02376025
3026.29876831,0.02371113
3028.22757568,0.02378901
3030.15638306,0.02371046
3032.08519043,0.02345509
3034.01399780,0.02355323
3035.94280518,0.02336990
3037.87161255,0.02336175
3039.80041992,0.02343521
3041.72922729,0.02317125
3043.65803467,0.02326361
3045.58684204,0.02312404
3047.51564941,0.02302979
3049.44445679,0.02299746
3051.37326416,0.02289068
3053.30207153,0.02292597
3055.23087891,0.02276256
3057.15968628,0.02279250
3059.08849365,0.02275497
3061.01730103,0.02265565
3062.94610840,0.02257499
3064.87491577,0.02251007
3066.80372314,0.02255333
3068.73253052,0.02239119
3070.66133789,0.02239714
3072.59014526,0.02238807
3074.51895264,0.02230517
3076.44776001,0.02228578
3078.37656738,0.02216439
3080.30537476,0.02211215
3082.23418213,0.02206194
3084.16298950,0.02196540
3086.09179687,0.02184111
3088.02060425,0.02184626
3089.94941162,0.02186590
3091.87821899,0.02176895
3093.80702637,0.02168825
3095.73583374,0.02160250
3097.66464111,0.02150404
3099.59344849,0.02139169
3101.52225586,0.02135552
3103.45106323,0.02134012
3105.37987061,0.02129815
3107.30867798,0.02118946
3109.23748535,0.02112012
3111.16629272,0.02107465
3113.09510010,0.02088683
3115.02390747,0.02084512
3116.95271484,0.02082706
3118.88152222,0.02075791
3120.81032959,0.02075204
3122.73913696,0.02062625
3124.66794434,0.02055101
3126.59675171,0.02053205
3128.52555908,0.02045741
3130.45436645,0.02040023
3132.38317383,0.02023111
3134.31198120,0.02014655
3136.24078857,0.02018771
3138.16959595,0.02008784
3140.09840332,0.02003710
3142.02721069,0.01994280
3143.95601807,0.01989498
3145.88482544,0.01985363
3147.81363281,0.01964055
3149.74244019,0.01965823
3151.67124756,0.01959357
3153.60005493,0.01949035
3155.52886230,0.01951430
3157.45766968,0.01942324
3159.38647705,0.01931424
3161.31528442,0.01918306
3163.24409180,0.01922110
3165.17289917,0.01916272
3167.10170654,0.01900899
3169.03051392,0.01896667
3170.95932129,0.01887242
3172.88812866,0.01883531
3174.81693604,0.01874620
3176.74574341,0.01866884
3178.67455078,0.01863117
3180.60335815,0.01858664
3182.53216553,0.01853583
3184.46097290,0.01839732
3186.38978027,0.01831751
3188.31858765,0.01836331
3190.24739502,0.01834393
3192.17620239,0.01826049
3194.10500977,0.01821891
3196.03381714,0.01805730
3197.96262451,0.01808027
3199.89143188,0.01810367
3201.82023926,0.01789536
3203.74904663,0.01785496
3205.67785400,0.01786173
3207.60666138,0.01787151
3209.53546875,0.01774789
3211.46427612,0.01767420
3213.39308350,0.01762825
3215.32189087,0.01747507
3217.25069824,0.01750422
3219.17950562,0.01750342
3221.10831299,0.01754157
3223.03712036,0.01750545
3224.96592773,0.01741724
3226.89473511,0.01739190
3228.82354248,0.01735288
3230.75234985,0.01732147
3232.68115723,0.01725653
3234.60996460,0.01732522
3236.53877197,0.01717820
3238.46757935,0.01711331
3240.39638672,0.01718295
3242.32519409,0.01707479
3244.25400146,0.01714836
3246.18280884,0.01707936
3248.11161621,0.01704924
3250.04042358,0.01714036
3251.96923096,0.01702941
3253.89803833,0.01695725
3255.82684570,0.01698697
3257.75565308,0.01700146
3259.68446045,0.01693506
3261.61326782,0.01691195
3263.54207520,0.01697100
3265.47088257,0.01693753
3267.39968994,0.01686822
3269.32849731,0.01694980
3271.25730469,0.01686077
3273.18611206,0.01674986
3275.11491943,0.01678107
3277.04372681,0.01674754
3278.97253418,0.01681707
3280.90134155,0.01672293
3282.83014893,0.01671763
3284.75895630,0.01683456
3286.68776367,0.01680007
3288.61657104,0.01673556
3290.54537842,0.01663975
3292.47418579,0.01671058
3294.40299316,0.01669939
3296.33180054,0.01664500
3298.26060791,0.01657692
3300.18941528,0.01660462
3302.11822266,0.01669114
3304.04703003,0.01659413
3305.97583740,0.01660300
3307.90464478,0.01645295
3309.83345215,0.01649295
3311.76225952,0.01664818
3313.69106689,0.01650561
3315.61987427,0.01644292
3317.54868164,0.01651179
3319.47748901,0.01651030
3321.40629639,0.01633822
3323.33510376,0.01649136
3325.26391113,0.01647170
3327.19271851,0.01631698
3329.12152588,0.01648236
3331.05033325,0.01635356
3332.97914062,0.01636387
3334.90794800,0.01643613
3336.83675537,0.01633836
3338.76556274,0.01635941
3340.69437012,0.01627522
3342.62317749,0.01614266
3344.55198486,0.01620279
3346.48079224,0.01625889
3348.40959961,0.01617680
3350.33840698,0.01622930
3352.26721436,0.01620185
3354.19602173,0.01611610
3356.12482910,0.01621622
3358.05363647,0.01626409
3359.98244385,0.01606837
3361.91125122,0.01606212
3363.84005859,0.01619762
3365.76886597,0.01599080
3367.69767334,0.01596450
3369.62648071,0.01599949
3371.55528809,0.01605131
3373.48409546,0.01613081
3375.41290283,0.01601393
3377.34171020,0.01605734
3379.27051758,0.01604155
3381.19932495,0.01601091
3383.12813232,0.01597223
3385.05693970,0.01599327
3386.98574707,0.01599253
3388.91455444,0.01592690
3390.84336182,0.01592183
3392.77216919,0.01578785
3394.70097656,0.01590135
3396.62978394,0.01589319
3398.55859131,0.01583270
3400.48739868,0.01593836
3402.41620605,0.01587899
3404.34501343,0.01583948
3406.27382080,0.01590176
3408.20262817,0.01595735
3410.13143555,0.01581550
3412.06024292,0.01593131
3413.98905029,0.01586925
3415.91785767,0.01572384
3417.84666504,0.01595394
3419.77547241,0.01580666
3421.70427979,0.01571518
3423.63308716,0.01582719
3425.56189453,0.01589178
3427.49070190,0.01589729
3429.41950928,0.01591902
3431.34831665,0.01587953
3433.27712402,0.01585888
3435.20593140,0.01595176
3437.13473877,0.01580077
3439.06354614,0.01588823
3440.99235352,0.01575523
3442.92116089,0.01567812
3444.84996826,0.01585085
3446.77877563,0.01559818
3448.70758301,0.01570707
3450.63639038,0.01580975
3452.56519775,0.01580979
3454.49400513,0.01589410
3456.42281250,0.01578874
3458.35161987,0.01578415
3460.28042725,0.01580618
3462.20923462,0.01576702
3464.13804199,0.01577723
3466.06684937,0.01585555
3467.99565674,0.01581673
3469.92446411,0.01589466
3471.85327148,0.01592850
3473.78207886,0.01590681
3475.71088623,0.01591589
3477.63969360,0.01590468
3479.56850098,0.01589238
3481.49730835,0.01567279
3483.42611572,0.01587770
3485.35492310,0.01598640
3487.28373047,0.01583242
3489.21253784,0.01583554
3491.14134521,0.01580144
3493.07015259,0.01590617
3494.99895996,0.01588197
3496.92776733,0.01588922
3498.85657471,0.01588641
3500.78538208,0.01595253
3502.71418945,0.01564460
3504.64299683,0.01558602
3506.57180420,0.01620479
3508.50061157,0.01591244
3510.42941895,0.01582877
3512.35822632,0.01606425
3514.28703369,0.01603564
3516.21584106,0.01615759
3518.14464844,0.01608212
3520.07345581,0.01615633
3522.00226318,0.01593611
3523.93107056,0.01563295
3525.85987793,0.01575799
3527.78868530,0.01585894
3529.71749268,0.01580506
3531.64630005,0.01601883
3533.57510742,0.01622306
3535.50391479,0.01596456
3537.43272217,0.01599389
3539.36152954,0.01627159
3541.29033691,0.01627419
3543.21914429,0.01608602
3545.14795166,0.01575637
3547.07675903,0.01543346
3549.00556641,0.01605502
3550.93437378,0.01630094
3552.86318115,0.01568986
3554.79198853,0.01609673
3556.72079590,0.01623840
3558.64960327,0.01616997
3560.57841064,0.01605660
3562.50721802,0.01602396
3564.43602539,0.01619436
3566.36483276,0.01479124
3568.29364014,0.01435309
3570.22244751,0.01576697
3572.15125488,0.01646633
3574.08006226,0.01626560
3576.00886963,0.01629192
3577.93767700,0.01630654
3579.86648437,0.01610916
3581.79529175,0.01625614
3583.72409912,0.01634252
3585.65290649,0.01582560
3587.58171387,0.01427881
3589.51052124,0.01482440
3591.43932861,0.01647973
3593.36813599,0.01586012
3595.29694336,0.01557830
3597.22575073,0.01592660
3599.15455811,0.01612620
3601.08336548,0.01595532
3603.01217285,0.01610772
3604.94098022,0.01657825
3606.86978760,0.01580445
3608.79859497,0.01475078
3610.72740234,0.01520198
3612.65620972,0.01553838
3614.58501709,0.01502423
3616.51382446,0.01635254
3618.44263184,0.01492510
3620.37143921,0.01422000
3622.30024658,0.01648488
3624.22905395,0.01604957
3626.15786133,0.01694184
3628.08666870,0.01387760
3630.01547607,0.01230961
3631.94428345,0.01629748
3633.87309082,0.01574785
3635.80189819,0.01617154
3637.73070557,0.01664153
3639.65951294,0.01629269
3641.58832031,0.01646359
3643.51712769,0.01624259
3645.44593506,0.01652769
3647.37474243,0.01443513
3649.30354980,0.01297654
3651.23235718,0.01315823
3653.16116455,0.01624063
3655.08997192,0.01618676
3657.01877930,0.01409336
3658.94758667,0.01665618
3660.87639404,0.01626137
3662.80520142,0.01657186
3664.73400879,0.01656103
3666.66281616,0.01623591
3668.59162354,0.01574201
3670.52043091,0.01235785
3672.44923828,0.01555120
3674.37804565,0.01469913
3676.30685303,0.01167330
3678.23566040,0.01545223
3680.16446777,0.01586264
3682.09327515,0.01589154
3684.02208252,0.01649043
3685.95088989,0.01619756
3687.87969727,0.01429362
3689.80850464,0.01280414
3691.73731201,0.01494570
3693.66611938,0.01564112
3695.59492676,0.01618168
3697.52373413,0.01604285
3699.45254150,0.01596069
3701.38134888,0.01554197
3703.31015625,0.01471247
3705.23896362,0.01649227
3707.16777100,0.01560934
3709.09657837,0.01518011
3711.02538574,0.01410732
3712.95419312,0.01294744
3714.88300049,0.01565203
3716.81180786,0.01541847
3718.74061523,0.01558675
3720.66942261,0.01519678
3722.59822998,0.01454559
3724.52703735,0.01521384
3726.45584473,0.01387377
3728.38465210,0.01528227
3730.31345947,0.01518367
3732.24226685,0.01376908
3734.17107422,0.01325559
3736.09988159,0.01224283
3738.02868896,0.01331177
3739.95749634,0.01474357
3741.88630371,0.01544382
3743.81511108,0.01161505
3745.74391846,0.01072662
3747.67272583,0.01453376
3749.60153320,0.01229788
3751.53034058,0.01117640
3753.45914795,0.01319810
3755.38795532,0.01431253
3757.31676270,0.01493692
3759.24557007,0.01359196
3761.17437744,0.01422521
3763.10318481,0.01539201
3765.03199219,0.01412454
3766.96079956,0.01449859
3768.88960693,0.01432878
3770.81841431,0.01350206
3772.74722168,0.01485466
3774.67602905,0.01488052
3776.60483643,0.01491097
3778.53364380,0.01440050
3780.46245117,0.01371524
3782.39125854,0.01488923
3784.32006592,0.01441248
3786.24887329,0.01425816
3788.17768066,0.01472389
3790.10648804,0.01462891
3792.03529541,0.01449916
3793.96410278,0.01484180
3795.89291016,0.01377372
3797.82171753,0.01345777
3799.75052490,0.01439661
3801.67933228,0.01091756
3803.60813965,0.01315302
3805.53694702,0.01452222
3807.46575439,0.01134069
3809.39456177,0.01433419
3811.32336914,0.01403913
3813.25217651,0.01465044
3815.18098389,0.01307804
3817.10979126,0.01107700
3819.03859863,0.01459706
3820.96740601,0.01131409
3822.89621338,0.01207797
3824.82502075,0.01463391
3826.75382812,0.01294287
3828.68263550,0.01402126
3830.61144287,0.01330516
3832.54025024,0.01281602
3834.46905762,0.01321084
3836.39786499,0.01243015
3838.32667236,0.01108635
3840.25547974,0.01212820
3842.18428711,0.01317013
3844.11309448,0.01261176
3846.04190186,0.01382113
3847.97070923,0.01350096
3849.89951660,0.01366268
3851.82832397,0.01212226
3853.75713135,0.00855423
3855.68593872,0.01044421
3857.61474609,0.01356067
3859.54355347,0.01323686
3861.47236084,0.01308405
3863.40116821,0.01271144
3865.32997559,0.01162764
3867.25878296,0.01332215
3869.18759033,0.01199610
3871.11639770,0.01088705
3873.04520508,0.01332089
3874.97401245,0.01200002
3876.90281982,0.01317201
3878.83162720,0.01345647
3880.76043457,0.01120654
3882.68924194,0.01325946
3884.61804932,0.01224835
3886.54685669,0.01111198
3888.47566406,0.01341213
3890.40447144,0.01258835
3892.33327881,0.01157856
3894.26208618,0.01293437
3896.19089355,0.01329305
3898.11970093,0.01247924
3900.04850830,0.01166003
3901.97731567,0.01150013
3903.90612305,0.01134218
3905.83493042,0.01158858
3907.76373779,0.01295407
3909.69254517,0.01297772
3911.62135254,0.01284022
3913.55015991,0.01308316
3915.47896728,0.01251318
3917.40777466,0.01206732
3919.33658203,0.01199626
3921.26538940,0.01262908
3923.19419678,0.01256559
3925.12300415,0.01220504
3927.05181152,0.01243634
3928.98061890,0.01266138
3930.90942627,0.01231735
3932.83823364,0.01181628
3934.76704102,0.01248142
3936.69584839,0.01250607
3938.62465576,0.01247160
3940.55346313,0.01261983
3942.48227051,0.01187467
3944.41107788,0.01201710
3946.33988525,0.01241819
3948.26869263,0.01213593
3950.19750000,0.01192893
3952.12630737,0.01226201
3954.05511475,0.01237660
3955.98392212,0.01223462
3957.91272949,0.01227532
3959.84153687,0.01224000
3961.77034424,0.01212941
3963.69915161,0.01203733
3965.62795898,0.01226992
3967.55676636,0.01214955
3969.48557373,0.01200982
3971.41438110,0.01205667
3973.34318848,0.01202823
3975.27199585,0.01205063
3977.20080322,0.01189997
3979.12961060,0.01199095
3981.05841797,0.01189964
3982.98722534,0.01189626
3984.91603271,0.01187164
3986.84484009,0.01180035
3988.77364746,0.01181088
3990.70245483,0.01159761
3992.63126221,0.01185349
3994.56006958,0.01178868
3996.48887695,0.01172814
3998.41768433,0.01181065
4000.34649170,0.01165559
4002.27529907,0.01172596
4004.20410645,0.01168002
4006.13291382,0.01170928
4008.06172119,0.01159143
4009.99052856,0.01158136
4011.91933594,0.01159242
4013.84814331,0.01152665
4015.77695068,0.01161347
4017.70575806,0.01157339
4019.63456543,0.01160792
4021.56337280,0.01150479
4023.49218018,0.01147689
4025.42098755,0.01137876
4027.34979492,0.01129906
4029.27860229,0.01138919
4031.20740967,0.01134494
4033.13621704,0.01128733
4035.06502441,0.01125357
4036.99383179,0.01141077
4038.92263916,0.01128243
4040.85144653,0.01121754
4042.78025391,0.01121523
4044.70906128,0.01103001
4046.63786865,0.01117292
4048.56667603,0.01118402
4050.49548340,0.01116357
4052.42429077,0.01117881
4054.35309814,0.01107863
4056.28190552,0.01101735
4058.21071289,0.01106203
4060.13952026,0.01100777
4062.06832764,0.01092718
4063.99713501,0.01102632
4065.92594238,0.01094929
4067.85474976,0.01091456
4069.78355713,0.01087935
4071.71236450,0.01089109
4073.64117187,0.01089441
4075.56997925,0.01083489
4077.49878662,0.01089583
4079.42759399,0.01075331
4081.35640137,0.01071695
4083.28520874,0.01073397
4085.21401611,0.01071765
4087.14282349,0.01070784
4089.07163086,0.01067464
4091.00043823,0.01066353
4092.92924561,0.01063550
4094.85805298,0.01070760
4096.78686035,0.01063993
4098.71566772,0.01061889
4100.64447510,0.01057292
4102.57328247,0.01051174
4104.50208984,0.01050064
4106.43089722,0.01048921
4108.35970459,0.01055421
4110.28851196,0.01047303
4112.21731934,0.01049418
4114.14612671,0.01036555
4116.07493408,0.01033240
4118.00374145,0.01041801
4119.93254883,0.01030896
4121.86135620,0.01034327
4123.79016357,0.01028021
4125.71897095,0.01022415
4127.64777832,0.01014525
4129.57658569,0.01022888
4131.50539307,0.01028358
4133.43420044,0.01011928
4135.36300781,0.01016572
4137.29181519,0.01013825
4139.22062256,0.01006117
4141.14942993,0.01001277
4143.07823730,0.01012807
4145.00704468,0.01007935
4146.93585205,0.00991730
4148.86465942,0.01000145
4150.79346680,0.00996664
4152.72227417,0.00996889
4154.65108154,0.00987700
4156.57988892,0.00984034
4158.50869629,0.00989342
4160.43750366,0.00981360
4162.36631103,0.00982088
4164.29511841,0.00987655
4166.22392578,0.00987280
4168.15273315,0.00976746
4170.08154053,0.00978611
4172.01034790,0.00979199
4173.93915527,0.00971297
4175.86796265,0.00962471
4177.79677002,0.00966359
4179.72557739,0.00975699
4181.65438477,0.00964811
4183.58319214,0.00963947
4185.51199951,0.00958637
4187.44080688,0.00955614
4189.36961426,0.00953400
4191.29842163,0.00944963
4193.22722900,0.00950165
4195.15603638,0.00945688
4197.08484375,0.00943006
4199.01365112,0.00946145
4200.94245850,0.00942827
4202.87126587,0.00940041
4204.80007324,0.00943236
4206.72888062,0.00930857
4208.65768799,0.00929318
4210.58649536,0.00942515
4212.51530273,0.00934605
4214.44411011,0.00932944
4216.37291748,0.00925657
4218.30172485,0.00926938
4220.23053223,0.00929048
4222.15933960,0.00921303
4224.08814697,0.00920372
4226.01695435,0.00916001
4227.94576172,0.00918367
4229.87456909,0.00913258
4231.80337646,0.00914197
4233.73218384,0.00905023
4235.66099121,0.00903540
4237.58979858,0.00908409
4239.51860596,0.00901532
4241.44741333,0.00907901
4243.37622070,0.00894306
4245.30502808,0.00901801
4247.23383545,0.00904566
4249.16264282,0.00895210
4251.09145020,0.00894453
4253.02025757,0.00883927
4254.94906494,0.00898943
4256.87787231,0.00895792
4258.80667969,0.00889492
4260.73548706,0.00885886
4262.66429443,0.00880339
4264.59310181,0.00877306
4266.52190918,0.00874379
4268.45071655,0.00881465
4270.37952393,0.00865806
4272.30833130,0.00874168
4274.23713867,0.00873235
4276.16594604,0.00861707
4278.09475342,0.00865209
4280.02356079,0.00859899
4281.95236816,0.00866869
4283.88117554,0.00856796
4285.80998291,0.00858995
4287.73879028,0.00854241
4289.66759766,0.00845526
4291.59640503,0.00858127
4293.52521240,0.00850752
4295.45401978,0.00845867
4297.38282715,0.00848001
4299.31163452,0.00851204
4301.24044189,0.00844190
4303.16924927,0.00844471
4305.09805664,0.00841019
4307.02686401,0.00829470
4308.95567139,0.00835628
4310.88447876,0.00832911
4312.81328613,0.00835038
4314.74209351,0.00836060
4316.67090088,0.00829471
4318.59970825,0.00825656
4320.52851562,0.00823317
4322.45732300,0.00821596
4324.38613037,0.00824303
4326.31493774,0.00821458
4328.24374512,0.00819352
4330.17255249,0.00825194
4332.10135986,0.00805048
4334.03016724,0.00812104
4335.95897461,0.00813734
4337.88778198,0.00799194
4339.81658936,0.00814791
4341.74539673,0.00805465
4343.67420410,0.00803033
4345.60301147,0.00799269
4347.53181885,0.00793157
4349.46062622,0.00792326
4351.38943359,0.00794023
4353.31824097,0.00799061
4355.24704834,0.00782179
4357.17585571,0.00796971
4359.10466309,0.00793035
4361.03347046,0.00776971
4362.96227783,0.00787275
4364.89108520,0.00784359
4366.81989258,0.00781922
4368.74869995,0.00775252
4370.67750732,0.00780987
4372.60631470,0.00776716
4374.53512207,0.00771089
4376.46392944,0.00776778
4378.39273682,0.00771896
4380.32154419,0.00771175
4382.25035156,0.00769301
4384.17915894,0.00770409
4386.10796631,0.00763415
4388.03677368,0.00763809
4389.96558105,0.00762601
4391.89438843,0.00756879
4393.82319580,0.00764592
4395.75200317,0.00759544
4397.68081055,0.00755357
4399.60961792,0.00754479
4401.53842529,0.00751054
4403.46723267,0.00743780
4405.39604004,0.00744887
4407.32484741,0.00750245
4409.25365478,0.00748147
4411.18246216,0.00749512
4413.11126953,0.00742629
4415.04007690,0.00741029
4416.96888428,0.00741599
4418.89769165,0.00734720
4420.82649902,0.00728367
4422.75530640,0.00739169
4424.68411377,0.00742056
4426.61292114,0.00724280
4428.54172852,0.00730915
4430.47053589,0.00727908
4432.39934326,0.00723188
4434.32815063,0.00727487
4436.25695801,0.00717017
4438.18576538,0.00720994
4440.11457275,0.00721255
4442.04338013,0.00710636
4443.97218750,0.00716597
4445.90099487,0.00722589
4447.82980225,0.00708113
4449.75860962,0.00709245
4451.68741699,0.00709178
4453.61622437,0.00701432
4455.54503174,0.00713264
4457.47383911,0.00703246
4459.40264648,0.00701754
4461.33145386,0.00708764
4463.26026123,0.00698540
4465.18906860,0.00697035
4467.11787598,0.00691829
4469.04668335,0.00689609
4470.97549072,0.00691426
4472.90429810,0.00694274
4474.83310547,0.00691684
4476.76191284,0.00688639
4478.69072021,0.00693052
4480.61952759,0.00684194
4482.54833496,0.00681045
4484.47714233,0.00686243
4486.40594971,0.00679573
4488.33475708,0.00676455
4490.26356445,0.00680080
4492.19237183,0.00674985
4494.12117920,0.00675636
4496.04998657,0.00675771
4497.97879395,0.00663714
4499.90760132,0.00669593
4501.83640869,0.00673967
4503.76521606,0.00665016
4505.69402344,0.00669002
4507.62283081,0.00664413
4509.55163818,0.00656463
4511.48044556,0.00667152
4513.40925293,0.00662845
4515.33806030,0.00651512
4517.26686768,0.00654900
4519.19567505,0.00652958
4521.12448242,0.00653518
4523.05328979,0.00649119
4524.98209717,0.00643910
4526.91090454,0.00652165
4528.83971191,0.00649462
4530.76851929,0.00646462
4532.69732666,0.00645031
4534.62613403,0.00639473
4536.55494141,0.00645022
4538.48374878,0.00641313
4540.41255615,0.00637782
4542.34136353,0.00644366
4544.27017090,0.00634140
4546.19897827,0.00633128
4548.12778564,0.00640896
4550.05659302,0.00633488
4551.98540039,0.00630414
4553.91420776,0.00630891
4555.84301514,0.00629873
4557.77182251,0.00624091
4559.70062988,0.00619199
4561.62943726,0.00624551
4563.55824463,0.00628995
4565.48705200,0.00617260
4567.41585937,0.00605593
4569.34466675,0.00615178
4571.27347412,0.00617324
4573.20228149,0.00616327
4575.13108887,0.00614712
4577.05989624,0.00603209
4578.98870361,0.00601501
4580.91751099,0.00603938
4582.84631836,0.00604705
4584.77512573,0.00602024
4586.70393311,0.00600731
4588.63274048,0.00596803
4590.56154785,0.00598843
4592.49035522,0.00601375
4594.41916260,0.00595916
4596.34796997,0.00601135
4598.27677734,0.00597902
4600.20558472,0.00594176
4602.13439209,0.00592928
4604.06319946,0.00589739
4605.99200684,0.00587286
4607.92081421,0.00589659
4609.84962158,0.00590454
4611.77842895,0.00580521
4613.70723633,0.00592321
4615.63604370,0.00584573
4617.56485107,0.00578609
4619.49365845,0.00579673
4621.42246582,0.00562632
4623.35127319,0.00580874
4625.28008057,0.00576435
4627.20888794,0.00569864
4629.13769531,0.00577227
4631.06650269,0.00570297
4632.99531006,0.00574253
4634.92411743,0.00563335
4636.85292480,0.00562816
4638.78173218,0.00564603
4640.71053955,0.00564686
4642.63934692,0.00572374
4644.56815430,0.00569143
4646.49696167,0.00561322
4648.42576904,0.00556796
4650.35457642,0.00561811
4652.28338379,0.00554611
4654.21219116,0.00553001
4656.14099853,0.00554627
4658.06980591,0.00553288
4659.99861328,0.00554857
4661.92742065,0.00549890
4663.85622803,0.00550138
4665.78503540,0.00544772
4667.71384277,0.00549607
4669.64265015,0.00550457
4671.57145752,0.00537960
4673.50026489,0.00538468
4675.42907227,0.00544759
4677.35787964,0.00535903
4679.28668701,0.00524658
4681.21549438,0.00535236
4683.14430176,0.00536878
4685.07310913,0.00540611
4687.00191650,0.00534297
4688.93072388,0.00523460
4690.85953125,0.00535931
4692.78833862,0.00530996
4694.71714600,0.00529550
4696.64595337,0.00529055
4698.57476074,0.00522968
4700.50356812,0.00525058
4702.43237549,0.00523159
4704.36118286,0.00521952
4706.28999023,0.00524698
4708.21879761,0.00524264
4710.14760498,0.00520204
4712.07641235,0.00525427
4714.00521973,0.00517541
4715.93402710,0.00515807
4717.86283447,0.00514053
4719.79164185,0.00505996
4721.72044922,0.00515316
4723.64925659,0.00510798
4725.57806396,0.00518058
4727.50687134,0.00518089
4729.43567871,0.00509450
4731.36448608,0.00503974
4733.29329346,0.00496209
4735.22210083,0.00511944
4737.15090820,0.00502276
4739.07971558,0.00497805
4741.00852295,0.00505163
4742.93733032,0.00499686
4744.86613770,0.00502351
4746.79494507,0.00493639
4748.72375244,0.00494469
4750.65255981,0.00495779
4752.58136719,0.00489017
4754.51017456,0.00494539
4756.43898193,0.00496382
4758.36778931,0.00485838
4760.29659668,0.00490042
4762.22540405,0.00492524
4764.15421143,0.00481997
4766.08301880,0.00486916
4768.01182617,0.00475753
4769.94063354,0.00475164
4771.86944092,0.00486948
4773.79824829,0.00482599
4775.72705566,0.00482494
4777.65586304,0.00475745
4779.58467041,0.00482143
4781.51347778,0.00480249
4783.44228516,0.00469804
4785.37109253,0.00475310
4787.29989990,0.00468900
4789.22870728,0.00464942
4791.15751465,0.00466239
4793.08632202,0.00464327
4795.01512939,0.00467472
4796.94393677,0.00467729
4798.87274414,0.00464553
4800.80155151,0.00468906
4802.73035889,0.00467695
4804.65916626,0.00461545
4806.58797363,0.00461896
4808.51678101,0.00457248
4810.44558838,0.00453807
4812.37439575,0.00453320
4814.30320312,0.00451842
4816.23201050,0.00454003
4818.16081787,0.00457257
4820.08962524,0.00452652
4822.01843262,0.00454715
4823.94723999,0.00456462
4825.87604736,0.00448027
4827.80485474,0.00452130
4829.73366211,0.00449506
4831.66246948,0.00453883
4833.59127686,0.00458106
4835.52008423,0.00446138
4837.44889160,0.00444158
4839.37769897,0.00441009
4841.30650635,0.00446334
4843.23531372,0.00441903
4845.16412109,0.00432155
4847.09292847,0.00436815
4849.02173584,0.00439721
4850.95054321,0.00446107
4852.87935059,0.00439801
4854.80815796,0.00430658
4856.73696533,0.00434803
4858.66577270,0.00440098
4860.59458008,0.00436190
4862.52338745,0.00432488
4864.45219482,0.00430715
4866.38100220,0.00427635
4868.30980957,0.00429345
4870.23861694,0.00428323
4872.16742432,0.00435279
4874.09623169,0.00428224
4876.02503906,0.00419950
4877.95384644,0.00423900
4879.88265381,0.00416595
4881.81146118,0.00421656
4883.74026855,0.00422684
4885.66907593,0.00419344
4887.59788330,0.00414409
4889.52669067,0.00405984
4891.45549805,0.00415550
4893.38430542,0.00419768
4895.31311279,0.00414277
4897.24192017,0.00418279
4899.17072754,0.00420208
4901.09953491,0.00407367
4903.02834228,0.00407297
4904.95714966,0.00410808
4906.88595703,0.00409892
4908.81476440,0.00412002
4910.74357178,0.00405195
4912.67237915,0.00407490
4914.60118652,0.00404239
4916.52999390,0.00406515
4918.45880127,0.00412822
4920.38760864,0.00401520
4922.31641602,0.00399945
4924.24522339,0.00404973
4926.17403076,0.00405670
4928.10283813,0.00395114
4930.03164551,0.00392372
4931.96045288,0.00397348
4933.88926025,0.00392274
4935.81806763,0.00390493
4937.74687500,0.00390567
4939.67568237,0.00391480
4941.60448975,0.00391150
4943.53329712,0.00388860
4945.46210449,0.00385290
4947.39091187,0.00391261
4949.31971924,0.00392851
4951.24852661,0.00382491
4953.17733398,0.00386793
4955.10614136,0.00391693
4957.03494873,0.00384573
4958.96375610,0.00380387
4960.89256348,0.00384087
4962.82137085,0.00375192
4964.75017822,0.00375217
4966.67898560,0.00381950
4968.60779297,0.00369994
4970.53660034,0.00370332
4972.46540771,0.00369785
4974.39421509,0.00371707
4976.32302246,0.00374781
4978.25182983,0.00374042
4980.18063721,0.00373713
4982.10944458,0.00357755
4984.03825195,0.00360694
4985.96705933,0.00371871
4987.89586670,0.00372259
4989.82467407,0.00364279
4991.75348145,0.00360578
4993.68228882,0.00364454
4995.61109619,0.00358519
4997.53990356,0.00364774
4999.46871094,0.00364901
5001.39751831,0.00362929
5003.32632568,0.00366081
5005.25513306,0.00357407
5007.18394043,0.00355131
5009.11274780,0.00358384
5011.04155518,0.00360471
5012.97036255,0.00358773
5014.89916992,0.00359782
5016.82797729,0.00353820
5018.75678467,0.00346870
5020.68559204,0.00347187
5022.61439941,0.00348362
5024.54320679,0.00350020
5026.47201416,0.00342903
5028.40082153,0.00349028
5030.32962891,0.00347660
5032.25843628,0.00339125
5034.18724365,0.00345312
5036.11605103,0.00343807
5038.04485840,0.00347619
5039.97366577,0.00346308
5041.90247314,0.00341486
5043.83128052,0.00344786
5045.76008789,0.00342109
5047.68889526,0.00339426
5049.61770264,0.00336343
5051.54651001,0.00334244
5053.47531738,0.00335403
5055.40412476,0.00337830
5057.33293213,0.00340579
5059.26173950,0.00336372
5061.19054687,0.00328911
5063.11935425,0.00334331
5065.04816162,0.00336388
5066.97696899,0.00331284
5068.90577637,0.00334239
5070.83458374,0.00331509
5072.76339111,0.00326765
5074.69219849,0.00323664
5076.62100586,0.00326372
5078.54981323,0.00328489
5080.47862061,0.00323498
5082.40742798,0.00324854
5084.33623535,0.00327552
5086.26504272,0.00331866
5088.19385010,0.00328771
5090.12265747,0.00322983
5092.05146484,0.00321366
5093.98027222,0.00319155
5095.90907959,0.00321206
5097.83788696,0.00318878
5099.76669434,0.00320125
5101.69550171,0.00324447
5103.62430908,0.00320209
5105.55311645,0.00313403
5107.48192383,0.00315331
5109.41073120,0.00315747
5111.33953857,0.00309950
5113.26834595,0.00310826
5115.19715332,0.00307262
5117.12596069,0.00310152
5119.05476807,0.00314537
5120.98357544,0.00305719
5122.91238281,0.00304091
5124.84119019,0.00305832
5126.76999756,0.00302871
5128.69880493,0.00303719
5130.62761230,0.00306169
5132.55641968,0.00304410
5134.48522705,0.00307060
5136.41403442,0.00301238
5138.34284180,0.00296952
5140.27164917,0.00306195
5142.20045654,0.00298990
5144.12926392,0.00296560
5146.05807129,0.00302884
5147.98687866,0.00299659
5149.91568603,0.00292497
5151.84449341,0.00292691
5153.77330078,0.00305219
5155.70210815,0.00299196
5157.63091553,0.00293425
5159.55972290,0.00298349
5161.48853027,0.00294289
5163.41733765,0.00294697
5165.34614502,0.00292079
5167.27495239,0.00291824
5169.20375977,0.00291605
5171.13256714,0.00288869
5173.06137451,0.00293924
5174.99018188,0.00292196
5176.91898926,0.00290094
5178.84779663,0.00284744
5180.77660400,0.00283439
5182.70541138,0.00290936
5184.63421875,0.00283383
5186.56302612,0.00286161
5188.49183350,0.00289873
5190.42064087,0.00279574
5192.34944824,0.00282827
5194.27825562,0.00279485
5196.20706299,0.00274951
5198.13587036,0.00278250
5200.06467773,0.00276243
5201.99348511,0.00282224
5203.92229248,0.00281687
5205.85109985,0.00269617
5207.77990723,0.00269985
5209.70871460,0.00271250
5211.63752197,0.00268615
5213.56632935,0.00277462
5215.49513672,0.00273881
5217.42394409,0.00268471
5219.35275146,0.00275901
5221.28155884,0.00275005
5223.21036621,0.00275256
5225.13917358,0.00267258
5227.06798096,0.00266671
5228.99678833,0.00274077
5230.92559570,0.00270048
5232.85440308,0.00270766
5234.78321045,0.00268060
5236.71201782,0.00273299
5238.64082520,0.00266383
5240.56963257,0.00257299
5242.49843994,0.00271749
5244.42724731,0.00264997
5246.35605469,0.00256700
5248.28486206,0.00257585
5250.21366943,0.00259972
5252.14247681,0.00270018
5254.07128418,0.00263145
5256.00009155,0.00256210
5257.92889893,0.00263228
5259.85770630,0.00259358
5261.78651367,0.00259030
5263.71532104,0.00262786
5265.64412842,0.00246924
5267.57293579,0.00250349
5269.50174316,0.00256298
5271.43055054,0.00254751
5273.35935791,0.00262521
5275.28816528,0.00248528
5277.21697266,0.00253077
5279.14578003,0.00252843
5281.07458740,0.00246477
5283.00339478,0.00260180
5284.93220215,0.00245503
5286.86100952,0.00249162
5288.78981689,0.00257077
5290.71862427,0.00246569
5292.64743164,0.00250074
5294.57623901,0.00246333
5296.50504639,0.00242361
5298.43385376,0.00242406
5300.36266113,0.00241867
5302.29146851,0.00240318
5304.22027588,0.00247985
5306.14908325,0.00245261
5308.07789062,0.00237314
5310.00669800,0.00248535
5311.93550537,0.00245304
5313.86431274,0.00249094
5315.79312012,0.00246183
5317.72192749,0.00237299
5319.65073486,0.00245888
5321.57954224,0.00238469
5323.50834961,0.00241685
5325.43715698,0.00240026
5327.36596436,0.00233753
5329.29477173,0.00236994
5331.22357910,0.00229764
5333.15238647,0.00236641
5335.08119385,0.00238563
5337.01000122,0.00228184
5338.93880859,0.00217248
5340.86761597,0.00223939
5342.79642334,0.00237545
5344.72523071,0.00221915
5346.65403809,0.00219312
5348.58284546,0.00232359
5350.51165283,0.00232974
5352.44046020,0.00223866
5354.36926758,0.00217839
5356.29807495,0.00225912
5358.22688232,0.00235993
5360.15568970,0.00234089
5362.08449707,0.00221883
5364.01330444,0.00224825
5365.94211182,0.00223953
5367.87091919,0.00216499
5369.79972656,0.00219252
5371.72853394,0.00222945
5373.65734131,0.00227749
5375.58614868,0.00214385
5377.51495605,0.00214601
5379.44376343,0.00222515
5381.37257080,0.00213576
5383.30137817,0.00220380
5385.23018555,0.00222761
5387.15899292,0.00217165
5389.08780029,0.00218717
5391.01660767,0.00223072
5392.94541504,0.00216599
5394.87422241,0.00214412
5396.80302978,0.00219235
5398.73183716,0.00210754
5400.66064453,0.00218455
5402.58945190,0.00220399
5404.51825928,0.00214531
5406.44706665,0.00217353
5408.37587402,0.00213065
5410.30468140,0.00213278
5412.23348877,0.00210002
5414.16229614,0.00207391
5416.09110352,0.00203586
5418.01991089,0.00203436
5419.94871826,0.00207475
5421.87752563,0.00208213
5423.80633301,0.00210695
5425.73514038,0.00207498
5427.66394775,0.00207964
5429.59275513,0.00197811
5431.52156250,0.00200709
5433.45036987,0.00207965
5435.37917725,0.00193092
5437.30798462,0.00204978
5439.23679199,0.00206383
5441.16559936,0.00196364
5443.09440674,0.00205674
5445.02321411,0.00198630
5446.95202148,0.00196994
5448.88082886,0.00197718
5450.80963623,0.00190337
5452.73844360,0.00200834
5454.66725098,0.00202169
5456.59605835,0.00198055
5458.52486572,0.00203659
5460.45367310,0.00195894
5462.38248047,0.00195863
5464.31128784,0.00200317
5466.24009521,0.00199212
5468.16890259,0.00198391
5470.09770996,0.00197214
5472.02651733,0.00203466
5473.95532471,0.00192031
5475.88413208,0.00188422
5477.81293945,0.00194276
5479.74174683,0.00187256
5481.67055420,0.00189424
5483.59936157,0.00190496
5485.52816895,0.00191814
5487.45697632,0.00182283
5489.38578369,0.00187081
5491.31459106,0.00199979
5493.24339844,0.00182713
5495.17220581,0.00184854
5497.10101318,0.00191208
5499.02982056,0.00183449
5500.95862793,0.00187411
5502.88743530,0.00191738
5504.81624268,0.00185844
5506.74505005,0.00182907
5508.67385742,0.00187017
5510.60266479,0.00184394
5512.53147217,0.00189715
5514.46027954,0.00190643
5516.38908691,0.00184797
5518.31789429,0.00188196
5520.24670166,0.00183961
5522.17550903,0.00174780
5524.10431641,0.00177727
5526.03312378,0.00186638
5527.96193115,0.00181549
5529.89073853,0.00182214
5531.81954590,0.00182100
5533.74835327,0.00176397
5535.67716064,0.00184559
5537.60596802,0.00177567
5539.53477539,0.00177434
5541.46358276,0.00193042
5543.39239014,0.00183991
5545.32119751,0.00173982
5547.25000488,0.00179441
5549.17881226,0.00176369
5551.10761963,0.00177976
5553.03642700,0.00180326
5554.96523437,0.00169384
5556.89404175,0.00174049
5558.82284912,0.00179699
5560.75165649,0.00179936
5562.68046387,0.00176946
5564.60927124,0.00169239
5566.53807861,0.00174412
5568.46688599,0.00172172
5570.39569336,0.00175096
5572.32450073,0.00180144
5574.25330811,0.00172108
5576.18211548,0.00170857
5578.11092285,0.00172656
5580.03973022,0.00169876
5581.96853760,0.00167044
5583.89734497,0.00176352
5585.82615234,0.00174369
5587.75495972,0.00165769
5589.68376709,0.00168554
5591.61257446,0.00168104
5593.54138184,0.00167236
5595.47018921,0.00160324
5597.39899658,0.00162154
5599.32780395,0.00164443
5601.25661133,0.00161863
5603.18541870,0.00164140
5605.11422607,0.00159693
5607.04303345,0.00163087
5608.97184082,0.00161108
5610.90064819,0.00163361
5612.82945557,0.00167504
5614.75826294,0.00157257
5616.68707031,0.00164004
5618.61587769,0.00166644
5620.54468506,0.00163598
5622.47349243,0.00163322
5624.40229980,0.00161571
5626.33110718,0.00167762
5628.25991455,0.00159482
5630.18872192,0.00162339
5632.11752930,0.00162601
5634.04633667,0.00146840
5635.97514404,0.00161210
5637.90395142,0.00162067
5639.83275879,0.00157929
5641.76156616,0.00163742
5643.69037353,0.00154408
5645.61918091,0.00165145
5647.54798828,0.00161652
5649.47679565,0.00150564
5651.40560303,0.00155690
5653.33441040,0.00149857
5655.26321777,0.00151842
5657.19202515,0.00148480
5659.12083252,0.00147819
5661.04963989,0.00155758
5662.97844727,0.00149986
5664.90725464,0.00150309
5666.83606201,0.00160810
5668.76486938,0.00157695
5670.69367676,0.00149163
5672.62248413,0.00156960
5674.55129150,0.00155110
5676.48009888,0.00151501
5678.40890625,0.00154401
5680.33771362,0.00154968
5682.26652100,0.00158315
5684.19532837,0.00144799
5686.12413574,0.00142027
5688.05294311,0.00149583
5689.98175049,0.00154639
5691.91055786,0.00157601
5693.83936523,0.00146472
5695.76817261,0.00145356
5697.69697998,0.00142880
5699.62578735,0.00139286
5701.55459473,0.00140965
5703.48340210,0.00142600
5705.41220947,0.00142863
5707.34101685,0.00141595
5709.26982422,0.00145464
5711.19863159,0.00137676
5713.12743896,0.00138102
5715.05624634,0.00142073
5716.98505371,0.00142956
5718.91386108,0.00144906
5720.84266846,0.00140753
5722.77147583,0.00145418
5724.70028320,0.00137613
5726.62909058,0.00140391
5728.55789795,0.00147828
5730.48670532,0.00137693
5732.41551270,0.00132787
5734.34432007,0.00131710
5736.27312744,0.00142487
5738.20193481,0.00139519
5740.13074219,0.00134635
5742.05954956,0.00137614
5743.98835693,0.00135949
5745.91716431,0.00140243
5747.84597168,0.00139074
5749.77477905,0.00140617
5751.70358643,0.00136509
5753.63239380,0.00138751
5755.56120117,0.00135333
5757.49000854,0.00126593
5759.41881592,0.00134034
5761.34762329,0.00128082
5763.27643066,0.00132263
5765.20523804,0.00131391
5767.13404541,0.00130969
5769.06285278,0.00137413
5770.99166016,0.00126219
5772.92046753,0.00136200
5774.84927490,0.00135065
5776.77808228,0.00128901
5778.70688965,0.00132412
5780.63569702,0.00124806
5782.56450439,0.00132942
5784.49331177,0.00128560
5786.42211914,0.00118763
5788.35092651,0.00130741
5790.27973389,0.00133484
5792.20854126,0.00128344
5794.13734863,0.00129381
5796.06615601,0.00124207
5797.99496338,0.00122788
5799.92377075,0.00125519
5801.85257812,0.00121843
5803.78138550,0.00126422
5805.71019287,0.00126522
5807.63900024,0.00123010
5809.56780762,0.00122248
5811.49661499,0.00122987
5813.42542236,0.00127723
5815.35422974,0.00126799
5817.28303711,0.00128576
5819.21184448,0.00125854
5821.14065186,0.00123869
5823.06945923,0.00123198
5824.99826660,0.00120563
5826.92707397,0.00123154
5828.85588135,0.00120598
5830.78468872,0.00124002
5832.71349609,0.00123969
5834.64230347,0.00121481
5836.57111084,0.00121937
5838.49991821,0.00121985
5840.42872559,0.00124067
5842.35753296,0.00118011
5844.28634033,0.00122013
5846.21514770,0.00119215
5848.14395508,0.00115522
5850.07276245,0.00126228
5852.00156982,0.00116723
5853.93037720,0.00112528
5855.85918457,0.00118250
5857.78799194,0.00112341
5859.71679932,0.00117290
5861.64560669,0.00118124
5863.57441406,0.00109078
5865.50322144,0.00117955
5867.43202881,0.00114601
5869.36083618,0.00106468
5871.28964355,0.00113494
5873.21845093,0.00111010
5875.14725830,0.00116972
5877.07606567,0.00108816
5879.00487305,0.00103813
5880.93368042,0.00121155
5882.86248779,0.00111524
5884.79129517,0.00108128
5886.72010254,0.00116418
5888.64890991,0.00115966
5890.57771728,0.00110791
5892.50652466,0.00104951
5894.43533203,0.00111021
5896.36413940,0.00109518
5898.29294678,0.00105872
5900.22175415,0.00111210
5902.15056152,0.00110910
5904.07936890,0.00105230
5906.00817627,0.00109109
5907.93698364,0.00109441
5909.86579102,0.00105982
5911.79459839,0.00109743
5913.72340576,0.00101856
5915.65221313,0.00101869
5917.58102051,0.00107428
5919.50982788,0.00106608
5921.43863525,0.00106131
5923.36744263,0.00104207
5925.29625000,0.00103671
5927.22505737,0.00097075
5929.15386475,0.00102758
5931.08267212,0.00107509
5933.01147949,0.00105832
5934.94028686,0.00108154
5936.86909424,0.00105216
5938.79790161,0.00103825
5940.72670898,0.00096493
5942.65551636,0.00103476
5944.58432373,0.00107815
5946.51313110,0.00099328
5948.44193848,0.00102799
5950.37074585,0.00103558
5952.29955322,0.00105283
5954.22836060,0.00097996
5956.15716797,0.00092821
5958.08597534,0.00098252
5960.01478271,0.00098257
5961.94359009,0.00098531
5963.87239746,0.00101308
5965.80120483,0.00106241
5967.73001221,0.00099598
5969.65881958,0.00100172
5971.58762695,0.00103657
5973.51643433,0.00094859
5975.44524170,0.00100006
5977.37404907,0.00098162
5979.30285645,0.00090542
5981.23166382,0.00103440
5983.16047119,0.00107325
5985.08927856,0.00094349
5987.01808594,0.00092607
5988.94689331,0.00094418
5990.87570068,0.00096952
5992.80450806,0.00099169
5994.73331543,0.00092832
5996.66212280,0.00094433
5998.59093018,0.00092686
6000.51973755,0.00090507
