399.26312622,0.00026858
401.19193359,0.00087806
403.12074097,0.00112390
405.04954834,0.00055127
406.97835571,0.00093441
408.90716309,0.00086957
410.83597046,0.00090918
412.76477783,0.00127255
414.69358521,0.00119522
416.62239258,0.00122147
418.55119995,0.00106076
420.48000732,0.00100175
422.40881470,0.00098547
424.33762207,0.00110277
426.26642944,0.00170966
428.19523682,0.00167160
430.12404419,0.00106554
432.05285156,0.00078663
433.98165894,0.00113044
435.91046631,0.00128104
437.83927368,0.00116423
439.76808105,0.00148373
441.69688843,0.00114114
443.62569580,0.00102905
445.55450317,0.00134624
447.48331055,0.00099697
449.41211792,0.00089051
451.34092529,0.00082876
453.26973267,0.00078454
455.19854004,0.00081509
457.12734741,0.00095948
459.05615479,0.00115528
460.98496216,0.00092177
462.91376953,0.00079276
464.84257690,0.00073268
466.77138428,0.00054217
468.70019165,0.00028519
470.62899902,0.00033068
472.55780640,0.00066073
474.48661377,0.00066154
476.41542114,0.00026916
478.34422852,0.00009082
480.27303589,0.00030029
482.20184326,0.00031540
484.13065063,0.00027738
486.05945801,0.00006562
487.98826538,0.00028699
489.91707275,0.00055566
491.84588013,0.00011824
493.77468750,0.00022868
495.70349487,0.00031913
497.63230225,0.00006324
499.56110962,-0.00005509
501.48991699,0.00013411
503.41872437,0.00004547
505.34753174,0.00014296
507.27633911,0.00063828
509.20514648,0.00018319
511.13395386,0.00003004
513.06276123,0.00036484
514.99156860,0.00043591
516.92037598,0.00016461
518.84918335,0.00001914
520.77799072,0.00039469
522.70679810,0.00027394
524.63560547,0.00035565
526.56441284,0.00011177
528.49322021,-0.00021506
530.42202759,0.00020638
532.35083496,0.00020488
534.27964233,0.00012086
536.20844971,-0.00016498
538.13725708,0.00022451
540.06606445,0.00057873
541.99487183,0.00008388
543.92367920,0.00032674
545.85248657,0.00017399
547.78129395,0.00007986
549.71010132,0.00008652
551.63890869,-0.00022574
553.56771606,0.00011509
555.49652344,-0.00010853
557.42533081,-0.00011793
559.35413818,0.00020649
561.28294556,0.00000902
563.21175293,0.00032708
565.14056030,0.00027986
567.06936768,-0.00005396
568.99817505,0.00017157
570.92698242,0.00008139
572.85578979,0.00008135
574.78459717,0.00030343
576.71340454,0.00001922
578.64221191,0.00007152
580.57101929,0.00045976
582.49982666,0.00031046
584.42863403,0.00008573
586.35744141,0.00009439
588.28624878,0.00007896
590.21505615,0.00004971
592.14386353,0.00025461
594.07267090,0.00042677
596.00147827,0.00044234
597.93028564,0.00016848
599.85909302,-0.00023571
601.78790039,0.00003664
603.71670776,0.00035223
605.64551514,0.00029185
607.57432251,0.00040979
609.50312988,0.00055082
611.43193726,0.00007893
613.36074463,0.00001602
615.28955200,0.00021545
617.21835938,0.00003064
619.14716675,0.00020309
621.07597412,0.00020926
623.00478149,-0.00000779
624.93358887,-0.00000572
626.86239624,-0.00020338
628.79120361,0.00005415
630.72001099,0.00050998
632.64881836,0.00066551
634.57762573,0.00075671
636.50643311,0.00074312
638.43524048,0.00111763
640.36404785,0.00117950
642.29285522,0.00113556
644.22166260,0.00134382
646.15046997,0.00148240
648.07927734,0.00158142
650.00808472,0.00156076
651.93689209,0.00187098
653.86569946,0.00175510
655.79450684,0.00175379
657.72331421,0.00184901
659.65212158,0.00177645
661.58092896,0.00201147
663.50973633,0.00162378
665.43854370,0.00182874
667.36735107,0.00196970
669.29615845,0.00176647
671.22496582,0.00231223
673.15377319,0.00236544
675.08258057,0.00233878
677.01138794,0.00227336
678.94019531,0.00227418
680.86900269,0.00249451
682.79781006,0.00258117
684.72661743,0.00271071
686.65542480,0.00264053
688.58423218,0.00269789
690.51303955,0.00273864
692.44184692,0.00285312
694.37065430,0.00284490
696.29946167,0.00316140
698.22826904,0.00405620
700.15707642,0.00410017
702.08588379,0.00395046
704.01469116,0.00398099
705.94349854,0.00343311
707.87230591,0.00265935
709.80111328,0.00227267
711.72992065,0.00179127
713.65872803,0.00112232
715.58753540,0.00075627
717.51634277,0.00026834
719.44515015,0.00018824
721.37395752,0.00036167
723.30276489,0.00032504
725.23157227,0.00013371
727.16037964,0.00015322
729.08918701,0.00049073
731.01799438,0.00027784
732.94680176,0.00031115
734.87560913,0.00032772
736.80441650,0.00037976
738.73322388,0.00052201
740.66203125,0.00009677
742.59083862,0.00020724
744.51964600,0.00025152
746.44845337,0.00033438
748.37726074,0.00046654
750.30606812,0.00028355
752.23487549,0.00030482
754.16368286,0.00022304
756.09249023,0.00042551
758.02129761,0.00032219
759.95010498,0.00021380
761.87891235,0.00032670
763.80771973,0.00010610
765.73652710,0.00022019
767.66533447,0.00045113
769.59414185,0.00044783
771.52294922,0.00013733
773.45175659,0.00025914
775.38056396,0.00027806
777.30937134,0.00002154
779.23817871,0.00045852
781.16698608,0.00041130
783.09579346,0.00019511
785.02460083,0.00034362
786.95340820,0.00029454
788.88221558,0.00013438
790.81102295,0.00017952
792.73983032,0.00036173
794.66863770,0.00037700
796.59744507,0.00055097
798.52625244,0.00043950
800.45505981,0.00039093
802.38386719,0.00060591
804.31267456,0.00029219
806.24148193,0.00022153
808.17028931,0.00029398
810.09909668,0.00017878
812.02790405,0.00045170
813.95671143,0.00060056
815.88551880,0.00036852
817.81432617,0.00022316
819.74313354,0.00033515
821.67194092,0.00038780
823.60074829,0.00034056
825.52955566,0.00053552
827.45836304,0.00041065
829.38717041,0.00048258
831.31597778,0.00088140
833.24478516,0.00063828
835.17359253,0.00065860
837.10239990,0.00062486
839.03120728,0.00078882
840.96001465,0.00117283
842.88882202,0.00068197
844.81762939,0.00081201
846.74643677,0.00093390
848.67524414,0.00084538
850.60405151,0.00096544
852.53285889,0.00042227
854.46166626,0.00054331
856.39047363,0.00062859
858.31928101,0.00044738
860.24808838,0.00063216
862.17689575,0.00031963
864.10570313,0.00041358
866.03451050,0.00030296
867.96331787,0.00016417
869.89212524,0.00064588
871.82093262,0.00030902
873.74973999,0.00032434
875.67854736,0.00038716
877.60735474,0.00015386
879.53616211,0.00050830
881.46496948,0.00032030
883.39377686,0.00044134
885.32258423,0.00053238
887.25139160,0.00027647
889.18019897,0.00052637
891.10900635,0.00054048
893.03781372,0.00050931
894.96662109,0.00051807
896.89542847,0.00061124
898.82423584,0.00058768
900.75304321,0.00046877
902.68185059,0.00058473
904.61065796,0.00053844
906.53946533,0.00054066
908.46827271,0.00056753
910.39708008,0.00067424
912.32588745,0.00067513
914.25469482,0.00069492
916.18350220,0.00087670
918.11230957,0.00075371
920.04111694,0.00081586
921.96992432,0.00096821
923.89873169,0.00102772
925.82753906,0.00096946
927.75634644,0.00091294
929.68515381,0.00103396
931.61396118,0.00101269
933.54276855,0.00123555
935.47157593,0.00136774
937.40038330,0.00132041
939.32919067,0.00158314
941.25799805,0.00165470
943.18680542,0.00147350
945.11561279,0.00145597
947.04442017,0.00152328
948.97322754,0.00153869
950.90203491,0.00155369
952.83084229,0.00162334
954.75964966,0.00161716
956.68845703,0.00119953
958.61726440,0.00130073
960.54607178,0.00161369
962.47487915,0.00142543
964.40368652,0.00173370
966.33249390,0.00173643
968.26130127,0.00164510
970.19010864,0.00176131
972.11891602,0.00177826
974.04772339,0.00202130
975.97653076,0.00189048
977.90533813,0.00217051
979.83414551,0.00234674
981.76295288,0.00230690
983.69176025,0.00272131
985.62056763,0.00288839
987.54937500,0.00303741
989.47818237,0.00316760
991.40698975,0.00367554
993.33579712,0.00396739
995.26460449,0.00428170
997.19341187,0.00509026
999.12221924,0.00513445
1001.05102661,0.00526974
1002.97983398,0.00570775
1004.90864136,0.00610431
1006.83744873,0.00645793
1008.76625610,0.00673607
1010.69506348,0.00728015
1012.62387085,0.00760244
1014.55267822,0.00795421
1016.48148560,0.00838902
1018.41029297,0.00867995
1020.33910034,0.00910751
1022.26790771,0.00959727
1024.19671509,0.00972637
1026.12552246,0.00995881
1028.05432983,0.01069221
1029.98313721,0.01092668
1031.91194458,0.01097555
1033.84075195,0.01129047
1035.76955933,0.01153032
1037.69836670,0.01168150
1039.62717407,0.01167675
1041.55598145,0.01163618
1043.48478882,0.01144846
1045.41359619,0.01127836
1047.34240356,0.01120760
1049.27121094,0.01106733
1051.20001831,0.01078989
1053.12882568,0.01047155
1055.05763306,0.01035810
1056.98644043,0.01023837
1058.91524780,0.00998409
1060.84405518,0.00974761
1062.77286255,0.00954895
1064.70166992,0.00914507
1066.63047729,0.00870897
1068.55928467,0.00848259
1070.48809204,0.00833142
1072.41689941,0.00796750
1074.34570679,0.00735086
1076.27451416,0.00703737
1078.20332153,0.00685739
1080.13212891,0.00659818
1082.06093628,0.00629056
1083.98974365,0.00600105
1085.91855103,0.00584914
1087.84735840,0.00554608
1089.77616577,0.00534009
1091.70497314,0.00505297
1093.63378052,0.00483038
1095.56258789,0.00488985
1097.49139526,0.00457547
1099.42020264,0.00450000
1101.34901001,0.00465515
1103.27781738,0.00431233
1105.20662476,0.00421673
1107.13543213,0.00437390
1109.06423950,0.00412021
1110.99304687,0.00384995
1112.92185425,0.00389022
1114.85066162,0.00410912
1116.77946899,0.00414781
1118.70827637,0.00397702
1120.63708374,0.00395710
1122.56589111,0.00411925
1124.49469849,0.00428525
1126.42350586,0.00417861
1128.35231323,0.00416090
1130.28112061,0.00429880
1132.20992798,0.00433741
1134.13873535,0.00452455
1136.06754272,0.00463602
1137.99635010,0.00491389
1139.92515747,0.00532654
1141.85396484,0.00549019
1143.78277222,0.00575950
1145.71157959,0.00613117
1147.64038696,0.00654452
1149.56919434,0.00691654
1151.49800171,0.00710366
1153.42680908,0.00728800
1155.35561646,0.00763972
1157.28442383,0.00802621
1159.21323120,0.00832226
1161.14203857,0.00849141
1163.07084595,0.00868223
1164.99965332,0.00919380
1166.92846069,0.00951679
1168.85726807,0.00973828
1170.78607544,0.01016920
1172.71488281,0.01048448
1174.64369019,0.01094411
1176.57249756,0.01123093
1178.50130493,0.01148828
1180.43011230,0.01208840
1182.35891968,0.01262338
1184.28772705,0.01321181
1186.21653442,0.01369708
1188.14534180,0.01428021
1190.07414917,0.01496741
1192.00295654,0.01542478
1193.93176392,0.01609954
1195.86057129,0.01687348
1197.78937866,0.01766342
1199.71818604,0.01830628
1201.64699341,0.01900009
1203.57580078,0.02000346
1205.50460815,0.02061319
1207.43341553,0.02137080
1209.36222290,0.02218482
1211.29103027,0.02256930
1213.21983765,0.02321043
1215.14864502,0.02387805
1217.07745239,0.02431870
1219.00625977,0.02459524
1220.93506714,0.02486839
1222.86387451,0.02519395
1224.79268188,0.02567398
1226.72148926,0.02591500
1228.65029663,0.02557967
1230.57910400,0.02569374
1232.50791138,0.02586465
1234.43671875,0.02595742
1236.36552612,0.02607892
1238.29433350,0.02581178
1240.22314087,0.02578655
1242.15194824,0.02558710
1244.08075562,0.02548961
1246.00956299,0.02556022
1247.93837036,0.02537778
1249.86717773,0.02520171
1251.79598511,0.02489416
1253.72479248,0.02475236
1255.65359985,0.02429153
1257.58240723,0.02380430
1259.51121460,0.02354877
1261.44002197,0.02326075
1263.36882935,0.02310435
1265.29763672,0.02263422
1267.22644409,0.02243160
1269.15525146,0.02212751
1271.08405884,0.02166523
1273.01286621,0.02148617
1274.94167358,0.02099492
1276.87048096,0.02064846
1278.79928833,0.02028410
1280.72809570,0.01982053
1282.65690308,0.01945035
1284.58571045,0.01908640
1286.51451782,0.01886736
1288.44332520,0.01863672
1290.37213257,0.01842542
1292.30093994,0.01823088
1294.22974731,0.01805733
1296.15855469,0.01777034
1298.08736206,0.01772639
1300.01616943,0.01787542
1301.94497681,0.01787867
1303.87378418,0.01809218
1305.80259155,0.01834055
1307.73139893,0.01853800
1309.66020630,0.01866185
1311.58901367,0.01888886
1313.51782104,0.01930359
1315.44662842,0.01983836
1317.37543579,0.02025916
1319.30424316,0.02058290
1321.23305054,0.02142503
1323.16185791,0.02199100
1325.09066528,0.02251604
1327.01947266,0.02328452
1328.94828003,0.02351129
1330.87708740,0.02402554
1332.80589478,0.02473949
1334.73470215,0.02512566
1336.66350952,0.02514886
1338.59231689,0.02481634
1340.52112427,0.02530723
1342.44993164,0.02636865
1344.37873901,0.02659138
1346.30754639,0.02652858
1348.23635376,0.02631845
1350.16516113,0.02605265
1352.09396851,0.02620798
1354.02277588,0.02592051
1355.95158325,0.02568946
1357.88039062,0.02566671
1359.80919800,0.02510869
1361.73800537,0.02361765
1363.66681274,0.02342156
1365.59562012,0.02500532
1367.52442749,0.02417733
1369.45323486,0.02385302
1371.38204224,0.02427097
1373.31084961,0.02286713
1375.23965698,0.02313014
1377.16846436,0.02364902
1379.09727173,0.02370778
1381.02607910,0.02371344
1382.95488647,0.02388555
1384.88369385,0.02390055
1386.81250122,0.02229558
1388.74130859,0.02265043
1390.67011597,0.02471265
1392.59892334,0.02412503
1394.52773071,0.02209635
1396.45653809,0.02335002
1398.38534546,0.02360723
1400.31415283,0.02309345
1402.24296021,0.02535298
1404.17176758,0.02394146
1406.10057495,0.02412615
1408.02938232,0.02517189
1409.95818970,0.02402718
1411.88699707,0.02466080
1413.81580444,0.02360457
1415.74461182,0.02401465
1417.67341919,0.02119557
1419.60222656,0.01888795
1421.53103394,0.02262664
1423.45984131,0.02163083
1425.38864868,0.02073365
1427.31745605,0.02131955
1429.24626343,0.01967363
1431.17507080,0.01903340
1433.10387817,0.01961962
1435.03268555,0.01770807
1436.96149292,0.01485875
1438.89030029,0.01741875
1440.81910767,0.01776189
1442.74791504,0.01653570
1444.67672241,0.01733236
1446.60552979,0.01571816
1448.53433716,0.01613430
1450.46314453,0.01660888
1452.39195190,0.01692757
1454.32075928,0.01741282
1456.24956665,0.01404476
1458.17837402,0.01470199
1460.10718140,0.01987645
1462.03598877,0.02124712
1463.96479614,0.02081941
1465.89360352,0.02141473
1467.82241089,0.02476501
1469.75121826,0.02655052
1471.68002563,0.02283157
1473.60883301,0.02407285
1475.53764038,0.02761400
1477.46644775,0.02970324
1479.39525513,0.03288307
1481.32406250,0.03317683
1483.25286987,0.03541608
1485.18167725,0.03616473
1487.11048462,0.03519496
1489.03929199,0.03473574
1490.96809937,0.03464320
1492.89690674,0.04136342
1494.82571411,0.03984679
1496.75452148,0.03507401
1498.68332886,0.04048547
1500.61213623,0.04159929
1502.54094360,0.04503608
1504.46975098,0.04173460
1506.39855835,0.02843918
1508.32736572,0.03628645
1510.25617310,0.04338335
1512.18498047,0.04214392
1514.11378784,0.04621524
1516.04259521,0.04046355
1517.97140259,0.04271222
1519.90020996,0.04103736
1521.82901733,0.03435264
1523.75782471,0.04369367
1525.68663208,0.04267891
1527.61543945,0.04250756
1529.54424683,0.04792025
1531.47305420,0.04554360
1533.40186157,0.04113317
1535.33066895,0.04424524
1537.25947632,0.04757899
1539.18828369,0.03201722
1541.11709106,0.03399652
1543.04589844,0.04177088
1544.97470581,0.03983688
1546.90351318,0.04880621
1548.83232056,0.04470468
1550.76112793,0.04619728
1552.68993530,0.04589127
1554.61874268,0.04089678
1556.54755005,0.04422577
1558.47635742,0.02902100
1560.40516479,0.03256970
1562.33397217,0.04903960
1564.26277954,0.04548443
1566.19158691,0.04731648
1568.12039429,0.04626702
1570.04920166,0.04010164
1571.97800903,0.04796621
1573.90681641,0.04821622
1575.83562378,0.03699408
1577.76443115,0.04294475
1579.69323853,0.04909965
1581.62204590,0.04671396
1583.55085327,0.04785476
1585.47966064,0.04713761
1587.40846802,0.04746840
1589.33727539,0.04698513
1591.26608276,0.04730025
1593.19489014,0.04710662
1595.12369751,0.04648279
1597.05250488,0.04718430
1598.98131226,0.04674159
1600.91011963,0.04732430
1602.83892700,0.04622635
1604.76773437,0.04701637
1606.69654175,0.04616755
1608.62534912,0.04617207
1610.55415649,0.04630125
1612.48296387,0.04662578
1614.41177124,0.04726885
1616.34057861,0.03738657
1618.26938599,0.04147010
1620.19819336,0.04918350
1622.12700073,0.04254327
1624.05580811,0.04305812
1625.98461548,0.04566447
1627.91342285,0.04523933
1629.84223022,0.04516604
1631.77103760,0.04887415
1633.69984497,0.04412993
1635.62865234,0.03528669
1637.55745972,0.04250661
1639.48626709,0.04732884
1641.41507446,0.04608621
1643.34388184,0.04757600
1645.27268921,0.04181586
1647.20149658,0.03579397
1649.13030396,0.04653774
1651.05911133,0.04336951
1652.98791870,0.02566978
1654.91672607,0.03759203
1656.84553345,0.04827742
1658.77434082,0.04607773
1660.70314819,0.04732118
1662.63195557,0.04213446
1664.56076294,0.04525809
1666.48957031,0.04884025
1668.41837769,0.04132148
1670.34718506,0.04004511
1672.27599243,0.04626093
1674.20479980,0.04191842
1676.13360718,0.04006868
1678.06241455,0.04708762
1679.99122192,0.04518508
1681.92002930,0.04414826
1683.84883667,0.03423667
1685.77764404,0.03480049
1687.70645142,0.04940494
1689.63525879,0.04181457
1691.56406616,0.04713386
1693.49287354,0.04728210
1695.42168091,0.03320691
1697.35048828,0.04229157
1699.27929565,0.03562017
1701.20810303,0.03204421
1703.13691040,0.04572588
1705.06571777,0.04097180
1706.99452515,0.04177178
1708.92333252,0.04600664
1710.85213989,0.04382998
1712.78094727,0.04455844
1714.70975464,0.04042936
1716.63856201,0.03580817
1718.56736938,0.03545579
1720.49617676,0.04296636
1722.42498413,0.04487222
1724.35379150,0.04134892
1726.28259888,0.04558475
1728.21140625,0.04139738
1730.14021362,0.04168383
1732.06902100,0.04031648
1733.99782837,0.02938288
1735.92663574,0.03847797
1737.85544312,0.04253818
1739.78425049,0.03704822
1741.71305786,0.04097269
1743.64186523,0.04140927
1745.57067261,0.04175085
1747.49947998,0.04178659
1749.42828735,0.03924740
1751.35709473,0.03741423
1753.28590210,0.04241201
1755.21470947,0.04426476
1757.14351685,0.03972227
1759.07232422,0.04451334
1761.00113159,0.04097598
1762.92993896,0.03963599
1764.85874634,0.04626471
1766.78755371,0.04070082
1768.71636108,0.04134862
1770.64516846,0.04065565
1772.57397583,0.03591361
1774.50278320,0.04106592
1776.43159058,0.04362171
1778.36039795,0.04292839
1780.28920532,0.04216638
1782.21801270,0.04250426
1784.14682007,0.04236144
1786.07562744,0.04136284
1788.00443481,0.04397430
1789.93324219,0.04238464
1791.86204956,0.03749453
1793.79085693,0.03974033
1795.71966431,0.04308711
1797.64847168,0.04223641
1799.57727905,0.04140842
1801.50608643,0.04048983
1803.43489380,0.04219532
1805.36370117,0.04325197
1807.29250854,0.04249512
1809.22131592,0.04252238
1811.15012329,0.04112957
1813.07893066,0.04284754
1815.00773804,0.04293412
1816.93654541,0.04220039
1818.86535278,0.04270088
1820.79416016,0.04253182
1822.72296753,0.04300125
1824.65177490,0.03960022
1826.58058228,0.04150454
1828.50938965,0.04137296
1830.43819702,0.03844329
1832.36700439,0.04261841
1834.29581177,0.04196611
1836.22461914,0.04195172
1838.15342651,0.04175325
1840.08223389,0.04198321
1842.01104126,0.04188205
1843.93984863,0.03621048
1845.86865601,0.03942102
1847.79746338,0.04177628
1849.72627075,0.04064997
1851.65507812,0.04237720
1853.58388550,0.04119357
1855.51269287,0.04158264
1857.44150024,0.04123371
1859.37030762,0.04091727
1861.29911499,0.04136870
1863.22792236,0.04071215
1865.15672974,0.04106202
1867.08553711,0.03936127
1869.01434448,0.03750917
1870.94315186,0.03933353
1872.87195923,0.04106044
1874.80076660,0.04031681
1876.72957397,0.04050192
1878.65838135,0.04035569
1880.58718872,0.04016431
1882.51599609,0.04031546
1884.44480347,0.03951964
1886.37361084,0.04033767
1888.30241821,0.03896758
1890.23122559,0.03811251
1892.16003296,0.03999725
1894.08884033,0.03908262
1896.01764771,0.03886914
1897.94645508,0.03952711
1899.87526245,0.03925687
1901.80406982,0.03933053
1903.73287720,0.03903190
1905.66168457,0.03916375
1907.59049194,0.03863899
1909.51929932,0.03822297
1911.44810669,0.03847382
1913.37691406,0.03866939
1915.30572144,0.03897892
1917.23452881,0.03686678
1919.16333618,0.03696455
1921.09214355,0.03852487
1923.02095093,0.03707164
1924.94975830,0.03812581
1926.87856567,0.03835636
1928.80737305,0.03768571
1930.73618042,0.03836299
1932.66498779,0.03755559
1934.59379517,0.03801221
1936.52260254,0.03769688
1938.45140991,0.03781832
1940.38021729,0.03774400
1942.30902466,0.03605709
1944.23783203,0.03708526
1946.16663940,0.03756285
1948.09544678,0.03730389
1950.02425415,0.03753259
1951.95306152,0.03731623
1953.88186890,0.03731788
1955.81067627,0.03721018
1957.73948364,0.03729263
1959.66829102,0.03709994
1961.59709839,0.03703332
1963.52590576,0.03700789
1965.45471313,0.03666651
1967.38352051,0.03625071
1969.31232788,0.03658862
1971.24113525,0.03691738
1973.16994263,0.03667828
1975.09875000,0.03694040
1977.02755737,0.03648787
1978.95636475,0.03643615
1980.88517212,0.03632994
1982.81397949,0.03611326
1984.74278687,0.03645342
1986.67159424,0.03587585
1988.60040161,0.03603623
1990.52920898,0.03551276
1992.45801636,0.03495312
1994.38682373,0.03582275
1996.31563110,0.03571674
1998.24443848,0.03551965
2000.17324585,0.03548773
2002.10205322,0.03533597
2004.03086060,0.03534462
2005.95966797,0.03516925
2007.88847534,0.03510247
2009.81728271,0.03505489
2011.74609009,0.03486836
2013.67489746,0.03490138
2015.60370483,0.03449899
2017.53251221,0.03392058
2019.46131958,0.03443244
2021.39012695,0.03449079
2023.31893433,0.03408988
2025.24774170,0.03411225
2027.17654907,0.03401230
2029.10535645,0.03395593
2031.03416382,0.03386612
2032.96297119,0.03391340
2034.89177856,0.03375583
2036.82058594,0.03355595
2038.74939331,0.03351944
2040.67820068,0.03335004
2042.60700806,0.03327013
2044.53581543,0.03320528
2046.46462280,0.03311936
2048.39343018,0.03294558
2050.32223755,0.03289973
2052.25104492,0.03281031
2054.17985229,0.03269269
2056.10865967,0.03265755
2058.03746704,0.03254533
2059.96627441,0.03242599
2061.89508179,0.03231497
2063.82388916,0.03221871
2065.75269653,0.03199271
2067.68150391,0.03211559
2069.61031128,0.03200286
2071.53911865,0.03177529
2073.46792603,0.03187172
2075.39673340,0.03156874
2077.32554077,0.03159568
2079.25434814,0.03155833
2081.18315552,0.03132582
2083.11196289,0.03135641
2085.04077026,0.03132178
2086.96957764,0.03129791
2088.89838501,0.03119691
2090.82719238,0.03118420
2092.75599976,0.03102041
2094.68480713,0.03090878
2096.61361450,0.03086833
2098.54242187,0.03081619
2100.47122925,0.03086460
2102.40003662,0.03060514
2104.32884399,0.03049066
2106.25765137,0.03049767
2108.18645874,0.03039669
2110.11526611,0.03029121
2112.04407349,0.03020546
2113.97288086,0.03016879
2115.90168823,0.03002640
2117.83049561,0.02996207
2119.75930298,0.03003971
2121.68811035,0.02995683
2123.61691772,0.02972481
2125.54572510,0.02968172
2127.47453247,0.02965327
2129.40333984,0.02961241
2131.33214722,0.02952129
2133.26095459,0.02945506
2135.18976196,0.02944403
2137.11856934,0.02925945
2139.04737671,0.02932297
2140.97618408,0.02933340
2142.90499146,0.02914249
2144.83379883,0.02889617
2146.76260620,0.02895654
2148.69141357,0.02908823
2150.62022095,0.02873889
2152.54902832,0.02891105
2154.47783569,0.02890855
2156.40664307,0.02863711
2158.33545044,0.02870120
2160.26425781,0.02850163
2162.19306519,0.02852685
2164.12187256,0.02843508
2166.05067993,0.02822400
2167.97948730,0.02835048
2169.90829468,0.02829988
2171.83710205,0.02813310
2173.76590942,0.02815494
2175.69471680,0.02812667
2177.62352417,0.02809630
2179.55233154,0.02811777
2181.48113892,0.02791250
2183.40994629,0.02790332
2185.33875366,0.02796499
2187.26756104,0.02781155
2189.19636841,0.02765752
2191.12517578,0.02767067
2193.05398315,0.02768951
2194.98279053,0.02750512
2196.91159790,0.02743289
2198.84040527,0.02736099
2200.76921265,0.02741767
2202.69802002,0.02731285
2204.62682739,0.02719928
2206.55563477,0.02733297
2208.48444214,0.02715402
2210.41324951,0.02709071
2212.34205688,0.02697112
2214.27086426,0.02689053
2216.19967163,0.02687895
2218.12847900,0.02680430
2220.05728638,0.02680139
2221.98609375,0.02665386
2223.91490112,0.02676100
2225.84370850,0.02665167
2227.77251587,0.02654259
2229.70132324,0.02655081
2231.63013062,0.02638067
2233.55893799,0.02639580
2235.48774536,0.02627613
2237.41655273,0.02628381
2239.34536011,0.02622798
2241.27416748,0.02604096
2243.20297485,0.02603473
2245.13178223,0.02592290
2247.06058960,0.02579302
2248.98939697,0.02583781
2250.91820435,0.02574638
2252.84701172,0.02552681
2254.77581909,0.02563136
2256.70462646,0.02558339
2258.63343384,0.02554062
2260.56224121,0.02541842
2262.49104858,0.02528746
2264.41985596,0.02546941
2266.34866333,0.02516782
2268.27747070,0.02518540
2270.20627808,0.02528901
2272.13508545,0.02498521
2274.06389282,0.02500401
2275.99270020,0.02498972
2277.92150757,0.02491326
2279.85031494,0.02484059
2281.77912231,0.02479087
2283.70792969,0.02476260
2285.63673706,0.02472091
2287.56554443,0.02456351
2289.49435181,0.02453981
2291.42315918,0.02458317
2293.35196655,0.02434393
2295.28077393,0.02434855
2297.20958130,0.02423468
2299.13838867,0.02404010
2301.06719604,0.02393275
2302.99600342,0.02381718
2304.92481079,0.02385865
2306.85361816,0.02363461
2308.78242554,0.02345432
2310.71123291,0.02323998
2312.64004028,0.02289991
2314.56884766,0.02275787
2316.49765503,0.02262909
2318.42646240,0.02230631
2320.35526978,0.02201467
2322.28407715,0.02183779
2324.21288452,0.02140518
2326.14169189,0.02121865
2328.07049927,0.02096209
2329.99930664,0.02054184
2331.92811401,0.02053453
2333.85692139,0.02035102
2335.78572876,0.02024079
2337.71453613,0.02029990
2339.64334351,0.02024783
2341.57215088,0.02032322
2343.50095825,0.02045982
2345.42976562,0.02084092
2347.35857300,0.02166457
2349.28738037,0.02206188
2351.21618774,0.02137928
2353.14499512,0.02048541
2355.07380249,0.01979246
2357.00260986,0.01918608
2358.93141724,0.01888047
2360.86022461,0.01881981
2362.78903198,0.01871768
2364.71783936,0.01862144
2366.64664673,0.01881073
2368.57545410,0.01913760
2370.50426147,0.01958717
2372.43306885,0.02005091
2374.36187622,0.02051758
2376.29068359,0.02106467
2378.21949097,0.02144118
2380.14829834,0.02164810
2382.07710571,0.02174405
2384.00591309,0.02191826
2385.93472046,0.02199190
2387.86352783,0.02187470
2389.79233521,0.02179716
2391.72114258,0.02179910
2393.64994995,0.02191031
2395.57875732,0.02176376
2397.50756470,0.02160490
2399.43637207,0.02166765
2401.36517944,0.02157586
2403.29398682,0.02157165
2405.22279419,0.02156927
2407.15160156,0.02136508
2409.08040894,0.02134646
2411.00921631,0.02137078
2412.93802368,0.02130143
2414.86683105,0.02130451
2416.79563843,0.02123921
2418.72444580,0.02123483
2420.65325317,0.02111033
2422.58206055,0.02087712
2424.51086792,0.02095682
2426.43967529,0.02100117
2428.36848267,0.02099605
2430.29729004,0.02092227
2432.22609741,0.02071415
2434.15490479,0.02077514
2436.08371216,0.02080316
2438.01251953,0.02066083
2439.94132690,0.02064445
2441.87013428,0.02064084
2443.79894165,0.02058023
2445.72774902,0.02058160
2447.65655640,0.02052262
2449.58536377,0.02037017
2451.51417114,0.02037519
2453.44297852,0.02034954
2455.37178589,0.02031674
2457.30059326,0.02037590
2459.22940063,0.02023245
2461.15820801,0.02016173
2463.08701538,0.02011305
2465.01582275,0.02003866
2466.94463013,0.02010331
2468.87343750,0.01999397
2470.80224487,0.01996393
2472.73105225,0.01997337
2474.65985962,0.01984906
2476.58866699,0.01971290
2478.51747437,0.01969044
2480.44628174,0.01980578
2482.37508911,0.01965615
2484.30389648,0.01964120
2486.23270386,0.01964405
2488.16151123,0.01949431
2490.09031860,0.01952701
2492.01912598,0.01932825
2493.94793335,0.01925647
2495.87674072,0.01932239
2497.80554810,0.01923941
2499.73435547,0.01928224
2501.66316284,0.01925630
2503.59197021,0.01907905
2505.52077759,0.01910352
2507.44958496,0.01916206
2509.37839233,0.01901330
2511.30719971,0.01912934
2513.23600708,0.01904969
2515.16481445,0.01883329
2517.09362183,0.01886354
2519.02242920,0.01874077
2520.95123657,0.01875096
2522.88004395,0.01872251
2524.80885132,0.01870486
2526.73765869,0.01872141
2528.66646606,0.01875113
2530.59527344,0.01868931
2532.52408081,0.01836045
2534.45288818,0.01844755
2536.38169556,0.01852547
2538.31050293,0.01844217
2540.23931030,0.01840841
2542.16811768,0.01834227
2544.09692505,0.01827493
2546.02573242,0.01828717
2547.95453979,0.01849437
2549.88334717,0.01821431
2551.81215454,0.01809494
2553.74096191,0.01819905
2555.66976929,0.01800132
2557.59857666,0.01803350
2559.52738403,0.01800751
2561.45619141,0.01799516
2563.38499878,0.01792953
2565.31380615,0.01774313
2567.24261353,0.01767565
2569.17142090,0.01772417
2571.10022827,0.01768909
2573.02903564,0.01761582
2574.95784302,0.01774648
2576.88665039,0.01761718
2578.81545776,0.01755580
2580.74426514,0.01753880
2582.67307251,0.01742423
2584.60187988,0.01746332
2586.53068726,0.01738589
2588.45949463,0.01740501
2590.38830200,0.01733984
2592.31710937,0.01728950
2594.24591675,0.01732799
2596.17472412,0.01722324
2598.10353149,0.01714424
2600.03233887,0.01709544
2601.96114624,0.01703181
2603.88995361,0.01699318
2605.81876099,0.01706866
2607.74756836,0.01691417
2609.67637573,0.01684809
2611.60518311,0.01693056
2613.53399048,0.01680623
2615.46279785,0.01677025
2617.39160522,0.01665820
2619.32041260,0.01662559
2621.24921997,0.01660564
2623.17802734,0.01656650
2625.10683472,0.01667941
2627.03564209,0.01657003
2628.96444946,0.01638724
2630.89325684,0.01641574
2632.82206421,0.01651683
2634.75087158,0.01640183
2636.67967895,0.01631200
2638.60848633,0.01629321
2640.53729370,0.01618405
2642.46610107,0.01626958
2644.39490845,0.01630954
2646.32371582,0.01616004
2648.25252319,0.01609537
2650.18133057,0.01601277
2652.11013794,0.01594603
2654.03894531,0.01606195
2655.96775269,0.01600182
2657.89656006,0.01590200
2659.82536743,0.01594504
2661.75417480,0.01585094
2663.68298218,0.01583417
2665.61178955,0.01581904
2667.54059692,0.01567207
2669.46940430,0.01563412
2671.39821167,0.01568518
2673.32701904,0.01560581
2675.25582642,0.01553760
2677.18463379,0.01547228
2679.11344116,0.01538661
2681.04224854,0.01548002
2682.97105591,0.01544403
2684.89986328,0.01540659
2686.82867065,0.01531088
2688.75747803,0.01525098
2690.68628540,0.01533993
2692.61509277,0.01516157
2694.54390015,0.01508324
2696.47270752,0.01499304
2698.40151489,0.01497438
2700.33032227,0.01508814
2702.25912964,0.01507539
2704.18793701,0.01507837
2706.11674438,0.01495272
2708.04555176,0.01489461
2709.97435913,0.01489083
2711.90316650,0.01490165
2713.83197388,0.01478637
2715.76078125,0.01472406
2717.68958862,0.01474817
2719.61839600,0.01452741
2721.54720337,0.01456459
2723.47601074,0.01464205
2725.40481812,0.01465305
2727.33362549,0.01450897
2729.26243286,0.01433680
2731.19124023,0.01453650
2733.12004761,0.01452352
2735.04885498,0.01437721
2736.97766235,0.01431098
2738.90646973,0.01437197
2740.83527710,0.01432571
2742.76408447,0.01421133
2744.69289185,0.01430910
2746.62169922,0.01419202
2748.55050659,0.01405421
2750.47931396,0.01408963
2752.40812134,0.01417314
2754.33692871,0.01410325
2756.26573608,0.01396541
2758.19454346,0.01387796
2760.12335083,0.01383352
2762.05215820,0.01395216
2763.98096558,0.01387931
2765.90977295,0.01374652
2767.83858032,0.01369423
2769.76738770,0.01371934
2771.69619507,0.01370504
2773.62500244,0.01361503
2775.55380981,0.01365939
2777.48261719,0.01357981
2779.41142456,0.01356016
2781.34023193,0.01351150
2783.26903931,0.01339731
2785.19784668,0.01337288
2787.12665405,0.01335181
2789.05546143,0.01337135
2790.98426880,0.01326867
2792.91307617,0.01326607
2794.84188354,0.01323633
2796.77069092,0.01315570
2798.69949829,0.01316814
2800.62830566,0.01312966
2802.55711304,0.01313181
2804.48592041,0.01304687
2806.41472778,0.01300109
2808.34353516,0.01299494
2810.27234253,0.01299156
2812.20114990,0.01301985
2814.12995728,0.01288168
2816.05876465,0.01281712
2817.98757202,0.01289146
2819.91637939,0.01276665
2821.84518677,0.01255067
2823.77399414,0.01255846
2825.70280151,0.01263223
2827.63160889,0.01260640
2829.56041626,0.01254864
2831.48922363,0.01259112
2833.41803101,0.01247886
2835.34683838,0.01222808
2837.27564575,0.01235558
2839.20445312,0.01242799
2841.13326050,0.01224685
2843.06206787,0.01217376
2844.99087524,0.01213048
2846.91968262,0.01210286
2848.84848999,0.01214233
2850.77729736,0.01209393
2852.70610474,0.01197390
2854.63491211,0.01199180
2856.56371948,0.01200559
2858.49252686,0.01201986
2860.42133423,0.01195344
2862.35014160,0.01182692
2864.27894897,0.01188294
2866.20775635,0.01191685
2868.13656372,0.01184755
2870.06537109,0.01173457
2871.99417847,0.01171667
2873.92298584,0.01165236
2875.85179321,0.01163719
2877.78060059,0.01174265
2879.70940796,0.01160695
2881.63821533,0.01149935
2883.56702270,0.01150412
2885.49583008,0.01153769
2887.42463745,0.01150254
2889.35344482,0.01144424
2891.28225220,0.01140135
2893.21105957,0.01125484
2895.13986694,0.01133614
2897.06867432,0.01138088
2898.99748169,0.01129517
2900.92628906,0.01131115
2902.85509644,0.01126305
2904.78390381,0.01116210
2906.71271118,0.01111019
2908.64151855,0.01117921
2910.57032593,0.01120484
2912.49913330,0.01113094
2914.42794067,0.01108159
2916.35674805,0.01104425
2918.28555542,0.01095291
2920.21436279,0.01095427
2922.14317017,0.01100672
2924.07197754,0.01101289
2926.00078491,0.01098139
2927.92959229,0.01086339
2929.85839966,0.01095863
2931.78720703,0.01090270
2933.71601440,0.01078934
2935.64482178,0.01097885
2937.57362915,0.01093746
2939.50243652,0.01081034
2941.43124390,0.01077527
2943.36005127,0.01083752
2945.28885864,0.01072929
2947.21766602,0.01051271
2949.14647339,0.01063586
2951.07528076,0.01066113
2953.00408813,0.01051029
2954.93289551,0.01048316
2956.86170288,0.01056968
2958.79051025,0.01050407
2960.71931763,0.01043648
2962.64812500,0.01045988
2964.57693237,0.01038710
2966.50573975,0.01039203
2968.43454712,0.01036356
2970.36335449,0.01046809
2972.29216187,0.01046817
2974.22096924,0.01034289
2976.14977661,0.01043706
2978.07858398,0.01030071
2980.00739136,0.01028653
2981.93619873,0.01035555
2983.86500610,0.01017289
2985.79381348,0.01018063
2987.72262085,0.01020650
2989.65142822,0.01012830
2991.58023560,0.01009644
2993.50904297,0.01011137
2995.43785034,0.01008905
2997.36665771,0.01002159
2999.29546509,0.01006374
3001.22427246,0.00999861
3003.15307983,0.00992499
3005.08188721,0.00995485
3007.01069458,0.00982515
3008.93950195,0.00980845
3010.86830933,0.00981860
3012.79711670,0.00977177
3014.72592407,0.00971867
3016.65473145,0.00962206
3018.58353882,0.00981521
3020.51234619,0.00982791
3022.44115356,0.00961026
3024.36996094,0.00958744
3026.29876831,0.00962270
3028.22757568,0.00960831
3030.15638306,0.00956166
3032.08519043,0.00958124
3034.01399780,0.00945972
3035.94280518,0.00943454
3037.87161255,0.00939103
3039.80041992,0.00927872
3041.72922729,0.00941220
3043.65803467,0.00936885
3045.58684204,0.00932583
3047.51564941,0.00930794
3049.44445679,0.00925781
3051.37326416,0.00926660
3053.30207153,0.00929253
3055.23087891,0.00923750
3057.15968628,0.00909843
3059.08849365,0.00922099
3061.01730103,0.00918274
3062.94610840,0.00917183
3064.87491577,0.00913428
3066.80372314,0.00895355
3068.73253052,0.00898804
3070.66133789,0.00895155
3072.59014526,0.00905315
3074.51895264,0.00892455
3076.44776001,0.00892552
3078.37656738,0.00911462
3080.30537476,0.00898261
3082.23418213,0.00896653
3084.16298950,0.00883323
3086.09179687,0.00886529
3088.02060425,0.00882758
3089.94941162,0.00877706
3091.87821899,0.00887468
3093.80702637,0.00878015
3095.73583374,0.00889269
3097.66464111,0.00875994
3099.59344849,0.00871832
3101.52225586,0.00881044
3103.45106323,0.00865652
3105.37987061,0.00865105
3107.30867798,0.00869024
3109.23748535,0.00869770
3111.16629272,0.00854027
3113.09510010,0.00852837
3115.02390747,0.00855052
3116.95271484,0.00850338
3118.88152222,0.00853852
3120.81032959,0.00849082
3122.73913696,0.00851618
3124.66794434,0.00841998
3126.59675171,0.00839877
3128.52555908,0.00845057
3130.45436645,0.00835864
3132.38317383,0.00826035
3134.31198120,0.00830680
3136.24078857,0.00843113
3138.16959595,0.00829483
3140.09840332,0.00829154
3142.02721069,0.00834944
3143.95601807,0.00826744
3145.88482544,0.00819222
3147.81363281,0.00812289
3149.74244019,0.00820107
3151.67124756,0.00820022
3153.60005493,0.00815586
3155.52886230,0.00817902
3157.45766968,0.00817189
3159.38647705,0.00798989
3161.31528442,0.00799642
3163.24409180,0.00820323
3165.17289917,0.00806257
3167.10170654,0.00808446
3169.03051392,0.00813045
3170.95932129,0.00798759
3172.88812866,0.00803020
3174.81693604,0.00811640
3176.74574341,0.00808747
3178.67455078,0.00789332
3180.60335815,0.00799039
3182.53216553,0.00810857
3184.46097290,0.00789010
3186.38978027,0.00785137
3188.31858765,0.00791386
3190.24739502,0.00782270
3192.17620239,0.00772174
3194.10500977,0.00780625
3196.03381714,0.00788754
3197.96262451,0.00789706
3199.89143188,0.00787087
3201.82023926,0.00777732
3203.74904663,0.00781735
3205.67785400,0.00782389
3207.60666138,0.00779311
3209.53546875,0.00787147
3211.46427612,0.00790351
3213.39308350,0.00783192
3215.32189087,0.00780810
3217.25069824,0.00786192
3219.17950562,0.00784272
3221.10831299,0.00782506
3223.03712036,0.00770069
3224.96592773,0.00767537
3226.89473511,0.00782194
3228.82354248,0.00776313
3230.75234985,0.00780230
3232.68115723,0.00775498
3234.60996460,0.00762705
3236.53877197,0.00774751
3238.46757935,0.00770644
3240.39638672,0.00765747
3242.32519409,0.00769998
3244.25400146,0.00772528
3246.18280884,0.00771685
3248.11161621,0.00770151
3250.04042358,0.00775461
3251.96923096,0.00765177
3253.89803833,0.00770696
3255.82684570,0.00773643
3257.75565308,0.00759888
3259.68446045,0.00766471
3261.61326782,0.00763000
3263.54207520,0.00766885
3265.47088257,0.00771845
3267.39968994,0.00769431
3269.32849731,0.00774404
3271.25730469,0.00765396
3273.18611206,0.00766467
3275.11491943,0.00765274
3277.04372681,0.00767047
3278.97253418,0.00774612
3280.90134155,0.00768840
3282.83014893,0.00769170
3284.75895630,0.00760188
3286.68776367,0.00766938
3288.61657104,0.00774920
3290.54537842,0.00762965
3292.47418579,0.00765983
3294.40299316,0.00764307
3296.33180054,0.00767201
3298.26060791,0.00763587
3300.18941528,0.00758402
3302.11822266,0.00772646
3304.04703003,0.00763507
3305.97583740,0.00752566
3307.90464478,0.00757042
3309.83345215,0.00764041
3311.76225952,0.00760472
3313.69106689,0.00748307
3315.61987427,0.00758155
3317.54868164,0.00763561
3319.47748901,0.00764833
3321.40629639,0.00770887
3323.33510376,0.00764138
3325.26391113,0.00754822
3327.19271851,0.00750833
3329.12152588,0.00750319
3331.05033325,0.00751983
3332.97914062,0.00769967
3334.90794800,0.00765336
3336.83675537,0.00748717
3338.76556274,0.00760824
3340.69437012,0.00751594
3342.62317749,0.00744621
3344.55198486,0.00755253
3346.48079224,0.00757160
3348.40959961,0.00755802
3350.33840698,0.00759513
3352.26721436,0.00765285
3354.19602173,0.00744552
3356.12482910,0.00744168
3358.05363647,0.00759815
3359.98244385,0.00750327
3361.91125122,0.00745434
3363.84005859,0.00746177
3365.76886597,0.00748701
3367.69767334,0.00742781
3369.62648071,0.00751059
3371.55528809,0.00759896
3373.48409546,0.00746774
3375.41290283,0.00750577
3377.34171020,0.00752959
3379.27051758,0.00750736
3381.19932495,0.00747799
3383.12813232,0.00749372
3385.05693970,0.00756019
3386.98574707,0.00750378
3388.91455444,0.00753644
3390.84336182,0.00751014
3392.77216919,0.00744193
3394.70097656,0.00742448
3396.62978394,0.00738625
3398.55859131,0.00739859
3400.48739868,0.00735412
3402.41620605,0.00739435
3404.34501343,0.00745264
3406.27382080,0.00737996
3408.20262817,0.00737656
3410.13143555,0.00740653
3412.06024292,0.00738442
3413.98905029,0.00741034
3415.91785767,0.00745086
3417.84666504,0.00738534
3419.77547241,0.00727600
3421.70427979,0.00726905
3423.63308716,0.00732696
3425.56189453,0.00736535
3427.49070190,0.00741167
3429.41950928,0.00732131
3431.34831665,0.00727188
3433.27712402,0.00732514
3435.20593140,0.00718112
3437.13473877,0.00718529
3439.06354614,0.00729179
3440.99235352,0.00723750
3442.92116089,0.00721187
3444.84996826,0.00719468
3446.77877563,0.00711241
3448.70758301,0.00707432
3450.63639038,0.00721114
3452.56519775,0.00717337
3454.49400513,0.00707877
3456.42281250,0.00721604
3458.35161987,0.00726378
3460.28042725,0.00712154
3462.20923462,0.00695366
3464.13804199,0.00709791
3466.06684937,0.00713056
3467.99565674,0.00697922
3469.92446411,0.00707818
3471.85327148,0.00702527
3473.78207886,0.00701577
3475.71088623,0.00706468
3477.63969360,0.00701764
3479.56850098,0.00705308
3481.49730835,0.00689314
3483.42611572,0.00681935
3485.35492310,0.00697744
3487.28373047,0.00695327
3489.21253784,0.00693917
3491.14134521,0.00698170
3493.07015259,0.00679453
3494.99895996,0.00676888
3496.92776733,0.00685139
3498.85657471,0.00688395
3500.78538208,0.00690516
3502.71418945,0.00658919
3504.64299683,0.00663364
3506.57180420,0.00689494
3508.50061157,0.00675089
3510.42941895,0.00668368
3512.35822632,0.00675382
3514.28703369,0.00681127
3516.21584106,0.00668746
3518.14464844,0.00676318
3520.07345581,0.00682270
3522.00226318,0.00652489
3523.93107056,0.00655401
3525.85987793,0.00664621
3527.78868530,0.00654974
3529.71749268,0.00644899
3531.64630005,0.00657005
3533.57510742,0.00668618
3535.50391479,0.00647942
3537.43272217,0.00650685
3539.36152954,0.00659079
3541.29033691,0.00653991
3543.21914429,0.00647521
3545.14795166,0.00624670
3547.07675903,0.00619609
3549.00556641,0.00646822
3550.93437378,0.00644581
3552.86318115,0.00617636
3554.79198853,0.00629878
3556.72079590,0.00639348
3558.64960327,0.00632135
3560.57841064,0.00625712
3562.50721802,0.00622293
3564.43602539,0.00622803
3566.36483276,0.00575582
3568.29364014,0.00553311
3570.22244751,0.00605605
3572.15125488,0.00628377
3574.08006226,0.00614680
3576.00886963,0.00609626
3577.93767700,0.00614141
3579.86648437,0.00621727
3581.79529175,0.00604410
3583.72409912,0.00609631
3585.65290649,0.00606960
3587.58171387,0.00538385
3589.51052124,0.00559611
3591.43932861,0.00615151
3593.36813599,0.00588198
3595.29694336,0.00578091
3597.22575073,0.00589445
3599.15455811,0.00590029
3601.08336548,0.00579082
3603.01217285,0.00588981
3604.94098022,0.00601528
3606.86978760,0.00571590
3608.79859497,0.00525427
3610.72740234,0.00543369
3612.65620972,0.00560591
3614.58501709,0.00532908
3616.51382446,0.00586991
3618.44263184,0.00537660
3620.37143921,0.00502858
3622.30024658,0.00582807
3624.22905395,0.00569896
3626.15786133,0.00596810
3628.08666870,0.00484351
3630.01547607,0.00431769
3631.94428345,0.00570614
3633.87309082,0.00545922
3635.80189819,0.00556776
3637.73070557,0.00577273
3639.65951294,0.00567914
3641.58832031,0.00569300
3643.51712769,0.00562048
3645.44593506,0.00573726
3647.37474243,0.00500869
3649.30354980,0.00450827
3651.23235718,0.00450277
3653.16116455,0.00550792
3655.08997192,0.00558282
3657.01877930,0.00488279
3658.94758667,0.00566529
3660.87639404,0.00552755
3662.80520142,0.00562086
3664.73400879,0.00556906
3666.66281616,0.00548759
3668.59162354,0.00523833
3670.52043091,0.00400877
3672.44923828,0.00519789
3674.37804565,0.00487568
3676.30685303,0.00381130
3678.23566040,0.00515860
3680.16446777,0.00526642
3682.09327515,0.00528453
3684.02208252,0.00545129
3685.95088989,0.00524644
3687.87969727,0.00471493
3689.80850464,0.00432641
3691.73731201,0.00490990
3693.66611938,0.00507285
3695.59492676,0.00527960
3697.52373413,0.00523040
3699.45254150,0.00516104
3701.38134888,0.00498103
3703.31015625,0.00473400
3705.23896362,0.00526502
3707.16777100,0.00498063
3709.09657837,0.00484324
3711.02538574,0.00450757
3712.95419312,0.00421025
3714.88300049,0.00497018
3716.81180786,0.00487400
3718.74061523,0.00493962
3720.66942261,0.00474733
3722.59822998,0.00455715
3724.52703735,0.00483560
3726.45584473,0.00439421
3728.38465210,0.00471678
3730.31345947,0.00469618
3732.24226685,0.00421964
3734.17107422,0.00413416
3736.09988159,0.00392195
3738.02868896,0.00413810
3739.95749634,0.00459805
3741.88630371,0.00481549
3743.81511108,0.00360381
3745.74391846,0.00330143
3747.67272583,0.00443733
3749.60153320,0.00373962
3751.53034058,0.00335624
3753.45914795,0.00399357
3755.38795532,0.00427692
3757.31676270,0.00452468
3759.24557007,0.00419522
3761.17437744,0.00429287
3763.10318481,0.00466204
3765.03199219,0.00433557
3766.96079956,0.00437112
3768.88960693,0.00423986
3770.81841431,0.00397286
3772.74722168,0.00435019
3774.67602905,0.00445976
3776.60483643,0.00450718
3778.53364380,0.00425445
3780.46245117,0.00406114
3782.39125854,0.00441095
3784.32006592,0.00420840
3786.24887329,0.00416245
3788.17768066,0.00442124
3790.10648804,0.00431082
3792.03529541,0.00419457
3793.96410278,0.00441740
3795.89291016,0.00396499
3797.82171753,0.00390739
3799.75052490,0.00433747
3801.67933228,0.00322224
3803.60813965,0.00388706
3805.53694702,0.00422568
3807.46575439,0.00326524
3809.39456177,0.00423706
3811.32336914,0.00405625
3813.25217651,0.00417964
3815.18098389,0.00372914
3817.10979126,0.00319786
3819.03859863,0.00432487
3820.96740601,0.00324566
3822.89621338,0.00338874
3824.82502075,0.00415018
3826.75382812,0.00366921
3828.68263550,0.00405095
3830.61144287,0.00380562
3832.54025024,0.00368708
3834.46905762,0.00377272
3836.39786499,0.00345337
3838.32667236,0.00314327
3840.25547974,0.00342607
3842.18428711,0.00366078
3844.11309448,0.00355562
3846.04190186,0.00387998
3847.97070923,0.00369067
3849.89951660,0.00379780
3851.82832397,0.00340119
3853.75713135,0.00239362
3855.68593872,0.00297367
3857.61474609,0.00376000
3859.54355347,0.00367821
3861.47236084,0.00361073
3863.40116821,0.00343963
3865.32997559,0.00320011
3867.25878296,0.00359287
3869.18759033,0.00318353
3871.11639770,0.00294449
3873.04520508,0.00366782
3874.97401245,0.00331724
3876.90281982,0.00362494
3878.83162720,0.00377113
3880.76043457,0.00316579
3882.68924194,0.00365572
3884.61804932,0.00332467
3886.54685669,0.00295115
3888.47566406,0.00366724
3890.40447144,0.00344643
3892.33327881,0.00303053
3894.26208618,0.00354188
3896.19089355,0.00361145
3898.11970093,0.00331631
3900.04850830,0.00321606
3901.97731567,0.00306814
3903.90612305,0.00305463
3905.83493042,0.00313388
3907.76373779,0.00349796
3909.69254517,0.00350181
3911.62135254,0.00328820
3913.55015991,0.00348241
3915.47896728,0.00337213
3917.40777466,0.00321252
3919.33658203,0.00324093
3921.26538940,0.00330592
3923.19419678,0.00328640
3925.12300415,0.00322240
3927.05181152,0.00333781
3928.98061890,0.00339246
3930.90942627,0.00326999
3932.83823364,0.00313683
3934.76704102,0.00330181
3936.69584839,0.00339957
3938.62465576,0.00332009
3940.55346313,0.00327795
3942.48227051,0.00312366
3944.41107788,0.00313764
3946.33988525,0.00322216
3948.26869263,0.00319451
3950.19750000,0.00317413
3952.12630737,0.00317711
3954.05511475,0.00322586
3955.98392212,0.00322958
3957.91272949,0.00321605
3959.84153687,0.00321716
3961.77034424,0.00317165
3963.69915161,0.00317064
3965.62795898,0.00316667
3967.55676636,0.00314061
3969.48557373,0.00313860
3971.41438110,0.00313945
3973.34318848,0.00321342
3975.27199585,0.00314717
3977.20080322,0.00314268
3979.12961060,0.00313155
3981.05841797,0.00297548
3982.98722534,0.00302520
3984.91603271,0.00292338
3986.84484009,0.00301918
3988.77364746,0.00313822
3990.70245483,0.00299379
3992.63126221,0.00307768
3994.56006958,0.00298513
3996.48887695,0.00296784
3998.41768433,0.00301743
4000.34649170,0.00298401
4002.27529907,0.00296239
4004.20410645,0.00287214
4006.13291382,0.00297036
4008.06172119,0.00297716
4009.99052856,0.00296868
4011.91933594,0.00295405
4013.84814331,0.00288031
4015.77695068,0.00284089
4017.70575806,0.00282305
4019.63456543,0.00287712
4021.56337280,0.00285608
4023.49218018,0.00288961
4025.42098755,0.00281828
4027.34979492,0.00285335
4029.27860229,0.00291087
4031.20740967,0.00277286
4033.13621704,0.00283574
4035.06502441,0.00283835
4036.99383179,0.00288818
4038.92263916,0.00289710
4040.85144653,0.00277463
4042.78025391,0.00281463
4044.70906128,0.00282356
4046.63786865,0.00283671
4048.56667603,0.00277902
4050.49548340,0.00271294
4052.42429077,0.00278879
4054.35309814,0.00277326
4056.28190552,0.00273669
4058.21071289,0.00273021
4060.13952026,0.00262533
4062.06832764,0.00266695
4063.99713501,0.00271208
4065.92594238,0.00263720
4067.85474976,0.00262680
4069.78355713,0.00258276
4071.71236450,0.00263129
4073.64117187,0.00260317
4075.56997925,0.00266071
4077.49878662,0.00267307
4079.42759399,0.00250652
4081.35640137,0.00265161
4083.28520874,0.00259879
4085.21401611,0.00264280
4087.14282349,0.00272312
4089.07163086,0.00253239
4091.00043823,0.00263743
4092.92924561,0.00259738
4094.85805298,0.00252733
4096.78686035,0.00252368
4098.71566772,0.00251278
4100.64447510,0.00256949
4102.57328247,0.00251572
4104.50208984,0.00253371
4106.43089722,0.00245047
4108.35970459,0.00250086
4110.28851196,0.00256678
4112.21731934,0.00237962
4114.14612671,0.00240432
4116.07493408,0.00252255
4118.00374145,0.00258776
4119.93254883,0.00249993
4121.86135620,0.00236285
4123.79016357,0.00245480
4125.71897095,0.00243281
4127.64777832,0.00237986
4129.57658569,0.00242172
4131.50539307,0.00238580
4133.43420044,0.00242954
4135.36300781,0.00231034
4137.29181519,0.00227391
4139.22062256,0.00242097
4141.14942993,0.00234368
4143.07823730,0.00236960
4145.00704468,0.00230269
4146.93585205,0.00230817
4148.86465942,0.00245005
4150.79346680,0.00229009
4152.72227417,0.00230326
4154.65108154,0.00234145
4156.57988892,0.00220851
4158.50869629,0.00222894
4160.43750366,0.00233998
4162.36631103,0.00229943
4164.29511841,0.00224559
4166.22392578,0.00228518
4168.15273315,0.00226443
4170.08154053,0.00231426
4172.01034790,0.00226453
4173.93915527,0.00224571
4175.86796265,0.00223841
4177.79677002,0.00217861
4179.72557739,0.00226363
4181.65438477,0.00216983
4183.58319214,0.00215740
4185.51199951,0.00221603
4187.44080688,0.00224312
4189.36961426,0.00230163
4191.29842163,0.00218077
4193.22722900,0.00211482
4195.15603638,0.00211772
4197.08484375,0.00220252
4199.01365112,0.00221272
4200.94245850,0.00208337
4202.87126587,0.00207514
4204.80007324,0.00209694
4206.72888062,0.00206488
4208.65768799,0.00207677
4210.58649536,0.00213429
4212.51530273,0.00208965
4214.44411011,0.00210407
4216.37291748,0.00207933
4218.30172485,0.00202260
4220.23053223,0.00210720
4222.15933960,0.00208167
4224.08814697,0.00207654
4226.01695435,0.00206563
4227.94576172,0.00202704
4229.87456909,0.00205713
4231.80337646,0.00202538
4233.73218384,0.00200135
4235.66099121,0.00198294
4237.58979858,0.00198962
4239.51860596,0.00202571
4241.44741333,0.00198717
4243.37622070,0.00193394
4245.30502808,0.00196440
4247.23383545,0.00202641
4249.16264282,0.00204943
4251.09145020,0.00189850
4253.02025757,0.00185324
4254.94906494,0.00199906
4256.87787231,0.00187715
4258.80667969,0.00185014
4260.73548706,0.00188053
4262.66429443,0.00182351
4264.59310181,0.00195738
4266.52190918,0.00189648
4268.45071655,0.00184801
4270.37952393,0.00193195
4272.30833130,0.00183963
4274.23713867,0.00182815
4276.16594604,0.00192777
4278.09475342,0.00185919
4280.02356079,0.00180194
4281.95236816,0.00188996
4283.88117554,0.00182280
4285.80998291,0.00179511
4287.73879028,0.00189517
4289.66759766,0.00184923
4291.59640503,0.00178704
4293.52521240,0.00180576
4295.45401978,0.00176488
4297.38282715,0.00175347
4299.31163452,0.00185687
4301.24044189,0.00182290
4303.16924927,0.00180166
4305.09805664,0.00184300
4307.02686401,0.00182953
4308.95567139,0.00185544
4310.88447876,0.00175882
4312.81328613,0.00175467
4314.74209351,0.00179063
4316.67090088,0.00167806
4318.59970825,0.00173577
4320.52851562,0.00176093
4322.45732300,0.00170767
4324.38613037,0.00177283
4326.31493774,0.00172982
4328.24374512,0.00171932
4330.17255249,0.00177317
4332.10135986,0.00167806
4334.03016724,0.00165180
4335.95897461,0.00168840
4337.88778198,0.00171622
4339.81658936,0.00171139
4341.74539673,0.00166248
4343.67420410,0.00166967
4345.60301147,0.00165543
4347.53181885,0.00167864
4349.46062622,0.00166052
4351.38943359,0.00167314
4353.31824097,0.00170001
4355.24704834,0.00163302
4357.17585571,0.00168012
4359.10466309,0.00161539
4361.03347046,0.00158312
4362.96227783,0.00165794
4364.89108520,0.00162334
4366.81989258,0.00164862
4368.74869995,0.00160787
4370.67750732,0.00154935
4372.60631470,0.00162126
4374.53512207,0.00166142
4376.46392944,0.00158358
4378.39273682,0.00157861
4380.32154419,0.00159822
4382.25035156,0.00151252
4384.17915894,0.00151103
4386.10796631,0.00156037
4388.03677368,0.00162313
4389.96558105,0.00157608
4391.89438843,0.00154089
4393.82319580,0.00162341
4395.75200317,0.00154872
4397.68081055,0.00150679
4399.60961792,0.00152339
4401.53842529,0.00153836
4403.46723267,0.00160577
4405.39604004,0.00158508
4407.32484741,0.00153444
4409.25365478,0.00153115
4411.18246216,0.00155780
4413.11126953,0.00157193
4415.04007690,0.00150721
4416.96888428,0.00139661
4418.89769165,0.00145706
4420.82649902,0.00150839
4422.75530640,0.00138153
4424.68411377,0.00142576
4426.61292114,0.00148883
4428.54172852,0.00144140
4430.47053589,0.00145895
4432.39934326,0.00143068
4434.32815063,0.00141364
4436.25695801,0.00144799
4438.18576538,0.00148203
4440.11457275,0.00148256
4442.04338013,0.00140703
4443.97218750,0.00144180
4445.90099487,0.00147552
4447.82980225,0.00141411
4449.75860962,0.00146026
4451.68741699,0.00147028
4453.61622437,0.00146725
4455.54503174,0.00150215
4457.47383911,0.00145299
4459.40264648,0.00136960
4461.33145386,0.00133384
4463.26026123,0.00140543
4465.18906860,0.00139470
4467.11787598,0.00135951
4469.04668335,0.00136995
4470.97549072,0.00135265
4472.90429810,0.00142145
4474.83310547,0.00137948
4476.76191284,0.00133184
4478.69072021,0.00137669
4480.61952759,0.00136223
4482.54833496,0.00138668
4484.47714233,0.00132477
4486.40594971,0.00130018
4488.33475708,0.00135847
4490.26356445,0.00129022
4492.19237183,0.00127586
4494.12117920,0.00126103
4496.04998657,0.00129884
4497.97879395,0.00138293
4499.90760132,0.00124830
4501.83640869,0.00123920
4503.76521606,0.00131481
4505.69402344,0.00130286
4507.62283081,0.00130370
4509.55163818,0.00120605
4511.48044556,0.00121781
4513.40925293,0.00128371
4515.33806030,0.00129844
4517.26686768,0.00123464
4519.19567505,0.00120163
4521.12448242,0.00127159
4523.05328979,0.00120475
4524.98209717,0.00126103
4526.91090454,0.00121199
4528.83971191,0.00113924
4530.76851929,0.00124614
4532.69732666,0.00116902
4534.62613403,0.00120028
4536.55494141,0.00121203
4538.48374878,0.00122311
4540.41255615,0.00122148
4542.34136353,0.00112406
4544.27017090,0.00120373
4546.19897827,0.00115757
4548.12778564,0.00115313
4550.05659302,0.00119573
4551.98540039,0.00117288
4553.91420776,0.00120869
4555.84301514,0.00113791
4557.77182251,0.00111254
4559.70062988,0.00115893
4561.62943726,0.00119228
4563.55824463,0.00116239
4565.48705200,0.00110491
4567.41585937,0.00111606
4569.34466675,0.00118011
4571.27347412,0.00117121
4573.20228149,0.00112063
4575.13108887,0.00119198
4577.05989624,0.00116032
4578.98870361,0.00104298
4580.91751099,0.00102310
4582.84631836,0.00112640
4584.77512573,0.00115368
4586.70393311,0.00109564
4588.63274048,0.00114999
4590.56154785,0.00110233
4592.49035522,0.00108249
4594.41916260,0.00107724
4596.34796997,0.00101247
4598.27677734,0.00098841
4600.20558472,0.00102191
4602.13439209,0.00115658
4604.06319946,0.00111437
4605.99200684,0.00105002
4607.92081421,0.00105588
4609.84962158,0.00107627
4611.77842895,0.00106649
4613.70723633,0.00100496
4615.63604370,0.00107171
4617.56485107,0.00100165
4619.49365845,0.00100917
4621.42246582,0.00111431
4623.35127319,0.00104459
4625.28008057,0.00102136
4627.20888794,0.00104038
4629.13769531,0.00099866
4631.06650269,0.00094157
4632.99531006,0.00101308
4634.92411743,0.00099294
4636.85292480,0.00101725
4638.78173218,0.00106920
4640.71053955,0.00096140
4642.63934692,0.00104527
4644.56815430,0.00101398
4646.49696167,0.00096569
4648.42576904,0.00097951
4650.35457642,0.00092817
4652.28338379,0.00100863
4654.21219116,0.00093881
4656.14099853,0.00093991
4658.06980591,0.00102423
4659.99861328,0.00099559
4661.92742065,0.00096191
4663.85622803,0.00091881
4665.78503540,0.00096854
4667.71384277,0.00097238
4669.64265015,0.00098985
4671.57145752,0.00104018
4673.50026489,0.00098006
4675.42907227,0.00091524
4677.35787964,0.00096386
4679.28668701,0.00098761
4681.21549438,0.00085348
4683.14430176,0.00091078
4685.07310913,0.00102654
4687.00191650,0.00094231
4688.93072388,0.00086552
4690.85953125,0.00085531
4692.78833862,0.00090780
4694.71714600,0.00090408
4696.64595337,0.00089477
4698.57476074,0.00090123
4700.50356812,0.00087214
4702.43237549,0.00087306
4704.36118286,0.00088824
4706.28999023,0.00093571
4708.21879761,0.00088667
4710.14760498,0.00086678
4712.07641235,0.00090215
4714.00521973,0.00086412
4715.93402710,0.00092676
4717.86283447,0.00092354
4719.79164185,0.00087229
4721.72044922,0.00084894
4723.64925659,0.00081890
4725.57806396,0.00089057
4727.50687134,0.00087417
4729.43567871,0.00087256
4731.36448608,0.00087441
4733.29329346,0.00081091
4735.22210083,0.00087688
4737.15090820,0.00085890
4739.07971558,0.00083433
4741.00852295,0.00088943
4742.93733032,0.00085768
4744.86613770,0.00088952
4746.79494507,0.00090560
4748.72375244,0.00082199
4750.65255981,0.00080763
4752.58136719,0.00080182
4754.51017456,0.00079916
4756.43898193,0.00084600
4758.36778931,0.00083787
4760.29659668,0.00084321
4762.22540405,0.00083337
4764.15421143,0.00077967
4766.08301880,0.00075957
4768.01182617,0.00081542
4769.94063354,0.00086787
4771.86944092,0.00067631
4773.79824829,0.00070470
4775.72705566,0.00088448
4777.65586304,0.00071383
4779.58467041,0.00071994
4781.51347778,0.00078641
4783.44228516,0.00077603
4785.37109253,0.00084584
4787.29989990,0.00076144
4789.22870728,0.00076371
4791.15751465,0.00082214
4793.08632202,0.00081797
4795.01512939,0.00080779
4796.94393677,0.00079144
4798.87274414,0.00078859
4800.80155151,0.00072636
4802.73035889,0.00072276
4804.65916626,0.00070720
4806.58797363,0.00067469
4808.51678101,0.00070453
4810.44558838,0.00073044
4812.37439575,0.00073698
4814.30320312,0.00067251
4816.23201050,0.00074409
4818.16081787,0.00081653
4820.08962524,0.00069695
4822.01843262,0.00074963
4823.94723999,0.00081057
4825.87604736,0.00070321
4827.80485474,0.00072297
4829.73366211,0.00072401
4831.66246948,0.00068603
4833.59127686,0.00073110
4835.52008423,0.00070623
4837.44889160,0.00068782
4839.37769897,0.00066817
4841.30650635,0.00065241
4843.23531372,0.00065546
4845.16412109,0.00060894
4847.09292847,0.00064541
4849.02173584,0.00068196
4850.95054321,0.00067660
4852.87935059,0.00070820
4854.80815796,0.00074783
4856.73696533,0.00075288
4858.66577270,0.00075205
4860.59458008,0.00073852
4862.52338745,0.00066258
4864.45219482,0.00071987
4866.38100220,0.00073237
4868.30980957,0.00065886
4870.23861694,0.00072364
4872.16742432,0.00068175
4874.09623169,0.00060557
4876.02503906,0.00060079
4877.95384644,0.00064930
4879.88265381,0.00072607
4881.81146118,0.00066065
4883.74026855,0.00059966
4885.66907593,0.00063359
4887.59788330,0.00066937
4889.52669067,0.00064736
4891.45549805,0.00059760
4893.38430542,0.00060878
4895.31311279,0.00064023
4897.24192017,0.00061892
4899.17072754,0.00065893
4901.09953491,0.00068291
4903.02834228,0.00058213
4904.95714966,0.00065395
4906.88595703,0.00065617
4908.81476440,0.00053830
4910.74357178,0.00062282
4912.67237915,0.00061211
4914.60118652,0.00057298
4916.52999390,0.00061248
4918.45880127,0.00063344
4920.38760864,0.00061979
4922.31641602,0.00056640
4924.24522339,0.00060850
4926.17403076,0.00062084
4928.10283813,0.00062868
4930.03164551,0.00064395
4931.96045288,0.00060330
4933.88926025,0.00055031
4935.81806763,0.00048947
4937.74687500,0.00058007
4939.67568237,0.00063706
4941.60448975,0.00057684
4943.53329712,0.00057540
4945.46210449,0.00057556
4947.39091187,0.00057211
4949.31971924,0.00061227
4951.24852661,0.00065777
4953.17733398,0.00054300
4955.10614136,0.00049782
4957.03494873,0.00060205
4958.96375610,0.00053561
4960.89256348,0.00054963
4962.82137085,0.00055140
4964.75017822,0.00046789
4966.67898560,0.00058202
4968.60779297,0.00054873
4970.53660034,0.00051204
4972.46540771,0.00057930
4974.39421509,0.00053124
4976.32302246,0.00055927
4978.25182983,0.00053915
4980.18063721,0.00052058
4982.10944458,0.00051234
4984.03825195,0.00050205
4985.96705933,0.00054944
4987.89586670,0.00047910
4989.82467407,0.00048547
4991.75348145,0.00052291
4993.68228882,0.00057083
4995.61109619,0.00058117
4997.53990356,0.00050805
4999.46871094,0.00052568
5001.39751831,0.00045401
5003.32632568,0.00051244
5005.25513306,0.00058042
5007.18394043,0.00050146
5009.11274780,0.00054299
5011.04155518,0.00053993
5012.97036255,0.00053173
5014.89916992,0.00053234
5016.82797729,0.00049691
5018.75678467,0.00048584
5020.68559204,0.00051602
5022.61439941,0.00049662
5024.54320679,0.00050317
5026.47201416,0.00057165
5028.40082153,0.00049516
5030.32962891,0.00053727
5032.25843628,0.00052287
5034.18724365,0.00044765
5036.11605103,0.00049354
5038.04485840,0.00041946
5039.97366577,0.00050418
5041.90247314,0.00052692
5043.83128052,0.00045985
5045.76008789,0.00056995
5047.68889526,0.00054132
5049.61770264,0.00045297
5051.54651001,0.00044152
5053.47531738,0.00044145
5055.40412476,0.00047408
5057.33293213,0.00052479
5059.26173950,0.00044815
5061.19054687,0.00035322
5063.11935425,0.00041120
5065.04816162,0.00048116
5066.97696899,0.00050676
5068.90577637,0.00048917
5070.83458374,0.00044691
5072.76339111,0.00046327
5074.69219849,0.00051672
5076.62100586,0.00043392
5078.54981323,0.00038866
5080.47862061,0.00041478
5082.40742798,0.00039812
5084.33623535,0.00048566
5086.26504272,0.00040324
5088.19385010,0.00034492
5090.12265747,0.00045924
5092.05146484,0.00046498
5093.98027222,0.00046710
5095.90907959,0.00039008
5097.83788696,0.00039557
5099.76669434,0.00049404
5101.69550171,0.00044811
5103.62430908,0.00038625
5105.55311645,0.00040354
5107.48192383,0.00043022
5109.41073120,0.00036991
5111.33953857,0.00039338
5113.26834595,0.00045674
5115.19715332,0.00039042
5117.12596069,0.00036472
5119.05476807,0.00038187
5120.98357544,0.00044181
5122.91238281,0.00052981
5124.84119019,0.00043141
5126.76999756,0.00038465
5128.69880493,0.00045675
5130.62761230,0.00043622
5132.55641968,0.00046285
5134.48522705,0.00039052
5136.41403442,0.00036177
5138.34284180,0.00042341
5140.27164917,0.00038768
5142.20045654,0.00042542
5144.12926392,0.00037265
5146.05807129,0.00039216
5147.98687866,0.00041457
5149.91568603,0.00030708
5151.84449341,0.00036792
5153.77330078,0.00043003
5155.70210815,0.00043537
5157.63091553,0.00038750
5159.55972290,0.00036124
5161.48853027,0.00037951
5163.41733765,0.00038456
5165.34614502,0.00041427
5167.27495239,0.00042016
5169.20375977,0.00042716
5171.13256714,0.00037290
5173.06137451,0.00033948
5174.99018188,0.00030958
5176.91898926,0.00030495
5178.84779663,0.00037776
5180.77660400,0.00041583
5182.70541138,0.00041599
5184.63421875,0.00039225
5186.56302612,0.00042361
5188.49183350,0.00034515
5190.42064087,0.00031116
5192.34944824,0.00037594
5194.27825562,0.00034139
5196.20706299,0.00037612
5198.13587036,0.00041487
5200.06467773,0.00041957
5201.99348511,0.00034373
5203.92229248,0.00034798
5205.85109985,0.00042391
5207.77990723,0.00038187
5209.70871460,0.00037730
5211.63752197,0.00035905
5213.56632935,0.00037116
5215.49513672,0.00039174
5217.42394409,0.00039165
5219.35275146,0.00034273
5221.28155884,0.00036252
5223.21036621,0.00042852
5225.13917358,0.00027818
5227.06798096,0.00026394
5228.99678833,0.00030883
5230.92559570,0.00030666
5232.85440308,0.00035722
5234.78321045,0.00032945
5236.71201782,0.00034786
5238.64082520,0.00037871
5240.56963257,0.00034930
5242.49843994,0.00029198
5244.42724731,0.00034542
5246.35605469,0.00032854
5248.28486206,0.00029591
5250.21366943,0.00038123
5252.14247681,0.00028396
5254.07128418,0.00028375
5256.00009155,0.00035036
5257.92889893,0.00028621
5259.85770630,0.00028038
5261.78651367,0.00033612
5263.71532104,0.00034652
5265.64412842,0.00028883
5267.57293579,0.00025990
5269.50174316,0.00024845
5271.43055054,0.00033948
5273.35935791,0.00036066
5275.28816528,0.00032651
5277.21697266,0.00038951
5279.14578003,0.00033887
5281.07458740,0.00031224
5283.00339478,0.00031561
5284.93220215,0.00030906
5286.86100952,0.00030235
5288.78981689,0.00025053
5290.71862427,0.00031661
5292.64743164,0.00036703
5294.57623901,0.00031092
5296.50504639,0.00031383
5298.43385376,0.00028561
5300.36266113,0.00025640
5302.29146851,0.00032279
5304.22027588,0.00030128
5306.14908325,0.00029761
5308.07789062,0.00028275
5310.00669800,0.00027114
5311.93550537,0.00035059
5313.86431274,0.00030248
5315.79312012,0.00025116
5317.72192749,0.00021113
5319.65073486,0.00025221
5321.57954224,0.00025442
5323.50834961,0.00023399
5325.43715698,0.00034265
5327.36596436,0.00024794
5329.29477173,0.00025965
5331.22357910,0.00029273
5333.15238647,0.00021516
5335.08119385,0.00026438
5337.01000122,0.00026974
5338.93880859,0.00023546
5340.86761597,0.00015300
5342.79642334,0.00022601
5344.72523071,0.00031515
5346.65403809,0.00025037
5348.58284546,0.00023126
5350.51165283,0.00023890
5352.44046020,0.00019648
5354.36926758,0.00017177
5356.29807495,0.00024495
5358.22688232,0.00024765
5360.15568970,0.00032668
5362.08449707,0.00029487
5364.01330444,0.00025689
5365.94211182,0.00035156
5367.87091919,0.00022391
5369.79972656,0.00027643
5371.72853394,0.00027337
5373.65734131,0.00024394
5375.58614868,0.00027764
5377.51495605,0.00019109
5379.44376343,0.00030603
5381.37257080,0.00020977
5383.30137817,0.00017425
5385.23018555,0.00027942
5387.15899292,0.00021356
5389.08780029,0.00025654
5391.01660767,0.00025056
5392.94541504,0.00018017
5394.87422241,0.00020122
5396.80302978,0.00030748
5398.73183716,0.00029326
5400.66064453,0.00025569
5402.58945190,0.00021046
5404.51825928,0.00016349
5406.44706665,0.00026874
5408.37587402,0.00021760
5410.30468140,0.00016983
5412.23348877,0.00018128
5414.16229614,0.00020569
5416.09110352,0.00024651
5418.01991089,0.00021479
5419.94871826,0.00027039
5421.87752563,0.00022000
5423.80633301,0.00017490
5425.73514038,0.00022911
5427.66394775,0.00023462
5429.59275513,0.00021172
5431.52156250,0.00023011
5433.45036987,0.00031059
5435.37917725,0.00022786
5437.30798462,0.00019289
5439.23679199,0.00023778
5441.16559936,0.00020664
5443.09440674,0.00020744
5445.02321411,0.00017573
5446.95202148,0.00019623
5448.88082886,0.00021387
5450.80963623,0.00021781
5452.73844360,0.00026387
5454.66725098,0.00017975
5456.59605835,0.00010592
5458.52486572,0.00016457
5460.45367310,0.00020489
5462.38248047,0.00022546
5464.31128784,0.00023841
5466.24009521,0.00023251
5468.16890259,0.00019138
5470.09770996,0.00016473
5472.02651733,0.00024479
5473.95532471,0.00022133
5475.88413208,0.00015771
5477.81293945,0.00019344
5479.74174683,0.00020939
5481.67055420,0.00021922
5483.59936157,0.00022521
5485.52816895,0.00024314
5487.45697632,0.00016934
5489.38578369,0.00016410
5491.31459106,0.00022438
5493.24339844,0.00017716
5495.17220581,0.00023519
5497.10101318,0.00020171
5499.02982056,0.00011950
5500.95862793,0.00013954
5502.88743530,0.00015847
5504.81624268,0.00020412
5506.74505005,0.00019785
5508.67385742,0.00020027
5510.60266479,0.00018578
5512.53147217,0.00019807
5514.46027954,0.00020825
5516.38908691,0.00017851
5518.31789429,0.00020993
5520.24670166,0.00020133
5522.17550903,0.00020395
5524.10431641,0.00017940
5526.03312378,0.00017895
5527.96193115,0.00019366
5529.89073853,0.00018665
5531.81954590,0.00027760
5533.74835327,0.00024867
5535.67716064,0.00018578
5537.60596802,0.00018964
5539.53477539,0.00020635
5541.46358276,0.00021591
5543.39239014,0.00013672
5545.32119751,0.00013237
5547.25000488,0.00013031
5549.17881226,0.00017471
5551.10761963,0.00025386
5553.03642700,0.00019088
5554.96523437,0.00016793
5556.89404175,0.00014527
5558.82284912,0.00015657
5560.75165649,0.00018283
5562.68046387,0.00014110
5564.60927124,0.00016974
5566.53807861,0.00019133
5568.46688599,0.00018920
5570.39569336,0.00015041
5572.32450073,0.00017349
5574.25330811,0.00022074
5576.18211548,0.00017062
5578.11092285,0.00019014
5580.03973022,0.00017539
5581.96853760,0.00017865
5583.89734497,0.00018947
5585.82615234,0.00012613
5587.75495972,0.00016271
5589.68376709,0.00019961
5591.61257446,0.00018358
5593.54138184,0.00017856
5595.47018921,0.00025691
5597.39899658,0.00023142
5599.32780395,0.00011984
5601.25661133,0.00016250
5603.18541870,0.00014551
5605.11422607,0.00012914
5607.04303345,0.00015922
5608.97184082,0.00015193
5610.90064819,0.00012883
5612.82945557,0.00013890
5614.75826294,0.00018641
5616.68707031,0.00013028
5618.61587769,0.00016926
5620.54468506,0.00016763
5622.47349243,0.00010873
5624.40229980,0.00018304
5626.33110718,0.00014332
5628.25991455,0.00013792
5630.18872192,0.00017936
5632.11752930,0.00013748
5634.04633667,0.00012422
5635.97514404,0.00015751
5637.90395142,0.00018099
5639.83275879,0.00015587
5641.76156616,0.00016375
5643.69037353,0.00019045
5645.61918091,0.00016389
5647.54798828,0.00012742
5649.47679565,0.00015848
5651.40560303,0.00012641
5653.33441040,0.00016905
5655.26321777,0.00024511
5657.19202515,0.00008647
5659.12083252,0.00010068
5661.04963989,0.00016305
5662.97844727,0.00017562
5664.90725464,0.00017205
5666.83606201,-0.00001934
5668.76486938,0.00009219
5670.69367676,0.00018290
5672.62248413,0.00006001
5674.55129150,0.00007836
5676.48009888,0.00010119
5678.40890625,0.00018887
5680.33771362,0.00016455
5682.26652100,0.00012615
5684.19532837,0.00017498
5686.12413574,0.00013644
5688.05294311,0.00015535
5689.98175049,0.00011586
5691.91055786,0.00010406
5693.83936523,0.00013324
5695.76817261,0.00009689
5697.69697998,0.00016589
5699.62578735,0.00017607
5701.55459473,0.00014366
5703.48340210,0.00015350
5705.41220947,0.00012600
5707.34101685,0.00012004
5709.26982422,0.00011747
5711.19863159,0.00015962
5713.12743896,0.00012628
5715.05624634,0.00006500
5716.98505371,0.00014656
5718.91386108,0.00014242
5720.84266846,0.00012439
5722.77147583,0.00016120
5724.70028320,0.00016586
5726.62909058,0.00017976
5728.55789795,0.00015054
5730.48670532,0.00014254
5732.41551270,0.00010647
5734.34432007,0.00011920
5736.27312744,0.00016995
5738.20193481,0.00012542
5740.13074219,0.00017580
5742.05954956,0.00013424
5743.98835693,0.00004972
5745.91716431,0.00009722
5747.84597168,0.00008808
5749.77477905,0.00012323
5751.70358643,0.00014715
5753.63239380,0.00015200
5755.56120117,0.00014117
5757.49000854,0.00010354
5759.41881592,0.00013828
5761.34762329,0.00004904
5763.27643066,0.00002123
5765.20523804,0.00008147
5767.13404541,0.00008530
5769.06285278,0.00012916
5770.99166016,0.00009017
5772.92046753,0.00011865
5774.84927490,0.00017452
5776.77808228,0.00014308
5778.70688965,0.00011248
5780.63569702,0.00008706
5782.56450439,0.00010634
5784.49331177,0.00005398
5786.42211914,0.00008622
5788.35092651,0.00014870
5790.27973389,0.00008202
5792.20854126,0.00008598
5794.13734863,0.00010297
5796.06615601,0.00009929
5797.99496338,0.00010067
5799.92377075,0.00010838
5801.85257812,0.00009413
5803.78138550,0.00007785
5805.71019287,0.00011032
5807.63900024,0.00010247
5809.56780762,0.00008302
5811.49661499,0.00003770
5813.42542236,0.00008993
5815.35422974,0.00016982
5817.28303711,0.00010429
5819.21184448,0.00008354
5821.14065186,0.00015112
5823.06945923,0.00019628
5824.99826660,0.00008532
5826.92707397,0.00006342
5828.85588135,0.00013569
5830.78468872,0.00009904
5832.71349609,0.00013374
5834.64230347,0.00010310
5836.57111084,0.00008435
5838.49991821,0.00009760
5840.42872559,0.00005324
5842.35753296,0.00009831
5844.28634033,0.00011109
5846.21514770,0.00009495
5848.14395508,0.00007905
5850.07276245,0.00008197
5852.00156982,0.00010128
5853.93037720,0.00008738
5855.85918457,0.00008549
5857.78799194,0.00006458
5859.71679932,0.00008961
5861.64560669,0.00012591
5863.57441406,0.00008337
5865.50322144,0.00007645
5867.43202881,0.00010046
5869.36083618,0.00011642
5871.28964355,0.00010311
5873.21845093,0.00001173
5875.14725830,0.00005690
5877.07606567,0.00014245
5879.00487305,0.00006897
5880.93368042,0.00009550
5882.86248779,0.00013147
5884.79129517,0.00008054
5886.72010254,0.00009527
5888.64890991,0.00008218
5890.57771728,0.00008494
5892.50652466,0.00012631
5894.43533203,0.00008626
5896.36413940,0.00002420
5898.29294678,0.00003265
5900.22175415,0.00009735
5902.15056152,0.00013552
5904.07936890,0.00010585
5906.00817627,0.00009157
5907.93698364,0.00008460
5909.86579102,0.00006804
5911.79459839,0.00009348
5913.72340576,0.00004662
5915.65221313,0.00005320
5917.58102051,0.00009579
5919.50982788,0.00005210
5921.43863525,0.00013930
5923.36744263,0.00011624
5925.29625000,0.00001089
5927.22505737,0.00010885
5929.15386475,0.00012926
5931.08267212,0.00007156
5933.01147949,0.00011043
5934.94028686,0.00007917
5936.86909424,0.00001778
5938.79790161,0.00009716
5940.72670898,0.00012734
5942.65551636,0.00007373
5944.58432373,0.00005485
5946.51313110,0.00006993
5948.44193848,0.00005683
5950.37074585,0.00002653
5952.29955322,0.00010582
5954.22836060,0.00009744
5956.15716797,0.00005481
5958.08597534,0.00008892
5960.01478271,0.00008781
5961.94359009,0.00012968
5963.87239746,0.00011660
5965.80120483,0.00009395
5967.73001221,0.00010198
5969.65881958,0.00008190
5971.58762695,0.00007357
5973.51643433,0.00009841
5975.44524170,0.00008615
5977.37404907,0.00001386
5979.30285645,0.00008785
5981.23166382,0.00007464
5983.16047119,0.00005627
5985.08927856,0.00013881
5987.01808594,0.00003664
5988.94689331,0.00005052
5990.87570068,0.00009341
5992.80450806,0.00004802
5994.73331543,0.00007749
5996.66212280,0.00011562
5998.59093018,0.00012996
6000.51973755,0.00004486
