399.26312622,0.00066560
401.19193359,0.00069807
403.12074097,0.00077469
405.04954834,0.00041803
406.97835571,0.00061495
408.90716309,0.00075989
410.83597046,0.00029495
412.76477783,0.00069396
414.69358521,0.00133435
416.62239258,0.00103188
418.55119995,0.00069520
420.48000732,0.00079676
422.40881470,0.00067262
424.33762207,0.00079650
426.26642944,0.00128006
428.19523682,0.00144659
430.12404419,0.00097874
432.05285156,0.00068066
433.98165894,0.00092086
435.91046631,0.00059154
437.83927368,0.00061499
439.76808105,0.00089158
441.69688843,0.00086932
443.62569580,0.00089964
445.55450317,0.00076382
447.48331055,0.00114170
449.41211792,0.00097911
451.34092529,0.00042855
453.26973267,0.00052223
455.19854004,0.00055816
457.12734741,0.00055215
459.05615479,0.00073091
460.98496216,0.00086841
462.91376953,0.00063629
464.84257690,0.00057435
466.77138428,0.00070108
468.70019165,0.00084678
470.62899902,0.00061191
472.55780640,0.00042207
474.48661377,0.00078184
476.41542114,0.00029058
478.34422852,0.00014936
480.27303589,0.00048223
482.20184326,0.00021173
484.13065063,0.00021740
486.05945801,0.00035544
487.98826538,0.00022348
489.91707275,0.00020778
491.84588013,0.00032544
493.77468750,0.00015979
495.70349487,0.00021328
497.63230225,0.00007661
499.56110962,0.00020566
501.48991699,0.00028353
503.41872437,0.00014496
505.34753174,0.00028975
507.27633911,-0.00004490
509.20514648,0.00017498
511.13395386,0.00042086
513.06276123,0.00028183
514.99156860,0.00032047
516.92037598,0.00037178
518.84918335,0.00024647
520.77799072,-0.00008505
522.70679810,0.00042719
524.63560547,0.00038010
526.56441284,-0.00004629
528.49322021,0.00047197
530.42202759,0.00023629
532.35083496,0.00006107
534.27964233,0.00036788
536.20844971,0.00001546
538.13725708,-0.00001554
540.06606445,0.00044774
541.99487183,0.00028781
543.92367920,0.00002119
545.85248657,0.00028923
547.78129395,0.00013464
549.71010132,0.00016329
551.63890869,0.00009665
553.56771606,-0.00016075
555.49652344,0.00020920
557.42533081,0.00004619
559.35413818,0.00049646
561.28294556,0.00054479
563.21175293,0.00023945
565.14056030,0.00049447
567.06936768,0.00028405
568.99817505,0.00012199
570.92698242,0.00003794
572.85578979,0.00023318
574.78459717,0.00020322
576.71340454,-0.00012452
578.64221191,0.00007992
580.57101929,0.00010162
582.49982666,-0.00011969
584.42863403,0.00001090
586.35744141,0.00009686
588.28624878,0.00007830
590.21505615,0.00038933
592.14386353,0.00038997
594.07267090,0.00006664
596.00147827,0.00013948
597.93028564,0.00026248
599.85909302,-0.00001256
601.78790039,-0.00005963
603.71670776,0.00031388
605.64551514,0.00042535
607.57432251,0.00033353
609.50312988,0.00016433
611.43193726,0.00026803
613.36074463,-0.00013201
615.28955200,-0.00029225
617.21835938,0.00019505
619.14716675,-0.00013544
621.07597412,0.00008257
623.00478149,0.00041917
624.93358887,0.00015549
626.86239624,0.00009044
628.79120361,0.00004892
630.72001099,0.00040354
632.64881836,0.00057410
634.57762573,0.00054961
636.50643311,0.00092740
638.43524048,0.00087792
640.36404785,0.00054216
642.29285522,0.00087091
644.22166260,0.00105034
646.15046997,0.00097965
648.07927734,0.00104189
650.00808472,0.00111502
651.93689209,0.00148328
653.86569946,0.00126564
655.79450684,0.00099860
657.72331421,0.00108608
659.65212158,0.00116266
661.58092896,0.00146872
663.50973633,0.00161522
665.43854370,0.00163416
667.36735107,0.00127942
669.29615845,0.00155793
671.22496582,0.00191035
673.15377319,0.00160719
675.08258057,0.00180755
677.01138794,0.00174858
678.94019531,0.00189963
680.86900269,0.00208548
682.79781006,0.00191926
684.72661743,0.00194951
686.65542480,0.00168283
688.58423218,0.00161856
690.51303955,0.00177277
692.44184692,0.00196474
694.37065430,0.00229803
696.29946167,0.00259012
698.22826904,0.00268934
700.15707642,0.00271772
702.08588379,0.00253777
704.01469116,0.00228845
705.94349854,0.00231655
707.87230591,0.00181554
709.80111328,0.00129443
711.72992065,0.00108774
713.65872803,0.00082388
715.58753540,0.00067085
717.51634277,0.00046491
719.44515015,0.00023804
721.37395752,0.00032504
723.30276489,0.00047107
725.23157227,-0.00006710
727.16037964,0.00003873
729.08918701,0.00036177
731.01799438,0.00011327
732.94680176,0.00028015
734.87560913,0.00026953
736.80441650,0.00033473
738.73322388,-0.00004278
740.66203125,0.00003092
742.59083862,0.00036442
744.51964600,-0.00007928
746.44845337,0.00026846
748.37726074,0.00014990
750.30606812,0.00020260
752.23487549,0.00045524
754.16368286,0.00020147
756.09249023,0.00035787
758.02129761,0.00028008
759.95010498,0.00058117
761.87891235,0.00012675
763.80771973,-0.00006328
765.73652710,0.00043800
767.66533447,0.00008340
769.59414185,0.00038554
771.52294922,0.00042191
773.45175659,0.00018328
775.38056396,0.00013589
777.30937134,0.00027206
779.23817871,0.00037939
781.16698608,0.00001929
783.09579346,0.00041210
785.02460083,0.00023852
786.95340820,0.00014980
788.88221558,0.00039506
790.81102295,0.00013284
792.73983032,0.00039351
794.66863770,0.00044140
796.59744507,0.00049614
798.52625244,0.00049538
800.45505981,0.00043012
802.38386719,0.00053666
804.31267456,0.00034553
806.24148193,0.00024700
808.17028931,0.00030969
810.09909668,0.00039071
812.02790405,0.00050863
813.95671143,0.00059744
815.88551880,0.00033039
817.81432617,0.00040799
819.74313354,0.00045213
821.67194092,0.00015888
823.60074829,0.00031073
825.52955566,0.00020181
827.45836304,0.00021982
829.38717041,0.00024001
831.31597778,0.00035597
833.24478516,0.00053949
835.17359253,0.00041552
837.10239990,0.00071822
839.03120728,0.00042041
840.96001465,0.00043455
842.88882202,0.00072358
844.81762939,0.00037728
846.74643677,0.00060135
848.67524414,0.00054101
850.60405151,0.00039321
852.53285889,0.00062361
854.46166626,0.00049280
856.39047363,0.00026038
858.31928101,0.00041837
860.24808838,0.00047220
862.17689575,0.00027634
864.10570313,0.00041244
866.03451050,0.00044782
867.96331787,0.00060474
869.89212524,0.00066388
871.82093262,0.00043402
873.74973999,0.00030732
875.67854736,0.00033367
877.60735474,0.00061165
879.53616211,0.00053249
881.46496948,0.00046503
883.39377686,0.00044816
885.32258423,0.00043899
887.25139160,0.00040534
889.18019897,0.00023925
891.10900635,0.00054851
893.03781372,0.00039093
894.96662109,0.00030494
896.89542847,0.00051903
898.82423584,0.00047198
900.75304321,0.00050573
902.68185059,0.00035151
904.61065796,0.00066266
906.53946533,0.00062468
908.46827271,0.00035654
910.39708008,0.00046742
912.32588745,0.00056964
914.25469482,0.00076287
916.18350220,0.00051815
918.11230957,0.00053450
920.04111694,0.00056116
921.96992432,0.00062883
923.89873169,0.00071312
925.82753906,0.00057257
927.75634644,0.00081299
929.68515381,0.00078828
931.61396118,0.00104483
933.54276855,0.00107639
935.47157593,0.00077044
937.40038330,0.00095633
939.32919067,0.00106512
941.25799805,0.00107656
943.18680542,0.00102489
945.11561279,0.00114763
947.04442017,0.00100657
948.97322754,0.00093662
950.90203491,0.00110489
952.83084229,0.00116072
954.75964966,0.00131462
956.68845703,0.00112430
958.61726440,0.00115732
960.54607178,0.00123755
962.47487915,0.00106809
964.40368652,0.00096675
966.33249390,0.00111104
968.26130127,0.00119064
970.19010864,0.00112678
972.11891602,0.00154800
974.04772339,0.00146833
975.97653076,0.00137811
977.90533813,0.00157247
979.83414551,0.00161353
981.76295288,0.00180300
983.69176025,0.00174254
985.62056763,0.00198397
987.54937500,0.00229166
989.47818237,0.00251313
991.40698975,0.00263259
993.33579712,0.00277736
995.26460449,0.00299963
997.19341187,0.00317764
999.12221924,0.00365428
1001.05102661,0.00377949
1002.97983398,0.00423425
1004.90864136,0.00430284
1006.83744873,0.00428920
1008.76625610,0.00504548
1010.69506348,0.00510874
1012.62387085,0.00540424
1014.55267822,0.00551257
1016.48148560,0.00572098
1018.41029297,0.00633394
1020.33910034,0.00638130
1022.26790771,0.00677722
1024.19671509,0.00698579
1026.12552246,0.00711876
1028.05432983,0.00731802
1029.98313721,0.00759371
1031.91194458,0.00813732
1033.84075195,0.00827293
1035.76955933,0.00820260
1037.69836670,0.00812340
1039.62717407,0.00831409
1041.55598145,0.00834696
1043.48478882,0.00827022
1045.41359619,0.00827786
1047.34240356,0.00787106
1049.27121094,0.00766965
1051.20001831,0.00780669
1053.12882568,0.00770123
1055.05763306,0.00740575
1056.98644043,0.00727660
1058.91524780,0.00700266
1060.84405518,0.00680471
1062.77286255,0.00674250
1064.70166992,0.00631720
1066.63047729,0.00616280
1068.55928467,0.00616642
1070.48809204,0.00594621
1072.41689941,0.00567458
1074.34570679,0.00534314
1076.27451416,0.00509553
1078.20332153,0.00479578
1080.13212891,0.00456033
1082.06093628,0.00454396
1083.98974365,0.00428154
1085.91855103,0.00406184
1087.84735840,0.00408738
1089.77616577,0.00383925
1091.70497314,0.00370373
1093.63378052,0.00368570
1095.56258789,0.00346651
1097.49139526,0.00318643
1099.42020264,0.00321093
1101.34901001,0.00326299
1103.27781738,0.00284959
1105.20662476,0.00289098
1107.13543213,0.00293458
1109.06423950,0.00289238
1110.99304687,0.00312736
1112.92185425,0.00294916
1114.85066162,0.00293473
1116.77946899,0.00282965
1118.70827637,0.00280284
1120.63708374,0.00305478
1122.56589111,0.00299978
1124.49469849,0.00295189
1126.42350586,0.00312837
1128.35231323,0.00333468
1130.28112061,0.00311999
1132.20992798,0.00316783
1134.13873535,0.00337061
1136.06754272,0.00335268
1137.99635010,0.00353014
1139.92515747,0.00360372
1141.85396484,0.00375355
1143.78277222,0.00397812
1145.71157959,0.00438033
1147.64038696,0.00466649
1149.56919434,0.00481431
1151.49800171,0.00514224
1153.42680908,0.00538136
1155.35561646,0.00559956
1157.28442383,0.00554689
1159.21323120,0.00595098
1161.14203857,0.00642268
1163.07084595,0.00633477
1164.99965332,0.00668746
1166.92846069,0.00687637
1168.85726807,0.00702551
1170.78607544,0.00746087
1172.71488281,0.00754108
1174.64369019,0.00797376
1176.57249756,0.00831198
1178.50130493,0.00810269
1180.43011230,0.00854216
1182.35891968,0.00897839
1184.28772705,0.00931845
1186.21653442,0.00995401
1188.14534180,0.01006679
1190.07414917,0.01053812
1192.00295654,0.01109363
1193.93176392,0.01142394
1195.86057129,0.01219034
1197.78937866,0.01266414
1199.71818604,0.01307783
1201.64699341,0.01363317
1203.57580078,0.01424981
1205.50460815,0.01496995
1207.43341553,0.01528844
1209.36222290,0.01550886
1211.29103027,0.01608098
1213.21983765,0.01651748
1215.14864502,0.01692721
1217.07745239,0.01740726
1219.00625977,0.01741982
1220.93506714,0.01764478
1222.86387451,0.01792502
1224.79268188,0.01802239
1226.72148926,0.01824911
1228.65029663,0.01826767
1230.57910400,0.01841825
1232.50791138,0.01839472
1234.43671875,0.01826851
1236.36552612,0.01836782
1238.29433350,0.01840311
1240.22314087,0.01823598
1242.15194824,0.01806008
1244.08075562,0.01808797
1246.00956299,0.01797423
1247.93837036,0.01813743
1249.86717773,0.01797458
1251.79598511,0.01749684
1253.72479248,0.01744095
1255.65359985,0.01704461
1257.58240723,0.01683326
1259.51121460,0.01671329
1261.44002197,0.01639338
1263.36882935,0.01630569
1265.29763672,0.01614133
1267.22644409,0.01596215
1269.15525146,0.01583127
1271.08405884,0.01555862
1273.01286621,0.01519673
1274.94167358,0.01498320
1276.87048096,0.01457175
1278.79928833,0.01431781
1280.72809570,0.01420945
1282.65690308,0.01377493
1284.58571045,0.01362252
1286.51451782,0.01332524
1288.44332520,0.01306363
1290.37213257,0.01301096
1292.30093994,0.01285180
1294.22974731,0.01280943
1296.15855469,0.01257759
1298.08736206,0.01262401
1300.01616943,0.01265040
1301.94497681,0.01255364
1303.87378418,0.01282252
1305.80259155,0.01290519
1307.73139893,0.01309489
1309.66020630,0.01326064
1311.58901367,0.01331164
1313.51782104,0.01374848
1315.44662842,0.01405919
1317.37543579,0.01428798
1319.30424316,0.01472200
1321.23305054,0.01509449
1323.16185791,0.01555922
1325.09066528,0.01604312
1327.01947266,0.01641673
1328.94828003,0.01684058
1330.87708740,0.01716631
1332.80589478,0.01758700
1334.73470215,0.01807623
1336.66350952,0.01806882
1338.59231689,0.01764945
1340.52112427,0.01788330
1342.44993164,0.01876945
1344.37873901,0.01884728
1346.30754639,0.01875396
1348.23635376,0.01891024
1350.16516113,0.01867789
1352.09396851,0.01863542
1354.02277588,0.01845009
1355.95158325,0.01814896
1357.88039062,0.01795707
1359.80919800,0.01772512
1361.73800537,0.01693270
1363.66681274,0.01657466
1365.59562012,0.01770585
1367.52442749,0.01728979
1369.45323486,0.01694983
1371.38204224,0.01736527
1373.31084961,0.01609974
1375.23965698,0.01632457
1377.16846436,0.01697540
1379.09727173,0.01678225
1381.02607910,0.01702159
1382.95488647,0.01692531
1384.88369385,0.01677558
1386.81250122,0.01610670
1388.74130859,0.01624243
1390.67011597,0.01759264
1392.59892334,0.01714407
1394.52773071,0.01574099
1396.45653809,0.01659970
1398.38534546,0.01666607
1400.31415283,0.01653996
1402.24296021,0.01804679
1404.17176758,0.01677545
1406.10057495,0.01693881
1408.02938232,0.01779019
1409.95818970,0.01709044
1411.88699707,0.01756296
1413.81580444,0.01670764
1415.74461182,0.01700572
1417.67341919,0.01518212
1419.60222656,0.01348175
1421.53103394,0.01580901
1423.45984131,0.01518693
1425.38864868,0.01492998
1427.31745605,0.01527198
1429.24626343,0.01400176
1431.17507080,0.01359754
1433.10387817,0.01391454
1435.03268555,0.01256625
1436.96149292,0.01057353
1438.89030029,0.01225665
1440.81910767,0.01244464
1442.74791504,0.01168048
1444.67672241,0.01226413
1446.60552979,0.01120285
1448.53433716,0.01142155
1450.46314453,0.01160105
1452.39195190,0.01197722
1454.32075928,0.01239168
1456.24956665,0.01003003
1458.17837402,0.01051165
1460.10718140,0.01418175
1462.03598877,0.01500624
1463.96479614,0.01466162
1465.89360352,0.01515691
1467.82241089,0.01746280
1469.75121826,0.01874852
1471.68002563,0.01591623
1473.60883301,0.01703130
1475.53764038,0.01963503
1477.46644775,0.02099558
1479.39525513,0.02353623
1481.32406250,0.02339483
1483.25286987,0.02495725
1485.18167725,0.02573251
1487.11048462,0.02495823
1489.03929199,0.02451909
1490.96809937,0.02450836
1492.89690674,0.02942614
1494.82571411,0.02809715
1496.75452148,0.02492667
1498.68332886,0.02866587
1500.61213623,0.02941184
1502.54094360,0.03223363
1504.46975098,0.02963127
1506.39855835,0.02035996
1508.32736572,0.02576699
1510.25617310,0.03066383
1512.18498047,0.03000500
1514.11378784,0.03256005
1516.04259521,0.02855600
1517.97140259,0.03009200
1519.90020996,0.02891740
1521.82901733,0.02456410
1523.75782471,0.03103293
1525.68663208,0.03023187
1527.61543945,0.03023834
1529.54424683,0.03403308
1531.47305420,0.03217439
1533.40186157,0.02896671
1535.33066895,0.03136837
1537.25947632,0.03367392
1539.18828369,0.02268652
1541.11709106,0.02433876
1543.04589844,0.02962977
1544.97470581,0.02820381
1546.90351318,0.03465649
1548.83232056,0.03172816
1550.76112793,0.03270797
1552.68993530,0.03252230
1554.61874268,0.02913828
1556.54755005,0.03116647
1558.47635742,0.02051464
1560.40516479,0.02330130
1562.33397217,0.03469577
1564.26277954,0.03221287
1566.19158691,0.03354917
1568.12039429,0.03282116
1570.04920166,0.02864334
1571.97800903,0.03422193
1573.90681641,0.03408481
1575.83562378,0.02611881
1577.76443115,0.03065008
1579.69323853,0.03490707
1581.62204590,0.03310785
1583.55085327,0.03412753
1585.47966064,0.03370677
1587.40846802,0.03383936
1589.33727539,0.03340181
1591.26608276,0.03348982
1593.19489014,0.03346723
1595.12369751,0.03298771
1597.05250488,0.03345485
1598.98131226,0.03324747
1600.91011963,0.03340128
1602.83892700,0.03292976
1604.76773437,0.03350396
1606.69654175,0.03289040
1608.62534912,0.03298346
1610.55415649,0.03277145
1612.48296387,0.03333699
1614.41177124,0.03339863
1616.34057861,0.02657968
1618.26938599,0.02998482
1620.19819336,0.03498740
1622.12700073,0.03035621
1624.05580811,0.03059742
1625.98461548,0.03258158
1627.91342285,0.03234629
1629.84223022,0.03231300
1631.77103760,0.03500530
1633.69984497,0.03127773
1635.62865234,0.02529032
1637.55745972,0.03050232
1639.48626709,0.03396010
1641.41507446,0.03298710
1643.34388184,0.03386129
1645.27268921,0.02984184
1647.20149658,0.02563947
1649.13030396,0.03349625
1651.05911133,0.03096455
1652.98791870,0.01852876
1654.91672607,0.02710946
1656.84553345,0.03455555
1658.77434082,0.03311724
1660.70314819,0.03379987
1662.63195557,0.03020131
1664.56076294,0.03244987
1666.48957031,0.03496366
1668.41837769,0.02956618
1670.34718506,0.02878241
1672.27599243,0.03325578
1674.20479980,0.02975468
1676.13360718,0.02882157
1678.06241455,0.03397735
1679.99122192,0.03230424
1681.92002930,0.03155839
1683.84883667,0.02443827
1685.77764404,0.02510410
1687.70645142,0.03549810
1689.63525879,0.02982123
1691.56406616,0.03381442
1693.49287354,0.03378105
1695.42168091,0.02359454
1697.35048828,0.03040288
1699.27929565,0.02557989
1701.20810303,0.02297038
1703.13691040,0.03277193
1705.06571777,0.02942281
1706.99452515,0.02999580
1708.92333252,0.03272126
1710.85213989,0.03125161
1712.78094727,0.03172823
1714.70975464,0.02878373
1716.63856201,0.02551577
1718.56736938,0.02517640
1720.49617676,0.03078345
1722.42498413,0.03193115
1724.35379150,0.02945837
1726.28259888,0.03239695
1728.21140625,0.02922972
1730.14021362,0.02979520
1732.06902100,0.02863432
1733.99782837,0.02097936
1735.92663574,0.02755696
1737.85544312,0.03015060
1739.78425049,0.02640845
1741.71305786,0.02921359
1743.64186523,0.02942240
1745.57067261,0.02962643
1747.49947998,0.02962032
1749.42828735,0.02788482
1751.35709473,0.02679585
1753.28590210,0.03029815
1755.21470947,0.03134865
1757.14351685,0.02819019
1759.07232422,0.03159291
1761.00113159,0.02914368
1762.92993896,0.02822034
1764.85874634,0.03278974
1766.78755371,0.02894833
1768.71636108,0.02935464
1770.64516846,0.02884518
1772.57397583,0.02568092
1774.50278320,0.02930987
1776.43159058,0.03087184
1778.36039795,0.03034132
1780.28920532,0.03003364
1782.21801270,0.03022970
1784.14682007,0.03009357
1786.07562744,0.02950630
1788.00443481,0.03128802
1789.93324219,0.03005597
1791.86204956,0.02654369
1793.79085693,0.02821237
1795.71966431,0.03066845
1797.64847168,0.03005498
1799.57727905,0.02938425
1801.50608643,0.02877927
1803.43489380,0.02998951
1805.36370117,0.03053468
1807.29250854,0.03007678
1809.22131592,0.03018523
1811.15012329,0.02913611
1813.07893066,0.03023523
1815.00773804,0.03038005
1816.93654541,0.02998534
1818.86535278,0.03017533
1820.79416016,0.03027056
1822.72296753,0.03060979
1824.65177490,0.02798729
1826.58058228,0.02932143
1828.50938965,0.02928143
1830.43819702,0.02736038
1832.36700439,0.03013382
1834.29581177,0.02982724
1836.22461914,0.02983225
1838.15342651,0.02953702
1840.08223389,0.02984495
1842.01104126,0.02966943
1843.93984863,0.02576823
1845.86865601,0.02785380
1847.79746338,0.02956534
1849.72627075,0.02892204
1851.65507812,0.02988804
1853.58388550,0.02922813
1855.51269287,0.02934222
1857.44150024,0.02919221
1859.37030762,0.02917549
1861.29911499,0.02920565
1863.22792236,0.02890914
1865.15672974,0.02923125
1867.08553711,0.02782601
1869.01434448,0.02653268
1870.94315186,0.02794285
1872.87195923,0.02907030
1874.80076660,0.02854977
1876.72957397,0.02877559
1878.65838135,0.02855123
1880.58718872,0.02842217
1882.51599609,0.02852738
1884.44480347,0.02797936
1886.37361084,0.02852115
1888.30241821,0.02760127
1890.23122559,0.02714272
1892.16003296,0.02829932
1894.08884033,0.02770909
1896.01764771,0.02764939
1897.94645508,0.02791923
1899.87526245,0.02773819
1901.80406982,0.02788483
1903.73287720,0.02768833
1905.66168457,0.02770877
1907.59049194,0.02733412
1909.51929932,0.02718089
1911.44810669,0.02728282
1913.37691406,0.02726972
1915.30572144,0.02752717
1917.23452881,0.02614080
1919.16333618,0.02628277
1921.09214355,0.02738285
1923.02095093,0.02627503
1924.94975830,0.02689139
1926.87856567,0.02723393
1928.80737305,0.02690872
1930.73618042,0.02723429
1932.66498779,0.02674535
1934.59379517,0.02704185
1936.52260254,0.02673991
1938.45140991,0.02684617
1940.38021729,0.02675415
1942.30902466,0.02565956
1944.23783203,0.02630330
1946.16663940,0.02660090
1948.09544678,0.02649894
1950.02425415,0.02658892
1951.95306152,0.02646830
1953.88186890,0.02646156
1955.81067627,0.02631556
1957.73948364,0.02645887
1959.66829102,0.02634394
1961.59709839,0.02632235
1963.52590576,0.02636585
1965.45471313,0.02598570
1967.38352051,0.02569655
1969.31232788,0.02602094
1971.24113525,0.02625962
1973.16994263,0.02597386
1975.09875000,0.02601131
1977.02755737,0.02586054
1978.95636475,0.02584334
1980.88517212,0.02590031
1982.81397949,0.02575596
1984.74278687,0.02576445
1986.67159424,0.02560215
1988.60040161,0.02560645
1990.52920898,0.02518302
1992.45801636,0.02495705
1994.38682373,0.02537831
1996.31563110,0.02532353
1998.24443848,0.02522893
2000.17324585,0.02526748
2002.10205322,0.02509137
2004.03086060,0.02501998
2005.95966797,0.02497501
2007.88847534,0.02471163
2009.81728271,0.02472447
2011.74609009,0.02469125
2013.67489746,0.02467162
2015.60370483,0.02461050
2017.53251221,0.02423664
2019.46131958,0.02450743
2021.39012695,0.02449930
2023.31893433,0.02424873
2025.24774170,0.02427991
2027.17654907,0.02411311
2029.10535645,0.02415135
2031.03416382,0.02397126
2032.96297119,0.02388116
2034.89177856,0.02383368
2036.82058594,0.02375073
2038.74939331,0.02377932
2040.67820068,0.02357764
2042.60700806,0.02373592
2044.53581543,0.02361998
2046.46462280,0.02339770
2048.39343018,0.02349875
2050.32223755,0.02328196
2052.25104492,0.02327503
2054.17985229,0.02324567
2056.10865967,0.02305689
2058.03746704,0.02305219
2059.96627441,0.02296177
2061.89508179,0.02296954
2063.82388916,0.02284476
2065.75269653,0.02263903
2067.68150391,0.02278924
2069.61031128,0.02269578
2071.53911865,0.02254445
2073.46792603,0.02266244
2075.39673340,0.02251144
2077.32554077,0.02242679
2079.25434814,0.02241568
2081.18315552,0.02226486
2083.11196289,0.02228064
2085.04077026,0.02227567
2086.96957764,0.02219633
2088.89838501,0.02207695
2090.82719238,0.02196157
2092.75599976,0.02194033
2094.68480713,0.02193569
2096.61361450,0.02190443
2098.54242187,0.02177479
2100.47122925,0.02179369
2102.40003662,0.02178974
2104.32884399,0.02161295
2106.25765137,0.02159691
2108.18645874,0.02151775
2110.11526611,0.02145772
2112.04407349,0.02138014
2113.97288086,0.02121103
2115.90168823,0.02123993
2117.83049561,0.02128147
2119.75930298,0.02128949
2121.68811035,0.02119569
2123.61691772,0.02121223
2125.54572510,0.02120656
2127.47453247,0.02101399
2129.40333984,0.02105435
2131.33214722,0.02101802
2133.26095459,0.02094234
2135.18976196,0.02091404
2137.11856934,0.02094896
2139.04737671,0.02092139
2140.97618408,0.02067019
2142.90499146,0.02071092
2144.83379883,0.02074909
2146.76260620,0.02069893
2148.69141357,0.02062054
2150.62022095,0.02046522
2152.54902832,0.02048145
2154.47783569,0.02052649
2156.40664307,0.02052071
2158.33545044,0.02034017
2160.26425781,0.02019825
2162.19306519,0.02020491
2164.12187256,0.02028395
2166.05067993,0.02026725
2167.97948730,0.02018613
2169.90829468,0.02019425
2171.83710205,0.02005412
2173.76590942,0.02002006
2175.69471680,0.02001681
2177.62352417,0.01998621
2179.55233154,0.01985540
2181.48113892,0.01978288
2183.40994629,0.01984768
2185.33875366,0.01967299
2187.26756104,0.01982301
2189.19636841,0.01987239
2191.12517578,0.01972946
2193.05398315,0.01970341
2194.98279053,0.01957031
2196.91159790,0.01953995
2198.84040527,0.01937465
2200.76921265,0.01943485
2202.69802002,0.01955788
2204.62682739,0.01950089
2206.55563477,0.01944597
2208.48444214,0.01939995
2210.41324951,0.01937086
2212.34205688,0.01924536
2214.27086426,0.01929344
2216.19967163,0.01906319
2218.12847900,0.01904237
2220.05728638,0.01917180
2221.98609375,0.01899352
2223.91490112,0.01904543
2225.84370850,0.01878792
2227.77251587,0.01886049
2229.70132324,0.01892864
2231.63013062,0.01858279
2233.55893799,0.01875145
2235.48774536,0.01870793
2237.41655273,0.01859775
2239.34536011,0.01870182
2241.27416748,0.01865112
2243.20297485,0.01862114
2245.13178223,0.01844450
2247.06058960,0.01830897
2248.98939697,0.01846353
2250.91820435,0.01831546
2252.84701172,0.01812113
2254.77581909,0.01825663
2256.70462646,0.01819393
2258.63343384,0.01820782
2260.56224121,0.01814485
2262.49104858,0.01798024
2264.41985596,0.01796740
2266.34866333,0.01798891
2268.27747070,0.01811383
2270.20627808,0.01786055
2272.13508545,0.01780701
2274.06389282,0.01796677
2275.99270020,0.01772175
2277.92150757,0.01767749
2279.85031494,0.01767193
2281.77912231,0.01750277
2283.70792969,0.01754256
2285.63673706,0.01762417
2287.56554443,0.01751027
2289.49435181,0.01750111
2291.42315918,0.01750851
2293.35196655,0.01747494
2295.28077393,0.01740507
2297.20958130,0.01719179
2299.13838867,0.01720251
2301.06719604,0.01711104
2302.99600342,0.01694262
2304.92481079,0.01690106
2306.85361816,0.01678286
2308.78242554,0.01664666
2310.71123291,0.01651150
2312.64004028,0.01642636
2314.56884766,0.01622580
2316.49765503,0.01607638
2318.42646240,0.01580677
2320.35526978,0.01557130
2322.28407715,0.01555721
2324.21288452,0.01520139
2326.14169189,0.01498459
2328.07049927,0.01500059
2329.99930664,0.01480139
2331.92811401,0.01449821
2333.85692139,0.01440347
2335.78572876,0.01443060
2337.71453613,0.01435547
2339.64334351,0.01433710
2341.57215088,0.01436722
2343.50095825,0.01458396
2345.42976562,0.01487561
2347.35857300,0.01540204
2349.28738037,0.01575189
2351.21618774,0.01518185
2353.14499512,0.01457035
2355.07380249,0.01416406
2357.00260986,0.01368251
2358.93141724,0.01342100
2360.86022461,0.01326739
2362.78903198,0.01311513
2364.71783936,0.01330598
2366.64664673,0.01359590
2368.57545410,0.01361948
2370.50426147,0.01389095
2372.43306885,0.01434581
2374.36187622,0.01459097
2376.29068359,0.01482902
2378.21949097,0.01528347
2380.14829834,0.01545865
2382.07710571,0.01543682
2384.00591309,0.01573144
2385.93472046,0.01575277
2387.86352783,0.01563876
2389.79233521,0.01553717
2391.72114258,0.01551652
2393.64994995,0.01569838
2395.57875732,0.01555038
2397.50756470,0.01550115
2399.43637207,0.01545508
2401.36517944,0.01525313
2403.29398682,0.01534957
2405.22279419,0.01542988
2407.15160156,0.01536494
2409.08040894,0.01530291
2411.00921631,0.01529381
2412.93802368,0.01523776
2414.86683105,0.01508629
2416.79563843,0.01505258
2418.72444580,0.01508272
2420.65325317,0.01498046
2422.58206055,0.01499598
2424.51086792,0.01509970
2426.43967529,0.01508254
2428.36848267,0.01502008
2430.29729004,0.01475931
2432.22609741,0.01466788
2434.15490479,0.01484749
2436.08371216,0.01481444
2438.01251953,0.01477067
2439.94132690,0.01478385
2441.87013428,0.01460391
2443.79894165,0.01456812
2445.72774902,0.01469100
2447.65655640,0.01459966
2449.58536377,0.01460214
2451.51417114,0.01462130
2453.44297852,0.01456733
2455.37178589,0.01450839
2457.30059326,0.01439248
2459.22940063,0.01447856
2461.15820801,0.01442160
2463.08701538,0.01434279
2465.01582275,0.01431291
2466.94463013,0.01417509
2468.87343750,0.01423724
2470.80224487,0.01420987
2472.73105225,0.01413411
2474.65985962,0.01416078
2476.58866699,0.01414608
2478.51747437,0.01409222
2480.44628174,0.01410713
2482.37508911,0.01412004
2484.30389648,0.01407800
2486.23270386,0.01405283
2488.16151123,0.01391573
2490.09031860,0.01392644
2492.01912598,0.01390527
2493.94793335,0.01383808
2495.87674072,0.01387964
2497.80554810,0.01373113
2499.73435547,0.01367710
2501.66316284,0.01364596
2503.59197021,0.01356561
2505.52077759,0.01356436
2507.44958496,0.01351025
2509.37839233,0.01347929
2511.30719971,0.01359091
2513.23600708,0.01355001
2515.16481445,0.01336828
2517.09362183,0.01351205
2519.02242920,0.01348122
2520.95123657,0.01330484
2522.88004395,0.01333831
2524.80885132,0.01329393
2526.73765869,0.01318843
2528.66646606,0.01318575
2530.59527344,0.01331178
2532.52408081,0.01318192
2534.45288818,0.01311505
2536.38169556,0.01310760
2538.31050293,0.01300387
2540.23931030,0.01311524
2542.16811768,0.01304402
2544.09692505,0.01303791
2546.02573242,0.01305085
2547.95453979,0.01293370
2549.88334717,0.01293661
2551.81215454,0.01289926
2553.74096191,0.01286942
2555.66976929,0.01284713
2557.59857666,0.01283653
2559.52738403,0.01277610
2561.45619141,0.01280385
2563.38499878,0.01276583
2565.31380615,0.01268884
2567.24261353,0.01269459
2569.17142090,0.01252798
2571.10022827,0.01254504
2573.02903564,0.01255272
2574.95784302,0.01253183
2576.88665039,0.01246111
2578.81545776,0.01235436
2580.74426514,0.01253647
2582.67307251,0.01242784
2584.60187988,0.01232342
2586.53068726,0.01233058
2588.45949463,0.01223221
2590.38830200,0.01225811
2592.31710937,0.01224927
2594.24591675,0.01237249
2596.17472412,0.01230069
2598.10353149,0.01205238
2600.03233887,0.01210774
2601.96114624,0.01216856
2603.88995361,0.01210706
2605.81876099,0.01207511
2607.74756836,0.01211084
2609.67637573,0.01211322
2611.60518311,0.01200376
2613.53399048,0.01194634
2615.46279785,0.01190818
2617.39160522,0.01180388
2619.32041260,0.01194861
2621.24921997,0.01201885
2623.17802734,0.01180911
2625.10683472,0.01179953
2627.03564209,0.01183314
2628.96444946,0.01186043
2630.89325684,0.01175045
2632.82206421,0.01158024
2634.75087158,0.01172519
2636.67967895,0.01169667
2638.60848633,0.01156525
2640.53729370,0.01159608
2642.46610107,0.01153398
2644.39490845,0.01148740
2646.32371582,0.01151609
2648.25252319,0.01154420
2650.18133057,0.01147131
2652.11013794,0.01136897
2654.03894531,0.01142042
2655.96775269,0.01142763
2657.89656006,0.01129514
2659.82536743,0.01124123
2661.75417480,0.01127109
2663.68298218,0.01121886
2665.61178955,0.01117713
2667.54059692,0.01123221
2669.46940430,0.01119493
2671.39821167,0.01112055
2673.32701904,0.01111002
2675.25582642,0.01112954
2677.18463379,0.01118294
2679.11344116,0.01110177
2681.04224854,0.01097017
2682.97105591,0.01093583
2684.89986328,0.01092418
2686.82867065,0.01091810
2688.75747803,0.01087798
2690.68628540,0.01082120
2692.61509277,0.01074434
2694.54390015,0.01071716
2696.47270752,0.01078708
2698.40151489,0.01077929
2700.33032227,0.01069779
2702.25912964,0.01069288
2704.18793701,0.01068280
2706.11674438,0.01061990
2708.04555176,0.01059446
2709.97435913,0.01056734
2711.90316650,0.01058814
2713.83197388,0.01058533
2715.76078125,0.01052332
2717.68958862,0.01050456
2719.61839600,0.01047659
2721.54720337,0.01052088
2723.47601074,0.01050572
2725.40481812,0.01038332
2727.33362549,0.01033121
2729.26243286,0.01025601
2731.19124023,0.01020007
2733.12004761,0.01029867
2735.04885498,0.01034306
2736.97766235,0.01026667
2738.90646973,0.01028054
2740.83527710,0.01020103
2742.76408447,0.01015349
2744.69289185,0.01016560
2746.62169922,0.01007591
2748.55050659,0.01015985
2750.47931396,0.01007080
2752.40812134,0.01002798
2754.33692871,0.01010046
2756.26573608,0.00986925
2758.19454346,0.00989016
2760.12335083,0.00993900
2762.05215820,0.00986158
2763.98096558,0.00984083
2765.90977295,0.00982115
2767.83858032,0.00994323
2769.76738770,0.00973280
2771.69619507,0.00958528
2773.62500244,0.00971438
2775.55380981,0.00957245
2777.48261719,0.00958853
2779.41142456,0.00963003
2781.34023193,0.00956281
2783.26903931,0.00961854
2785.19784668,0.00961327
2787.12665405,0.00958023
2789.05546143,0.00939322
2790.98426880,0.00938981
2792.91307617,0.00955120
2794.84188354,0.00943506
2796.77069092,0.00936504
2798.69949829,0.00926338
2800.62830566,0.00926474
2802.55711304,0.00935834
2804.48592041,0.00923125
2806.41472778,0.00922141
2808.34353516,0.00924377
2810.27234253,0.00917930
2812.20114990,0.00910243
2814.12995728,0.00909277
2816.05876465,0.00910051
2817.98757202,0.00902782
2819.91637939,0.00898380
2821.84518677,0.00892874
2823.77399414,0.00902931
2825.70280151,0.00903560
2827.63160889,0.00884673
2829.56041626,0.00881761
2831.48922363,0.00886612
2833.41803101,0.00890329
2835.34683838,0.00883521
2837.27564575,0.00876716
2839.20445312,0.00873739
2841.13326050,0.00866558
2843.06206787,0.00856375
2844.99087524,0.00857783
2846.91968262,0.00869149
2848.84848999,0.00859806
2850.77729736,0.00856841
2852.70610474,0.00855940
2854.63491211,0.00857237
2856.56371948,0.00866065
2858.49252686,0.00848810
2860.42133423,0.00846961
2862.35014160,0.00856059
2864.27894897,0.00847346
2866.20775635,0.00842940
2868.13656372,0.00847199
2870.06537109,0.00844133
2871.99417847,0.00834636
2873.92298584,0.00834252
2875.85179321,0.00828604
2877.78060059,0.00829604
2879.70940796,0.00828008
2881.63821533,0.00821753
2883.56702270,0.00823057
2885.49583008,0.00811190
2887.42463745,0.00814390
2889.35344482,0.00817123
2891.28225220,0.00811708
2893.21105957,0.00808651
2895.13986694,0.00798189
2897.06867432,0.00811713
2898.99748169,0.00813992
2900.92628906,0.00797863
2902.85509644,0.00794163
2904.78390381,0.00792414
2906.71271118,0.00803203
2908.64151855,0.00804870
2910.57032593,0.00791242
2912.49913330,0.00789078
2914.42794067,0.00785021
2916.35674805,0.00778136
2918.28555542,0.00780955
2920.21436279,0.00772852
2922.14317017,0.00768583
2924.07197754,0.00789141
2926.00078491,0.00785424
2927.92959229,0.00769074
2929.85839966,0.00786415
2931.78720703,0.00791531
2933.71601440,0.00775918
2935.64482178,0.00781092
2937.57362915,0.00773058
2939.50243652,0.00754965
2941.43124390,0.00768170
2943.36005127,0.00768678
2945.28885864,0.00759059
2947.21766602,0.00767668
2949.14647339,0.00767025
2951.07528076,0.00762543
2953.00408813,0.00764712
2954.93289551,0.00764744
2956.86170288,0.00750097
2958.79051025,0.00743807
2960.71931763,0.00749323
2962.64812500,0.00741713
2964.57693237,0.00746831
2966.50573975,0.00746275
2968.43454712,0.00738144
2970.36335449,0.00731760
2972.29216187,0.00724947
2974.22096924,0.00739555
2976.14977661,0.00728987
2978.07858398,0.00724598
2980.00739136,0.00736450
2981.93619873,0.00726379
2983.86500610,0.00739305
2985.79381348,0.00738600
2987.72262085,0.00722683
2989.65142822,0.00719694
2991.58023560,0.00721531
2993.50904297,0.00728904
2995.43785034,0.00719550
2997.36665771,0.00718428
2999.29546509,0.00715761
3001.22427246,0.00704520
3003.15307983,0.00705418
3005.08188721,0.00711742
3007.01069458,0.00713669
3008.93950195,0.00703500
3010.86830933,0.00709620
3012.79711670,0.00701793
3014.72592407,0.00691575
3016.65473145,0.00705441
3018.58353882,0.00689558
3020.51234619,0.00684386
3022.44115356,0.00693170
3024.36996094,0.00682342
3026.29876831,0.00683338
3028.22757568,0.00684343
3030.15638306,0.00679718
3032.08519043,0.00682109
3034.01399780,0.00677776
3035.94280518,0.00672885
3037.87161255,0.00676514
3039.80041992,0.00673818
3041.72922729,0.00679849
3043.65803467,0.00683936
3045.58684204,0.00674241
3047.51564941,0.00677088
3049.44445679,0.00668652
3051.37326416,0.00658424
3053.30207153,0.00661251
3055.23087891,0.00658620
3057.15968628,0.00657855
3059.08849365,0.00657458
3061.01730103,0.00662532
3062.94610840,0.00655683
3064.87491577,0.00644600
3066.80372314,0.00652694
3068.73253052,0.00656187
3070.66133789,0.00655185
3072.59014526,0.00648192
3074.51895264,0.00646461
3076.44776001,0.00649265
3078.37656738,0.00637858
3080.30537476,0.00643341
3082.23418213,0.00651733
3084.16298950,0.00640444
3086.09179687,0.00634697
3088.02060425,0.00634485
3089.94941162,0.00633072
3091.87821899,0.00636077
3093.80702637,0.00632533
3095.73583374,0.00623522
3097.66464111,0.00633116
3099.59344849,0.00635614
3101.52225586,0.00622979
3103.45106323,0.00624206
3105.37987061,0.00626439
3107.30867798,0.00625570
3109.23748535,0.00619945
3111.16629272,0.00611612
3113.09510010,0.00606744
3115.02390747,0.00613235
3116.95271484,0.00618896
3118.88152222,0.00602044
3120.81032959,0.00610634
3122.73913696,0.00620057
3124.66794434,0.00600388
3126.59675171,0.00602591
3128.52555908,0.00602531
3130.45436645,0.00594804
3132.38317383,0.00603370
3134.31198120,0.00603915
3136.24078857,0.00595407
3138.16959595,0.00600224
3140.09840332,0.00599610
3142.02721069,0.00591017
3143.95601807,0.00595962
3145.88482544,0.00598033
3147.81363281,0.00596223
3149.74244019,0.00583888
3151.67124756,0.00586895
3153.60005493,0.00599989
3155.52886230,0.00581684
3157.45766968,0.00588462
3159.38647705,0.00596725
3161.31528442,0.00577915
3163.24409180,0.00581200
3165.17289917,0.00587306
3167.10170654,0.00585721
3169.03051392,0.00582624
3170.95932129,0.00579916
3172.88812866,0.00582756
3174.81693604,0.00578314
3176.74574341,0.00569564
3178.67455078,0.00564144
3180.60335815,0.00561880
3182.53216553,0.00570231
3184.46097290,0.00571911
3186.38978027,0.00570513
3188.31858765,0.00571839
3190.24739502,0.00565407
3192.17620239,0.00573631
3194.10500977,0.00564583
3196.03381714,0.00561299
3197.96262451,0.00568913
3199.89143188,0.00556032
3201.82023926,0.00568932
3203.74904663,0.00562217
3205.67785400,0.00565426
3207.60666138,0.00578272
3209.53546875,0.00559941
3211.46427612,0.00561375
3213.39308350,0.00554156
3215.32189087,0.00560309
3217.25069824,0.00558404
3219.17950562,0.00560375
3221.10831299,0.00573918
3223.03712036,0.00553018
3224.96592773,0.00557704
3226.89473511,0.00548667
3228.82354248,0.00548939
3230.75234985,0.00560205
3232.68115723,0.00548902
3234.60996460,0.00554148
3236.53877197,0.00541155
3238.46757935,0.00544804
3240.39638672,0.00554147
3242.32519409,0.00554842
3244.25400146,0.00557238
3246.18280884,0.00556420
3248.11161621,0.00560632
3250.04042358,0.00547948
3251.96923096,0.00557717
3253.89803833,0.00559288
3255.82684570,0.00557551
3257.75565308,0.00562585
3259.68446045,0.00549509
3261.61326782,0.00557246
3263.54207520,0.00553367
3265.47088257,0.00561532
3267.39968994,0.00560286
3269.32849731,0.00538508
3271.25730469,0.00558765
3273.18611206,0.00561871
3275.11491943,0.00552712
3277.04372681,0.00555948
3278.97253418,0.00541854
3280.90134155,0.00540224
3282.83014893,0.00557589
3284.75895630,0.00559960
3286.68776367,0.00554591
3288.61657104,0.00546799
3290.54537842,0.00539601
3292.47418579,0.00550353
3294.40299316,0.00559164
3296.33180054,0.00556258
3298.26060791,0.00550760
3300.18941528,0.00553173
3302.11822266,0.00551727
3304.04703003,0.00554346
3305.97583740,0.00550729
3307.90464478,0.00528846
3309.83345215,0.00546992
3311.76225952,0.00554028
3313.69106689,0.00543985
3315.61987427,0.00553605
3317.54868164,0.00544562
3319.47748901,0.00543190
3321.40629639,0.00542660
3323.33510376,0.00544692
3325.26391113,0.00542382
3327.19271851,0.00544149
3329.12152588,0.00553753
3331.05033325,0.00536016
3332.97914062,0.00551502
3334.90794800,0.00554357
3336.83675537,0.00537402
3338.76556274,0.00553581
3340.69437012,0.00544530
3342.62317749,0.00540568
3344.55198486,0.00542540
3346.48079224,0.00546258
3348.40959961,0.00557046
3350.33840698,0.00541386
3352.26721436,0.00548908
3354.19602173,0.00553771
3356.12482910,0.00542740
3358.05363647,0.00546476
3359.98244385,0.00536539
3361.91125122,0.00538018
3363.84005859,0.00540350
3365.76886597,0.00537232
3367.69767334,0.00544128
3369.62648071,0.00543543
3371.55528809,0.00546453
3373.48409546,0.00541666
3375.41290283,0.00544807
3377.34171020,0.00550974
3379.27051758,0.00541478
3381.19932495,0.00541332
3383.12813232,0.00544037
3385.05693970,0.00544396
3386.98574707,0.00538793
3388.91455444,0.00540704
3390.84336182,0.00535410
3392.77216919,0.00531334
3394.70097656,0.00544397
3396.62978394,0.00535745
3398.55859131,0.00537975
3400.48739868,0.00539325
3402.41620605,0.00532386
3404.34501343,0.00531121
3406.27382080,0.00529435
3408.20262817,0.00546289
3410.13143555,0.00540354
3412.06024292,0.00538712
3413.98905029,0.00542388
3415.91785767,0.00535759
3417.84666504,0.00541377
3419.77547241,0.00526072
3421.70427979,0.00525861
3423.63308716,0.00532949
3425.56189453,0.00530830
3427.49070190,0.00530734
3429.41950928,0.00518024
3431.34831665,0.00528597
3433.27712402,0.00535337
3435.20593140,0.00520031
3437.13473877,0.00522701
3439.06354614,0.00523734
3440.99235352,0.00517123
3442.92116089,0.00528039
3444.84996826,0.00525668
3446.77877563,0.00513729
3448.70758301,0.00519214
3450.63639038,0.00513803
3452.56519775,0.00513121
3454.49400513,0.00524524
3456.42281250,0.00521617
3458.35161987,0.00514108
3460.28042725,0.00516343
3462.20923462,0.00513973
3464.13804199,0.00509304
3466.06684937,0.00513108
3467.99565674,0.00506129
3469.92446411,0.00507168
3471.85327148,0.00511490
3473.78207886,0.00510911
3475.71088623,0.00513832
3477.63969360,0.00507819
3479.56850098,0.00506031
3481.49730835,0.00493524
3483.42611572,0.00490366
3485.35492310,0.00500822
3487.28373047,0.00498704
3489.21253784,0.00502237
3491.14134521,0.00500382
3493.07015259,0.00503387
3494.99895996,0.00506117
3496.92776733,0.00492234
3498.85657471,0.00490691
3500.78538208,0.00495291
3502.71418945,0.00488307
3504.64299683,0.00495803
3506.57180420,0.00499665
3508.50061157,0.00478990
3510.42941895,0.00485027
3512.35822632,0.00487572
3514.28703369,0.00483562
3516.21584106,0.00497065
3518.14464844,0.00484265
3520.07345581,0.00482135
3522.00226318,0.00481242
3523.93107056,0.00471358
3525.85987793,0.00478698
3527.78868530,0.00473846
3529.71749268,0.00477880
3531.64630005,0.00479927
3533.57510742,0.00474065
3535.50391479,0.00474480
3537.43272217,0.00468721
3539.36152954,0.00479507
3541.29033691,0.00480628
3543.21914429,0.00470481
3545.14795166,0.00458239
3547.07675903,0.00442770
3549.00556641,0.00460611
3550.93437378,0.00459610
3552.86318115,0.00451293
3554.79198853,0.00462435
3556.72079590,0.00449308
3558.64960327,0.00450648
3560.57841064,0.00452915
3562.50721802,0.00453386
3564.43602539,0.00456181
3566.36483276,0.00415459
3568.29364014,0.00404283
3570.22244751,0.00448848
3572.15125488,0.00464347
3574.08006226,0.00452005
3576.00886963,0.00448647
3577.93767700,0.00446442
3579.86648437,0.00446557
3581.79529175,0.00433341
3583.72409912,0.00434053
3585.65290649,0.00435153
3587.58171387,0.00389789
3589.51052124,0.00401139
3591.43932861,0.00441998
3593.36813599,0.00432231
3595.29694336,0.00421679
3597.22575073,0.00421781
3599.15455811,0.00423864
3601.08336548,0.00420092
3603.01217285,0.00426791
3604.94098022,0.00432213
3606.86978760,0.00421501
3608.79859497,0.00391439
3610.72740234,0.00387093
3612.65620972,0.00397266
3614.58501709,0.00389292
3616.51382446,0.00419294
3618.44263184,0.00375780
3620.37143921,0.00366355
3622.30024658,0.00429184
3624.22905395,0.00418538
3626.15786133,0.00425301
3628.08666870,0.00342893
3630.01547607,0.00322021
3631.94428345,0.00413607
3633.87309082,0.00397954
3635.80189819,0.00410554
3637.73070557,0.00415351
3639.65951294,0.00402295
3641.58832031,0.00403935
3643.51712769,0.00400393
3645.44593506,0.00400208
3647.37474243,0.00350522
3649.30354980,0.00311073
3651.23235718,0.00319748
3653.16116455,0.00402591
3655.08997192,0.00387059
3657.01877930,0.00335860
3658.94758667,0.00395942
3660.87639404,0.00381560
3662.80520142,0.00387584
3664.73400879,0.00387865
3666.66281616,0.00380983
3668.59162354,0.00368649
3670.52043091,0.00298204
3672.44923828,0.00361201
3674.37804565,0.00333225
3676.30685303,0.00277575
3678.23566040,0.00362764
3680.16446777,0.00367520
3682.09327515,0.00368787
3684.02208252,0.00371519
3685.95088989,0.00360394
3687.87969727,0.00322265
3689.80850464,0.00287200
3691.73731201,0.00338002
3693.66611938,0.00352596
3695.59492676,0.00360628
3697.52373413,0.00364480
3699.45254150,0.00364156
3701.38134888,0.00346009
3703.31015625,0.00326012
3705.23896362,0.00368249
3707.16777100,0.00345791
3709.09657837,0.00340405
3711.02538574,0.00312285
3712.95419312,0.00286828
3714.88300049,0.00355194
3716.81180786,0.00333252
3718.74061523,0.00331398
3720.66942261,0.00324722
3722.59822998,0.00314550
3724.52703735,0.00340956
3726.45584473,0.00300981
3728.38465210,0.00327322
3730.31345947,0.00323137
3732.24226685,0.00289260
3734.17107422,0.00287115
3736.09988159,0.00275008
3738.02868896,0.00307320
3739.95749634,0.00327027
3741.88630371,0.00329235
3743.81511108,0.00250944
3745.74391846,0.00240730
3747.67272583,0.00322939
3749.60153320,0.00263425
3751.53034058,0.00246109
3753.45914795,0.00292395
3755.38795532,0.00300175
3757.31676270,0.00315268
3759.24557007,0.00284617
3761.17437744,0.00292794
3763.10318481,0.00328057
3765.03199219,0.00296801
3766.96079956,0.00299506
3768.88960693,0.00301801
3770.81841431,0.00279602
3772.74722168,0.00302438
3774.67602905,0.00305325
3776.60483643,0.00307801
3778.53364380,0.00298715
3780.46245117,0.00286919
3782.39125854,0.00312091
3784.32006592,0.00307606
3786.24887329,0.00301620
3788.17768066,0.00307255
3790.10648804,0.00307327
3792.03529541,0.00297060
3793.96410278,0.00306341
3795.89291016,0.00284610
3797.82171753,0.00277276
3799.75052490,0.00294995
3801.67933228,0.00218812
3803.60813965,0.00275692
3805.53694702,0.00300450
3807.46575439,0.00235323
3809.39456177,0.00291773
3811.32336914,0.00282549
3813.25217651,0.00305429
3815.18098389,0.00257954
3817.10979126,0.00230266
3819.03859863,0.00304170
3820.96740601,0.00218626
3822.89621338,0.00247065
3824.82502075,0.00293176
3826.75382812,0.00262465
3828.68263550,0.00288271
3830.61144287,0.00266275
3832.54025024,0.00267133
3834.46905762,0.00262325
3836.39786499,0.00239024
3838.32667236,0.00229511
3840.25547974,0.00247454
3842.18428711,0.00265351
3844.11309448,0.00258842
3846.04190186,0.00274691
3847.97070923,0.00269382
3849.89951660,0.00270219
3851.82832397,0.00233975
3853.75713135,0.00171902
3855.68593872,0.00214814
3857.61474609,0.00272729
3859.54355347,0.00254807
3861.47236084,0.00262431
3863.40116821,0.00260144
3865.32997559,0.00225247
3867.25878296,0.00264515
3869.18759033,0.00234777
3871.11639770,0.00213490
3873.04520508,0.00264295
3874.97401245,0.00231271
3876.90281982,0.00259095
3878.83162720,0.00264958
3880.76043457,0.00221449
3882.68924194,0.00264051
3884.61804932,0.00243575
3886.54685669,0.00221706
3888.47566406,0.00263511
3890.40447144,0.00243428
3892.33327881,0.00231012
3894.26208618,0.00258382
3896.19089355,0.00252791
3898.11970093,0.00246103
3900.04850830,0.00232841
3901.97731567,0.00222392
3903.90612305,0.00225441
3905.83493042,0.00226187
3907.76373779,0.00249784
3909.69254517,0.00247932
3911.62135254,0.00242670
3913.55015991,0.00256159
3915.47896728,0.00244286
3917.40777466,0.00228751
3919.33658203,0.00231233
3921.26538940,0.00245060
3923.19419678,0.00242411
3925.12300415,0.00233153
3927.05181152,0.00235159
3928.98061890,0.00244224
3930.90942627,0.00232005
3932.83823364,0.00221115
3934.76704102,0.00240667
3936.69584839,0.00240741
3938.62465576,0.00240570
3940.55346313,0.00235792
3942.48227051,0.00226037
3944.41107788,0.00236654
3946.33988525,0.00233306
3948.26869263,0.00227433
3950.19750000,0.00233456
3952.12630737,0.00232496
3954.05511475,0.00226918
3955.98392212,0.00234063
3957.91272949,0.00228570
3959.84153687,0.00227241
3961.77034424,0.00235509
3963.69915161,0.00227819
3965.62795898,0.00229640
3967.55676636,0.00222923
3969.48557373,0.00226844
3971.41438110,0.00229387
3973.34318848,0.00216339
3975.27199585,0.00219318
3977.20080322,0.00220824
3979.12961060,0.00225933
3981.05841797,0.00222390
3982.98722534,0.00223217
3984.91603271,0.00220831
3986.84484009,0.00213495
3988.77364746,0.00220935
3990.70245483,0.00216183
3992.63126221,0.00218512
3994.56006958,0.00221884
3996.48887695,0.00222806
3998.41768433,0.00222398
4000.34649170,0.00216656
4002.27529907,0.00213209
4004.20410645,0.00212116
4006.13291382,0.00216350
4008.06172119,0.00206582
4009.99052856,0.00207840
4011.91933594,0.00206919
4013.84814331,0.00204948
4015.77695068,0.00214912
4017.70575806,0.00205285
4019.63456543,0.00209573
4021.56337280,0.00213923
4023.49218018,0.00205515
4025.42098755,0.00202305
4027.34979492,0.00203065
4029.27860229,0.00207799
4031.20740967,0.00206816
4033.13621704,0.00206683
4035.06502441,0.00205851
4036.99383179,0.00210137
4038.92263916,0.00205370
4040.85144653,0.00202411
4042.78025391,0.00206158
4044.70906128,0.00194848
4046.63786865,0.00200242
4048.56667603,0.00203270
4050.49548340,0.00196999
4052.42429077,0.00199867
4054.35309814,0.00195739
4056.28190552,0.00191400
4058.21071289,0.00189562
4060.13952026,0.00193380
4062.06832764,0.00196913
4063.99713501,0.00192888
4065.92594238,0.00185382
4067.85474976,0.00184070
4069.78355713,0.00192397
4071.71236450,0.00187811
4073.64117187,0.00184452
4075.56997925,0.00196287
4077.49878662,0.00193456
4079.42759399,0.00186958
4081.35640137,0.00192620
4083.28520874,0.00184890
4085.21401611,0.00177635
4087.14282349,0.00190495
4089.07163086,0.00193757
4091.00043823,0.00186761
4092.92924561,0.00187832
4094.85805298,0.00185480
4096.78686035,0.00183913
4098.71566772,0.00184338
4100.64447510,0.00178747
4102.57328247,0.00175473
4104.50208984,0.00177647
4106.43089722,0.00185283
4108.35970459,0.00183062
4110.28851196,0.00179619
4112.21731934,0.00181705
4114.14612671,0.00179485
4116.07493408,0.00185702
4118.00374145,0.00177976
4119.93254883,0.00169725
4121.86135620,0.00179496
4123.79016357,0.00181620
4125.71897095,0.00173374
4127.64777832,0.00170076
4129.57658569,0.00184628
4131.50539307,0.00177308
4133.43420044,0.00170984
4135.36300781,0.00181676
4137.29181519,0.00169628
4139.22062256,0.00176041
4141.14942993,0.00181576
4143.07823730,0.00169960
4145.00704468,0.00165968
4146.93585205,0.00167196
4148.86465942,0.00178126
4150.79346680,0.00170287
4152.72227417,0.00168504
4154.65108154,0.00173705
4156.57988892,0.00163834
4158.50869629,0.00169320
4160.43750366,0.00165019
4162.36631103,0.00163326
4164.29511841,0.00171435
4166.22392578,0.00165128
4168.15273315,0.00172369
4170.08154053,0.00166295
4172.01034790,0.00156358
4173.93915527,0.00166825
4175.86796265,0.00164745
4177.79677002,0.00164078
4179.72557739,0.00162598
4181.65438477,0.00167634
4183.58319214,0.00170844
4185.51199951,0.00157473
4187.44080688,0.00158901
4189.36961426,0.00157721
4191.29842163,0.00158745
4193.22722900,0.00160486
4195.15603638,0.00154507
4197.08484375,0.00156754
4199.01365112,0.00157222
4200.94245850,0.00156216
4202.87126587,0.00153361
4204.80007324,0.00160999
4206.72888062,0.00154193
4208.65768799,0.00145527
4210.58649536,0.00158703
4212.51530273,0.00152830
4214.44411011,0.00153351
4216.37291748,0.00153407
4218.30172485,0.00151471
4220.23053223,0.00156009
4222.15933960,0.00148553
4224.08814697,0.00160240
4226.01695435,0.00160110
4227.94576172,0.00149132
4229.87456909,0.00151899
4231.80337646,0.00146583
4233.73218384,0.00148336
4235.66099121,0.00149621
4237.58979858,0.00146364
4239.51860596,0.00145168
4241.44741333,0.00143560
4243.37622070,0.00147907
4245.30502808,0.00139955
4247.23383545,0.00137022
4249.16264282,0.00152690
4251.09145020,0.00147607
4253.02025757,0.00140954
4254.94906494,0.00141621
4256.87787231,0.00135406
4258.80667969,0.00145920
4260.73548706,0.00145228
4262.66429443,0.00135931
4264.59310181,0.00147207
4266.52190918,0.00149909
4268.45071655,0.00138286
4270.37952393,0.00131962
4272.30833130,0.00135560
4274.23713867,0.00136215
4276.16594604,0.00130192
4278.09475342,0.00132054
4280.02356079,0.00134469
4281.95236816,0.00128872
4283.88117554,0.00138515
4285.80998291,0.00141370
4287.73879028,0.00131250
4289.66759766,0.00144416
4291.59640503,0.00143085
4293.52521240,0.00133526
4295.45401978,0.00131623
4297.38282715,0.00126662
4299.31163452,0.00136476
4301.24044189,0.00135072
4303.16924927,0.00133492
4305.09805664,0.00132104
4307.02686401,0.00127595
4308.95567139,0.00133941
4310.88447876,0.00126957
4312.81328613,0.00124376
4314.74209351,0.00127304
4316.67090088,0.00130549
4318.59970825,0.00129538
4320.52851562,0.00121243
4322.45732300,0.00125767
4324.38613037,0.00127931
4326.31493774,0.00129138
4328.24374512,0.00126247
4330.17255249,0.00123533
4332.10135986,0.00128783
4334.03016724,0.00126724
4335.95897461,0.00128998
4337.88778198,0.00124213
4339.81658936,0.00116644
4341.74539673,0.00119047
4343.67420410,0.00115314
4345.60301147,0.00120057
4347.53181885,0.00130963
4349.46062622,0.00126534
4351.38943359,0.00120048
4353.31824097,0.00124289
4355.24704834,0.00122852
4357.17585571,0.00118597
4359.10466309,0.00118889
4361.03347046,0.00114536
4362.96227783,0.00117325
4364.89108520,0.00119677
4366.81989258,0.00119137
4368.74869995,0.00118072
4370.67750732,0.00111285
4372.60631470,0.00114435
4374.53512207,0.00114062
4376.46392944,0.00114748
4378.39273682,0.00111556
4380.32154419,0.00106575
4382.25035156,0.00121977
4384.17915894,0.00117190
4386.10796631,0.00110073
4388.03677368,0.00115000
4389.96558105,0.00113692
4391.89438843,0.00118216
4393.82319580,0.00116077
4395.75200317,0.00115776
4397.68081055,0.00112347
4399.60961792,0.00110340
4401.53842529,0.00113696
4403.46723267,0.00109684
4405.39604004,0.00108988
4407.32484741,0.00111386
4409.25365478,0.00115346
4411.18246216,0.00108331
4413.11126953,0.00110247
4415.04007690,0.00116240
4416.96888428,0.00109762
4418.89769165,0.00109709
4420.82649902,0.00105612
4422.75530640,0.00107376
4424.68411377,0.00110723
4426.61292114,0.00110496
4428.54172852,0.00106216
4430.47053589,0.00105602
4432.39934326,0.00110070
4434.32815063,0.00103770
4436.25695801,0.00112538
4438.18576538,0.00108013
4440.11457275,0.00102836
4442.04338013,0.00113722
4443.97218750,0.00105321
4445.90099487,0.00103395
4447.82980225,0.00102332
4449.75860962,0.00104108
4451.68741699,0.00110253
4453.61622437,0.00107290
4455.54503174,0.00101857
4457.47383911,0.00101278
4459.40264648,0.00106324
4461.33145386,0.00102879
4463.26026123,0.00107244
4465.18906860,0.00107810
4467.11787598,0.00100582
4469.04668335,0.00102005
4470.97549072,0.00103369
4472.90429810,0.00099813
4474.83310547,0.00098229
4476.76191284,0.00103088
4478.69072021,0.00099819
4480.61952759,0.00108621
4482.54833496,0.00104280
4484.47714233,0.00086121
4486.40594971,0.00092666
4488.33475708,0.00096017
4490.26356445,0.00103370
4492.19237183,0.00093666
4494.12117920,0.00088790
4496.04998657,0.00111457
4497.97879395,0.00100237
4499.90760132,0.00087193
4501.83640869,0.00094099
4503.76521606,0.00091971
4505.69402344,0.00086634
4507.62283081,0.00087778
4509.55163818,0.00090155
4511.48044556,0.00091462
4513.40925293,0.00091455
4515.33806030,0.00090759
4517.26686768,0.00096656
4519.19567505,0.00091356
4521.12448242,0.00086862
4523.05328979,0.00094255
4524.98209717,0.00092738
4526.91090454,0.00090710
4528.83971191,0.00090967
4530.76851929,0.00087025
4532.69732666,0.00090011
4534.62613403,0.00097139
4536.55494141,0.00088921
4538.48374878,0.00084501
4540.41255615,0.00091028
4542.34136353,0.00092586
4544.27017090,0.00094340
4546.19897827,0.00089901
4548.12778564,0.00083469
4550.05659302,0.00085395
4551.98540039,0.00092102
4553.91420776,0.00088079
4555.84301514,0.00081733
4557.77182251,0.00083414
4559.70062988,0.00083431
4561.62943726,0.00090511
4563.55824463,0.00086174
4565.48705200,0.00083532
4567.41585937,0.00094640
4569.34466675,0.00085153
4571.27347412,0.00075285
4573.20228149,0.00081190
4575.13108887,0.00089969
4577.05989624,0.00085507
4578.98870361,0.00078498
4580.91751099,0.00086173
4582.84631836,0.00084096
4584.77512573,0.00086373
4586.70393311,0.00086052
4588.63274048,0.00072993
4590.56154785,0.00083216
4592.49035522,0.00082698
4594.41916260,0.00073210
4596.34796997,0.00079375
4598.27677734,0.00074982
4600.20558472,0.00074749
4602.13439209,0.00076468
4604.06319946,0.00077420
4605.99200684,0.00074868
4607.92081421,0.00067298
4609.84962158,0.00075421
4611.77842895,0.00077372
4613.70723633,0.00076717
4615.63604370,0.00080015
4617.56485107,0.00078905
4619.49365845,0.00080506
4621.42246582,0.00078009
4623.35127319,0.00072728
4625.28008057,0.00074114
4627.20888794,0.00076767
4629.13769531,0.00075257
4631.06650269,0.00083290
4632.99531006,0.00075114
4634.92411743,0.00068488
4636.85292480,0.00079065
4638.78173218,0.00069964
4640.71053955,0.00074923
4642.63934692,0.00073214
4644.56815430,0.00068257
4646.49696167,0.00079958
4648.42576904,0.00074582
4650.35457642,0.00077407
4652.28338379,0.00077979
4654.21219116,0.00071667
4656.14099853,0.00067612
4658.06980591,0.00070736
4659.99861328,0.00073706
4661.92742065,0.00068061
4663.85622803,0.00078486
4665.78503540,0.00071532
4667.71384277,0.00060133
4669.64265015,0.00068091
4671.57145752,0.00069325
4673.50026489,0.00067508
4675.42907227,0.00067889
4677.35787964,0.00069640
4679.28668701,0.00071064
4681.21549438,0.00073014
4683.14430176,0.00069927
4685.07310913,0.00073602
4687.00191650,0.00070677
4688.93072388,0.00065484
4690.85953125,0.00072610
4692.78833862,0.00061134
4694.71714600,0.00062327
4696.64595337,0.00075699
4698.57476074,0.00070829
4700.50356812,0.00065322
4702.43237549,0.00068463
4704.36118286,0.00069378
4706.28999023,0.00065355
4708.21879761,0.00066146
4710.14760498,0.00065047
4712.07641235,0.00069524
4714.00521973,0.00065334
4715.93402710,0.00065069
4717.86283447,0.00070184
4719.79164185,0.00061460
4721.72044922,0.00069628
4723.64925659,0.00063438
4725.57806396,0.00055609
4727.50687134,0.00066591
4729.43567871,0.00066060
4731.36448608,0.00064348
4733.29329346,0.00063765
4735.22210083,0.00065386
4737.15090820,0.00062639
4739.07971558,0.00063483
4741.00852295,0.00059918
4742.93733032,0.00054666
4744.86613770,0.00061458
4746.79494507,0.00063811
4748.72375244,0.00066723
4750.65255981,0.00067394
4752.58136719,0.00069225
4754.51017456,0.00061070
4756.43898193,0.00058202
4758.36778931,0.00062157
4760.29659668,0.00053991
4762.22540405,0.00061454
4764.15421143,0.00058310
4766.08301880,0.00055567
4768.01182617,0.00060824
4769.94063354,0.00054528
4771.86944092,0.00062303
4773.79824829,0.00066976
4775.72705566,0.00062613
4777.65586304,0.00058997
4779.58467041,0.00059900
4781.51347778,0.00065240
4783.44228516,0.00064129
4785.37109253,0.00058992
4787.29989990,0.00060419
4789.22870728,0.00062698
4791.15751465,0.00057201
4793.08632202,0.00057927
4795.01512939,0.00056590
4796.94393677,0.00056116
4798.87274414,0.00058328
4800.80155151,0.00055040
4802.73035889,0.00054998
4804.65916626,0.00051538
4806.58797363,0.00054762
4808.51678101,0.00066040
4810.44558838,0.00062088
4812.37439575,0.00047701
4814.30320312,0.00051014
4816.23201050,0.00055218
4818.16081787,0.00051184
4820.08962524,0.00052535
4822.01843262,0.00049576
4823.94723999,0.00058865
4825.87604736,0.00060373
4827.80485474,0.00055015
4829.73366211,0.00054513
4831.66246948,0.00047071
4833.59127686,0.00060393
4835.52008423,0.00063394
4837.44889160,0.00055572
4839.37769897,0.00058227
4841.30650635,0.00056293
4843.23531372,0.00059863
4845.16412109,0.00060900
4847.09292847,0.00058350
4849.02173584,0.00050250
4850.95054321,0.00047498
4852.87935059,0.00056051
4854.80815796,0.00054888
4856.73696533,0.00049378
4858.66577270,0.00052695
4860.59458008,0.00059579
4862.52338745,0.00052262
4864.45219482,0.00049112
4866.38100220,0.00056853
4868.30980957,0.00052215
4870.23861694,0.00050489
4872.16742432,0.00057092
4874.09623169,0.00054107
4876.02503906,0.00049031
4877.95384644,0.00050791
4879.88265381,0.00049851
4881.81146118,0.00049114
4883.74026855,0.00054141
4885.66907593,0.00055062
4887.59788330,0.00048698
4889.52669067,0.00050487
4891.45549805,0.00051983
4893.38430542,0.00043442
4895.31311279,0.00046597
4897.24192017,0.00048830
4899.17072754,0.00042226
4901.09953491,0.00044145
4903.02834228,0.00050775
4904.95714966,0.00050880
4906.88595703,0.00048586
4908.81476440,0.00046882
4910.74357178,0.00038367
4912.67237915,0.00041250
4914.60118652,0.00046049
4916.52999390,0.00042751
4918.45880127,0.00044868
4920.38760864,0.00042749
4922.31641602,0.00043933
4924.24522339,0.00043585
4926.17403076,0.00041574
4928.10283813,0.00044256
4930.03164551,0.00044488
4931.96045288,0.00045386
4933.88926025,0.00039507
4935.81806763,0.00039520
4937.74687500,0.00047277
4939.67568237,0.00042973
4941.60448975,0.00043136
4943.53329712,0.00049006
4945.46210449,0.00041407
4947.39091187,0.00041620
4949.31971924,0.00045197
4951.24852661,0.00040298
4953.17733398,0.00045102
4955.10614136,0.00041209
4957.03494873,0.00036499
4958.96375610,0.00041674
4960.89256348,0.00045285
4962.82137085,0.00046361
4964.75017822,0.00039574
4966.67898560,0.00042627
4968.60779297,0.00047117
4970.53660034,0.00044442
4972.46540771,0.00045170
4974.39421509,0.00044421
4976.32302246,0.00041962
4978.25182983,0.00041048
4980.18063721,0.00043402
4982.10944458,0.00041938
4984.03825195,0.00040097
4985.96705933,0.00038248
4987.89586670,0.00043284
4989.82467407,0.00044882
4991.75348145,0.00036407
4993.68228882,0.00044512
4995.61109619,0.00042976
4997.53990356,0.00036688
4999.46871094,0.00043962
5001.39751831,0.00039998
5003.32632568,0.00035716
5005.25513306,0.00039996
5007.18394043,0.00042101
5009.11274780,0.00037481
5011.04155518,0.00039147
5012.97036255,0.00044696
5014.89916992,0.00045020
5016.82797729,0.00043618
5018.75678467,0.00038242
5020.68559204,0.00037287
5022.61439941,0.00040838
5024.54320679,0.00035383
5026.47201416,0.00031809
5028.40082153,0.00042799
5030.32962891,0.00038883
5032.25843628,0.00034325
5034.18724365,0.00038437
5036.11605103,0.00029552
5038.04485840,0.00032985
5039.97366577,0.00033886
5041.90247314,0.00032617
5043.83128052,0.00033450
5045.76008789,0.00029296
5047.68889526,0.00035981
5049.61770264,0.00038064
5051.54651001,0.00040091
5053.47531738,0.00036361
5055.40412476,0.00034601
5057.33293213,0.00035134
5059.26173950,0.00032446
5061.19054687,0.00039109
5063.11935425,0.00034876
5065.04816162,0.00037150
5066.97696899,0.00036786
5068.90577637,0.00032136
5070.83458374,0.00036965
5072.76339111,0.00033986
5074.69219849,0.00039148
5076.62100586,0.00044608
5078.54981323,0.00038031
5080.47862061,0.00030256
5082.40742798,0.00039714
5084.33623535,0.00039948
5086.26504272,0.00029079
5088.19385010,0.00034025
5090.12265747,0.00033192
5092.05146484,0.00039226
5093.98027222,0.00034823
5095.90907959,0.00030352
5097.83788696,0.00038909
5099.76669434,0.00034605
5101.69550171,0.00033166
5103.62430908,0.00030208
5105.55311645,0.00035755
5107.48192383,0.00033356
5109.41073120,0.00032589
5111.33953857,0.00037942
5113.26834595,0.00031451
5115.19715332,0.00042026
5117.12596069,0.00036568
5119.05476807,0.00029215
5120.98357544,0.00032094
5122.91238281,0.00030401
5124.84119019,0.00030884
5126.76999756,0.00030838
5128.69880493,0.00039122
5130.62761230,0.00022244
5132.55641968,0.00023074
5134.48522705,0.00034581
5136.41403442,0.00026828
5138.34284180,0.00032978
5140.27164917,0.00020435
5142.20045654,0.00028668
5144.12926392,0.00039767
5146.05807129,0.00035981
5147.98687866,0.00042379
5149.91568603,0.00023551
5151.84449341,0.00023954
5153.77330078,0.00031009
5155.70210815,0.00026969
5157.63091553,0.00025891
5159.55972290,0.00021742
5161.48853027,0.00036444
5163.41733765,0.00036158
5165.34614502,0.00026655
5167.27495239,0.00029283
5169.20375977,0.00033046
5171.13256714,0.00033150
5173.06137451,0.00022104
5174.99018188,0.00028771
5176.91898926,0.00035356
5178.84779663,0.00021459
5180.77660400,0.00024430
5182.70541138,0.00031297
5184.63421875,0.00026485
5186.56302612,0.00028539
5188.49183350,0.00028419
5190.42064087,0.00028444
5192.34944824,0.00030397
5194.27825562,0.00027886
5196.20706299,0.00032913
5198.13587036,0.00033310
5200.06467773,0.00027922
5201.99348511,0.00028649
5203.92229248,0.00028231
5205.85109985,0.00023785
5207.77990723,0.00025436
5209.70871460,0.00029473
5211.63752197,0.00024473
5213.56632935,0.00025989
5215.49513672,0.00027492
5217.42394409,0.00030770
5219.35275146,0.00034403
5221.28155884,0.00026193
5223.21036621,0.00028018
5225.13917358,0.00024411
5227.06798096,0.00025310
5228.99678833,0.00029353
5230.92559570,0.00022363
5232.85440308,0.00029169
5234.78321045,0.00023062
5236.71201782,0.00021903
5238.64082520,0.00029478
5240.56963257,0.00025008
5242.49843994,0.00026631
5244.42724731,0.00023831
5246.35605469,0.00030376
5248.28486206,0.00027587
5250.21366943,0.00017827
5252.14247681,0.00027385
5254.07128418,0.00028665
5256.00009155,0.00027631
5257.92889893,0.00028780
5259.85770630,0.00030462
5261.78651367,0.00025440
5263.71532104,0.00020959
5265.64412842,0.00028673
5267.57293579,0.00022737
5269.50174316,0.00024448
5271.43055054,0.00028299
5273.35935791,0.00021392
5275.28816528,0.00024163
5277.21697266,0.00022894
5279.14578003,0.00029171
5281.07458740,0.00029970
5283.00339478,0.00023204
5284.93220215,0.00025611
5286.86100952,0.00018350
5288.78981689,0.00022193
5290.71862427,0.00025817
5292.64743164,0.00018496
5294.57623901,0.00023357
5296.50504639,0.00028577
5298.43385376,0.00026152
5300.36266113,0.00019336
5302.29146851,0.00022181
5304.22027588,0.00024458
5306.14908325,0.00024878
5308.07789062,0.00030543
5310.00669800,0.00022638
5311.93550537,0.00023103
5313.86431274,0.00023851
5315.79312012,0.00013291
5317.72192749,0.00019511
5319.65073486,0.00022458
5321.57954224,0.00018195
5323.50834961,0.00021086
5325.43715698,0.00020413
5327.36596436,0.00024207
5329.29477173,0.00026355
5331.22357910,0.00022108
5333.15238647,0.00026070
5335.08119385,0.00024023
5337.01000122,0.00026891
5338.93880859,0.00026846
5340.86761597,0.00014056
5342.79642334,0.00024661
5344.72523071,0.00022819
5346.65403809,0.00016374
5348.58284546,0.00020317
5350.51165283,0.00015014
5352.44046020,0.00032527
5354.36926758,0.00025633
5356.29807495,0.00013342
5358.22688232,0.00023724
5360.15568970,0.00015372
5362.08449707,0.00019885
5364.01330444,0.00020074
5365.94211182,0.00020714
5367.87091919,0.00020860
5369.79972656,0.00011680
5371.72853394,0.00022397
5373.65734131,0.00017527
5375.58614868,0.00015370
5377.51495605,0.00016452
5379.44376343,0.00010432
5381.37257080,0.00022213
5383.30137817,0.00025604
5385.23018555,0.00022800
5387.15899292,0.00016974
5389.08780029,0.00019736
5391.01660767,0.00026997
5392.94541504,0.00020074
5394.87422241,0.00019378
5396.80302978,0.00016001
5398.73183716,0.00019268
5400.66064453,0.00025236
5402.58945190,0.00013470
5404.51825928,0.00017463
5406.44706665,0.00024142
5408.37587402,0.00012655
5410.30468140,0.00013610
5412.23348877,0.00017990
5414.16229614,0.00014178
5416.09110352,0.00018461
5418.01991089,0.00022354
5419.94871826,0.00020208
5421.87752563,0.00019220
5423.80633301,0.00017197
5425.73514038,0.00014653
5427.66394775,0.00020767
5429.59275513,0.00022437
5431.52156250,0.00014835
5433.45036987,0.00019453
5435.37917725,0.00019413
5437.30798462,0.00015246
5439.23679199,0.00016972
5441.16559936,0.00013335
5443.09440674,0.00016594
5445.02321411,0.00014207
5446.95202148,0.00015391
5448.88082886,0.00021718
5450.80963623,0.00014509
5452.73844360,0.00014246
5454.66725098,0.00014060
5456.59605835,0.00017823
5458.52486572,0.00018822
5460.45367310,0.00014072
5462.38248047,0.00021225
5464.31128784,0.00018491
5466.24009521,0.00021629
5468.16890259,0.00022887
5470.09770996,0.00014585
5472.02651733,0.00019337
5473.95532471,0.00011258
5475.88413208,0.00011202
5477.81293945,0.00020331
5479.74174683,0.00012721
5481.67055420,0.00014804
5483.59936157,0.00013471
5485.52816895,0.00009014
5487.45697632,0.00015719
5489.38578369,0.00016375
5491.31459106,0.00020153
5493.24339844,0.00019973
5495.17220581,0.00013789
5497.10101318,0.00016266
5499.02982056,0.00013342
5500.95862793,0.00014541
5502.88743530,0.00019385
5504.81624268,0.00013427
5506.74505005,0.00013513
5508.67385742,0.00017315
5510.60266479,0.00019255
5512.53147217,0.00017833
5514.46027954,0.00011273
5516.38908691,0.00014814
5518.31789429,0.00018902
5520.24670166,0.00013249
5522.17550903,0.00011882
5524.10431641,0.00017712
5526.03312378,0.00021804
5527.96193115,0.00017866
5529.89073853,0.00009012
5531.81954590,0.00009266
5533.74835327,0.00015749
5535.67716064,0.00012372
5537.60596802,0.00011060
5539.53477539,0.00015039
5541.46358276,0.00013830
5543.39239014,0.00013749
5545.32119751,0.00014687
5547.25000488,0.00014293
5549.17881226,0.00013888
5551.10761963,0.00017418
5553.03642700,0.00020744
5554.96523437,0.00019419
5556.89404175,0.00019248
5558.82284912,0.00016566
5560.75165649,0.00012590
5562.68046387,0.00013741
5564.60927124,0.00012505
5566.53807861,0.00008683
5568.46688599,0.00012537
5570.39569336,0.00011922
5572.32450073,0.00011826
5574.25330811,0.00016104
5576.18211548,0.00012201
5578.11092285,0.00016883
5580.03973022,0.00014396
5581.96853760,0.00011942
5583.89734497,0.00016742
5585.82615234,0.00008028
5587.75495972,0.00017278
5589.68376709,0.00020690
5591.61257446,0.00011443
5593.54138184,0.00013612
5595.47018921,0.00013524
5597.39899658,0.00020077
5599.32780395,0.00016292
5601.25661133,0.00011861
5603.18541870,0.00011767
5605.11422607,0.00007594
5607.04303345,0.00018346
5608.97184082,0.00019378
5610.90064819,0.00016412
5612.82945557,0.00018822
5614.75826294,0.00007605
5616.68707031,0.00003113
5618.61587769,0.00011450
5620.54468506,0.00014524
5622.47349243,0.00016595
5624.40229980,0.00017572
5626.33110718,0.00017366
5628.25991455,0.00018672
5630.18872192,0.00015263
5632.11752930,0.00018100
5634.04633667,0.00014585
5635.97514404,0.00014521
5637.90395142,0.00017740
5639.83275879,0.00009047
5641.76156616,0.00017311
5643.69037353,0.00007141
5645.61918091,0.00004036
5647.54798828,0.00020209
5649.47679565,0.00008077
5651.40560303,0.00012737
5653.33441040,0.00014593
5655.26321777,0.00012905
5657.19202515,0.00017769
5659.12083252,0.00008107
5661.04963989,0.00012362
5662.97844727,0.00011912
5664.90725464,0.00006851
5666.83606201,0.00007856
5668.76486938,0.00014850
5670.69367676,0.00018214
5672.62248413,0.00011354
5674.55129150,0.00014990
5676.48009888,0.00017794
5678.40890625,0.00019584
5680.33771362,0.00012610
5682.26652100,0.00008349
5684.19532837,0.00014005
5686.12413574,0.00009039
5688.05294311,0.00011033
5689.98175049,0.00014529
5691.91055786,0.00011528
5693.83936523,0.00010915
5695.76817261,0.00013666
5697.69697998,0.00011652
5699.62578735,0.00015275
5701.55459473,0.00018797
5703.48340210,0.00006570
5705.41220947,0.00008790
5707.34101685,0.00011142
5709.26982422,0.00010320
5711.19863159,0.00014618
5713.12743896,0.00012890
5715.05624634,0.00010989
5716.98505371,0.00004380
5718.91386108,0.00008333
5720.84266846,0.00011644
5722.77147583,0.00015249
5724.70028320,0.00015693
5726.62909058,0.00004515
5728.55789795,0.00006337
5730.48670532,0.00006579
5732.41551270,0.00014136
5734.34432007,0.00017967
5736.27312744,0.00009065
5738.20193481,0.00011313
5740.13074219,0.00008481
5742.05954956,0.00003852
5743.98835693,0.00008397
5745.91716431,0.00013731
5747.84597168,0.00010275
5749.77477905,0.00006421
5751.70358643,0.00003144
5753.63239380,0.00005841
5755.56120117,0.00013501
5757.49000854,0.00006571
5759.41881592,0.00007895
5761.34762329,0.00008071
5763.27643066,0.00005624
5765.20523804,0.00013781
5767.13404541,0.00010248
5769.06285278,0.00008132
5770.99166016,0.00010634
5772.92046753,0.00014862
5774.84927490,0.00015642
5776.77808228,0.00008221
5778.70688965,0.00008023
5780.63569702,0.00006747
5782.56450439,0.00006180
5784.49331177,0.00010955
5786.42211914,0.00010405
5788.35092651,0.00006800
5790.27973389,0.00002714
5792.20854126,0.00005241
5794.13734863,0.00013528
5796.06615601,0.00010246
5797.99496338,0.00004375
5799.92377075,0.00006333
5801.85257812,0.00011187
5803.78138550,0.00011443
5805.71019287,0.00006901
5807.63900024,0.00013150
5809.56780762,0.00011556
5811.49661499,0.00008323
5813.42542236,0.00012947
5815.35422974,0.00007459
5817.28303711,0.00008449
5819.21184448,0.00007971
5821.14065186,0.00008520
5823.06945923,0.00009692
5824.99826660,0.00004641
5826.92707397,0.00009303
5828.85588135,0.00011063
5830.78468872,0.00011901
5832.71349609,0.00011545
5834.64230347,0.00010577
5836.57111084,0.00010443
5838.49991821,0.00009149
5840.42872559,0.00009090
5842.35753296,0.00005302
5844.28634033,0.00010809
5846.21514770,0.00010842
5848.14395508,0.00005755
5850.07276245,0.00009254
5852.00156982,0.00011958
5853.93037720,0.00009243
5855.85918457,0.00003023
5857.78799194,0.00010065
5859.71679932,0.00008919
5861.64560669,0.00006128
5863.57441406,0.00013109
5865.50322144,0.00008847
5867.43202881,0.00011024
5869.36083618,0.00009796
5871.28964355,0.00004854
5873.21845093,0.00007567
5875.14725830,0.00007999
5877.07606567,0.00002802
5879.00487305,0.00002909
5880.93368042,0.00012918
5882.86248779,0.00010078
5884.79129517,0.00009188
5886.72010254,0.00009661
5888.64890991,0.00006297
5890.57771728,0.00011397
5892.50652466,0.00006772
5894.43533203,0.00004495
5896.36413940,0.00007740
5898.29294678,0.00005551
5900.22175415,0.00006257
5902.15056152,0.00006638
5904.07936890,0.00007502
5906.00817627,0.00008968
5907.93698364,0.00009348
5909.86579102,0.00013523
5911.79459839,0.00008585
5913.72340576,0.00003282
5915.65221313,0.00013766
5917.58102051,0.00008579
5919.50982788,0.00003355
5921.43863525,0.00011606
5923.36744263,0.00007287
5925.29625000,0.00008119
5927.22505737,0.00005031
5929.15386475,0.00000023
5931.08267212,0.00006223
5933.01147949,0.00005351
5934.94028686,0.00008819
5936.86909424,0.00010804
5938.79790161,0.00006765
5940.72670898,0.00005866
5942.65551636,0.00005322
5944.58432373,0.00008416
5946.51313110,0.00003625
5948.44193848,0.00000890
5950.37074585,0.00010184
5952.29955322,0.00009212
5954.22836060,0.00006528
5956.15716797,0.00011273
5958.08597534,0.00006998
5960.01478271,0.00004106
5961.94359009,0.00011302
5963.87239746,0.00009484
5965.80120483,0.00003633
5967.73001221,0.00005799
5969.65881958,0.00004218
5971.58762695,0.00004093
5973.51643433,0.00005750
5975.44524170,0.00006202
5977.37404907,0.00010861
5979.30285645,0.00005374
5981.23166382,0.00005882
5983.16047119,0.00011495
5985.08927856,0.00006414
5987.01808594,0.00010855
5988.94689331,0.00009489
5990.87570068,0.00008227
5992.80450806,0.00016042
5994.73331543,0.00008763
5996.66212280,0.00004891
5998.59093018,0.00008223
6000.51973755,0.00004565
