399.26312622,0.00098448
401.19193359,0.00137271
403.12074097,0.00090421
405.04954834,0.00100549
406.97835571,0.00088053
408.90716309,0.00074966
410.83597046,0.00122135
412.76477783,0.00083292
414.69358521,0.00110994
416.62239258,0.00145364
418.55119995,0.00109903
420.48000732,0.00126441
422.40881470,0.00170279
424.33762207,0.00134418
426.26642944,0.00126617
428.19523682,0.00161718
430.12404419,0.00132009
432.05285156,0.00123161
433.98165894,0.00089427
435.91046631,0.00099263
437.83927368,0.00155287
439.76808105,0.00137672
441.69688843,0.00128966
443.62569580,0.00111116
445.55450317,0.00093883
447.48331055,0.00103604
449.41211792,0.00100473
451.34092529,0.00057847
453.26973267,0.00052276
455.19854004,0.00102931
457.12734741,0.00073692
459.05615479,0.00067133
460.98496216,0.00106581
462.91376953,0.00080267
464.84257690,0.00085749
466.77138428,0.00085875
468.70019165,0.00032275
470.62899902,0.00042318
472.55780640,0.00062439
474.48661377,0.00028391
476.41542114,0.00035088
478.34422852,0.00067532
480.27303589,0.00031267
482.20184326,0.00003345
484.13065063,0.00030126
486.05945801,0.00032493
487.98826538,0.00031082
489.91707275,0.00007731
491.84588013,-0.00013830
493.77468750,0.00036771
495.70349487,0.00025068
497.63230225,-0.00001492
499.56110962,0.00040657
501.48991699,0.00045180
503.41872437,0.00038040
505.34753174,0.00043159
507.27633911,0.00054655
509.20514648,0.00009673
511.13395386,0.00001229
513.06276123,0.00023392
514.99156860,0.00001074
516.92037598,-0.00005228
518.84918335,0.00005577
520.77799072,0.00009371
522.70679810,0.00043410
524.63560547,0.00042627
526.56441284,0.00048232
528.49322021,0.00034027
530.42202759,0.00006948
532.35083496,0.00026364
534.27964233,-0.00012964
536.20844971,-0.00011993
538.13725708,0.00025094
540.06606445,0.00036574
541.99487183,0.00007196
543.92367920,0.00008312
545.85248657,0.00022121
547.78129395,-0.00016742
549.71010132,0.00042054
551.63890869,0.00038112
553.56771606,-0.00015293
555.49652344,0.00001458
557.42533081,-0.00030604
559.35413818,-0.00008964
561.28294556,0.00003188
563.21175293,-0.00016084
565.14056030,0.00037054
567.06936768,0.00028732
568.99817505,-0.00012866
570.92698242,0.00013210
572.85578979,0.00043005
574.78459717,0.00019138
576.71340454,-0.00014627
578.64221191,0.00015077
580.57101929,0.00016820
582.49982666,0.00018942
584.42863403,0.00056285
586.35744141,0.00013093
588.28624878,0.00018437
590.21505615,0.00035948
592.14386353,0.00000796
594.07267090,0.00009374
596.00147827,0.00020710
597.93028564,0.00021850
599.85909302,0.00015918
601.78790039,0.00009408
603.71670776,-0.00012062
605.64551514,0.00003779
607.57432251,0.00045344
609.50312988,0.00049547
611.43193726,0.00000097
613.36074463,0.00008820
615.28955200,0.00007635
617.21835938,-0.00019362
619.14716675,0.00007342
621.07597412,0.00003140
623.00478149,0.00000949
624.93358887,0.00006552
626.86239624,-0.00008933
628.79120361,-0.00011889
630.72001099,0.00003719
632.64881836,0.00065985
634.57762573,0.00057354
636.50643311,0.00061548
638.43524048,0.00127271
640.36404785,0.00092176
642.29285522,0.00095801
644.22166260,0.00127322
646.15046997,0.00127091
648.07927734,0.00155010
650.00808472,0.00140030
651.93689209,0.00151899
653.86569946,0.00154180
655.79450684,0.00139206
657.72331421,0.00183330
659.65212158,0.00196742
661.58092896,0.00203755
663.50973633,0.00205569
665.43854370,0.00207164
667.36735107,0.00209767
669.29615845,0.00198818
671.22496582,0.00220302
673.15377319,0.00222256
675.08258057,0.00238359
677.01138794,0.00249181
678.94019531,0.00241428
680.86900269,0.00253175
682.79781006,0.00248460
684.72661743,0.00250454
686.65542480,0.00250125
688.58423218,0.00285927
690.51303955,0.00285634
692.44184692,0.00247200
694.37065430,0.00300882
696.29946167,0.00369338
698.22826904,0.00400293
700.15707642,0.00423057
702.08588379,0.00445744
704.01469116,0.00387127
705.94349854,0.00324188
707.87230591,0.00273413
709.80111328,0.00173656
711.72992065,0.00164928
713.65872803,0.00111418
715.58753540,0.00058758
717.51634277,0.00073829
719.44515015,0.00008744
721.37395752,0.00001376
723.30276489,0.00008937
725.23157227,-0.00025929
727.16037964,-0.00022304
729.08918701,0.00016177
731.01799438,0.00040567
732.94680176,0.00018199
734.87560913,0.00013188
736.80441650,0.00016940
738.73322388,0.00002181
740.66203125,0.00002796
742.59083862,0.00010191
744.51964600,0.00028364
746.44845337,0.00027406
748.37726074,0.00012296
750.30606812,0.00011776
752.23487549,0.00052473
754.16368286,0.00053347
756.09249023,-0.00000690
758.02129761,0.00033046
759.95010498,0.00048572
761.87891235,0.00025016
763.80771973,0.00036053
765.73652710,0.00042500
767.66533447,0.00049533
769.59414185,0.00005353
771.52294922,0.00001817
773.45175659,0.00039857
775.38056396,0.00017901
777.30937134,0.00024297
779.23817871,0.00040605
781.16698608,0.00044191
783.09579346,0.00024232
785.02460083,-0.00010084
786.95340820,0.00021426
788.88221558,0.00036344
790.81102295,0.00047181
792.73983032,0.00056741
794.66863770,0.00038546
796.59744507,0.00050980
798.52625244,0.00043528
800.45505981,0.00050892
802.38386719,0.00061635
804.31267456,0.00070749
806.24148193,0.00060699
808.17028931,0.00000014
810.09909668,0.00021971
812.02790405,0.00037213
813.95671143,0.00016445
815.88551880,0.00032590
817.81432617,0.00021606
819.74313354,0.00003611
821.67194092,0.00024654
823.60074829,0.00042467
825.52955566,0.00022004
827.45836304,0.00041651
829.38717041,0.00047060
831.31597778,0.00044982
833.24478516,0.00059548
835.17359253,0.00048004
837.10239990,0.00105418
839.03120728,0.00097089
840.96001465,0.00058493
842.88882202,0.00107816
844.81762939,0.00078361
846.74643677,0.00058237
848.67524414,0.00074767
850.60405151,0.00046653
852.53285889,0.00054368
854.46166626,0.00049515
856.39047363,0.00036742
858.31928101,0.00044342
860.24808838,0.00029650
862.17689575,0.00048308
864.10570313,0.00051608
866.03451050,0.00003605
867.96331787,0.00003946
869.89212524,0.00034177
871.82093262,0.00037724
873.74973999,0.00039129
875.67854736,0.00033457
877.60735474,0.00036421
879.53616211,0.00031119
881.46496948,0.00016862
883.39377686,0.00036019
885.32258423,0.00025480
887.25139160,0.00025697
889.18019897,0.00036811
891.10900635,0.00027076
893.03781372,0.00015974
894.96662109,0.00009016
896.89542847,0.00038006
898.82423584,0.00038493
900.75304321,0.00031696
902.68185059,0.00044628
904.61065796,0.00034297
906.53946533,0.00032718
908.46827271,0.00028773
910.39708008,0.00040098
912.32588745,0.00066028
914.25469482,0.00046749
916.18350220,0.00034821
918.11230957,0.00062090
920.04111694,0.00074968
921.96992432,0.00070273
923.89873169,0.00072735
925.82753906,0.00097488
927.75634644,0.00097262
929.68515381,0.00066410
931.61396118,0.00096729
933.54276855,0.00137236
935.47157593,0.00111770
937.40038330,0.00116136
939.32919067,0.00139904
941.25799805,0.00117528
943.18680542,0.00126392
945.11561279,0.00143789
947.04442017,0.00114832
948.97322754,0.00120649
950.90203491,0.00138270
952.83084229,0.00116504
954.75964966,0.00119487
956.68845703,0.00119339
958.61726440,0.00107919
960.54607178,0.00114658
962.47487915,0.00107754
964.40368652,0.00124403
966.33249390,0.00135971
968.26130127,0.00137944
970.19010864,0.00152383
972.11891602,0.00135286
974.04772339,0.00141281
975.97653076,0.00160347
977.90533813,0.00169457
979.83414551,0.00177709
981.76295288,0.00183951
983.69176025,0.00230251
985.62056763,0.00254399
987.54937500,0.00258826
989.47818237,0.00295710
991.40698975,0.00330967
993.33579712,0.00371900
995.26460449,0.00383457
997.19341187,0.00400143
999.12221924,0.00476344
1001.05102661,0.00503467
1002.97983398,0.00527734
1004.90864136,0.00595336
1006.83744873,0.00620332
1008.76625610,0.00648215
1010.69506348,0.00679503
1012.62387085,0.00706966
1014.55267822,0.00763451
1016.48148560,0.00803578
1018.41029297,0.00804857
1020.33910034,0.00830124
1022.26790771,0.00887537
1024.19671509,0.00928522
1026.12552246,0.00976388
1028.05432983,0.00994624
1029.98313721,0.01018645
1031.91194458,0.01052650
1033.84075195,0.01057304
1035.76955933,0.01087872
1037.69836670,0.01085628
1039.62717407,0.01090595
1041.55598145,0.01096973
1043.48478882,0.01081523
1045.41359619,0.01063487
1047.34240356,0.01033851
1049.27121094,0.01057930
1051.20001831,0.01035144
1053.12882568,0.01009462
1055.05763306,0.00989188
1056.98644043,0.00954160
1058.91524780,0.00973049
1060.84405518,0.00922340
1062.77286255,0.00887099
1064.70166992,0.00870756
1066.63047729,0.00822571
1068.55928467,0.00791422
1070.48809204,0.00756061
1072.41689941,0.00737020
1074.34570679,0.00691928
1076.27451416,0.00667389
1078.20332153,0.00631922
1080.13212891,0.00590674
1082.06093628,0.00595612
1083.98974365,0.00555116
1085.91855103,0.00524670
1087.84735840,0.00508538
1089.77616577,0.00478039
1091.70497314,0.00462646
1093.63378052,0.00440477
1095.56258789,0.00427607
1097.49139526,0.00425400
1099.42020264,0.00398892
1101.34901001,0.00378779
1103.27781738,0.00389439
1105.20662476,0.00387545
1107.13543213,0.00374773
1109.06423950,0.00357112
1110.99304687,0.00357415
1112.92185425,0.00366138
1114.85066162,0.00363765
1116.77946899,0.00368574
1118.70827637,0.00350905
1120.63708374,0.00338946
1122.56589111,0.00356297
1124.49469849,0.00368765
1126.42350586,0.00365437
1128.35231323,0.00385226
1130.28112061,0.00409764
1132.20992798,0.00414517
1134.13873535,0.00402876
1136.06754272,0.00392103
1137.99635010,0.00451711
1139.92515747,0.00474208
1141.85396484,0.00489601
1143.78277222,0.00522927
1145.71157959,0.00527253
1147.64038696,0.00600950
1149.56919434,0.00609916
1151.49800171,0.00635780
1153.42680908,0.00697226
1155.35561646,0.00696600
1157.28442383,0.00742864
1159.21323120,0.00755862
1161.14203857,0.00795563
1163.07084595,0.00827490
1164.99965332,0.00832873
1166.92846069,0.00883514
1168.85726807,0.00896362
1170.78607544,0.00932496
1172.71488281,0.00961807
1174.64369019,0.01005682
1176.57249756,0.01058248
1178.50130493,0.01077077
1180.43011230,0.01133756
1182.35891968,0.01185947
1184.28772705,0.01235147
1186.21653442,0.01277798
1188.14534180,0.01329306
1190.07414917,0.01402225
1192.00295654,0.01475389
1193.93176392,0.01538295
1195.86057129,0.01601459
1197.78937866,0.01684802
1199.71818604,0.01737847
1201.64699341,0.01815469
1203.57580078,0.01886303
1205.50460815,0.01959435
1207.43341553,0.02063010
1209.36222290,0.02102217
1211.29103027,0.02169945
1213.21983765,0.02218765
1215.14864502,0.02258441
1217.07745239,0.02332432
1219.00625977,0.02345312
1220.93506714,0.02394531
1222.86387451,0.02422369
1224.79268188,0.02425265
1226.72148926,0.02470120
1228.65029663,0.02472815
1230.57910400,0.02468773
1232.50791138,0.02471473
1234.43671875,0.02469226
1236.36552612,0.02451160
1238.29433350,0.02454804
1240.22314087,0.02482831
1242.15194824,0.02470536
1244.08075562,0.02447109
1246.00956299,0.02416408
1247.93837036,0.02409507
1249.86717773,0.02395107
1251.79598511,0.02375478
1253.72479248,0.02372874
1255.65359985,0.02313539
1257.58240723,0.02278638
1259.51121460,0.02256422
1261.44002197,0.02217815
1263.36882935,0.02194697
1265.29763672,0.02155160
1267.22644409,0.02135751
1269.15525146,0.02115539
1271.08405884,0.02088966
1273.01286621,0.02046219
1274.94167358,0.02002873
1276.87048096,0.01975305
1278.79928833,0.01922437
1280.72809570,0.01883188
1282.65690308,0.01836649
1284.58571045,0.01810007
1286.51451782,0.01790115
1288.44332520,0.01742018
1290.37213257,0.01740533
1292.30093994,0.01723463
1294.22974731,0.01691611
1296.15855469,0.01691465
1298.08736206,0.01692268
1300.01616943,0.01705215
1301.94497681,0.01719124
1303.87378418,0.01732223
1305.80259155,0.01755582
1307.73139893,0.01773610
1309.66020630,0.01779700
1311.58901367,0.01800443
1313.51782104,0.01839114
1315.44662842,0.01879164
1317.37543579,0.01921300
1319.30424316,0.01970351
1321.23305054,0.02034766
1323.16185791,0.02100229
1325.09066528,0.02157477
1327.01947266,0.02202181
1328.94828003,0.02242899
1330.87708740,0.02307000
1332.80589478,0.02369621
1334.73470215,0.02405337
1336.66350952,0.02413315
1338.59231689,0.02381060
1340.52112427,0.02422507
1342.44993164,0.02527080
1344.37873901,0.02533971
1346.30754639,0.02538917
1348.23635376,0.02543169
1350.16516113,0.02526712
1352.09396851,0.02525590
1354.02277588,0.02481870
1355.95158325,0.02465079
1357.88039062,0.02440316
1359.80919800,0.02407927
1361.73800537,0.02283178
1363.66681274,0.02235536
1365.59562012,0.02387644
1367.52442749,0.02314112
1369.45323486,0.02295225
1371.38204224,0.02324036
1373.31084961,0.02178118
1375.23965698,0.02207484
1377.16846436,0.02253702
1379.09727173,0.02278866
1381.02607910,0.02269732
1382.95488647,0.02255928
1384.88369385,0.02274219
1386.81250122,0.02143186
1388.74130859,0.02177204
1390.67011597,0.02398293
1392.59892334,0.02324056
1394.52773071,0.02105793
1396.45653809,0.02267492
1398.38534546,0.02283262
1400.31415283,0.02237471
1402.24296021,0.02464972
1404.17176758,0.02286150
1406.10057495,0.02305455
1408.02938232,0.02420454
1409.95818970,0.02304886
1411.88699707,0.02366145
1413.81580444,0.02275427
1415.74461182,0.02316161
1417.67341919,0.02039902
1419.60222656,0.01805160
1421.53103394,0.02151331
1423.45984131,0.02073576
1425.38864868,0.02001106
1427.31745605,0.02058063
1429.24626343,0.01884498
1431.17507080,0.01821069
1433.10387817,0.01881347
1435.03268555,0.01680227
1436.96149292,0.01390517
1438.89030029,0.01628171
1440.81910767,0.01678419
1442.74791504,0.01556775
1444.67672241,0.01642562
1446.60552979,0.01488137
1448.53433716,0.01513319
1450.46314453,0.01581408
1452.39195190,0.01590541
1454.32075928,0.01648970
1456.24956665,0.01319384
1458.17837402,0.01360069
1460.10718140,0.01894058
1462.03598877,0.02012603
1463.96479614,0.01993009
1465.89360352,0.02059868
1467.82241089,0.02357692
1469.75121826,0.02543030
1471.68002563,0.02197737
1473.60883301,0.02335584
1475.53764038,0.02675620
1477.46644775,0.02896492
1479.39525513,0.03199029
1481.32406250,0.03216156
1483.25286987,0.03454155
1485.18167725,0.03518111
1487.11048462,0.03415855
1489.03929199,0.03369181
1490.96809937,0.03387769
1492.89690674,0.04046509
1494.82571411,0.03892038
1496.75452148,0.03428038
1498.68332886,0.03943649
1500.61213623,0.04081871
1502.54094360,0.04420159
1504.46975098,0.04103694
1506.39855835,0.02792281
1508.32736572,0.03526038
1510.25617310,0.04248752
1512.18498047,0.04119033
1514.11378784,0.04505840
1516.04259521,0.03953326
1517.97140259,0.04155567
1519.90020996,0.03995263
1521.82901733,0.03362746
1523.75782471,0.04276521
1525.68663208,0.04162078
1527.61543945,0.04149148
1529.54424683,0.04693013
1531.47305420,0.04457486
1533.40186157,0.04007055
1535.33066895,0.04322148
1537.25947632,0.04664019
1539.18828369,0.03128197
1541.11709106,0.03312359
1543.04589844,0.04073511
1544.97470581,0.03896129
1546.90351318,0.04772166
1548.83232056,0.04384088
1550.76112793,0.04539689
1552.68993530,0.04495200
1554.61874268,0.04017656
1556.54755005,0.04332695
1558.47635742,0.02811137
1560.40516479,0.03137753
1562.33397217,0.04786492
1564.26277954,0.04470070
1566.19158691,0.04627586
1568.12039429,0.04540846
1570.04920166,0.03934676
1571.97800903,0.04696401
1573.90681641,0.04704171
1575.83562378,0.03594872
1577.76443115,0.04202805
1579.69323853,0.04754865
1581.62204590,0.04557182
1583.55085327,0.04734826
1585.47966064,0.04628216
1587.40846802,0.04680920
1589.33727539,0.04602647
1591.26608276,0.04605352
1593.19489014,0.04622103
1595.12369751,0.04533124
1597.05250488,0.04622129
1598.98131226,0.04594402
1600.91011963,0.04610541
1602.83892700,0.04511894
1604.76773437,0.04617025
1606.69654175,0.04538797
1608.62534912,0.04508562
1610.55415649,0.04507104
1612.48296387,0.04550260
1614.41177124,0.04607854
1616.34057861,0.03640850
1618.26938599,0.04038662
1620.19819336,0.04795730
1622.12700073,0.04148992
1624.05580811,0.04187348
1625.98461548,0.04439309
1627.91342285,0.04406435
1629.84223022,0.04401215
1631.77103760,0.04755132
1633.69984497,0.04281417
1635.62865234,0.03411206
1637.55745972,0.04124321
1639.48626709,0.04611412
1641.41507446,0.04501568
1643.34388184,0.04636456
1645.27268921,0.04064526
1647.20149658,0.03483792
1649.13030396,0.04537303
1651.05911133,0.04231987
1652.98791870,0.02467187
1654.91672607,0.03629570
1656.84553345,0.04716035
1658.77434082,0.04490621
1660.70314819,0.04619829
1662.63195557,0.04101457
1664.56076294,0.04380482
1666.48957031,0.04761995
1668.41837769,0.04013483
1670.34718506,0.03877130
1672.27599243,0.04526735
1674.20479980,0.04081546
1676.13360718,0.03886264
1678.06241455,0.04608528
1679.99122192,0.04383208
1681.92002930,0.04280158
1683.84883667,0.03336885
1685.77764404,0.03366495
1687.70645142,0.04820967
1689.63525879,0.04054490
1691.56406616,0.04581863
1693.49287354,0.04622028
1695.42168091,0.03188766
1697.35048828,0.04115033
1699.27929565,0.03466296
1701.20810303,0.03099414
1703.13691040,0.04483487
1705.06571777,0.04005245
1706.99452515,0.04080454
1708.92333252,0.04490081
1710.85213989,0.04272126
1712.78094727,0.04370886
1714.70975464,0.03978356
1716.63856201,0.03498475
1718.56736938,0.03446911
1720.49617676,0.04237239
1722.42498413,0.04423730
1724.35379150,0.04060837
1726.28259888,0.04514858
1728.21140625,0.04087566
1730.14021362,0.04133566
1732.06902100,0.04010091
1733.99782837,0.02882924
1735.92663574,0.03813506
1737.85544312,0.04240324
1739.78425049,0.03693639
1741.71305786,0.04100351
1743.64186523,0.04133857
1745.57067261,0.04168853
1747.49947998,0.04180292
1749.42828735,0.03944739
1751.35709473,0.03765149
1753.28590210,0.04282805
1755.21470947,0.04494955
1757.14351685,0.04005739
1759.07232422,0.04512573
1761.00113159,0.04167511
1762.92993896,0.04012055
1764.85874634,0.04722643
1766.78755371,0.04144377
1768.71636108,0.04197851
1770.64516846,0.04154123
1772.57397583,0.03673204
1774.50278320,0.04196570
1776.43159058,0.04458248
1778.36039795,0.04394103
1780.28920532,0.04327364
1782.21801270,0.04374427
1784.14682007,0.04356439
1786.07562744,0.04259760
1788.00443481,0.04548252
1789.93324219,0.04387051
1791.86204956,0.03871150
1793.79085693,0.04083479
1795.71966431,0.04435641
1797.64847168,0.04381173
1799.57727905,0.04305832
1801.50608643,0.04197036
1803.43489380,0.04378136
1805.36370117,0.04491802
1807.29250854,0.04427894
1809.22131592,0.04446421
1811.15012329,0.04281019
1813.07893066,0.04464347
1815.00773804,0.04485193
1816.93654541,0.04417945
1818.86535278,0.04462031
1820.79416016,0.04422143
1822.72296753,0.04502748
1824.65177490,0.04142585
1826.58058228,0.04328120
1828.50938965,0.04334114
1830.43819702,0.04009150
1832.36700439,0.04457111
1834.29581177,0.04415978
1836.22461914,0.04405904
1838.15342651,0.04388303
1840.08223389,0.04430668
1842.01104126,0.04427101
1843.93984863,0.03821874
1845.86865601,0.04148044
1847.79746338,0.04414759
1849.72627075,0.04304855
1851.65507812,0.04464290
1853.58388550,0.04355124
1855.51269287,0.04409527
1857.44150024,0.04368284
1859.37030762,0.04345308
1861.29911499,0.04374528
1863.22792236,0.04302024
1865.15672974,0.04366712
1867.08553711,0.04176326
1869.01434448,0.03959079
1870.94315186,0.04164240
1872.87195923,0.04360352
1874.80076660,0.04283588
1876.72957397,0.04305174
1878.65838135,0.04277987
1880.58718872,0.04265252
1882.51599609,0.04305822
1884.44480347,0.04203267
1886.37361084,0.04285661
1888.30241821,0.04171122
1890.23122559,0.04060370
1892.16003296,0.04237267
1894.08884033,0.04176292
1896.01764771,0.04166680
1897.94645508,0.04208501
1899.87526245,0.04174995
1901.80406982,0.04191484
1903.73287720,0.04166246
1905.66168457,0.04180115
1907.59049194,0.04125057
1909.51929932,0.04103940
1911.44810669,0.04126369
1913.37691406,0.04141716
1915.30572144,0.04191204
1917.23452881,0.03949045
1919.16333618,0.03952809
1921.09214355,0.04131308
1923.02095093,0.03969258
1924.94975830,0.04071217
1926.87856567,0.04114844
1928.80737305,0.04058550
1930.73618042,0.04113692
1932.66498779,0.04029506
1934.59379517,0.04073326
1936.52260254,0.04044340
1938.45140991,0.04074723
1940.38021729,0.04053919
1942.30902466,0.03885522
1944.23783203,0.03995400
1946.16663940,0.04036742
1948.09544678,0.04032724
1950.02425415,0.04049876
1951.95306152,0.04015025
1953.88186890,0.04017529
1955.81067627,0.03984669
1957.73948364,0.04002077
1959.66829102,0.03994664
1961.59709839,0.03983918
1963.52590576,0.04006569
1965.45471313,0.03960434
1967.38352051,0.03903008
1969.31232788,0.03949474
1971.24113525,0.03978424
1973.16994263,0.03942206
1975.09875000,0.03957836
1977.02755737,0.03940336
1978.95636475,0.03943358
1980.88517212,0.03919947
1982.81397949,0.03892059
1984.74278687,0.03905422
1986.67159424,0.03866387
1988.60040161,0.03881080
1990.52920898,0.03834405
1992.45801636,0.03789092
1994.38682373,0.03847704
1996.31563110,0.03853720
1998.24443848,0.03831313
2000.17324585,0.03824540
2002.10205322,0.03817684
2004.03086060,0.03804804
2005.95966797,0.03800765
2007.88847534,0.03785174
2009.81728271,0.03781394
2011.74609009,0.03778806
2013.67489746,0.03763366
2015.60370483,0.03731719
2017.53251221,0.03693115
2019.46131958,0.03718121
2021.39012695,0.03717029
2023.31893433,0.03697911
2025.24774170,0.03686766
2027.17654907,0.03670744
2029.10535645,0.03672668
2031.03416382,0.03657183
2032.96297119,0.03654238
2034.89177856,0.03636676
2036.82058594,0.03626917
2038.74939331,0.03623949
2040.67820068,0.03592816
2042.60700806,0.03584308
2044.53581543,0.03591296
2046.46462280,0.03568833
2048.39343018,0.03541797
2050.32223755,0.03548064
2052.25104492,0.03538598
2054.17985229,0.03533782
2056.10865967,0.03517916
2058.03746704,0.03503619
2059.96627441,0.03509669
2061.89508179,0.03491755
2063.82388916,0.03481644
2065.75269653,0.03454309
2067.68150391,0.03455838
2069.61031128,0.03456062
2071.53911865,0.03435537
2073.46792603,0.03436921
2075.39673340,0.03420887
2077.32554077,0.03423401
2079.25434814,0.03417019
2081.18315552,0.03406437
2083.11196289,0.03390630
2085.04077026,0.03386302
2086.96957764,0.03388707
2088.89838501,0.03358024
2090.82719238,0.03348986
2092.75599976,0.03335970
2094.68480713,0.03346600
2096.61361450,0.03350465
2098.54242187,0.03327160
2100.47122925,0.03327451
2102.40003662,0.03321338
2104.32884399,0.03312789
2106.25765137,0.03302802
2108.18645874,0.03295707
2110.11526611,0.03286060
2112.04407349,0.03292847
2113.97288086,0.03273078
2115.90168823,0.03253774
2117.83049561,0.03266081
2119.75930298,0.03237391
2121.68811035,0.03236384
2123.61691772,0.03233776
2125.54572510,0.03222592
2127.47453247,0.03226120
2129.40333984,0.03212119
2131.33214722,0.03212486
2133.26095459,0.03206564
2135.18976196,0.03198743
2137.11856934,0.03185172
2139.04737671,0.03191210
2140.97618408,0.03191201
2142.90499146,0.03172274
2144.83379883,0.03183085
2146.76260620,0.03175795
2148.69141357,0.03163951
2150.62022095,0.03160694
2152.54902832,0.03162779
2154.47783569,0.03157386
2156.40664307,0.03135395
2158.33545044,0.03135165
2160.26425781,0.03133158
2162.19306519,0.03120356
2164.12187256,0.03118365
2166.05067993,0.03118539
2167.97948730,0.03112740
2169.90829468,0.03110840
2171.83710205,0.03107183
2173.76590942,0.03101455
2175.69471680,0.03100674
2177.62352417,0.03097524
2179.55233154,0.03082514
2181.48113892,0.03073163
2183.40994629,0.03075908
2185.33875366,0.03079367
2187.26756104,0.03087550
2189.19636841,0.03072158
2191.12517578,0.03067982
2193.05398315,0.03057070
2194.98279053,0.03042545
2196.91159790,0.03053771
2198.84040527,0.03031336
2200.76921265,0.03049165
2202.69802002,0.03056002
2204.62682739,0.03027822
2206.55563477,0.03028940
2208.48444214,0.03020062
2210.41324951,0.03022164
2212.34205688,0.03012804
2214.27086426,0.03011202
2216.19967163,0.03005068
2218.12847900,0.03008591
2220.05728638,0.03008922
2221.98609375,0.02976608
2223.91490112,0.02993845
2225.84370850,0.02990736
2227.77251587,0.02978000
2229.70132324,0.02977860
2231.63013062,0.02972897
2233.55893799,0.02976778
2235.48774536,0.02963659
2237.41655273,0.02962113
2239.34536011,0.02954439
2241.27416748,0.02946806
2243.20297485,0.02934083
2245.13178223,0.02940714
2247.06058960,0.02942762
2248.98939697,0.02919300
2250.91820435,0.02925236
2252.84701172,0.02912339
2254.77581909,0.02901424
2256.70462646,0.02903469
2258.63343384,0.02913278
2260.56224121,0.02898961
2262.49104858,0.02885950
2264.41985596,0.02907530
2266.34866333,0.02885094
2268.27747070,0.02883393
2270.20627808,0.02878984
2272.13508545,0.02862250
2274.06389282,0.02874792
2275.99270020,0.02879870
2277.92150757,0.02873904
2279.85031494,0.02852024
2281.77912231,0.02857756
2283.70792969,0.02848829
2285.63673706,0.02834734
2287.56554443,0.02841245
2289.49435181,0.02833193
2291.42315918,0.02828625
2293.35196655,0.02822175
2295.28077393,0.02825388
2297.20958130,0.02813028
2299.13838867,0.02793456
2301.06719604,0.02784806
2302.99600342,0.02779293
2304.92481079,0.02765847
2306.85361816,0.02737298
2308.78242554,0.02724699
2310.71123291,0.02703738
2312.64004028,0.02679729
2314.56884766,0.02665597
2316.49765503,0.02632169
2318.42646240,0.02585104
2320.35526978,0.02565996
2322.28407715,0.02540351
2324.21288452,0.02503549
2326.14169189,0.02493134
2328.07049927,0.02455022
2329.99930664,0.02421378
2331.92811401,0.02405370
2333.85692139,0.02398675
2335.78572876,0.02387279
2337.71453613,0.02369446
2339.64334351,0.02384204
2341.57215088,0.02393463
2343.50095825,0.02413953
2345.42976562,0.02455273
2347.35857300,0.02564308
2349.28738037,0.02625553
2351.21618774,0.02533943
2353.14499512,0.02430478
2355.07380249,0.02333315
2357.00260986,0.02288226
2358.93141724,0.02248533
2360.86022461,0.02197402
2362.78903198,0.02206761
2364.71783936,0.02224008
2366.64664673,0.02245053
2368.57545410,0.02266460
2370.50426147,0.02329806
2372.43306885,0.02393508
2374.36187622,0.02446167
2376.29068359,0.02507854
2378.21949097,0.02543401
2380.14829834,0.02589249
2382.07710571,0.02613521
2384.00591309,0.02631033
2385.93472046,0.02636526
2387.86352783,0.02632799
2389.79233521,0.02636874
2391.72114258,0.02632138
2393.64994995,0.02636161
2395.57875732,0.02624949
2397.50756470,0.02617559
2399.43637207,0.02608234
2401.36517944,0.02612350
2403.29398682,0.02610019
2405.22279419,0.02595900
2407.15160156,0.02604702
2409.08040894,0.02592450
2411.00921631,0.02589991
2412.93802368,0.02583225
2414.86683105,0.02580995
2416.79563843,0.02584837
2418.72444580,0.02574841
2420.65325317,0.02572221
2422.58206055,0.02556471
2424.51086792,0.02566195
2426.43967529,0.02564212
2428.36848267,0.02553469
2430.29729004,0.02555877
2432.22609741,0.02533123
2434.15490479,0.02535812
2436.08371216,0.02543400
2438.01251953,0.02521627
2439.94132690,0.02516156
2441.87013428,0.02526238
2443.79894165,0.02519534
2445.72774902,0.02520496
2447.65655640,0.02514192
2449.58536377,0.02505169
2451.51417114,0.02509226
2453.44297852,0.02490089
2455.37178589,0.02493703
2457.30059326,0.02498375
2459.22940063,0.02482473
2461.15820801,0.02479485
2463.08701538,0.02469809
2465.01582275,0.02465673
2466.94463013,0.02470610
2468.87343750,0.02460643
2470.80224487,0.02451711
2472.73105225,0.02465510
2474.65985962,0.02458714
2476.58866699,0.02449095
2478.51747437,0.02456794
2480.44628174,0.02453109
2482.37508911,0.02442922
2484.30389648,0.02431832
2486.23270386,0.02436449
2488.16151123,0.02423051
2490.09031860,0.02418763
2492.01912598,0.02432615
2493.94793335,0.02427205
2495.87674072,0.02422896
2497.80554810,0.02411319
2499.73435547,0.02412158
2501.66316284,0.02398460
2503.59197021,0.02388252
2505.52077759,0.02395510
2507.44958496,0.02381437
2509.37839233,0.02386081
2511.30719971,0.02381839
2513.23600708,0.02367561
2515.16481445,0.02373771
2517.09362183,0.02373380
2519.02242920,0.02362660
2520.95123657,0.02369902
2522.88004395,0.02362870
2524.80885132,0.02341337
2526.73765869,0.02357787
2528.66646606,0.02347558
2530.59527344,0.02336610
2532.52408081,0.02348031
2534.45288818,0.02335148
2536.38169556,0.02339251
2538.31050293,0.02341063
2540.23931030,0.02321044
2542.16811768,0.02308764
2544.09692505,0.02318484
2546.02573242,0.02320042
2547.95453979,0.02305319
2549.88334717,0.02300264
2551.81215454,0.02301705
2553.74096191,0.02290817
2555.66976929,0.02272695
2557.59857666,0.02289722
2559.52738403,0.02286802
2561.45619141,0.02265234
2563.38499878,0.02282313
2565.31380615,0.02287747
2567.24261353,0.02274002
2569.17142090,0.02261263
2571.10022827,0.02264754
2573.02903564,0.02263924
2574.95784302,0.02247766
2576.88665039,0.02246194
2578.81545776,0.02243175
2580.74426514,0.02237580
2582.67307251,0.02231826
2584.60187988,0.02229403
2586.53068726,0.02232860
2588.45949463,0.02217021
2590.38830200,0.02209954
2592.31710937,0.02222926
2594.24591675,0.02207979
2596.17472412,0.02197895
2598.10353149,0.02199605
2600.03233887,0.02189824
2601.96114624,0.02196189
2603.88995361,0.02188798
2605.81876099,0.02183250
2607.74756836,0.02185227
2609.67637573,0.02176797
2611.60518311,0.02180552
2613.53399048,0.02172216
2615.46279785,0.02159560
2617.39160522,0.02151069
2619.32041260,0.02150406
2621.24921997,0.02152077
2623.17802734,0.02142023
2625.10683472,0.02132887
2627.03564209,0.02127146
2628.96444946,0.02132210
2630.89325684,0.02121843
2632.82206421,0.02110576
2634.75087158,0.02121090
2636.67967895,0.02120043
2638.60848633,0.02107342
2640.53729370,0.02104857
2642.46610107,0.02105320
2644.39490845,0.02092589
2646.32371582,0.02085411
2648.25252319,0.02080659
2650.18133057,0.02081180
2652.11013794,0.02084367
2654.03894531,0.02074345
2655.96775269,0.02062157
2657.89656006,0.02053838
2659.82536743,0.02055445
2661.75417480,0.02043874
2663.68298218,0.02041209
2665.61178955,0.02046335
2667.54059692,0.02036364
2669.46940430,0.02036631
2671.39821167,0.02025101
2673.32701904,0.02018245
2675.25582642,0.02013681
2677.18463379,0.02003669
2679.11344116,0.02015210
2681.04224854,0.02008633
2682.97105591,0.01988572
2684.89986328,0.01994536
2686.82867065,0.01998037
2688.75747803,0.01990431
2690.68628540,0.01987443
2692.61509277,0.01968248
2694.54390015,0.01968608
2696.47270752,0.01973545
2698.40151489,0.01953965
2700.33032227,0.01957602
2702.25912964,0.01957750
2704.18793701,0.01953747
2706.11674438,0.01943750
2708.04555176,0.01936344
2709.97435913,0.01942278
2711.90316650,0.01926324
2713.83197388,0.01924181
2715.76078125,0.01923362
2717.68958862,0.01917399
2719.61839600,0.01910173
2721.54720337,0.01894109
2723.47601074,0.01898496
2725.40481812,0.01900962
2727.33362549,0.01891339
2729.26243286,0.01876745
2731.19124023,0.01874065
2733.12004761,0.01868021
2735.04885498,0.01857889
2736.97766235,0.01867455
2738.90646973,0.01859686
2740.83527710,0.01851814
2742.76408447,0.01847447
2744.69289185,0.01840186
2746.62169922,0.01848842
2748.55050659,0.01838530
2750.47931396,0.01828487
2752.40812134,0.01832705
2754.33692871,0.01822096
2756.26573608,0.01817281
2758.19454346,0.01808875
2760.12335083,0.01801063
2762.05215820,0.01803787
2763.98096558,0.01786489
2765.90977295,0.01785879
2767.83858032,0.01782731
2769.76738770,0.01765827
2771.69619507,0.01771513
2773.62500244,0.01762470
2775.55380981,0.01755858
2777.48261719,0.01754820
2779.41142456,0.01750815
2781.34023193,0.01741174
2783.26903931,0.01728546
2785.19784668,0.01738284
2787.12665405,0.01730942
2789.05546143,0.01719474
2790.98426880,0.01717839
2792.91307617,0.01714549
2794.84188354,0.01707965
2796.77069092,0.01705250
2798.69949829,0.01704419
2800.62830566,0.01683931
2802.55711304,0.01681603
2804.48592041,0.01672466
2806.41472778,0.01669311
2808.34353516,0.01671597
2810.27234253,0.01648979
2812.20114990,0.01650090
2814.12995728,0.01643036
2816.05876465,0.01635824
2817.98757202,0.01625932
2819.91637939,0.01625674
2821.84518677,0.01630937
2823.77399414,0.01612197
2825.70280151,0.01625183
2827.63160889,0.01607401
2829.56041626,0.01586800
2831.48922363,0.01590673
2833.41803101,0.01582339
2835.34683838,0.01586428
2837.27564575,0.01568304
2839.20445312,0.01564170
2841.13326050,0.01558085
2843.06206787,0.01540811
2844.99087524,0.01535855
2846.91968262,0.01530893
2848.84848999,0.01534248
2850.77729736,0.01515340
2852.70610474,0.01507055
2854.63491211,0.01510845
2856.56371948,0.01513325
2858.49252686,0.01511768
2860.42133423,0.01500479
2862.35014160,0.01495838
2864.27894897,0.01486505
2866.20775635,0.01494664
2868.13656372,0.01490047
2870.06537109,0.01474638
2871.99417847,0.01464283
2873.92298584,0.01456759
2875.85179321,0.01462479
2877.78060059,0.01446470
2879.70940796,0.01438634
2881.63821533,0.01434828
2883.56702270,0.01426193
2885.49583008,0.01422244
2887.42463745,0.01421149
2889.35344482,0.01422242
2891.28225220,0.01412305
2893.21105957,0.01414501
2895.13986694,0.01396826
2897.06867432,0.01385248
2898.99748169,0.01387971
2900.92628906,0.01376639
2902.85509644,0.01377665
2904.78390381,0.01369676
2906.71271118,0.01363244
2908.64151855,0.01352617
2910.57032593,0.01349706
2912.49913330,0.01345958
2914.42794067,0.01332781
2916.35674805,0.01336445
2918.28555542,0.01327968
2920.21436279,0.01327733
2922.14317017,0.01323724
2924.07197754,0.01319877
2926.00078491,0.01318467
2927.92959229,0.01310864
2929.85839966,0.01316927
2931.78720703,0.01309374
2933.71601440,0.01305181
2935.64482178,0.01299883
2937.57362915,0.01303289
2939.50243652,0.01294491
2941.43124390,0.01279004
2943.36005127,0.01290349
2945.28885864,0.01268970
2947.21766602,0.01261895
2949.14647339,0.01262937
2951.07528076,0.01250947
2953.00408813,0.01252603
2954.93289551,0.01240282
2956.86170288,0.01244437
2958.79051025,0.01253190
2960.71931763,0.01239087
2962.64812500,0.01219489
2964.57693237,0.01223775
2966.50573975,0.01224452
2968.43454712,0.01215157
2970.36335449,0.01218046
2972.29216187,0.01198134
2974.22096924,0.01193326
2976.14977661,0.01197929
2978.07858398,0.01191289
2980.00739136,0.01185742
2981.93619873,0.01179438
2983.86500610,0.01187920
2985.79381348,0.01180602
2987.72262085,0.01170925
2989.65142822,0.01166788
2991.58023560,0.01161095
2993.50904297,0.01160896
2995.43785034,0.01157233
2997.36665771,0.01161947
2999.29546509,0.01159496
3001.22427246,0.01146299
3003.15307983,0.01134418
3005.08188721,0.01126354
3007.01069458,0.01120875
3008.93950195,0.01122834
3010.86830933,0.01116079
3012.79711670,0.01102531
3014.72592407,0.01110162
3016.65473145,0.01108961
3018.58353882,0.01106267
3020.51234619,0.01102143
3022.44115356,0.01090815
3024.36996094,0.01083768
3026.29876831,0.01082115
3028.22757568,0.01095321
3030.15638306,0.01077519
3032.08519043,0.01065633
3034.01399780,0.01066272
3035.94280518,0.01049261
3037.87161255,0.01059933
3039.80041992,0.01051720
3041.72922729,0.01037691
3043.65803467,0.01044718
3045.58684204,0.01038581
3047.51564941,0.01035114
3049.44445679,0.01029389
3051.37326416,0.01025237
3053.30207153,0.01021399
3055.23087891,0.01018088
3057.15968628,0.01017144
3059.08849365,0.01002308
3061.01730103,0.00999413
3062.94610840,0.01005519
3064.87491577,0.01000844
3066.80372314,0.01005955
3068.73253052,0.01007775
3070.66133789,0.00995170
3072.59014526,0.00988236
3074.51895264,0.00981939
3076.44776001,0.00982392
3078.37656738,0.00986432
3080.30537476,0.00974586
3082.23418213,0.00965766
3084.16298950,0.00969597
3086.09179687,0.00967407
3088.02060425,0.00960264
3089.94941162,0.00961359
3091.87821899,0.00956241
3093.80702637,0.00951946
3095.73583374,0.00951393
3097.66464111,0.00938471
3099.59344849,0.00939251
3101.52225586,0.00941288
3103.45106323,0.00939763
3105.37987061,0.00942362
3107.30867798,0.00928042
3109.23748535,0.00921856
3111.16629272,0.00921173
3113.09510010,0.00917543
3115.02390747,0.00914608
3116.95271484,0.00910684
3118.88152222,0.00915160
3120.81032959,0.00913369
3122.73913696,0.00916514
3124.66794434,0.00912537
3126.59675171,0.00902994
3128.52555908,0.00905017
3130.45436645,0.00895132
3132.38317383,0.00893270
3134.31198120,0.00886757
3136.24078857,0.00885151
3138.16959595,0.00899088
3140.09840332,0.00885544
3142.02721069,0.00880189
3143.95601807,0.00877337
3145.88482544,0.00870951
3147.81363281,0.00884864
3149.74244019,0.00879204
3151.67124756,0.00868708
3153.60005493,0.00864407
3155.52886230,0.00860333
3157.45766968,0.00869099
3159.38647705,0.00857033
3161.31528442,0.00844754
3163.24409180,0.00860569
3165.17289917,0.00863002
3167.10170654,0.00855938
3169.03051392,0.00848087
3170.95932129,0.00838439
3172.88812866,0.00840579
3174.81693604,0.00838619
3176.74574341,0.00845859
3178.67455078,0.00853587
3180.60335815,0.00842839
3182.53216553,0.00838611
3184.46097290,0.00835441
3186.38978027,0.00838172
3188.31858765,0.00843056
3190.24739502,0.00831793
3192.17620239,0.00825468
3194.10500977,0.00828417
3196.03381714,0.00829799
3197.96262451,0.00828124
3199.89143188,0.00827972
3201.82023926,0.00836611
3203.74904663,0.00830157
3205.67785400,0.00816487
3207.60666138,0.00830114
3209.53546875,0.00832647
3211.46427612,0.00828283
3213.39308350,0.00832254
3215.32189087,0.00820315
3217.25069824,0.00824082
3219.17950562,0.00824759
3221.10831299,0.00814199
3223.03712036,0.00814762
3224.96592773,0.00817037
3226.89473511,0.00823105
3228.82354248,0.00812537
3230.75234985,0.00805545
3232.68115723,0.00810652
3234.60996460,0.00814511
3236.53877197,0.00820177
3238.46757935,0.00812059
3240.39638672,0.00812001
3242.32519409,0.00812446
3244.25400146,0.00799654
3246.18280884,0.00803648
3248.11161621,0.00813413
3250.04042358,0.00811977
3251.96923096,0.00819159
3253.89803833,0.00819424
3255.82684570,0.00807053
3257.75565308,0.00814118
3259.68446045,0.00816353
3261.61326782,0.00814478
3263.54207520,0.00819192
3265.47088257,0.00817119
3267.39968994,0.00817548
3269.32849731,0.00810953
3271.25730469,0.00808245
3273.18611206,0.00812907
3275.11491943,0.00811934
3277.04372681,0.00806891
3278.97253418,0.00810971
3280.90134155,0.00816489
3282.83014893,0.00808021
3284.75895630,0.00811119
3286.68776367,0.00814421
3288.61657104,0.00814515
3290.54537842,0.00809349
3292.47418579,0.00804012
3294.40299316,0.00817371
3296.33180054,0.00812521
3298.26060791,0.00811905
3300.18941528,0.00815798
3302.11822266,0.00809593
3304.04703003,0.00814920
3305.97583740,0.00810610
3307.90464478,0.00808357
3309.83345215,0.00804593
3311.76225952,0.00807247
3313.69106689,0.00817073
3315.61987427,0.00809417
3317.54868164,0.00813093
3319.47748901,0.00814817
3321.40629639,0.00809592
3323.33510376,0.00810549
3325.26391113,0.00808102
3327.19271851,0.00810027
3329.12152588,0.00812221
3331.05033325,0.00815897
3332.97914062,0.00818646
3334.90794800,0.00813745
3336.83675537,0.00807248
3338.76556274,0.00815133
3340.69437012,0.00823427
3342.62317749,0.00814759
3344.55198486,0.00816753
3346.48079224,0.00818122
3348.40959961,0.00815185
3350.33840698,0.00818249
3352.26721436,0.00813627
3354.19602173,0.00808883
3356.12482910,0.00805491
3358.05363647,0.00808431
3359.98244385,0.00813346
3361.91125122,0.00812975
3363.84005859,0.00807925
3365.76886597,0.00808762
3367.69767334,0.00811543
3369.62648071,0.00803509
3371.55528809,0.00812135
3373.48409546,0.00822160
3375.41290283,0.00823013
3377.34171020,0.00816305
3379.27051758,0.00814267
3381.19932495,0.00826451
3383.12813232,0.00813929
3385.05693970,0.00813498
3386.98574707,0.00818582
3388.91455444,0.00817071
3390.84336182,0.00822998
3392.77216919,0.00811158
3394.70097656,0.00814234
3396.62978394,0.00809728
3398.55859131,0.00806823
3400.48739868,0.00821246
3402.41620605,0.00816330
3404.34501343,0.00815870
3406.27382080,0.00817084
3408.20262817,0.00810924
3410.13143555,0.00811397
3412.06024292,0.00820728
3413.98905029,0.00817216
3415.91785767,0.00815484
3417.84666504,0.00819769
3419.77547241,0.00815946
3421.70427979,0.00820163
3423.63308716,0.00815256
3425.56189453,0.00820631
3427.49070190,0.00822893
3429.41950928,0.00817852
3431.34831665,0.00825318
3433.27712402,0.00816809
3435.20593140,0.00810828
3437.13473877,0.00813335
3439.06354614,0.00816955
3440.99235352,0.00810850
3442.92116089,0.00813947
3444.84996826,0.00815655
3446.77877563,0.00800832
3448.70758301,0.00815048
3450.63639038,0.00819342
3452.56519775,0.00813496
3454.49400513,0.00814203
3456.42281250,0.00805542
3458.35161987,0.00809748
3460.28042725,0.00819814
3462.20923462,0.00818106
3464.13804199,0.00811613
3466.06684937,0.00816832
3467.99565674,0.00818003
3469.92446411,0.00812271
3471.85327148,0.00807152
3473.78207886,0.00813589
3475.71088623,0.00813909
3477.63969360,0.00805974
3479.56850098,0.00812519
3481.49730835,0.00803120
3483.42611572,0.00808827
3485.35492310,0.00812435
3487.28373047,0.00801115
3489.21253784,0.00806869
3491.14134521,0.00811797
3493.07015259,0.00820244
3494.99895996,0.00814750
3496.92776733,0.00810432
3498.85657471,0.00812698
3500.78538208,0.00819959
3502.71418945,0.00802486
3504.64299683,0.00795768
3506.57180420,0.00823467
3508.50061157,0.00794676
3510.42941895,0.00804299
3512.35822632,0.00821248
3514.28703369,0.00813025
3516.21584106,0.00829481
3518.14464844,0.00808447
3520.07345581,0.00824016
3522.00226318,0.00812085
3523.93107056,0.00783077
3525.85987793,0.00802327
3527.78868530,0.00790880
3529.71749268,0.00803634
3531.64630005,0.00820800
3533.57510742,0.00820383
3535.50391479,0.00808845
3537.43272217,0.00795553
3539.36152954,0.00819924
3541.29033691,0.00817304
3543.21914429,0.00798772
3545.14795166,0.00786924
3547.07675903,0.00777363
3549.00556641,0.00811462
3550.93437378,0.00819751
3552.86318115,0.00790146
3554.79198853,0.00794319
3556.72079590,0.00806089
3558.64960327,0.00806708
3560.57841064,0.00794873
3562.50721802,0.00810771
3564.43602539,0.00816754
3566.36483276,0.00738167
3568.29364014,0.00714990
3570.22244751,0.00780692
3572.15125488,0.00808588
3574.08006226,0.00804940
3576.00886963,0.00814365
3577.93767700,0.00807123
3579.86648437,0.00804453
3581.79529175,0.00809509
3583.72409912,0.00804024
3585.65290649,0.00788108
3587.58171387,0.00710584
3589.51052124,0.00726929
3591.43932861,0.00811929
3593.36813599,0.00785204
3595.29694336,0.00766232
3597.22575073,0.00784394
3599.15455811,0.00798273
3601.08336548,0.00788034
3603.01217285,0.00788335
3604.94098022,0.00811413
3606.86978760,0.00775446
3608.79859497,0.00722391
3610.72740234,0.00746750
3612.65620972,0.00763038
3614.58501709,0.00739353
3616.51382446,0.00802407
3618.44263184,0.00731028
3620.37143921,0.00695781
3622.30024658,0.00812003
3624.22905395,0.00789766
3626.15786133,0.00815899
3628.08666870,0.00675880
3630.01547607,0.00607238
3631.94428345,0.00804884
3633.87309082,0.00782039
3635.80189819,0.00792446
3637.73070557,0.00833991
3639.65951294,0.00819854
3641.58832031,0.00818211
3643.51712769,0.00818969
3645.44593506,0.00825776
3647.37474243,0.00716084
3649.30354980,0.00651611
3651.23235718,0.00673148
3653.16116455,0.00821142
3655.08997192,0.00809733
3657.01877930,0.00716667
3658.94758667,0.00839660
3660.87639404,0.00823031
3662.80520142,0.00847072
3664.73400879,0.00843615
3666.66281616,0.00839062
3668.59162354,0.00812055
3670.52043091,0.00631691
3672.44923828,0.00801299
3674.37804565,0.00765057
3676.30685303,0.00613731
3678.23566040,0.00808174
3680.16446777,0.00827848
3682.09327515,0.00833045
3684.02208252,0.00872602
3685.95088989,0.00852413
3687.87969727,0.00750594
3689.80850464,0.00683925
3691.73731201,0.00801564
3693.66611938,0.00834122
3695.59492676,0.00855217
3697.52373413,0.00857437
3699.45254150,0.00857752
3701.38134888,0.00827519
3703.31015625,0.00788343
3705.23896362,0.00881503
3707.16777100,0.00836880
3709.09657837,0.00816613
3711.02538574,0.00748193
3712.95419312,0.00695253
3714.88300049,0.00851313
3716.81180786,0.00835887
3718.74061523,0.00847729
3720.66942261,0.00818944
3722.59822998,0.00780087
3724.52703735,0.00828679
3726.45584473,0.00757288
3728.38465210,0.00833580
3730.31345947,0.00824787
3732.24226685,0.00740317
3734.17107422,0.00719896
3736.09988159,0.00667072
3738.02868896,0.00720039
3739.95749634,0.00797689
3741.88630371,0.00840922
3743.81511108,0.00637543
3745.74391846,0.00585523
3747.67272583,0.00792299
3749.60153320,0.00673398
3751.53034058,0.00609164
3753.45914795,0.00710693
3755.38795532,0.00766775
3757.31676270,0.00808662
3759.24557007,0.00738293
3761.17437744,0.00762851
3763.10318481,0.00825353
3765.03199219,0.00757656
3766.96079956,0.00777915
3768.88960693,0.00772098
3770.81841431,0.00723476
3772.74722168,0.00801938
3774.67602905,0.00803851
3776.60483643,0.00802668
3778.53364380,0.00775770
3780.46245117,0.00731556
3782.39125854,0.00800140
3784.32006592,0.00774826
3786.24887329,0.00768380
3788.17768066,0.00790440
3790.10648804,0.00778712
3792.03529541,0.00775328
3793.96410278,0.00785856
3795.89291016,0.00740435
3797.82171753,0.00725565
3799.75052490,0.00769212
3801.67933228,0.00589776
3803.60813965,0.00701643
3805.53694702,0.00773334
3807.46575439,0.00603661
3809.39456177,0.00762263
3811.32336914,0.00741707
3813.25217651,0.00780179
3815.18098389,0.00696329
3817.10979126,0.00580373
3819.03859863,0.00774013
3820.96740601,0.00593216
3822.89621338,0.00635155
3824.82502075,0.00764289
3826.75382812,0.00676033
3828.68263550,0.00748712
3830.61144287,0.00711736
3832.54025024,0.00688712
3834.46905762,0.00693039
3836.39786499,0.00656785
3838.32667236,0.00586496
3840.25547974,0.00639122
3842.18428711,0.00704731
3844.11309448,0.00646112
3846.04190186,0.00717814
3847.97070923,0.00720399
3849.89951660,0.00717014
3851.82832397,0.00634091
3853.75713135,0.00444602
3855.68593872,0.00544214
3857.61474609,0.00704229
3859.54355347,0.00683565
3861.47236084,0.00677578
3863.40116821,0.00656771
3865.32997559,0.00598074
3867.25878296,0.00691987
3869.18759033,0.00615535
3871.11639770,0.00558904
3873.04520508,0.00694251
3874.97401245,0.00611617
3876.90281982,0.00687332
3878.83162720,0.00705709
3880.76043457,0.00576300
3882.68924194,0.00690278
3884.61804932,0.00626974
3886.54685669,0.00565360
3888.47566406,0.00686216
3890.40447144,0.00641353
3892.33327881,0.00593473
3894.26208618,0.00661534
3896.19089355,0.00681686
3898.11970093,0.00638677
3900.04850830,0.00586899
3901.97731567,0.00581077
3903.90612305,0.00578805
3905.83493042,0.00589663
3907.76373779,0.00666046
3909.69254517,0.00662147
3911.62135254,0.00650444
3913.55015991,0.00664623
3915.47896728,0.00634626
3917.40777466,0.00619975
3919.33658203,0.00611916
3921.26538940,0.00641155
3923.19419678,0.00630561
3925.12300415,0.00611877
3927.05181152,0.00631196
3928.98061890,0.00633973
3930.90942627,0.00627185
3932.83823364,0.00596266
3934.76704102,0.00619249
3936.69584839,0.00639467
3938.62465576,0.00639944
3940.55346313,0.00640550
3942.48227051,0.00610532
3944.41107788,0.00620459
3946.33988525,0.00619490
3948.26869263,0.00597018
3950.19750000,0.00599665
3952.12630737,0.00613833
3954.05511475,0.00613765
3955.98392212,0.00613022
3957.91272949,0.00616770
3959.84153687,0.00609380
3961.77034424,0.00612089
3963.69915161,0.00613245
3965.62795898,0.00611662
3967.55676636,0.00600955
3969.48557373,0.00601045
3971.41438110,0.00601117
3973.34318848,0.00591674
3975.27199585,0.00594551
3977.20080322,0.00596340
3979.12961060,0.00599463
3981.05841797,0.00584183
3982.98722534,0.00589377
3984.91603271,0.00599262
3986.84484009,0.00593357
3988.77364746,0.00592364
3990.70245483,0.00580957
3992.63126221,0.00582372
3994.56006958,0.00581139
3996.48887695,0.00584697
3998.41768433,0.00579052
4000.34649170,0.00574796
4002.27529907,0.00579200
4004.20410645,0.00579623
4006.13291382,0.00580203
4008.06172119,0.00560643
4009.99052856,0.00571637
4011.91933594,0.00568733
4013.84814331,0.00565491
4015.77695068,0.00574834
4017.70575806,0.00560717
4019.63456543,0.00567151
4021.56337280,0.00555177
4023.49218018,0.00557148
4025.42098755,0.00558985
4027.34979492,0.00554103
4029.27860229,0.00558718
4031.20740967,0.00549729
4033.13621704,0.00562546
4035.06502441,0.00553325
4036.99383179,0.00545458
4038.92263916,0.00547338
4040.85144653,0.00543328
4042.78025391,0.00543071
4044.70906128,0.00544088
4046.63786865,0.00556074
4048.56667603,0.00539114
4050.49548340,0.00536984
4052.42429077,0.00547290
4054.35309814,0.00541007
4056.28190552,0.00538722
4058.21071289,0.00536819
4060.13952026,0.00535013
4062.06832764,0.00522525
4063.99713501,0.00527171
4065.92594238,0.00531771
4067.85474976,0.00527176
4069.78355713,0.00529209
4071.71236450,0.00526233
4073.64117187,0.00523342
4075.56997925,0.00519119
4077.49878662,0.00521443
4079.42759399,0.00522219
4081.35640137,0.00521171
4083.28520874,0.00520501
4085.21401611,0.00519366
4087.14282349,0.00514479
4089.07163086,0.00507896
4091.00043823,0.00509643
4092.92924561,0.00505282
4094.85805298,0.00502975
4096.78686035,0.00506495
4098.71566772,0.00511770
4100.64447510,0.00508713
4102.57328247,0.00505116
4104.50208984,0.00507184
4106.43089722,0.00495149
4108.35970459,0.00493184
4110.28851196,0.00496517
4112.21731934,0.00491485
4114.14612671,0.00494956
4116.07493408,0.00496643
4118.00374145,0.00491602
4119.93254883,0.00493774
4121.86135620,0.00497826
4123.79016357,0.00491812
4125.71897095,0.00482819
4127.64777832,0.00483434
4129.57658569,0.00486083
4131.50539307,0.00485358
4133.43420044,0.00490773
4135.36300781,0.00483344
4137.29181519,0.00481531
4139.22062256,0.00480552
4141.14942993,0.00473005
4143.07823730,0.00484186
4145.00704468,0.00472945
4146.93585205,0.00468265
4148.86465942,0.00472616
4150.79346680,0.00470733
4152.72227417,0.00478543
4154.65108154,0.00472366
4156.57988892,0.00469816
4158.50869629,0.00463568
4160.43750366,0.00470708
4162.36631103,0.00471071
4164.29511841,0.00461790
4166.22392578,0.00462238
4168.15273315,0.00452410
4170.08154053,0.00464000
4172.01034790,0.00454853
4173.93915527,0.00452462
4175.86796265,0.00462407
4177.79677002,0.00450417
4179.72557739,0.00455540
4181.65438477,0.00446163
4183.58319214,0.00448618
4185.51199951,0.00453087
4187.44080688,0.00443531
4189.36961426,0.00448406
4191.29842163,0.00439729
4193.22722900,0.00436539
4195.15603638,0.00443047
4197.08484375,0.00436607
4199.01365112,0.00439635
4200.94245850,0.00449278
4202.87126587,0.00440395
4204.80007324,0.00436784
4206.72888062,0.00431458
4208.65768799,0.00432400
4210.58649536,0.00437556
4212.51530273,0.00431822
4214.44411011,0.00439419
4216.37291748,0.00425698
4218.30172485,0.00427199
4220.23053223,0.00430672
4222.15933960,0.00417482
4224.08814697,0.00425956
4226.01695435,0.00415216
4227.94576172,0.00418012
4229.87456909,0.00424182
4231.80337646,0.00423909
4233.73218384,0.00421553
4235.66099121,0.00411434
4237.58979858,0.00425371
4239.51860596,0.00424855
4241.44741333,0.00415764
4243.37622070,0.00411047
4245.30502808,0.00412862
4247.23383545,0.00415631
4249.16264282,0.00410352
4251.09145020,0.00409372
4253.02025757,0.00411673
4254.94906494,0.00413691
4256.87787231,0.00403176
4258.80667969,0.00410876
4260.73548706,0.00403792
4262.66429443,0.00394882
4264.59310181,0.00412602
4266.52190918,0.00401456
4268.45071655,0.00395032
4270.37952393,0.00397521
4272.30833130,0.00404922
4274.23713867,0.00406828
4276.16594604,0.00392914
4278.09475342,0.00391944
4280.02356079,0.00394505
4281.95236816,0.00398660
4283.88117554,0.00391498
4285.80998291,0.00388703
4287.73879028,0.00394235
4289.66759766,0.00393714
4291.59640503,0.00388206
4293.52521240,0.00381119
4295.45401978,0.00381151
4297.38282715,0.00380234
4299.31163452,0.00389962
4301.24044189,0.00388166
4303.16924927,0.00378167
4305.09805664,0.00382807
4307.02686401,0.00384288
4308.95567139,0.00380743
4310.88447876,0.00373117
4312.81328613,0.00373878
4314.74209351,0.00375677
4316.67090088,0.00371917
4318.59970825,0.00374106
4320.52851562,0.00378404
4322.45732300,0.00374811
4324.38613037,0.00370027
4326.31493774,0.00368604
4328.24374512,0.00371304
4330.17255249,0.00377724
4332.10135986,0.00366738
4334.03016724,0.00363150
4335.95897461,0.00369703
4337.88778198,0.00369736
4339.81658936,0.00368838
4341.74539673,0.00364632
4343.67420410,0.00362745
4345.60301147,0.00360672
4347.53181885,0.00370137
4349.46062622,0.00361364
4351.38943359,0.00353095
4353.31824097,0.00361385
4355.24704834,0.00348515
4357.17585571,0.00348470
4359.10466309,0.00353458
4361.03347046,0.00357308
4362.96227783,0.00352491
4364.89108520,0.00345953
4366.81989258,0.00352928
4368.74869995,0.00344934
4370.67750732,0.00343455
4372.60631470,0.00343535
4374.53512207,0.00349846
4376.46392944,0.00350770
4378.39273682,0.00340795
4380.32154419,0.00343319
4382.25035156,0.00338762
4384.17915894,0.00338145
4386.10796631,0.00331257
4388.03677368,0.00335097
4389.96558105,0.00344558
4391.89438843,0.00335131
4393.82319580,0.00343876
4395.75200317,0.00340039
4397.68081055,0.00322873
4399.60961792,0.00330292
4401.53842529,0.00334841
4403.46723267,0.00328089
4405.39604004,0.00329075
4407.32484741,0.00331180
4409.25365478,0.00330649
4411.18246216,0.00325628
4413.11126953,0.00315713
4415.04007690,0.00317003
4416.96888428,0.00319710
4418.89769165,0.00318538
4420.82649902,0.00324688
4422.75530640,0.00326943
4424.68411377,0.00321540
4426.61292114,0.00324778
4428.54172852,0.00320374
4430.47053589,0.00310938
4432.39934326,0.00314982
4434.32815063,0.00312709
4436.25695801,0.00316404
4438.18576538,0.00319591
4440.11457275,0.00316019
4442.04338013,0.00313357
4443.97218750,0.00310921
4445.90099487,0.00312188
4447.82980225,0.00303192
4449.75860962,0.00310275
4451.68741699,0.00315778
4453.61622437,0.00314217
4455.54503174,0.00314049
4457.47383911,0.00300151
4459.40264648,0.00306092
4461.33145386,0.00305798
4463.26026123,0.00300808
4465.18906860,0.00300921
4467.11787598,0.00298664
4469.04668335,0.00298739
4470.97549072,0.00291142
4472.90429810,0.00303161
4474.83310547,0.00300497
4476.76191284,0.00294673
4478.69072021,0.00306984
4480.61952759,0.00297703
4482.54833496,0.00294418
4484.47714233,0.00297519
4486.40594971,0.00296702
4488.33475708,0.00299290
4490.26356445,0.00296401
4492.19237183,0.00295724
4494.12117920,0.00300619
4496.04998657,0.00293095
4497.97879395,0.00287983
4499.90760132,0.00292486
4501.83640869,0.00288650
4503.76521606,0.00294858
4505.69402344,0.00290457
4507.62283081,0.00278396
4509.55163818,0.00277902
4511.48044556,0.00278749
4513.40925293,0.00285873
4515.33806030,0.00281189
4517.26686768,0.00283059
4519.19567505,0.00283320
4521.12448242,0.00275105
4523.05328979,0.00279592
4524.98209717,0.00272789
4526.91090454,0.00277543
4528.83971191,0.00283900
4530.76851929,0.00272693
4532.69732666,0.00270580
4534.62613403,0.00270075
4536.55494141,0.00276210
4538.48374878,0.00272639
4540.41255615,0.00265832
4542.34136353,0.00277314
4544.27017090,0.00271040
4546.19897827,0.00268448
4548.12778564,0.00275272
4550.05659302,0.00265808
4551.98540039,0.00262316
4553.91420776,0.00265272
4555.84301514,0.00264355
4557.77182251,0.00255917
4559.70062988,0.00263356
4561.62943726,0.00267013
4563.55824463,0.00255329
4565.48705200,0.00262404
4567.41585937,0.00256123
4569.34466675,0.00256949
4571.27347412,0.00260550
4573.20228149,0.00254725
4575.13108887,0.00263087
4577.05989624,0.00252538
4578.98870361,0.00257179
4580.91751099,0.00260964
4582.84631836,0.00249821
4584.77512573,0.00255513
4586.70393311,0.00247526
4588.63274048,0.00245359
4590.56154785,0.00252008
4592.49035522,0.00244663
4594.41916260,0.00235877
4596.34796997,0.00248588
4598.27677734,0.00258805
4600.20558472,0.00249520
4602.13439209,0.00248969
4604.06319946,0.00242520
4605.99200684,0.00246216
4607.92081421,0.00253601
4609.84962158,0.00241875
4611.77842895,0.00240373
4613.70723633,0.00244710
4615.63604370,0.00242485
4617.56485107,0.00235719
4619.49365845,0.00237231
4621.42246582,0.00239071
4623.35127319,0.00235887
4625.28008057,0.00238099
4627.20888794,0.00237818
4629.13769531,0.00239240
4631.06650269,0.00238841
4632.99531006,0.00240368
4634.92411743,0.00241866
4636.85292480,0.00233836
4638.78173218,0.00230594
4640.71053955,0.00228432
4642.63934692,0.00228945
4644.56815430,0.00233542
4646.49696167,0.00226033
4648.42576904,0.00219369
4650.35457642,0.00221616
4652.28338379,0.00226630
4654.21219116,0.00231426
4656.14099853,0.00224383
4658.06980591,0.00218657
4659.99861328,0.00221021
4661.92742065,0.00226293
4663.85622803,0.00229916
4665.78503540,0.00220726
4667.71384277,0.00219070
4669.64265015,0.00221622
4671.57145752,0.00217119
4673.50026489,0.00221580
4675.42907227,0.00225381
4677.35787964,0.00218792
4679.28668701,0.00214033
4681.21549438,0.00218710
4683.14430176,0.00220311
4685.07310913,0.00219288
4687.00191650,0.00215890
4688.93072388,0.00206968
4690.85953125,0.00209116
4692.78833862,0.00212216
4694.71714600,0.00212577
4696.64595337,0.00213839
4698.57476074,0.00208341
4700.50356812,0.00213198
4702.43237549,0.00212426
4704.36118286,0.00201705
4706.28999023,0.00211563
4708.21879761,0.00215553
4710.14760498,0.00210901
4712.07641235,0.00209499
4714.00521973,0.00199375
4715.93402710,0.00202355
4717.86283447,0.00208137
4719.79164185,0.00206456
4721.72044922,0.00211454
4723.64925659,0.00213624
4725.57806396,0.00204649
4727.50687134,0.00198360
4729.43567871,0.00202336
4731.36448608,0.00196101
4733.29329346,0.00194156
4735.22210083,0.00197936
4737.15090820,0.00199502
4739.07971558,0.00206718
4741.00852295,0.00202655
4742.93733032,0.00203499
4744.86613770,0.00200765
4746.79494507,0.00193337
4748.72375244,0.00197820
4750.65255981,0.00189885
4752.58136719,0.00189659
4754.51017456,0.00199560
4756.43898193,0.00191869
4758.36778931,0.00188089
4760.29659668,0.00195704
4762.22540405,0.00193347
4764.15421143,0.00189830
4766.08301880,0.00189545
4768.01182617,0.00187282
4769.94063354,0.00190183
4771.86944092,0.00191833
4773.79824829,0.00185810
4775.72705566,0.00178678
4777.65586304,0.00187902
4779.58467041,0.00190885
4781.51347778,0.00182221
4783.44228516,0.00182680
4785.37109253,0.00175675
4787.29989990,0.00175619
4789.22870728,0.00181722
4791.15751465,0.00186529
4793.08632202,0.00187818
4795.01512939,0.00181599
4796.94393677,0.00179894
4798.87274414,0.00173953
4800.80155151,0.00179937
4802.73035889,0.00187125
4804.65916626,0.00181014
4806.58797363,0.00179358
4808.51678101,0.00181907
4810.44558838,0.00178979
4812.37439575,0.00176453
4814.30320312,0.00182630
4816.23201050,0.00173690
4818.16081787,0.00174493
4820.08962524,0.00176227
4822.01843262,0.00166905
4823.94723999,0.00175928
4825.87604736,0.00172007
4827.80485474,0.00174791
4829.73366211,0.00181863
4831.66246948,0.00175365
4833.59127686,0.00169977
4835.52008423,0.00168396
4837.44889160,0.00177358
4839.37769897,0.00169673
4841.30650635,0.00170288
4843.23531372,0.00175371
4845.16412109,0.00162777
4847.09292847,0.00162739
4849.02173584,0.00167369
4850.95054321,0.00169136
4852.87935059,0.00162859
4854.80815796,0.00165283
4856.73696533,0.00171401
4858.66577270,0.00162432
4860.59458008,0.00161854
4862.52338745,0.00163511
4864.45219482,0.00163619
4866.38100220,0.00169173
4868.30980957,0.00166666
4870.23861694,0.00162037
4872.16742432,0.00167551
4874.09623169,0.00159836
4876.02503906,0.00153232
4877.95384644,0.00160341
4879.88265381,0.00154028
4881.81146118,0.00160085
4883.74026855,0.00164706
4885.66907593,0.00157911
4887.59788330,0.00158968
4889.52669067,0.00150641
4891.45549805,0.00158190
4893.38430542,0.00160154
4895.31311279,0.00145520
4897.24192017,0.00153826
4899.17072754,0.00153926
4901.09953491,0.00150899
4903.02834228,0.00156605
4904.95714966,0.00152893
4906.88595703,0.00153159
4908.81476440,0.00148813
4910.74357178,0.00149714
4912.67237915,0.00154158
4914.60118652,0.00144866
4916.52999390,0.00146624
4918.45880127,0.00150425
4920.38760864,0.00151207
4922.31641602,0.00154515
4924.24522339,0.00148808
4926.17403076,0.00147612
4928.10283813,0.00148444
4930.03164551,0.00147608
4931.96045288,0.00147175
4933.88926025,0.00142339
4935.81806763,0.00144015
4937.74687500,0.00145987
4939.67568237,0.00145945
4941.60448975,0.00149150
4943.53329712,0.00144376
4945.46210449,0.00139135
4947.39091187,0.00136188
4949.31971924,0.00136725
4951.24852661,0.00140365
4953.17733398,0.00135160
4955.10614136,0.00135699
4957.03494873,0.00138353
4958.96375610,0.00139845
4960.89256348,0.00140524
4962.82137085,0.00135274
4964.75017822,0.00141020
4966.67898560,0.00144004
4968.60779297,0.00143572
4970.53660034,0.00139323
4972.46540771,0.00132572
4974.39421509,0.00141224
4976.32302246,0.00141907
4978.25182983,0.00132953
4980.18063721,0.00129036
4982.10944458,0.00135580
4984.03825195,0.00136846
4985.96705933,0.00127956
4987.89586670,0.00131296
4989.82467407,0.00133756
4991.75348145,0.00133665
4993.68228882,0.00136379
4995.61109619,0.00135747
4997.53990356,0.00131594
4999.46871094,0.00129963
5001.39751831,0.00128750
5003.32632568,0.00128536
5005.25513306,0.00134197
5007.18394043,0.00131887
5009.11274780,0.00131490
5011.04155518,0.00131299
5012.97036255,0.00133727
5014.89916992,0.00132651
5016.82797729,0.00123425
5018.75678467,0.00128927
5020.68559204,0.00128709
5022.61439941,0.00132246
5024.54320679,0.00127942
5026.47201416,0.00119737
5028.40082153,0.00128348
5030.32962891,0.00121421
5032.25843628,0.00126984
5034.18724365,0.00126284
5036.11605103,0.00115063
5038.04485840,0.00123538
5039.97366577,0.00123422
5041.90247314,0.00129105
5043.83128052,0.00131508
5045.76008789,0.00123074
5047.68889526,0.00122694
5049.61770264,0.00118170
5051.54651001,0.00119944
5053.47531738,0.00127205
5055.40412476,0.00117564
5057.33293213,0.00112636
5059.26173950,0.00117708
5061.19054687,0.00117487
5063.11935425,0.00121950
5065.04816162,0.00119416
5066.97696899,0.00118750
5068.90577637,0.00118160
5070.83458374,0.00108772
5072.76339111,0.00113880
5074.69219849,0.00117868
5076.62100586,0.00111862
5078.54981323,0.00109761
5080.47862061,0.00112240
5082.40742798,0.00112124
5084.33623535,0.00118068
5086.26504272,0.00121214
5088.19385010,0.00117551
5090.12265747,0.00118145
5092.05146484,0.00108290
5093.98027222,0.00109826
5095.90907959,0.00106862
5097.83788696,0.00104040
5099.76669434,0.00117200
5101.69550171,0.00109955
5103.62430908,0.00113274
5105.55311645,0.00113672
5107.48192383,0.00105403
5109.41073120,0.00109229
5111.33953857,0.00107990
5113.26834595,0.00107714
5115.19715332,0.00102437
5117.12596069,0.00105920
5119.05476807,0.00103489
5120.98357544,0.00098605
5122.91238281,0.00109227
5124.84119019,0.00104226
5126.76999756,0.00101069
5128.69880493,0.00107003
5130.62761230,0.00106021
5132.55641968,0.00098534
5134.48522705,0.00098318
5136.41403442,0.00107306
5138.34284180,0.00107207
5140.27164917,0.00104320
5142.20045654,0.00098336
5144.12926392,0.00101603
5146.05807129,0.00111018
5147.98687866,0.00101419
5149.91568603,0.00097987
5151.84449341,0.00104434
5153.77330078,0.00101956
5155.70210815,0.00099527
5157.63091553,0.00099001
5159.55972290,0.00098427
5161.48853027,0.00095393
5163.41733765,0.00100433
5165.34614502,0.00102038
5167.27495239,0.00089179
5169.20375977,0.00096757
5171.13256714,0.00099494
5173.06137451,0.00096789
5174.99018188,0.00108626
5176.91898926,0.00095875
5178.84779663,0.00090095
5180.77660400,0.00099614
5182.70541138,0.00094481
5184.63421875,0.00091390
5186.56302612,0.00095009
5188.49183350,0.00095671
5190.42064087,0.00091698
5192.34944824,0.00093657
5194.27825562,0.00093511
5196.20706299,0.00091944
5198.13587036,0.00090237
5200.06467773,0.00090257
5201.99348511,0.00100086
5203.92229248,0.00097376
5205.85109985,0.00088459
5207.77990723,0.00086663
5209.70871460,0.00089034
5211.63752197,0.00092030
5213.56632935,0.00093234
5215.49513672,0.00093026
5217.42394409,0.00087047
5219.35275146,0.00087948
5221.28155884,0.00095639
5223.21036621,0.00095795
5225.13917358,0.00087034
5227.06798096,0.00090024
5228.99678833,0.00093759
5230.92559570,0.00082356
5232.85440308,0.00084744
5234.78321045,0.00085868
5236.71201782,0.00082989
5238.64082520,0.00089992
5240.56963257,0.00091681
5242.49843994,0.00087550
5244.42724731,0.00084743
5246.35605469,0.00089710
5248.28486206,0.00085370
5250.21366943,0.00081755
5252.14247681,0.00085012
5254.07128418,0.00079913
5256.00009155,0.00079714
5257.92889893,0.00081270
5259.85770630,0.00087112
5261.78651367,0.00083808
5263.71532104,0.00077020
5265.64412842,0.00082469
5267.57293579,0.00077477
5269.50174316,0.00082992
5271.43055054,0.00088361
5273.35935791,0.00084641
5275.28816528,0.00089634
5277.21697266,0.00080544
5279.14578003,0.00077534
5281.07458740,0.00083833
5283.00339478,0.00084488
5284.93220215,0.00085480
5286.86100952,0.00083869
5288.78981689,0.00085389
5290.71862427,0.00080838
5292.64743164,0.00083205
5294.57623901,0.00081561
5296.50504639,0.00071292
5298.43385376,0.00081615
5300.36266113,0.00081874
5302.29146851,0.00078296
5304.22027588,0.00082312
5306.14908325,0.00084709
5308.07789062,0.00087176
5310.00669800,0.00075499
5311.93550537,0.00073655
5313.86431274,0.00077436
5315.79312012,0.00078302
5317.72192749,0.00078461
5319.65073486,0.00072744
5321.57954224,0.00081152
5323.50834961,0.00081619
5325.43715698,0.00074721
5327.36596436,0.00079710
5329.29477173,0.00079080
5331.22357910,0.00075015
5333.15238647,0.00073332
5335.08119385,0.00075027
5337.01000122,0.00076732
5338.93880859,0.00069118
5340.86761597,0.00071658
5342.79642334,0.00082248
5344.72523071,0.00073410
5346.65403809,0.00072849
5348.58284546,0.00077718
5350.51165283,0.00072460
5352.44046020,0.00077283
5354.36926758,0.00073992
5356.29807495,0.00070829
5358.22688232,0.00075587
5360.15568970,0.00075169
5362.08449707,0.00075490
5364.01330444,0.00075608
5365.94211182,0.00071899
5367.87091919,0.00068413
5369.79972656,0.00076268
5371.72853394,0.00076572
5373.65734131,0.00074727
5375.58614868,0.00074688
5377.51495605,0.00062124
5379.44376343,0.00064501
5381.37257080,0.00073722
5383.30137817,0.00076449
5385.23018555,0.00069513
5387.15899292,0.00062675
5389.08780029,0.00072839
5391.01660767,0.00067354
5392.94541504,0.00061441
5394.87422241,0.00078659
5396.80302978,0.00077904
5398.73183716,0.00065222
5400.66064453,0.00072457
5402.58945190,0.00075168
5404.51825928,0.00068421
5406.44706665,0.00068084
5408.37587402,0.00066599
5410.30468140,0.00067310
5412.23348877,0.00071938
5414.16229614,0.00071944
5416.09110352,0.00065648
5418.01991089,0.00071932
5419.94871826,0.00072983
5421.87752563,0.00061121
5423.80633301,0.00070336
5425.73514038,0.00068625
5427.66394775,0.00059459
5429.59275513,0.00066835
5431.52156250,0.00068842
5433.45036987,0.00067014
5435.37917725,0.00061590
5437.30798462,0.00065109
5439.23679199,0.00068171
5441.16559936,0.00062047
5443.09440674,0.00062572
5445.02321411,0.00061266
5446.95202148,0.00063279
5448.88082886,0.00063567
5450.80963623,0.00058947
5452.73844360,0.00061287
5454.66725098,0.00061060
5456.59605835,0.00058659
5458.52486572,0.00060344
5460.45367310,0.00059808
5462.38248047,0.00060591
5464.31128784,0.00063157
5466.24009521,0.00057200
5468.16890259,0.00054228
5470.09770996,0.00062127
5472.02651733,0.00068681
5473.95532471,0.00060778
5475.88413208,0.00050392
5477.81293945,0.00060433
5479.74174683,0.00066885
5481.67055420,0.00063987
5483.59936157,0.00062694
5485.52816895,0.00055322
5487.45697632,0.00064280
5489.38578369,0.00069341
5491.31459106,0.00056735
5493.24339844,0.00059481
5495.17220581,0.00056897
5497.10101318,0.00051372
5499.02982056,0.00056826
5500.95862793,0.00057885
5502.88743530,0.00061263
5504.81624268,0.00060168
5506.74505005,0.00058403
5508.67385742,0.00059040
5510.60266479,0.00058668
5512.53147217,0.00062946
5514.46027954,0.00060188
5516.38908691,0.00059532
5518.31789429,0.00058959
5520.24670166,0.00051719
5522.17550903,0.00058225
5524.10431641,0.00063261
5526.03312378,0.00057345
5527.96193115,0.00060712
5529.89073853,0.00056097
5531.81954590,0.00052081
5533.74835327,0.00061195
5535.67716064,0.00052161
5537.60596802,0.00053911
5539.53477539,0.00059774
5541.46358276,0.00050707
5543.39239014,0.00059375
5545.32119751,0.00063476
5547.25000488,0.00062301
5549.17881226,0.00055552
5551.10761963,0.00054029
5553.03642700,0.00063056
5554.96523437,0.00052683
5556.89404175,0.00053490
5558.82284912,0.00051967
5560.75165649,0.00046854
5562.68046387,0.00049589
5564.60927124,0.00044309
5566.53807861,0.00054281
5568.46688599,0.00058285
5570.39569336,0.00060371
5572.32450073,0.00056586
5574.25330811,0.00042557
5576.18211548,0.00052898
5578.11092285,0.00056175
5580.03973022,0.00049519
5581.96853760,0.00045895
5583.89734497,0.00048408
5585.82615234,0.00055635
5587.75495972,0.00046635
5589.68376709,0.00049207
5591.61257446,0.00055694
5593.54138184,0.00047014
5595.47018921,0.00046034
5597.39899658,0.00047115
5599.32780395,0.00047881
5601.25661133,0.00046011
5603.18541870,0.00046264
5605.11422607,0.00054939
5607.04303345,0.00050783
5608.97184082,0.00047535
5610.90064819,0.00052711
5612.82945557,0.00053578
5614.75826294,0.00052631
5616.68707031,0.00047092
5618.61587769,0.00047897
5620.54468506,0.00047690
5622.47349243,0.00046423
5624.40229980,0.00052147
5626.33110718,0.00049578
5628.25991455,0.00050510
5630.18872192,0.00053613
5632.11752930,0.00049617
5634.04633667,0.00047349
5635.97514404,0.00049275
5637.90395142,0.00052214
5639.83275879,0.00049077
5641.76156616,0.00046423
5643.69037353,0.00046444
5645.61918091,0.00046144
5647.54798828,0.00046155
5649.47679565,0.00044725
5651.40560303,0.00043866
5653.33441040,0.00045822
5655.26321777,0.00045810
5657.19202515,0.00046647
5659.12083252,0.00052468
5661.04963989,0.00044146
5662.97844727,0.00041941
5664.90725464,0.00050561
5666.83606201,0.00038262
5668.76486938,0.00037535
5670.69367676,0.00046039
5672.62248413,0.00041821
5674.55129150,0.00043441
5676.48009888,0.00041662
5678.40890625,0.00040107
5680.33771362,0.00047228
5682.26652100,0.00046463
5684.19532837,0.00042138
5686.12413574,0.00043693
5688.05294311,0.00042120
5689.98175049,0.00042432
5691.91055786,0.00043360
5693.83936523,0.00041415
5695.76817261,0.00044313
5697.69697998,0.00043761
5699.62578735,0.00041747
5701.55459473,0.00038508
5703.48340210,0.00040295
5705.41220947,0.00040391
5707.34101685,0.00031913
5709.26982422,0.00039443
5711.19863159,0.00042140
5713.12743896,0.00037162
5715.05624634,0.00041951
5716.98505371,0.00046337
5718.91386108,0.00045122
5720.84266846,0.00039417
5722.77147583,0.00043456
5724.70028320,0.00041052
5726.62909058,0.00038668
5728.55789795,0.00044071
5730.48670532,0.00041866
5732.41551270,0.00043463
5734.34432007,0.00039531
5736.27312744,0.00040952
5738.20193481,0.00041754
5740.13074219,0.00038427
5742.05954956,0.00041001
5743.98835693,0.00033279
5745.91716431,0.00038306
5747.84597168,0.00039164
5749.77477905,0.00035284
5751.70358643,0.00043948
5753.63239380,0.00039910
5755.56120117,0.00038105
5757.49000854,0.00041638
5759.41881592,0.00044857
5761.34762329,0.00040579
5763.27643066,0.00037928
5765.20523804,0.00042711
5767.13404541,0.00035232
5769.06285278,0.00033954
5770.99166016,0.00029523
5772.92046753,0.00033716
5774.84927490,0.00048357
5776.77808228,0.00035279
5778.70688965,0.00028759
5780.63569702,0.00034427
5782.56450439,0.00035685
5784.49331177,0.00040801
5786.42211914,0.00041699
5788.35092651,0.00036707
5790.27973389,0.00033313
5792.20854126,0.00039210
5794.13734863,0.00036362
5796.06615601,0.00030551
5797.99496338,0.00036133
5799.92377075,0.00033875
5801.85257812,0.00033482
5803.78138550,0.00038011
5805.71019287,0.00036648
5807.63900024,0.00032847
5809.56780762,0.00030852
5811.49661499,0.00037789
5813.42542236,0.00041711
5815.35422974,0.00037821
5817.28303711,0.00034009
5819.21184448,0.00032890
5821.14065186,0.00035824
5823.06945923,0.00032379
5824.99826660,0.00030848
5826.92707397,0.00034465
5828.85588135,0.00027973
5830.78468872,0.00027025
5832.71349609,0.00033217
5834.64230347,0.00032242
5836.57111084,0.00037519
5838.49991821,0.00040346
5840.42872559,0.00032557
5842.35753296,0.00033683
5844.28634033,0.00036215
5846.21514770,0.00034121
5848.14395508,0.00031195
5850.07276245,0.00029242
5852.00156982,0.00032218
5853.93037720,0.00029338
5855.85918457,0.00030285
5857.78799194,0.00035247
5859.71679932,0.00034891
5861.64560669,0.00035265
5863.57441406,0.00033436
5865.50322144,0.00033291
5867.43202881,0.00031062
5869.36083618,0.00031459
5871.28964355,0.00029671
5873.21845093,0.00026608
5875.14725830,0.00031734
5877.07606567,0.00029544
5879.00487305,0.00033649
5880.93368042,0.00033051
5882.86248779,0.00030319
5884.79129517,0.00034321
5886.72010254,0.00029196
5888.64890991,0.00035381
5890.57771728,0.00035137
5892.50652466,0.00033011
5894.43533203,0.00032173
5896.36413940,0.00025440
5898.29294678,0.00030404
5900.22175415,0.00024449
5902.15056152,0.00028361
5904.07936890,0.00034058
5906.00817627,0.00029338
5907.93698364,0.00034525
5909.86579102,0.00027677
5911.79459839,0.00030740
5913.72340576,0.00033075
5915.65221313,0.00021789
5917.58102051,0.00027808
5919.50982788,0.00031678
5921.43863525,0.00030069
5923.36744263,0.00028725
5925.29625000,0.00026218
5927.22505737,0.00035471
5929.15386475,0.00039622
5931.08267212,0.00028329
5933.01147949,0.00020765
5934.94028686,0.00024319
5936.86909424,0.00029164
5938.79790161,0.00028570
5940.72670898,0.00029741
5942.65551636,0.00027928
5944.58432373,0.00025932
5946.51313110,0.00033697
5948.44193848,0.00035856
5950.37074585,0.00033241
5952.29955322,0.00028770
5954.22836060,0.00029480
5956.15716797,0.00033624
5958.08597534,0.00025033
5960.01478271,0.00021953
5961.94359009,0.00026298
5963.87239746,0.00029210
5965.80120483,0.00025748
5967.73001221,0.00025316
5969.65881958,0.00030527
5971.58762695,0.00026035
5973.51643433,0.00034162
5975.44524170,0.00033590
5977.37404907,0.00019443
5979.30285645,0.00022561
5981.23166382,0.00023287
5983.16047119,0.00025460
5985.08927856,0.00028692
5987.01808594,0.00027234
5988.94689331,0.00029080
5990.87570068,0.00025924
5992.80450806,0.00022878
5994.73331543,0.00028379
5996.66212280,0.00027835
5998.59093018,0.00025930
6000.51973755,0.00034064
