399.26312622,0.00069528
401.19193359,0.00120050
403.12074097,0.00084078
405.04954834,0.00113772
406.97835571,0.00167809
408.90716309,0.00129528
410.83597046,0.00099732
412.76477783,0.00075652
414.69358521,0.00107431
416.62239258,0.00103804
418.55119995,0.00075149
420.48000732,0.00130050
422.40881470,0.00137468
424.33762207,0.00067032
426.26642944,0.00100499
428.19523682,0.00118299
430.12404419,0.00102553
432.05285156,0.00167892
433.98165894,0.00132688
435.91046631,0.00120866
437.83927368,0.00158229
439.76808105,0.00151293
441.69688843,0.00134027
443.62569580,0.00076412
445.55450317,0.00088887
447.48331055,0.00120385
449.41211792,0.00103931
451.34092529,0.00087078
453.26973267,0.00131090
455.19854004,0.00120888
457.12734741,0.00080143
459.05615479,0.00123128
460.98496216,0.00076152
462.91376953,0.00075620
464.84257690,0.00087401
466.77138428,0.00064439
468.70019165,0.00056046
470.62899902,0.00033550
472.55780640,0.00113728
474.48661377,0.00044367
476.41542114,0.00007518
478.34422852,0.00091957
480.27303589,0.00053943
482.20184326,0.00072468
484.13065063,0.00052217
486.05945801,0.00014532
487.98826538,0.00023474
489.91707275,0.00010407
491.84588013,0.00032120
493.77468750,0.00042925
495.70349487,0.00048204
497.63230225,0.00035913
499.56110962,0.00033574
501.48991699,0.00018374
503.41872437,-0.00028248
505.34753174,0.00014440
507.27633911,0.00029427
509.20514648,0.00008561
511.13395386,0.00027649
513.06276123,-0.00008611
514.99156860,0.00016255
516.92037598,0.00060801
518.84918335,0.00045572
520.77799072,0.00023067
522.70679810,-0.00036235
524.63560547,0.00009798
526.56441284,0.00038148
528.49322021,0.00002850
530.42202759,0.00031632
532.35083496,0.00025984
534.27964233,0.00003117
536.20844971,-0.00010461
538.13725708,0.00022099
540.06606445,0.00033108
541.99487183,-0.00010448
543.92367920,0.00031515
545.85248657,0.00055009
547.78129395,0.00004733
549.71010132,0.00017388
551.63890869,0.00044322
553.56771606,0.00007274
555.49652344,0.00019943
557.42533081,0.00041710
559.35413818,0.00020623
561.28294556,0.00030835
563.21175293,0.00017055
565.14056030,0.00022370
567.06936768,0.00027667
568.99817505,0.00009692
570.92698242,0.00025248
572.85578979,-0.00008477
574.78459717,-0.00004491
576.71340454,0.00003355
578.64221191,-0.00019624
580.57101929,0.00017564
582.49982666,0.00030794
584.42863403,0.00057246
586.35744141,0.00046021
588.28624878,0.00025645
590.21505615,0.00019662
592.14386353,-0.00030353
594.07267090,0.00009394
596.00147827,0.00031488
597.93028564,0.00019132
599.85909302,0.00027572
601.78790039,0.00018785
603.71670776,0.00029649
605.64551514,-0.00005191
607.57432251,0.00001002
609.50312988,0.00020994
611.43193726,-0.00003271
613.36074463,0.00020020
615.28955200,0.00023947
617.21835938,0.00051094
619.14716675,0.00052122
621.07597412,0.00001656
623.00478149,-0.00004191
624.93358887,-0.00015117
626.86239624,0.00001488
628.79120361,0.00005059
630.72001099,0.00010427
632.64881836,0.00077685
634.57762573,0.00089332
636.50643311,0.00086827
638.43524048,0.00089688
640.36404785,0.00091685
642.29285522,0.00138207
644.22166260,0.00132104
646.15046997,0.00096177
648.07927734,0.00126647
650.00808472,0.00166746
651.93689209,0.00159026
653.86569946,0.00144781
655.79450684,0.00171721
657.72331421,0.00177581
659.65212158,0.00185073
661.58092896,0.00222975
663.50973633,0.00220107
665.43854370,0.00216214
667.36735107,0.00195935
669.29615845,0.00191747
671.22496582,0.00231977
673.15377319,0.00239672
675.08258057,0.00276449
677.01138794,0.00290147
678.94019531,0.00263674
680.86900269,0.00270601
682.79781006,0.00256671
684.72661743,0.00265761
686.65542480,0.00281852
688.58423218,0.00254657
690.51303955,0.00260587
692.44184692,0.00294159
694.37065430,0.00297307
696.29946167,0.00329815
698.22826904,0.00404459
700.15707642,0.00416534
702.08588379,0.00393021
704.01469116,0.00355034
705.94349854,0.00310627
707.87230591,0.00294892
709.80111328,0.00234561
711.72992065,0.00150520
713.65872803,0.00104622
715.58753540,0.00072271
717.51634277,0.00021665
719.44515015,0.00018713
721.37395752,0.00046562
723.30276489,0.00018730
725.23157227,0.00023106
727.16037964,0.00030319
729.08918701,0.00003464
731.01799438,-0.00006647
732.94680176,0.00004143
734.87560913,0.00035494
736.80441650,0.00026494
738.73322388,0.00008372
740.66203125,0.00009710
742.59083862,0.00026332
744.51964600,0.00029081
746.44845337,0.00030860
748.37726074,0.00036098
750.30606812,0.00013041
752.23487549,0.00023988
754.16368286,0.00023991
756.09249023,0.00020075
758.02129761,0.00026610
759.95010498,0.00025056
761.87891235,0.00033990
763.80771973,0.00026303
765.73652710,0.00040346
767.66533447,0.00034574
769.59414185,0.00031332
771.52294922,0.00057667
773.45175659,0.00034991
775.38056396,0.00045282
777.30937134,0.00055716
779.23817871,0.00012003
781.16698608,0.00014978
783.09579346,0.00025907
785.02460083,0.00011132
786.95340820,0.00040621
788.88221558,0.00051160
790.81102295,0.00027980
792.73983032,0.00025051
794.66863770,0.00027881
796.59744507,0.00029177
798.52625244,0.00038113
800.45505981,0.00081953
802.38386719,0.00067297
804.31267456,0.00015600
806.24148193,0.00052588
808.17028931,0.00045872
810.09909668,0.00006750
812.02790405,0.00039026
813.95671143,0.00059641
815.88551880,0.00035788
817.81432617,0.00009670
819.74313354,0.00013461
821.67194092,0.00018577
823.60074829,0.00032225
825.52955566,0.00036096
827.45836304,0.00019166
829.38717041,0.00054542
831.31597778,0.00087598
833.24478516,0.00076598
835.17359253,0.00067702
837.10239990,0.00079087
839.03120728,0.00087503
840.96001465,0.00067916
842.88882202,0.00070566
844.81762939,0.00098352
846.74643677,0.00087147
848.67524414,0.00072119
850.60405151,0.00076774
852.53285889,0.00058588
854.46166626,0.00056383
856.39047363,0.00069005
858.31928101,0.00049600
860.24808838,0.00026984
862.17689575,0.00024898
864.10570313,0.00038393
866.03451050,0.00045303
867.96331787,0.00041391
869.89212524,0.00045934
871.82093262,0.00035384
873.74973999,0.00029802
875.67854736,0.00045406
877.60735474,0.00034561
879.53616211,0.00035997
881.46496948,0.00042654
883.39377686,0.00030674
885.32258423,0.00048687
887.25139160,0.00054640
889.18019897,0.00036993
891.10900635,0.00043879
893.03781372,0.00047003
894.96662109,0.00039223
896.89542847,0.00054460
898.82423584,0.00060027
900.75304321,0.00051815
902.68185059,0.00054155
904.61065796,0.00039546
906.53946533,0.00056196
908.46827271,0.00092802
910.39708008,0.00076334
912.32588745,0.00063515
914.25469482,0.00055264
916.18350220,0.00060363
918.11230957,0.00093478
920.04111694,0.00084552
921.96992432,0.00108592
923.89873169,0.00133831
925.82753906,0.00105783
927.75634644,0.00115623
929.68515381,0.00113061
931.61396118,0.00092459
933.54276855,0.00116500
935.47157593,0.00150893
937.40038330,0.00141175
939.32919067,0.00144668
941.25799805,0.00168248
943.18680542,0.00155586
945.11561279,0.00159730
947.04442017,0.00155583
948.97322754,0.00150852
950.90203491,0.00151503
952.83084229,0.00134868
954.75964966,0.00148933
956.68845703,0.00153308
958.61726440,0.00147465
960.54607178,0.00145072
962.47487915,0.00144131
964.40368652,0.00154951
966.33249390,0.00146979
968.26130127,0.00139068
970.19010864,0.00168652
972.11891602,0.00184951
974.04772339,0.00179053
975.97653076,0.00208002
977.90533813,0.00200729
979.83414551,0.00191847
981.76295288,0.00229044
983.69176025,0.00249614
985.62056763,0.00280361
987.54937500,0.00310155
989.47818237,0.00344400
991.40698975,0.00374404
993.33579712,0.00398205
995.26460449,0.00431068
997.19341187,0.00453867
999.12221924,0.00481971
1001.05102661,0.00519543
1002.97983398,0.00568710
1004.90864136,0.00601033
1006.83744873,0.00630225
1008.76625610,0.00660155
1010.69506348,0.00696183
1012.62387085,0.00734352
1014.55267822,0.00758340
1016.48148560,0.00799087
1018.41029297,0.00841980
1020.33910034,0.00914754
1022.26790771,0.00934864
1024.19671509,0.00937887
1026.12552246,0.00982649
1028.05432983,0.00996793
1029.98313721,0.01066534
1031.91194458,0.01094389
1033.84075195,0.01103253
1035.76955933,0.01136625
1037.69836670,0.01122742
1039.62717407,0.01149241
1041.55598145,0.01136110
1043.48478882,0.01108983
1045.41359619,0.01112378
1047.34240356,0.01100262
1049.27121094,0.01078344
1051.20001831,0.01047920
1053.12882568,0.01042149
1055.05763306,0.01019957
1056.98644043,0.00996340
1058.91524780,0.00971883
1060.84405518,0.00960657
1062.77286255,0.00952140
1064.70166992,0.00896159
1066.63047729,0.00870660
1068.55928467,0.00851688
1070.48809204,0.00806595
1072.41689941,0.00771342
1074.34570679,0.00732512
1076.27451416,0.00692896
1078.20332153,0.00675142
1080.13212891,0.00643018
1082.06093628,0.00598678
1083.98974365,0.00580494
1085.91855103,0.00558960
1087.84735840,0.00526849
1089.77616577,0.00504495
1091.70497314,0.00516677
1093.63378052,0.00473627
1095.56258789,0.00427746
1097.49139526,0.00446912
1099.42020264,0.00424150
1101.34901001,0.00436809
1103.27781738,0.00432001
1105.20662476,0.00418092
1107.13543213,0.00436466
1109.06423950,0.00402274
1110.99304687,0.00414318
1112.92185425,0.00404842
1114.85066162,0.00378319
1116.77946899,0.00395617
1118.70827637,0.00376297
1120.63708374,0.00376449
1122.56589111,0.00398870
1124.49469849,0.00392176
1126.42350586,0.00401129
1128.35231323,0.00423468
1130.28112061,0.00409315
1132.20992798,0.00435551
1134.13873535,0.00451059
1136.06754272,0.00445536
1137.99635010,0.00492562
1139.92515747,0.00481238
1141.85396484,0.00519316
1143.78277222,0.00577887
1145.71157959,0.00588121
1147.64038696,0.00647115
1149.56919434,0.00653823
1151.49800171,0.00692921
1153.42680908,0.00734050
1155.35561646,0.00732275
1157.28442383,0.00795739
1159.21323120,0.00814852
1161.14203857,0.00840970
1163.07084595,0.00881973
1164.99965332,0.00894742
1166.92846069,0.00933475
1168.85726807,0.00951669
1170.78607544,0.00997421
1172.71488281,0.01042933
1174.64369019,0.01060521
1176.57249756,0.01112492
1178.50130493,0.01155762
1180.43011230,0.01192426
1182.35891968,0.01239466
1184.28772705,0.01293603
1186.21653442,0.01358474
1188.14534180,0.01418949
1190.07414917,0.01465071
1192.00295654,0.01524085
1193.93176392,0.01619522
1195.86057129,0.01687884
1197.78937866,0.01750468
1199.71818604,0.01833863
1201.64699341,0.01884230
1203.57580078,0.01959311
1205.50460815,0.02057933
1207.43341553,0.02113137
1209.36222290,0.02170924
1211.29103027,0.02239519
1213.21983765,0.02281246
1215.14864502,0.02349000
1217.07745239,0.02435567
1219.00625977,0.02462289
1220.93506714,0.02472373
1222.86387451,0.02507478
1224.79268188,0.02532081
1226.72148926,0.02546692
1228.65029663,0.02564663
1230.57910400,0.02573933
1232.50791138,0.02576737
1234.43671875,0.02574684
1236.36552612,0.02562265
1238.29433350,0.02559308
1240.22314087,0.02552645
1242.15194824,0.02539487
1244.08075562,0.02546964
1246.00956299,0.02535705
1247.93837036,0.02499412
1249.86717773,0.02501576
1251.79598511,0.02491859
1253.72479248,0.02439000
1255.65359985,0.02426776
1257.58240723,0.02397280
1259.51121460,0.02344463
1261.44002197,0.02331053
1263.36882935,0.02290983
1265.29763672,0.02258095
1267.22644409,0.02242376
1269.15525146,0.02202882
1271.08405884,0.02168728
1273.01286621,0.02142530
1274.94167358,0.02117198
1276.87048096,0.02055320
1278.79928833,0.02006203
1280.72809570,0.01985399
1282.65690308,0.01936587
1284.58571045,0.01923027
1286.51451782,0.01893254
1288.44332520,0.01842713
1290.37213257,0.01833399
1292.30093994,0.01801114
1294.22974731,0.01795660
1296.15855469,0.01782143
1298.08736206,0.01774013
1300.01616943,0.01812898
1301.94497681,0.01792155
1303.87378418,0.01826370
1305.80259155,0.01860075
1307.73139893,0.01856310
1309.66020630,0.01906446
1311.58901367,0.01887647
1313.51782104,0.01914671
1315.44662842,0.01985000
1317.37543579,0.02012967
1319.30424316,0.02075821
1321.23305054,0.02133799
1323.16185791,0.02193969
1325.09066528,0.02261314
1327.01947266,0.02341050
1328.94828003,0.02381204
1330.87708740,0.02419066
1332.80589478,0.02487788
1334.73470215,0.02516158
1336.66350952,0.02546165
1338.59231689,0.02489967
1340.52112427,0.02512105
1342.44993164,0.02645769
1344.37873901,0.02636274
1346.30754639,0.02644164
1348.23635376,0.02646941
1350.16516113,0.02622635
1352.09396851,0.02627091
1354.02277588,0.02577926
1355.95158325,0.02574937
1357.88039062,0.02548659
1359.80919800,0.02504591
1361.73800537,0.02396445
1363.66681274,0.02345489
1365.59562012,0.02494362
1367.52442749,0.02415804
1369.45323486,0.02392620
1371.38204224,0.02459897
1373.31084961,0.02281930
1375.23965698,0.02307181
1377.16846436,0.02397804
1379.09727173,0.02391952
1381.02607910,0.02392979
1382.95488647,0.02389868
1384.88369385,0.02391525
1386.81250122,0.02250339
1388.74130859,0.02290476
1390.67011597,0.02504161
1392.59892334,0.02414019
1394.52773071,0.02235996
1396.45653809,0.02351621
1398.38534546,0.02336836
1400.31415283,0.02341097
1402.24296021,0.02561260
1404.17176758,0.02375558
1406.10057495,0.02414503
1408.02938232,0.02534912
1409.95818970,0.02402124
1411.88699707,0.02472191
1413.81580444,0.02377228
1415.74461182,0.02420926
1417.67341919,0.02151581
1419.60222656,0.01903624
1421.53103394,0.02268975
1423.45984131,0.02173573
1425.38864868,0.02109366
1427.31745605,0.02170529
1429.24626343,0.01973892
1431.17507080,0.01918280
1433.10387817,0.01978924
1435.03268555,0.01800085
1436.96149292,0.01511813
1438.89030029,0.01740122
1440.81910767,0.01771433
1442.74791504,0.01646925
1444.67672241,0.01738606
1446.60552979,0.01572147
1448.53433716,0.01607187
1450.46314453,0.01673183
1452.39195190,0.01719508
1454.32075928,0.01765654
1456.24956665,0.01410897
1458.17837402,0.01475161
1460.10718140,0.01999112
1462.03598877,0.02121345
1463.96479614,0.02084042
1465.89360352,0.02174952
1467.82241089,0.02494206
1469.75121826,0.02661169
1471.68002563,0.02292136
1473.60883301,0.02411084
1475.53764038,0.02796426
1477.46644775,0.03003389
1479.39525513,0.03314524
1481.32406250,0.03344783
1483.25286987,0.03564406
1485.18167725,0.03675038
1487.11048462,0.03568641
1489.03929199,0.03500342
1490.96809937,0.03493786
1492.89690674,0.04162252
1494.82571411,0.04023159
1496.75452148,0.03531288
1498.68332886,0.04065387
1500.61213623,0.04192431
1502.54094360,0.04535418
1504.46975098,0.04219987
1506.39855835,0.02890127
1508.32736572,0.03674645
1510.25617310,0.04396798
1512.18498047,0.04247072
1514.11378784,0.04652300
1516.04259521,0.04093600
1517.97140259,0.04287636
1519.90020996,0.04118372
1521.82901733,0.03486433
1523.75782471,0.04410734
1525.68663208,0.04284099
1527.61543945,0.04268137
1529.54424683,0.04836924
1531.47305420,0.04603276
1533.40186157,0.04131043
1535.33066895,0.04464860
1537.25947632,0.04795557
1539.18828369,0.03218265
1541.11709106,0.03432190
1543.04589844,0.04194290
1544.97470581,0.04016027
1546.90351318,0.04914220
1548.83232056,0.04512278
1550.76112793,0.04681116
1552.68993530,0.04619666
1554.61874268,0.04150264
1556.54755005,0.04469152
1558.47635742,0.02899901
1560.40516479,0.03277110
1562.33397217,0.04929855
1564.26277954,0.04573028
1566.19158691,0.04768071
1568.12039429,0.04675271
1570.04920166,0.04052082
1571.97800903,0.04840340
1573.90681641,0.04851524
1575.83562378,0.03698311
1577.76443115,0.04314148
1579.69323853,0.04928207
1581.62204590,0.04700018
1583.55085327,0.04845159
1585.47966064,0.04758188
1587.40846802,0.04807222
1589.33727539,0.04751135
1591.26608276,0.04739852
1593.19489014,0.04724589
1595.12369751,0.04650940
1597.05250488,0.04737803
1598.98131226,0.04716900
1600.91011963,0.04738257
1602.83892700,0.04644784
1604.76773437,0.04752434
1606.69654175,0.04660247
1608.62534912,0.04641366
1610.55415649,0.04635227
1612.48296387,0.04675207
1614.41177124,0.04726735
1616.34057861,0.03742100
1618.26938599,0.04152145
1620.19819336,0.04914194
1622.12700073,0.04267443
1624.05580811,0.04310849
1625.98461548,0.04564881
1627.91342285,0.04519555
1629.84223022,0.04499875
1631.77103760,0.04861829
1633.69984497,0.04390081
1635.62865234,0.03513713
1637.55745972,0.04234363
1639.48626709,0.04717829
1641.41507446,0.04574855
1643.34388184,0.04713676
1645.27268921,0.04158986
1647.20149658,0.03554851
1649.13030396,0.04603477
1651.05911133,0.04312698
1652.98791870,0.02558791
1654.91672607,0.03710232
1656.84553345,0.04776268
1658.77434082,0.04559928
1660.70314819,0.04689211
1662.63195557,0.04159990
1664.56076294,0.04451083
1666.48957031,0.04828399
1668.41837769,0.04064957
1670.34718506,0.03939624
1672.27599243,0.04575597
1674.20479980,0.04122165
1676.13360718,0.03943320
1678.06241455,0.04655660
1679.99122192,0.04437438
1681.92002930,0.04332910
1683.84883667,0.03380875
1685.77764404,0.03419844
1687.70645142,0.04852484
1689.63525879,0.04083765
1691.56406616,0.04613398
1693.49287354,0.04650000
1695.42168091,0.03239476
1697.35048828,0.04158436
1699.27929565,0.03516800
1701.20810303,0.03151992
1703.13691040,0.04519026
1705.06571777,0.04042637
1706.99452515,0.04089276
1708.92333252,0.04536353
1710.85213989,0.04340167
1712.78094727,0.04385022
1714.70975464,0.04023045
1716.63856201,0.03556115
1718.56736938,0.03499445
1720.49617676,0.04293449
1722.42498413,0.04457843
1724.35379150,0.04101025
1726.28259888,0.04524488
1728.21140625,0.04104555
1730.14021362,0.04165728
1732.06902100,0.04017981
1733.99782837,0.02928939
1735.92663574,0.03846090
1737.85544312,0.04248016
1739.78425049,0.03731211
1741.71305786,0.04126495
1743.64186523,0.04143908
1745.57067261,0.04175990
1747.49947998,0.04189082
1749.42828735,0.03964428
1751.35709473,0.03783553
1753.28590210,0.04287666
1755.21470947,0.04499510
1757.14351685,0.04017525
1759.07232422,0.04512876
1761.00113159,0.04177320
1762.92993896,0.04029346
1764.85874634,0.04720889
1766.78755371,0.04151132
1768.71636108,0.04205401
1770.64516846,0.04135112
1772.57397583,0.03659189
1774.50278320,0.04209141
1776.43159058,0.04454267
1778.36039795,0.04366121
1780.28920532,0.04303612
1782.21801270,0.04350798
1784.14682007,0.04353425
1786.07562744,0.04252958
1788.00443481,0.04514159
1789.93324219,0.04361347
1791.86204956,0.03857796
1793.79085693,0.04079159
1795.71966431,0.04412697
1797.64847168,0.04341543
1799.57727905,0.04270419
1801.50608643,0.04173111
1803.43489380,0.04363937
1805.36370117,0.04447162
1807.29250854,0.04378741
1809.22131592,0.04396068
1811.15012329,0.04230341
1813.07893066,0.04438426
1815.00773804,0.04437807
1816.93654541,0.04361652
1818.86535278,0.04425452
1820.79416016,0.04395704
1822.72296753,0.04467981
1824.65177490,0.04108029
1826.58058228,0.04301949
1828.50938965,0.04293470
1830.43819702,0.03973462
1832.36700439,0.04407832
1834.29581177,0.04360881
1836.22461914,0.04368249
1838.15342651,0.04339772
1840.08223389,0.04362662
1842.01104126,0.04349256
1843.93984863,0.03778960
1845.86865601,0.04102496
1847.79746338,0.04348801
1849.72627075,0.04255746
1851.65507812,0.04393544
1853.58388550,0.04281399
1855.51269287,0.04335906
1857.44150024,0.04275510
1859.37030762,0.04260526
1861.29911499,0.04302447
1863.22792236,0.04229648
1865.15672974,0.04282625
1867.08553711,0.04109164
1869.01434448,0.03904915
1870.94315186,0.04089626
1872.87195923,0.04264714
1874.80076660,0.04188734
1876.72957397,0.04229971
1878.65838135,0.04188614
1880.58718872,0.04161225
1882.51599609,0.04215387
1884.44480347,0.04125091
1886.37361084,0.04205468
1888.30241821,0.04070126
1890.23122559,0.03975609
1892.16003296,0.04173033
1894.08884033,0.04083996
1896.01764771,0.04061987
1897.94645508,0.04114030
1899.87526245,0.04081157
1901.80406982,0.04092726
1903.73287720,0.04067169
1905.66168457,0.04091756
1907.59049194,0.04028285
1909.51929932,0.03991531
1911.44810669,0.04029060
1913.37691406,0.04028611
1915.30572144,0.04065931
1917.23452881,0.03860053
1919.16333618,0.03855156
1921.09214355,0.04027050
1923.02095093,0.03873602
1924.94975830,0.03963341
1926.87856567,0.04009332
1928.80737305,0.03936980
1930.73618042,0.03998518
1932.66498779,0.03939636
1934.59379517,0.03986237
1936.52260254,0.03936945
1938.45140991,0.03940234
1940.38021729,0.03949323
1942.30902466,0.03778692
1944.23783203,0.03860263
1946.16663940,0.03922308
1948.09544678,0.03904091
1950.02425415,0.03903635
1951.95306152,0.03892174
1953.88186890,0.03910038
1955.81067627,0.03878934
1957.73948364,0.03886748
1959.66829102,0.03868213
1961.59709839,0.03867137
1963.52590576,0.03879419
1965.45471313,0.03828540
1967.38352051,0.03799946
1969.31232788,0.03838777
1971.24113525,0.03860669
1973.16994263,0.03820632
1975.09875000,0.03830443
1977.02755737,0.03817474
1978.95636475,0.03804620
1980.88517212,0.03800153
1982.81397949,0.03785435
1984.74278687,0.03786152
1986.67159424,0.03748651
1988.60040161,0.03760411
1990.52920898,0.03711322
1992.45801636,0.03657712
1994.38682373,0.03713313
1996.31563110,0.03724060
1998.24443848,0.03720060
2000.17324585,0.03720008
2002.10205322,0.03694547
2004.03086060,0.03671686
2005.95966797,0.03676096
2007.88847534,0.03679086
2009.81728271,0.03638272
2011.74609009,0.03614799
2013.67489746,0.03636826
2015.60370483,0.03597993
2017.53251221,0.03558332
2019.46131958,0.03599568
2021.39012695,0.03580513
2023.31893433,0.03554675
2025.24774170,0.03558185
2027.17654907,0.03547142
2029.10535645,0.03549665
2031.03416382,0.03534070
2032.96297119,0.03519126
2034.89177856,0.03498353
2036.82058594,0.03498826
2038.74939331,0.03489660
2040.67820068,0.03455418
2042.60700806,0.03452952
2044.53581543,0.03443877
2046.46462280,0.03432623
2048.39343018,0.03421358
2050.32223755,0.03423341
2052.25104492,0.03426401
2054.17985229,0.03405171
2056.10865967,0.03395637
2058.03746704,0.03389776
2059.96627441,0.03370140
2061.89508179,0.03360794
2063.82388916,0.03352889
2065.75269653,0.03334374
2067.68150391,0.03332411
2069.61031128,0.03324188
2071.53911865,0.03327093
2073.46792603,0.03316810
2075.39673340,0.03300937
2077.32554077,0.03306098
2079.25434814,0.03279974
2081.18315552,0.03286985
2083.11196289,0.03267111
2085.04077026,0.03241979
2086.96957764,0.03267792
2088.89838501,0.03234327
2090.82719238,0.03214838
2092.75599976,0.03222789
2094.68480713,0.03212064
2096.61361450,0.03212214
2098.54242187,0.03209759
2100.47122925,0.03191527
2102.40003662,0.03187191
2104.32884399,0.03183430
2106.25765137,0.03162966
2108.18645874,0.03166350
2110.11526611,0.03157758
2112.04407349,0.03148298
2113.97288086,0.03139830
2115.90168823,0.03125076
2117.83049561,0.03125882
2119.75930298,0.03120003
2121.68811035,0.03112590
2123.61691772,0.03097813
2125.54572510,0.03107838
2127.47453247,0.03106546
2129.40333984,0.03089714
2131.33214722,0.03083626
2133.26095459,0.03060696
2135.18976196,0.03056668
2137.11856934,0.03051320
2139.04737671,0.03053189
2140.97618408,0.03053465
2142.90499146,0.03042261
2144.83379883,0.03033775
2146.76260620,0.03020213
2148.69141357,0.03027746
2150.62022095,0.03028048
2152.54902832,0.03018350
2154.47783569,0.03005277
2156.40664307,0.03001035
2158.33545044,0.02994835
2160.26425781,0.02983624
2162.19306519,0.02985652
2164.12187256,0.02973874
2166.05067993,0.02970824
2167.97948730,0.02960815
2169.90829468,0.02950304
2171.83710205,0.02954007
2173.76590942,0.02947186
2175.69471680,0.02939419
2177.62352417,0.02930058
2179.55233154,0.02918715
2181.48113892,0.02928169
2183.40994629,0.02932857
2185.33875366,0.02894603
2187.26756104,0.02902139
2189.19636841,0.02918348
2191.12517578,0.02908502
2193.05398315,0.02906622
2194.98279053,0.02880169
2196.91159790,0.02887141
2198.84040527,0.02869173
2200.76921265,0.02851326
2202.69802002,0.02865331
2204.62682739,0.02855203
2206.55563477,0.02860784
2208.48444214,0.02842370
2210.41324951,0.02820440
2212.34205688,0.02818567
2214.27086426,0.02837069
2216.19967163,0.02826079
2218.12847900,0.02805678
2220.05728638,0.02820121
2221.98609375,0.02782497
2223.91490112,0.02782067
2225.84370850,0.02802193
2227.77251587,0.02788213
2229.70132324,0.02782451
2231.63013062,0.02776544
2233.55893799,0.02777398
2235.48774536,0.02750966
2237.41655273,0.02751645
2239.34536011,0.02759751
2241.27416748,0.02737390
2243.20297485,0.02730387
2245.13178223,0.02726455
2247.06058960,0.02723282
2248.98939697,0.02722517
2250.91820435,0.02719952
2252.84701172,0.02703518
2254.77581909,0.02697826
2256.70462646,0.02691389
2258.63343384,0.02688923
2260.56224121,0.02696286
2262.49104858,0.02685240
2264.41985596,0.02683233
2266.34866333,0.02668606
2268.27747070,0.02660845
2270.20627808,0.02663490
2272.13508545,0.02654387
2274.06389282,0.02650635
2275.99270020,0.02641531
2277.92150757,0.02630125
2279.85031494,0.02617906
2281.77912231,0.02622022
2283.70792969,0.02622402
2285.63673706,0.02614554
2287.56554443,0.02608926
2289.49435181,0.02592756
2291.42315918,0.02588617
2293.35196655,0.02588790
2295.28077393,0.02575520
2297.20958130,0.02559081
2299.13838867,0.02555689
2301.06719604,0.02546378
2302.99600342,0.02527419
2304.92481079,0.02513617
2306.85361816,0.02504299
2308.78242554,0.02485106
2310.71123291,0.02457774
2312.64004028,0.02441964
2314.56884766,0.02415849
2316.49765503,0.02391813
2318.42646240,0.02357462
2320.35526978,0.02322774
2322.28407715,0.02297712
2324.21288452,0.02262262
2326.14169189,0.02248073
2328.07049927,0.02220951
2329.99930664,0.02194954
2331.92811401,0.02178518
2333.85692139,0.02167832
2335.78572876,0.02161205
2337.71453613,0.02143166
2339.64334351,0.02148490
2341.57215088,0.02150896
2343.50095825,0.02177192
2345.42976562,0.02220804
2347.35857300,0.02297218
2349.28738037,0.02355400
2351.21618774,0.02281882
2353.14499512,0.02184879
2355.07380249,0.02098550
2357.00260986,0.02044522
2358.93141724,0.02010594
2360.86022461,0.01977242
2362.78903198,0.01984650
2364.71783936,0.01979828
2366.64664673,0.02010137
2368.57545410,0.02052000
2370.50426147,0.02077337
2372.43306885,0.02123784
2374.36187622,0.02178331
2376.29068359,0.02245167
2378.21949097,0.02278133
2380.14829834,0.02294298
2382.07710571,0.02328249
2384.00591309,0.02339773
2385.93472046,0.02325347
2387.86352783,0.02333318
2389.79233521,0.02334778
2391.72114258,0.02321958
2393.64994995,0.02332543
2395.57875732,0.02318988
2397.50756470,0.02305918
2399.43637207,0.02307931
2401.36517944,0.02302396
2403.29398682,0.02292519
2405.22279419,0.02286162
2407.15160156,0.02291977
2409.08040894,0.02279499
2411.00921631,0.02269675
2412.93802368,0.02260898
2414.86683105,0.02258878
2416.79563843,0.02262536
2418.72444580,0.02252564
2420.65325317,0.02259869
2422.58206055,0.02249856
2424.51086792,0.02239993
2426.43967529,0.02246131
2428.36848267,0.02232491
2430.29729004,0.02220931
2432.22609741,0.02212356
2434.15490479,0.02219179
2436.08371216,0.02222041
2438.01251953,0.02204858
2439.94132690,0.02214698
2441.87013428,0.02201983
2443.79894165,0.02176068
2445.72774902,0.02187212
2447.65655640,0.02175992
2449.58536377,0.02175217
2451.51417114,0.02177565
2453.44297852,0.02165239
2455.37178589,0.02167938
2457.30059326,0.02152586
2459.22940063,0.02152861
2461.15820801,0.02149720
2463.08701538,0.02148814
2465.01582275,0.02149196
2466.94463013,0.02134422
2468.87343750,0.02149206
2470.80224487,0.02129364
2472.73105225,0.02117231
2474.65985962,0.02125143
2476.58866699,0.02108569
2478.51747437,0.02110432
2480.44628174,0.02096017
2482.37508911,0.02080593
2484.30389648,0.02083692
2486.23270386,0.02093991
2488.16151123,0.02092310
2490.09031860,0.02076662
2492.01912598,0.02086841
2493.94793335,0.02083327
2495.87674072,0.02062129
2497.80554810,0.02063822
2499.73435547,0.02065967
2501.66316284,0.02057319
2503.59197021,0.02049795
2505.52077759,0.02035988
2507.44958496,0.02034126
2509.37839233,0.02038488
2511.30719971,0.02033075
2513.23600708,0.02022043
2515.16481445,0.02003624
2517.09362183,0.02008714
2519.02242920,0.02005837
2520.95123657,0.02000522
2522.88004395,0.02010244
2524.80885132,0.01993792
2526.73765869,0.01987919
2528.66646606,0.01992116
2530.59527344,0.01988444
2532.52408081,0.01988754
2534.45288818,0.01984739
2536.38169556,0.01963517
2538.31050293,0.01958776
2540.23931030,0.01974594
2542.16811768,0.01958383
2544.09692505,0.01948410
2546.02573242,0.01946330
2547.95453979,0.01938057
2549.88334717,0.01932496
2551.81215454,0.01931255
2553.74096191,0.01935699
2555.66976929,0.01915168
2557.59857666,0.01919260
2559.52738403,0.01922881
2561.45619141,0.01902413
2563.38499878,0.01904616
2565.31380615,0.01896641
2567.24261353,0.01887448
2569.17142090,0.01883734
2571.10022827,0.01885727
2573.02903564,0.01884130
2574.95784302,0.01872097
2576.88665039,0.01876472
2578.81545776,0.01870476
2580.74426514,0.01854011
2582.67307251,0.01843997
2584.60187988,0.01848580
2586.53068726,0.01852970
2588.45949463,0.01833991
2590.38830200,0.01835452
2592.31710937,0.01838210
2594.24591675,0.01824350
2596.17472412,0.01834024
2598.10353149,0.01827157
2600.03233887,0.01812300
2601.96114624,0.01815039
2603.88995361,0.01810038
2605.81876099,0.01811933
2607.74756836,0.01802194
2609.67637573,0.01786477
2611.60518311,0.01788260
2613.53399048,0.01789415
2615.46279785,0.01784692
2617.39160522,0.01781906
2619.32041260,0.01775001
2621.24921997,0.01757925
2623.17802734,0.01763721
2625.10683472,0.01764764
2627.03564209,0.01747706
2628.96444946,0.01739427
2630.89325684,0.01731954
2632.82206421,0.01737464
2634.75087158,0.01734655
2636.67967895,0.01723739
2638.60848633,0.01721669
2640.53729370,0.01726178
2642.46610107,0.01714040
2644.39490845,0.01700667
2646.32371582,0.01712131
2648.25252319,0.01699944
2650.18133057,0.01702191
2652.11013794,0.01708617
2654.03894531,0.01695086
2655.96775269,0.01691868
2657.89656006,0.01681797
2659.82536743,0.01682377
2661.75417480,0.01673846
2663.68298218,0.01672584
2665.61178955,0.01669123
2667.54059692,0.01650073
2669.46940430,0.01649771
2671.39821167,0.01640861
2673.32701904,0.01643807
2675.25582642,0.01651247
2677.18463379,0.01643639
2679.11344116,0.01629884
2681.04224854,0.01624394
2682.97105591,0.01622816
2684.89986328,0.01612111
2686.82867065,0.01616191
2688.75747803,0.01611365
2690.68628540,0.01612831
2692.61509277,0.01611193
2694.54390015,0.01602026
2696.47270752,0.01607589
2698.40151489,0.01589497
2700.33032227,0.01584384
2702.25912964,0.01587073
2704.18793701,0.01576424
2706.11674438,0.01580210
2708.04555176,0.01577552
2709.97435913,0.01571438
2711.90316650,0.01571264
2713.83197388,0.01566132
2715.76078125,0.01560022
2717.68958862,0.01549466
2719.61839600,0.01545473
2721.54720337,0.01546745
2723.47601074,0.01526905
2725.40481812,0.01522693
2727.33362549,0.01527067
2729.26243286,0.01527465
2731.19124023,0.01533010
2733.12004761,0.01520799
2735.04885498,0.01521990
2736.97766235,0.01514844
2738.90646973,0.01506628
2740.83527710,0.01503039
2742.76408447,0.01496412
2744.69289185,0.01503826
2746.62169922,0.01486850
2748.55050659,0.01488811
2750.47931396,0.01482586
2752.40812134,0.01466117
2754.33692871,0.01477584
2756.26573608,0.01475351
2758.19454346,0.01478051
2760.12335083,0.01464757
2762.05215820,0.01455352
2763.98096558,0.01455208
2765.90977295,0.01451809
2767.83858032,0.01453874
2769.76738770,0.01442879
2771.69619507,0.01441006
2773.62500244,0.01425455
2775.55380981,0.01421319
2777.48261719,0.01429272
2779.41142456,0.01421106
2781.34023193,0.01413944
2783.26903931,0.01403702
2785.19784668,0.01403387
2787.12665405,0.01397938
2789.05546143,0.01403224
2790.98426880,0.01408668
2792.91307617,0.01401250
2794.84188354,0.01398069
2796.77069092,0.01383396
2798.69949829,0.01378398
2800.62830566,0.01380641
2802.55711304,0.01380180
2804.48592041,0.01369974
2806.41472778,0.01358353
2808.34353516,0.01356862
2810.27234253,0.01358988
2812.20114990,0.01356056
2814.12995728,0.01339101
2816.05876465,0.01344530
2817.98757202,0.01343393
2819.91637939,0.01330835
2821.84518677,0.01337031
2823.77399414,0.01329130
2825.70280151,0.01326936
2827.63160889,0.01326741
2829.56041626,0.01311007
2831.48922363,0.01304288
2833.41803101,0.01306801
2835.34683838,0.01303914
2837.27564575,0.01297341
2839.20445312,0.01297301
2841.13326050,0.01288349
2843.06206787,0.01278845
2844.99087524,0.01282872
2846.91968262,0.01267790
2848.84848999,0.01256984
2850.77729736,0.01268716
2852.70610474,0.01260841
2854.63491211,0.01260717
2856.56371948,0.01260450
2858.49252686,0.01250605
2860.42133423,0.01257276
2862.35014160,0.01239153
2864.27894897,0.01230330
2866.20775635,0.01244090
2868.13656372,0.01239252
2870.06537109,0.01233584
2871.99417847,0.01239959
2873.92298584,0.01240784
2875.85179321,0.01223256
2877.78060059,0.01221307
2879.70940796,0.01208973
2881.63821533,0.01195647
2883.56702270,0.01214641
2885.49583008,0.01202912
2887.42463745,0.01194808
2889.35344482,0.01201284
2891.28225220,0.01181546
2893.21105957,0.01186112
2895.13986694,0.01198728
2897.06867432,0.01186434
2898.99748169,0.01179280
2900.92628906,0.01169243
2902.85509644,0.01167180
2904.78390381,0.01175682
2906.71271118,0.01168500
2908.64151855,0.01172330
2910.57032593,0.01169978
2912.49913330,0.01152630
2914.42794067,0.01151778
2916.35674805,0.01152385
2918.28555542,0.01147167
2920.21436279,0.01147462
2922.14317017,0.01147720
2924.07197754,0.01139340
2926.00078491,0.01144642
2927.92959229,0.01141079
2929.85839966,0.01131662
2931.78720703,0.01140439
2933.71601440,0.01127792
2935.64482178,0.01123130
2937.57362915,0.01126060
2939.50243652,0.01120152
2941.43124390,0.01125195
2943.36005127,0.01122517
2945.28885864,0.01117329
2947.21766602,0.01113673
2949.14647339,0.01111206
2951.07528076,0.01099482
2953.00408813,0.01090664
2954.93289551,0.01099993
2956.86170288,0.01093152
2958.79051025,0.01081956
2960.71931763,0.01089941
2962.64812500,0.01082702
2964.57693237,0.01075177
2966.50573975,0.01084933
2968.43454712,0.01068341
2970.36335449,0.01073668
2972.29216187,0.01079530
2974.22096924,0.01057952
2976.14977661,0.01073810
2978.07858398,0.01066040
2980.00739136,0.01059480
2981.93619873,0.01070062
2983.86500610,0.01057250
2985.79381348,0.01060305
2987.72262085,0.01053160
2989.65142822,0.01056680
2991.58023560,0.01062213
2993.50904297,0.01041912
2995.43785034,0.01042994
2997.36665771,0.01051265
2999.29546509,0.01041311
3001.22427246,0.01030695
3003.15307983,0.01031429
3005.08188721,0.01029308
3007.01069458,0.01021924
3008.93950195,0.01012035
3010.86830933,0.01015678
3012.79711670,0.01018232
3014.72592407,0.01003344
3016.65473145,0.01004136
3018.58353882,0.01002709
3020.51234619,0.00997280
3022.44115356,0.00993312
3024.36996094,0.00992705
3026.29876831,0.01003273
3028.22757568,0.00997424
3030.15638306,0.00984154
3032.08519043,0.00973040
3034.01399780,0.00976041
3035.94280518,0.00978743
3037.87161255,0.00970813
3039.80041992,0.00978872
3041.72922729,0.00969568
3043.65803467,0.00959127
3045.58684204,0.00974261
3047.51564941,0.00967125
3049.44445679,0.00950315
3051.37326416,0.00957857
3053.30207153,0.00961456
3055.23087891,0.00951534
3057.15968628,0.00947945
3059.08849365,0.00945303
3061.01730103,0.00947407
3062.94610840,0.00946011
3064.87491577,0.00932784
3066.80372314,0.00934006
3068.73253052,0.00933126
3070.66133789,0.00932509
3072.59014526,0.00936664
3074.51895264,0.00920971
3076.44776001,0.00923522
3078.37656738,0.00923225
3080.30537476,0.00916670
3082.23418213,0.00930261
3084.16298950,0.00915897
3086.09179687,0.00909963
3088.02060425,0.00915493
3089.94941162,0.00911535
3091.87821899,0.00914534
3093.80702637,0.00902951
3095.73583374,0.00900309
3097.66464111,0.00903920
3099.59344849,0.00904013
3101.52225586,0.00897809
3103.45106323,0.00892398
3105.37987061,0.00902411
3107.30867798,0.00898319
3109.23748535,0.00881990
3111.16629272,0.00872985
3113.09510010,0.00883923
3115.02390747,0.00876946
3116.95271484,0.00870992
3118.88152222,0.00885458
3120.81032959,0.00863277
3122.73913696,0.00863570
3124.66794434,0.00882567
3126.59675171,0.00871262
3128.52555908,0.00865350
3130.45436645,0.00864986
3132.38317383,0.00859666
3134.31198120,0.00850393
3136.24078857,0.00854076
3138.16959595,0.00864527
3140.09840332,0.00856745
3142.02721069,0.00843282
3143.95601807,0.00846695
3145.88482544,0.00851117
3147.81363281,0.00847350
3149.74244019,0.00838062
3151.67124756,0.00833770
3153.60005493,0.00844766
3155.52886230,0.00835962
3157.45766968,0.00833988
3159.38647705,0.00834746
3161.31528442,0.00827548
3163.24409180,0.00837844
3165.17289917,0.00824565
3167.10170654,0.00819284
3169.03051392,0.00826592
3170.95932129,0.00825503
3172.88812866,0.00826055
3174.81693604,0.00819147
3176.74574341,0.00816598
3178.67455078,0.00813383
3180.60335815,0.00814599
3182.53216553,0.00810758
3184.46097290,0.00810776
3186.38978027,0.00804485
3188.31858765,0.00803537
3190.24739502,0.00823336
3192.17620239,0.00808172
3194.10500977,0.00802295
3196.03381714,0.00800226
3197.96262451,0.00793656
3199.89143188,0.00806172
3201.82023926,0.00793475
3203.74904663,0.00793088
3205.67785400,0.00798697
3207.60666138,0.00794281
3209.53546875,0.00797001
3211.46427612,0.00790857
3213.39308350,0.00793873
3215.32189087,0.00800970
3217.25069824,0.00795293
3219.17950562,0.00790171
3221.10831299,0.00794018
3223.03712036,0.00799462
3224.96592773,0.00801696
3226.89473511,0.00795232
3228.82354248,0.00789964
3230.75234985,0.00796755
3232.68115723,0.00793530
3234.60996460,0.00785397
3236.53877197,0.00798826
3238.46757935,0.00796758
3240.39638672,0.00781424
3242.32519409,0.00793494
3244.25400146,0.00785838
3246.18280884,0.00783773
3248.11161621,0.00790055
3250.04042358,0.00774710
3251.96923096,0.00791611
3253.89803833,0.00794228
3255.82684570,0.00783464
3257.75565308,0.00787260
3259.68446045,0.00788526
3261.61326782,0.00796458
3263.54207520,0.00786565
3265.47088257,0.00780493
3267.39968994,0.00789296
3269.32849731,0.00797649
3271.25730469,0.00792771
3273.18611206,0.00786575
3275.11491943,0.00791910
3277.04372681,0.00781788
3278.97253418,0.00771707
3280.90134155,0.00774031
3282.83014893,0.00781808
3284.75895630,0.00784017
3286.68776367,0.00789487
3288.61657104,0.00793845
3290.54537842,0.00785998
3292.47418579,0.00779233
3294.40299316,0.00778855
3296.33180054,0.00787199
3298.26060791,0.00778515
3300.18941528,0.00780084
3302.11822266,0.00786962
3304.04703003,0.00776842
3305.97583740,0.00773211
3307.90464478,0.00772966
3309.83345215,0.00780391
3311.76225952,0.00776103
3313.69106689,0.00782017
3315.61987427,0.00781162
3317.54868164,0.00776339
3319.47748901,0.00785533
3321.40629639,0.00773237
3323.33510376,0.00778920
3325.26391113,0.00770480
3327.19271851,0.00767771
3329.12152588,0.00783013
3331.05033325,0.00779397
3332.97914062,0.00782497
3334.90794800,0.00764079
3336.83675537,0.00766551
3338.76556274,0.00778262
3340.69437012,0.00764013
3342.62317749,0.00763951
3344.55198486,0.00772614
3346.48079224,0.00770506
3348.40959961,0.00764964
3350.33840698,0.00772055
3352.26721436,0.00770112
3354.19602173,0.00773757
3356.12482910,0.00774901
3358.05363647,0.00777572
3359.98244385,0.00778181
3361.91125122,0.00763724
3363.84005859,0.00776771
3365.76886597,0.00771540
3367.69767334,0.00761431
3369.62648071,0.00765503
3371.55528809,0.00766897
3373.48409546,0.00772554
3375.41290283,0.00765461
3377.34171020,0.00770809
3379.27051758,0.00779382
3381.19932495,0.00783226
3383.12813232,0.00772593
3385.05693970,0.00770611
3386.98574707,0.00780948
3388.91455444,0.00767275
3390.84336182,0.00766457
3392.77216919,0.00769271
3394.70097656,0.00763952
3396.62978394,0.00762187
3398.55859131,0.00769845
3400.48739868,0.00766697
3402.41620605,0.00756222
3404.34501343,0.00766106
3406.27382080,0.00772542
3408.20262817,0.00768773
3410.13143555,0.00757975
3412.06024292,0.00766830
3413.98905029,0.00765281
3415.91785767,0.00759353
3417.84666504,0.00765218
3419.77547241,0.00749685
3421.70427979,0.00757142
3423.63308716,0.00758113
3425.56189453,0.00756110
3427.49070190,0.00761548
3429.41950928,0.00759263
3431.34831665,0.00761479
3433.27712402,0.00753799
3435.20593140,0.00763977
3437.13473877,0.00757113
3439.06354614,0.00749444
3440.99235352,0.00758123
3442.92116089,0.00751834
3444.84996826,0.00748152
3446.77877563,0.00741275
3448.70758301,0.00742941
3450.63639038,0.00743353
3452.56519775,0.00741750
3454.49400513,0.00742356
3456.42281250,0.00750315
3458.35161987,0.00750223
3460.28042725,0.00741379
3462.20923462,0.00749022
3464.13804199,0.00739715
3466.06684937,0.00739515
3467.99565674,0.00740939
3469.92446411,0.00737743
3471.85327148,0.00742943
3473.78207886,0.00734385
3475.71088623,0.00731115
3477.63969360,0.00732278
3479.56850098,0.00740247
3481.49730835,0.00728484
3483.42611572,0.00720070
3485.35492310,0.00727207
3487.28373047,0.00723566
3489.21253784,0.00729591
3491.14134521,0.00726838
3493.07015259,0.00731729
3494.99895996,0.00728749
3496.92776733,0.00717449
3498.85657471,0.00723437
3500.78538208,0.00719841
3502.71418945,0.00711352
3504.64299683,0.00711981
3506.57180420,0.00726840
3508.50061157,0.00716773
3510.42941895,0.00703840
3512.35822632,0.00718240
3514.28703369,0.00717061
3516.21584106,0.00714866
3518.14464844,0.00716364
3520.07345581,0.00711647
3522.00226318,0.00709297
3523.93107056,0.00696967
3525.85987793,0.00688941
3527.78868530,0.00697541
3529.71749268,0.00697450
3531.64630005,0.00706942
3533.57510742,0.00717289
3535.50391479,0.00703326
3537.43272217,0.00701545
3539.36152954,0.00705371
3541.29033691,0.00704848
3543.21914429,0.00698991
3545.14795166,0.00671576
3547.07675903,0.00657352
3549.00556641,0.00681593
3550.93437378,0.00684084
3552.86318115,0.00676049
3554.79198853,0.00693108
3556.72079590,0.00689442
3558.64960327,0.00688551
3560.57841064,0.00673659
3562.50721802,0.00672956
3564.43602539,0.00682005
3566.36483276,0.00614069
3568.29364014,0.00602521
3570.22244751,0.00666956
3572.15125488,0.00678667
3574.08006226,0.00670504
3576.00886963,0.00683147
3577.93767700,0.00675349
3579.86648437,0.00670328
3581.79529175,0.00674666
3583.72409912,0.00671965
3585.65290649,0.00655805
3587.58171387,0.00583606
3589.51052124,0.00603189
3591.43932861,0.00668091
3593.36813599,0.00642461
3595.29694336,0.00636033
3597.22575073,0.00641340
3599.15455811,0.00650497
3601.08336548,0.00642503
3603.01217285,0.00648000
3604.94098022,0.00674098
3606.86978760,0.00637066
3608.79859497,0.00588504
3610.72740234,0.00604807
3612.65620972,0.00621457
3614.58501709,0.00602297
3616.51382446,0.00654778
3618.44263184,0.00600791
3620.37143921,0.00570257
3622.30024658,0.00654737
3624.22905395,0.00633594
3626.15786133,0.00672171
3628.08666870,0.00553961
3630.01547607,0.00489034
3631.94428345,0.00648333
3633.87309082,0.00630379
3635.80189819,0.00634865
3637.73070557,0.00648721
3639.65951294,0.00645160
3641.58832031,0.00646932
3643.51712769,0.00642043
3645.44593506,0.00652368
3647.37474243,0.00560694
3649.30354980,0.00512471
3651.23235718,0.00524225
3653.16116455,0.00643416
3655.08997192,0.00632398
3657.01877930,0.00552424
3658.94758667,0.00659190
3660.87639404,0.00636476
3662.80520142,0.00651825
3664.73400879,0.00651881
3666.66281616,0.00639182
3668.59162354,0.00620074
3670.52043091,0.00489982
3672.44923828,0.00624430
3674.37804565,0.00585409
3676.30685303,0.00464133
3678.23566040,0.00617726
3680.16446777,0.00636837
3682.09327515,0.00643242
3684.02208252,0.00665839
3685.95088989,0.00651896
3687.87969727,0.00581640
3689.80850464,0.00521478
3691.73731201,0.00607080
3693.66611938,0.00639553
3695.59492676,0.00655997
3697.52373413,0.00654789
3699.45254150,0.00644686
3701.38134888,0.00620079
3703.31015625,0.00606331
3705.23896362,0.00676576
3707.16777100,0.00628666
3709.09657837,0.00616816
3711.02538574,0.00578621
3712.95419312,0.00528000
3714.88300049,0.00639650
3716.81180786,0.00635975
3718.74061523,0.00637658
3720.66942261,0.00618307
3722.59822998,0.00585462
3724.52703735,0.00617901
3726.45584473,0.00573724
3728.38465210,0.00625634
3730.31345947,0.00625353
3732.24226685,0.00565098
3734.17107422,0.00541173
3736.09988159,0.00505339
3738.02868896,0.00540739
3739.95749634,0.00600287
3741.88630371,0.00632103
3743.81511108,0.00463770
3745.74391846,0.00427530
3747.67272583,0.00591726
3749.60153320,0.00494261
3751.53034058,0.00446206
3753.45914795,0.00537872
3755.38795532,0.00580595
3757.31676270,0.00601236
3759.24557007,0.00545404
3761.17437744,0.00572046
3763.10318481,0.00624153
3765.03199219,0.00565000
3766.96079956,0.00580293
3768.88960693,0.00579815
3770.81841431,0.00541228
3772.74722168,0.00599818
3774.67602905,0.00599141
3776.60483643,0.00593705
3778.53364380,0.00573190
3780.46245117,0.00549049
3782.39125854,0.00594717
3784.32006592,0.00567233
3786.24887329,0.00572442
3788.17768066,0.00586859
3790.10648804,0.00575312
3792.03529541,0.00580090
3793.96410278,0.00587593
3795.89291016,0.00547433
3797.82171753,0.00529773
3799.75052490,0.00568143
3801.67933228,0.00438724
3803.60813965,0.00516554
3805.53694702,0.00575440
3807.46575439,0.00448050
3809.39456177,0.00565559
3811.32336914,0.00560583
3813.25217651,0.00574384
3815.18098389,0.00511403
3817.10979126,0.00437932
3819.03859863,0.00565860
3820.96740601,0.00431080
3822.89621338,0.00471770
3824.82502075,0.00567905
3826.75382812,0.00490982
3828.68263550,0.00542340
3830.61144287,0.00525409
3832.54025024,0.00493835
3834.46905762,0.00507402
3836.39786499,0.00487444
3838.32667236,0.00426758
3840.25547974,0.00476965
3842.18428711,0.00511242
3844.11309448,0.00477444
3846.04190186,0.00534075
3847.97070923,0.00517473
3849.89951660,0.00527522
3851.82832397,0.00465257
3853.75713135,0.00333008
3855.68593872,0.00409638
3857.61474609,0.00522412
3859.54355347,0.00504567
3861.47236084,0.00482469
3863.40116821,0.00480637
3865.32997559,0.00440094
3867.25878296,0.00507849
3869.18759033,0.00469651
3871.11639770,0.00414679
3873.04520508,0.00500846
3874.97401245,0.00441669
3876.90281982,0.00502464
3878.83162720,0.00511435
3880.76043457,0.00410801
3882.68924194,0.00506845
3884.61804932,0.00460574
3886.54685669,0.00408884
3888.47566406,0.00501354
3890.40447144,0.00469198
3892.33327881,0.00425865
3894.26208618,0.00475781
3896.19089355,0.00497805
3898.11970093,0.00468131
3900.04850830,0.00426109
3901.97731567,0.00415370
3903.90612305,0.00422433
3905.83493042,0.00424883
3907.76373779,0.00466586
3909.69254517,0.00475963
3911.62135254,0.00473586
3913.55015991,0.00480586
3915.47896728,0.00456458
3917.40777466,0.00445068
3919.33658203,0.00438596
3921.26538940,0.00457860
3923.19419678,0.00457762
3925.12300415,0.00449871
3927.05181152,0.00459189
3928.98061890,0.00453824
3930.90942627,0.00449171
3932.83823364,0.00431016
3934.76704102,0.00444867
3936.69584839,0.00450449
3938.62465576,0.00449665
3940.55346313,0.00456732
3942.48227051,0.00431977
3944.41107788,0.00436571
3946.33988525,0.00442181
3948.26869263,0.00431688
3950.19750000,0.00426206
3952.12630737,0.00431436
3954.05511475,0.00439482
3955.98392212,0.00438250
3957.91272949,0.00436694
3959.84153687,0.00430346
3961.77034424,0.00429721
3963.69915161,0.00422882
3965.62795898,0.00434572
3967.55676636,0.00440480
3969.48557373,0.00422271
3971.41438110,0.00421726
3973.34318848,0.00418262
3975.27199585,0.00421231
3977.20080322,0.00426676
3979.12961060,0.00424567
3981.05841797,0.00424411
3982.98722534,0.00420794
3984.91603271,0.00414452
3986.84484009,0.00412330
3988.77364746,0.00412040
3990.70245483,0.00410404
3992.63126221,0.00417225
3994.56006958,0.00413516
3996.48887695,0.00414180
3998.41768433,0.00413580
4000.34649170,0.00397735
4002.27529907,0.00398030
4004.20410645,0.00401807
4006.13291382,0.00400310
4008.06172119,0.00400237
4009.99052856,0.00402847
4011.91933594,0.00402889
4013.84814331,0.00407717
4015.77695068,0.00402237
4017.70575806,0.00391596
4019.63456543,0.00408536
4021.56337280,0.00404122
4023.49218018,0.00387129
4025.42098755,0.00389081
4027.34979492,0.00388669
4029.27860229,0.00390444
4031.20740967,0.00388907
4033.13621704,0.00384341
4035.06502441,0.00386920
4036.99383179,0.00391492
4038.92263916,0.00387375
4040.85144653,0.00381252
4042.78025391,0.00379353
4044.70906128,0.00380342
4046.63786865,0.00383434
4048.56667603,0.00388414
4050.49548340,0.00393098
4052.42429077,0.00378130
4054.35309814,0.00364726
4056.28190552,0.00372996
4058.21071289,0.00373952
4060.13952026,0.00373804
4062.06832764,0.00374461
4063.99713501,0.00360354
4065.92594238,0.00362256
4067.85474976,0.00371200
4069.78355713,0.00373572
4071.71236450,0.00374475
4073.64117187,0.00359756
4075.56997925,0.00362554
4077.49878662,0.00364080
4079.42759399,0.00355138
4081.35640137,0.00355963
4083.28520874,0.00352985
4085.21401611,0.00361962
4087.14282349,0.00355095
4089.07163086,0.00348323
4091.00043823,0.00358912
4092.92924561,0.00351939
4094.85805298,0.00347022
4096.78686035,0.00355034
4098.71566772,0.00356489
4100.64447510,0.00350630
4102.57328247,0.00350760
4104.50208984,0.00345289
4106.43089722,0.00348995
4108.35970459,0.00349111
4110.28851196,0.00344362
4112.21731934,0.00347456
4114.14612671,0.00337523
4116.07493408,0.00348927
4118.00374145,0.00347020
4119.93254883,0.00341508
4121.86135620,0.00347858
4123.79016357,0.00336080
4125.71897095,0.00339025
4127.64777832,0.00335963
4129.57658569,0.00337418
4131.50539307,0.00333667
4133.43420044,0.00330942
4135.36300781,0.00337133
4137.29181519,0.00330447
4139.22062256,0.00328149
4141.14942993,0.00322431
4143.07823730,0.00336468
4145.00704468,0.00326208
4146.93585205,0.00315899
4148.86465942,0.00330214
4150.79346680,0.00324284
4152.72227417,0.00325842
4154.65108154,0.00312049
4156.57988892,0.00320059
4158.50869629,0.00324053
4160.43750366,0.00315505
4162.36631103,0.00330025
4164.29511841,0.00314151
4166.22392578,0.00316233
4168.15273315,0.00319915
4170.08154053,0.00312546
4172.01034790,0.00318300
4173.93915527,0.00312023
4175.86796265,0.00313579
4177.79677002,0.00310268
4179.72557739,0.00300490
4181.65438477,0.00303033
4183.58319214,0.00311640
4185.51199951,0.00305820
4187.44080688,0.00299612
4189.36961426,0.00307304
4191.29842163,0.00304376
4193.22722900,0.00297072
4195.15603638,0.00299378
4197.08484375,0.00299574
4199.01365112,0.00295382
4200.94245850,0.00303392
4202.87126587,0.00303979
4204.80007324,0.00294004
4206.72888062,0.00294912
4208.65768799,0.00299321
4210.58649536,0.00288190
4212.51530273,0.00283205
4214.44411011,0.00299278
4216.37291748,0.00289853
4218.30172485,0.00290879
4220.23053223,0.00296942
4222.15933960,0.00282284
4224.08814697,0.00290609
4226.01695435,0.00290936
4227.94576172,0.00284471
4229.87456909,0.00278791
4231.80337646,0.00279960
4233.73218384,0.00286980
4235.66099121,0.00277750
4237.58979858,0.00275873
4239.51860596,0.00272495
4241.44741333,0.00269213
4243.37622070,0.00277664
4245.30502808,0.00283708
4247.23383545,0.00276402
4249.16264282,0.00274345
4251.09145020,0.00275817
4253.02025757,0.00270489
4254.94906494,0.00272026
4256.87787231,0.00271749
4258.80667969,0.00282850
4260.73548706,0.00279188
4262.66429443,0.00270137
4264.59310181,0.00272764
4266.52190918,0.00260875
4268.45071655,0.00269372
4270.37952393,0.00276710
4272.30833130,0.00269732
4274.23713867,0.00262279
4276.16594604,0.00257463
4278.09475342,0.00260052
4280.02356079,0.00258451
4281.95236816,0.00263277
4283.88117554,0.00259692
4285.80998291,0.00258686
4287.73879028,0.00261874
4289.66759766,0.00260245
4291.59640503,0.00265590
4293.52521240,0.00259716
4295.45401978,0.00251680
4297.38282715,0.00255384
4299.31163452,0.00258631
4301.24044189,0.00253834
4303.16924927,0.00254325
4305.09805664,0.00251315
4307.02686401,0.00249874
4308.95567139,0.00253484
4310.88447876,0.00244718
4312.81328613,0.00250985
4314.74209351,0.00252494
4316.67090088,0.00250669
4318.59970825,0.00255133
4320.52851562,0.00240583
4322.45732300,0.00246354
4324.38613037,0.00252658
4326.31493774,0.00238537
4328.24374512,0.00242376
4330.17255249,0.00245517
4332.10135986,0.00239442
4334.03016724,0.00238595
4335.95897461,0.00240584
4337.88778198,0.00241184
4339.81658936,0.00232979
4341.74539673,0.00233573
4343.67420410,0.00236576
4345.60301147,0.00233354
4347.53181885,0.00239039
4349.46062622,0.00234821
4351.38943359,0.00234472
4353.31824097,0.00240284
4355.24704834,0.00239138
4357.17585571,0.00237604
4359.10466309,0.00232022
4361.03347046,0.00234292
4362.96227783,0.00234780
4364.89108520,0.00234340
4366.81989258,0.00230956
4368.74869995,0.00228034
4370.67750732,0.00226715
4372.60631470,0.00218820
4374.53512207,0.00227158
4376.46392944,0.00227094
4378.39273682,0.00220583
4380.32154419,0.00222796
4382.25035156,0.00224922
4384.17915894,0.00222905
4386.10796631,0.00212861
4388.03677368,0.00213999
4389.96558105,0.00219453
4391.89438843,0.00225576
4393.82319580,0.00217133
4395.75200317,0.00210890
4397.68081055,0.00218449
4399.60961792,0.00218677
4401.53842529,0.00223155
4403.46723267,0.00216491
4405.39604004,0.00221983
4407.32484741,0.00228134
4409.25365478,0.00215555
4411.18246216,0.00212183
4413.11126953,0.00211369
4415.04007690,0.00215050
4416.96888428,0.00214798
4418.89769165,0.00210377
4420.82649902,0.00201800
4422.75530640,0.00209008
4424.68411377,0.00213618
4426.61292114,0.00202498
4428.54172852,0.00209440
4430.47053589,0.00201931
4432.39934326,0.00199867
4434.32815063,0.00203125
4436.25695801,0.00201921
4438.18576538,0.00209762
4440.11457275,0.00200856
4442.04338013,0.00201388
4443.97218750,0.00208355
4445.90099487,0.00205129
4447.82980225,0.00197481
4449.75860962,0.00198536
4451.68741699,0.00199818
4453.61622437,0.00195144
4455.54503174,0.00201883
4457.47383911,0.00196625
4459.40264648,0.00189934
4461.33145386,0.00194844
4463.26026123,0.00200812
4465.18906860,0.00192642
4467.11787598,0.00186582
4469.04668335,0.00191032
4470.97549072,0.00183651
4472.90429810,0.00192431
4474.83310547,0.00192033
4476.76191284,0.00185442
4478.69072021,0.00193057
4480.61952759,0.00190781
4482.54833496,0.00194211
4484.47714233,0.00194251
4486.40594971,0.00190615
4488.33475708,0.00187427
4490.26356445,0.00183475
4492.19237183,0.00184485
4494.12117920,0.00191322
4496.04998657,0.00187030
4497.97879395,0.00176150
4499.90760132,0.00183636
4501.83640869,0.00175649
4503.76521606,0.00176286
4505.69402344,0.00187848
4507.62283081,0.00183017
4509.55163818,0.00187994
4511.48044556,0.00185137
4513.40925293,0.00180672
4515.33806030,0.00177747
4517.26686768,0.00178700
4519.19567505,0.00183471
4521.12448242,0.00176685
4523.05328979,0.00179105
4524.98209717,0.00179153
4526.91090454,0.00176327
4528.83971191,0.00178652
4530.76851929,0.00178241
4532.69732666,0.00178542
4534.62613403,0.00177790
4536.55494141,0.00177255
4538.48374878,0.00175149
4540.41255615,0.00172767
4542.34136353,0.00170268
4544.27017090,0.00171425
4546.19897827,0.00174190
4548.12778564,0.00170682
4550.05659302,0.00164698
4551.98540039,0.00163472
4553.91420776,0.00167607
4555.84301514,0.00167039
4557.77182251,0.00166798
4559.70062988,0.00165225
4561.62943726,0.00169821
4563.55824463,0.00180902
4565.48705200,0.00168512
4567.41585937,0.00163894
4569.34466675,0.00170199
4571.27347412,0.00159384
4573.20228149,0.00158424
4575.13108887,0.00160541
4577.05989624,0.00161879
4578.98870361,0.00159803
4580.91751099,0.00155867
4582.84631836,0.00162455
4584.77512573,0.00160156
4586.70393311,0.00163090
4588.63274048,0.00158296
4590.56154785,0.00156228
4592.49035522,0.00164168
4594.41916260,0.00152338
4596.34796997,0.00155564
4598.27677734,0.00149251
4600.20558472,0.00146633
4602.13439209,0.00159656
4604.06319946,0.00155497
4605.99200684,0.00160777
4607.92081421,0.00147254
4609.84962158,0.00149487
4611.77842895,0.00163266
4613.70723633,0.00147328
4615.63604370,0.00153874
4617.56485107,0.00155238
4619.49365845,0.00148234
4621.42246582,0.00154330
4623.35127319,0.00150582
4625.28008057,0.00142893
4627.20888794,0.00141284
4629.13769531,0.00137538
4631.06650269,0.00141386
4632.99531006,0.00157094
4634.92411743,0.00150364
4636.85292480,0.00145470
4638.78173218,0.00143557
4640.71053955,0.00136946
4642.63934692,0.00146746
4644.56815430,0.00139212
4646.49696167,0.00136941
4648.42576904,0.00142250
4650.35457642,0.00136965
4652.28338379,0.00145938
4654.21219116,0.00142669
4656.14099853,0.00134296
4658.06980591,0.00143931
4659.99861328,0.00142583
4661.92742065,0.00138818
4663.85622803,0.00144227
4665.78503540,0.00138514
4667.71384277,0.00139938
4669.64265015,0.00143428
4671.57145752,0.00138721
4673.50026489,0.00140595
4675.42907227,0.00138363
4677.35787964,0.00141233
4679.28668701,0.00138534
4681.21549438,0.00133709
4683.14430176,0.00136342
4685.07310913,0.00132153
4687.00191650,0.00137846
4688.93072388,0.00132729
4690.85953125,0.00126669
4692.78833862,0.00132512
4694.71714600,0.00122533
4696.64595337,0.00125521
4698.57476074,0.00139104
4700.50356812,0.00135081
4702.43237549,0.00127885
4704.36118286,0.00132735
4706.28999023,0.00132568
4708.21879761,0.00126718
4710.14760498,0.00131600
4712.07641235,0.00126692
4714.00521973,0.00122039
4715.93402710,0.00125626
4717.86283447,0.00130357
4719.79164185,0.00133684
4721.72044922,0.00122964
4723.64925659,0.00127677
4725.57806396,0.00129490
4727.50687134,0.00121027
4729.43567871,0.00130978
4731.36448608,0.00128701
4733.29329346,0.00121646
4735.22210083,0.00123347
4737.15090820,0.00125782
4739.07971558,0.00121783
4741.00852295,0.00123105
4742.93733032,0.00130869
4744.86613770,0.00121052
4746.79494507,0.00126028
4748.72375244,0.00132319
4750.65255981,0.00125820
4752.58136719,0.00117004
4754.51017456,0.00112447
4756.43898193,0.00126132
4758.36778931,0.00113043
4760.29659668,0.00107216
4762.22540405,0.00122514
4764.15421143,0.00121159
4766.08301880,0.00116269
4768.01182617,0.00110831
4769.94063354,0.00112910
4771.86944092,0.00107866
4773.79824829,0.00119382
4775.72705566,0.00123110
4777.65586304,0.00106540
4779.58467041,0.00111349
4781.51347778,0.00105030
4783.44228516,0.00114301
4785.37109253,0.00113757
4787.29989990,0.00100426
4789.22870728,0.00117032
4791.15751465,0.00113710
4793.08632202,0.00110113
4795.01512939,0.00112200
4796.94393677,0.00108338
4798.87274414,0.00111350
4800.80155151,0.00115374
4802.73035889,0.00114617
4804.65916626,0.00107243
4806.58797363,0.00110212
4808.51678101,0.00103548
4810.44558838,0.00099277
4812.37439575,0.00111835
4814.30320312,0.00109235
4816.23201050,0.00106642
4818.16081787,0.00114048
4820.08962524,0.00110645
4822.01843262,0.00107584
4823.94723999,0.00113379
4825.87604736,0.00107152
4827.80485474,0.00104718
4829.73366211,0.00107840
4831.66246948,0.00099291
4833.59127686,0.00097654
4835.52008423,0.00103272
4837.44889160,0.00103443
4839.37769897,0.00100912
4841.30650635,0.00101647
4843.23531372,0.00096299
4845.16412109,0.00098220
4847.09292847,0.00104786
4849.02173584,0.00098309
4850.95054321,0.00105509
4852.87935059,0.00108013
4854.80815796,0.00095553
4856.73696533,0.00099577
4858.66577270,0.00106017
4860.59458008,0.00097330
4862.52338745,0.00096920
4864.45219482,0.00102489
4866.38100220,0.00092218
4868.30980957,0.00094957
4870.23861694,0.00101279
4872.16742432,0.00095226
4874.09623169,0.00099260
4876.02503906,0.00102617
4877.95384644,0.00104077
4879.88265381,0.00102518
4881.81146118,0.00096271
4883.74026855,0.00093501
4885.66907593,0.00098029
4887.59788330,0.00101614
4889.52669067,0.00089838
4891.45549805,0.00090072
4893.38430542,0.00100264
4895.31311279,0.00094332
4897.24192017,0.00090376
4899.17072754,0.00095336
4901.09953491,0.00096724
4903.02834228,0.00089382
4904.95714966,0.00088257
4906.88595703,0.00092058
4908.81476440,0.00089805
4910.74357178,0.00096519
4912.67237915,0.00098111
4914.60118652,0.00091514
4916.52999390,0.00090683
4918.45880127,0.00091663
4920.38760864,0.00094233
4922.31641602,0.00087827
4924.24522339,0.00088758
4926.17403076,0.00091341
4928.10283813,0.00086911
4930.03164551,0.00094649
4931.96045288,0.00092236
4933.88926025,0.00088954
4935.81806763,0.00091131
4937.74687500,0.00085428
4939.67568237,0.00080981
4941.60448975,0.00081106
4943.53329712,0.00083584
4945.46210449,0.00084529
4947.39091187,0.00094118
4949.31971924,0.00089701
4951.24852661,0.00082844
4953.17733398,0.00087277
4955.10614136,0.00080108
4957.03494873,0.00086024
4958.96375610,0.00084961
4960.89256348,0.00078170
4962.82137085,0.00079870
4964.75017822,0.00074562
4966.67898560,0.00080384
4968.60779297,0.00083486
4970.53660034,0.00080068
4972.46540771,0.00073967
4974.39421509,0.00071587
4976.32302246,0.00080568
4978.25182983,0.00083434
4980.18063721,0.00080427
4982.10944458,0.00078696
4984.03825195,0.00082327
4985.96705933,0.00082212
4987.89586670,0.00079483
4989.82467407,0.00075304
4991.75348145,0.00073952
4993.68228882,0.00081144
4995.61109619,0.00083151
4997.53990356,0.00082013
4999.46871094,0.00075817
5001.39751831,0.00077745
5003.32632568,0.00079680
5005.25513306,0.00070423
5007.18394043,0.00071240
5009.11274780,0.00071562
5011.04155518,0.00074928
5012.97036255,0.00075474
5014.89916992,0.00070123
5016.82797729,0.00074211
5018.75678467,0.00076156
5020.68559204,0.00075805
5022.61439941,0.00072149
5024.54320679,0.00073784
5026.47201416,0.00074778
5028.40082153,0.00065369
5030.32962891,0.00068720
5032.25843628,0.00075372
5034.18724365,0.00073428
5036.11605103,0.00072641
5038.04485840,0.00077862
5039.97366577,0.00076918
5041.90247314,0.00065848
5043.83128052,0.00068520
5045.76008789,0.00073911
5047.68889526,0.00074831
5049.61770264,0.00076726
5051.54651001,0.00070444
5053.47531738,0.00071007
5055.40412476,0.00074226
5057.33293213,0.00068100
5059.26173950,0.00065326
5061.19054687,0.00074654
5063.11935425,0.00075149
5065.04816162,0.00066433
5066.97696899,0.00071734
5068.90577637,0.00066130
5070.83458374,0.00065932
5072.76339111,0.00075323
5074.69219849,0.00066161
5076.62100586,0.00067962
5078.54981323,0.00067922
5080.47862061,0.00066133
5082.40742798,0.00071567
5084.33623535,0.00063609
5086.26504272,0.00064434
5088.19385010,0.00070555
5090.12265747,0.00067542
5092.05146484,0.00066078
5093.98027222,0.00064448
5095.90907959,0.00064187
5097.83788696,0.00066861
5099.76669434,0.00062352
5101.69550171,0.00059315
5103.62430908,0.00055520
5105.55311645,0.00056110
5107.48192383,0.00068636
5109.41073120,0.00062512
5111.33953857,0.00060178
5113.26834595,0.00063433
5115.19715332,0.00061420
5117.12596069,0.00062338
5119.05476807,0.00051637
5120.98357544,0.00062820
5122.91238281,0.00065140
5124.84119019,0.00050677
5126.76999756,0.00060156
5128.69880493,0.00067444
5130.62761230,0.00068628
5132.55641968,0.00059758
5134.48522705,0.00056770
5136.41403442,0.00058514
5138.34284180,0.00055094
5140.27164917,0.00057429
5142.20045654,0.00057015
5144.12926392,0.00063070
5146.05807129,0.00060122
5147.98687866,0.00060070
5149.91568603,0.00066525
5151.84449341,0.00060044
5153.77330078,0.00055373
5155.70210815,0.00049165
5157.63091553,0.00052661
5159.55972290,0.00056406
5161.48853027,0.00051184
5163.41733765,0.00053516
5165.34614502,0.00056327
5167.27495239,0.00054486
5169.20375977,0.00050360
5171.13256714,0.00050597
5173.06137451,0.00056124
5174.99018188,0.00061027
5176.91898926,0.00054074
5178.84779663,0.00048118
5180.77660400,0.00049066
5182.70541138,0.00048143
5184.63421875,0.00055985
5186.56302612,0.00054104
5188.49183350,0.00054902
5190.42064087,0.00062962
5192.34944824,0.00052036
5194.27825562,0.00047478
5196.20706299,0.00051386
5198.13587036,0.00056074
5200.06467773,0.00056904
5201.99348511,0.00050745
5203.92229248,0.00052383
5205.85109985,0.00051203
5207.77990723,0.00054423
5209.70871460,0.00056209
5211.63752197,0.00046902
5213.56632935,0.00048256
5215.49513672,0.00053283
5217.42394409,0.00050870
5219.35275146,0.00047740
5221.28155884,0.00057149
5223.21036621,0.00057155
5225.13917358,0.00047190
5227.06798096,0.00051936
5228.99678833,0.00047665
5230.92559570,0.00050261
5232.85440308,0.00054920
5234.78321045,0.00051335
5236.71201782,0.00055689
5238.64082520,0.00048992
5240.56963257,0.00051872
5242.49843994,0.00052648
5244.42724731,0.00047714
5246.35605469,0.00052976
5248.28486206,0.00047501
5250.21366943,0.00045736
5252.14247681,0.00046570
5254.07128418,0.00052002
5256.00009155,0.00052018
5257.92889893,0.00042850
5259.85770630,0.00044224
5261.78651367,0.00043309
5263.71532104,0.00048124
5265.64412842,0.00052579
5267.57293579,0.00050745
5269.50174316,0.00049721
5271.43055054,0.00044618
5273.35935791,0.00045426
5275.28816528,0.00051329
5277.21697266,0.00050216
5279.14578003,0.00042951
5281.07458740,0.00039639
5283.00339478,0.00041227
5284.93220215,0.00046762
5286.86100952,0.00043801
5288.78981689,0.00044877
5290.71862427,0.00053165
5292.64743164,0.00046935
5294.57623901,0.00047562
5296.50504639,0.00045624
5298.43385376,0.00043505
5300.36266113,0.00048735
5302.29146851,0.00046768
5304.22027588,0.00047822
5306.14908325,0.00040254
5308.07789062,0.00042797
5310.00669800,0.00051055
5311.93550537,0.00044814
5313.86431274,0.00048235
5315.79312012,0.00046817
5317.72192749,0.00040045
5319.65073486,0.00045146
5321.57954224,0.00045712
5323.50834961,0.00040059
5325.43715698,0.00040723
5327.36596436,0.00048647
5329.29477173,0.00054486
5331.22357910,0.00046452
5333.15238647,0.00044010
5335.08119385,0.00050167
5337.01000122,0.00041262
5338.93880859,0.00037687
5340.86761597,0.00045792
5342.79642334,0.00042315
5344.72523071,0.00034603
5346.65403809,0.00041866
5348.58284546,0.00046123
5350.51165283,0.00043309
5352.44046020,0.00041893
5354.36926758,0.00038988
5356.29807495,0.00050377
5358.22688232,0.00044972
5360.15568970,0.00036511
5362.08449707,0.00043704
5364.01330444,0.00040485
5365.94211182,0.00045029
5367.87091919,0.00035789
5369.79972656,0.00034790
5371.72853394,0.00041908
5373.65734131,0.00034779
5375.58614868,0.00046059
5377.51495605,0.00043046
5379.44376343,0.00040723
5381.37257080,0.00043811
5383.30137817,0.00037322
5385.23018555,0.00038993
5387.15899292,0.00033284
5389.08780029,0.00038813
5391.01660767,0.00040741
5392.94541504,0.00036899
5394.87422241,0.00042117
5396.80302978,0.00036160
5398.73183716,0.00037701
5400.66064453,0.00037138
5402.58945190,0.00039246
5404.51825928,0.00046843
5406.44706665,0.00038173
5408.37587402,0.00042232
5410.30468140,0.00038078
5412.23348877,0.00031647
5414.16229614,0.00042163
5416.09110352,0.00036614
5418.01991089,0.00041904
5419.94871826,0.00038033
5421.87752563,0.00027178
5423.80633301,0.00038050
5425.73514038,0.00037347
5427.66394775,0.00036201
5429.59275513,0.00034332
5431.52156250,0.00037322
5433.45036987,0.00032332
5435.37917725,0.00026230
5437.30798462,0.00042241
5439.23679199,0.00040452
5441.16559936,0.00038396
5443.09440674,0.00035452
5445.02321411,0.00033583
5446.95202148,0.00039486
5448.88082886,0.00034287
5450.80963623,0.00033951
5452.73844360,0.00036740
5454.66725098,0.00042751
5456.59605835,0.00035675
5458.52486572,0.00036114
5460.45367310,0.00037445
5462.38248047,0.00026570
5464.31128784,0.00033868
5466.24009521,0.00030762
5468.16890259,0.00033092
5470.09770996,0.00038627
5472.02651733,0.00036617
5473.95532471,0.00030881
5475.88413208,0.00026257
5477.81293945,0.00038687
5479.74174683,0.00030773
5481.67055420,0.00031014
5483.59936157,0.00036509
5485.52816895,0.00031606
5487.45697632,0.00038837
5489.38578369,0.00033226
5491.31459106,0.00028164
5493.24339844,0.00032831
5495.17220581,0.00038737
5497.10101318,0.00033987
5499.02982056,0.00029388
5500.95862793,0.00030679
5502.88743530,0.00025016
5504.81624268,0.00029427
5506.74505005,0.00037083
5508.67385742,0.00039612
5510.60266479,0.00037275
5512.53147217,0.00038619
5514.46027954,0.00037729
5516.38908691,0.00029238
5518.31789429,0.00025394
5520.24670166,0.00028318
5522.17550903,0.00032030
5524.10431641,0.00027035
5526.03312378,0.00030891
5527.96193115,0.00030250
5529.89073853,0.00031099
5531.81954590,0.00035383
5533.74835327,0.00028481
5535.67716064,0.00037135
5537.60596802,0.00034783
5539.53477539,0.00029475
5541.46358276,0.00032443
5543.39239014,0.00032168
5545.32119751,0.00034691
5547.25000488,0.00027503
5549.17881226,0.00031646
5551.10761963,0.00037376
5553.03642700,0.00035363
5554.96523437,0.00031647
5556.89404175,0.00027312
5558.82284912,0.00028957
5560.75165649,0.00031524
5562.68046387,0.00037890
5564.60927124,0.00028151
5566.53807861,0.00025692
5568.46688599,0.00036402
5570.39569336,0.00026344
5572.32450073,0.00023434
5574.25330811,0.00027466
5576.18211548,0.00025919
5578.11092285,0.00031337
5580.03973022,0.00031505
5581.96853760,0.00029543
5583.89734497,0.00032563
5585.82615234,0.00029413
5587.75495972,0.00029879
5589.68376709,0.00029997
5591.61257446,0.00025437
5593.54138184,0.00027547
5595.47018921,0.00029544
5597.39899658,0.00026603
5599.32780395,0.00023772
5601.25661133,0.00032694
5603.18541870,0.00032385
5605.11422607,0.00025021
5607.04303345,0.00025910
5608.97184082,0.00022924
5610.90064819,0.00030474
5612.82945557,0.00029794
5614.75826294,0.00023881
5616.68707031,0.00026853
5618.61587769,0.00026782
5620.54468506,0.00029536
5622.47349243,0.00027580
5624.40229980,0.00030776
5626.33110718,0.00033400
5628.25991455,0.00027023
5630.18872192,0.00021481
5632.11752930,0.00023682
5634.04633667,0.00021957
5635.97514404,0.00013745
5637.90395142,0.00023474
5639.83275879,0.00025606
5641.76156616,0.00025980
5643.69037353,0.00028310
5645.61918091,0.00020700
5647.54798828,0.00025960
5649.47679565,0.00026259
5651.40560303,0.00021070
5653.33441040,0.00022259
5655.26321777,0.00029692
5657.19202515,0.00027866
5659.12083252,0.00024321
5661.04963989,0.00029739
5662.97844727,0.00021408
5664.90725464,0.00024278
5666.83606201,0.00031630
5668.76486938,0.00029049
5670.69367676,0.00024760
5672.62248413,0.00020627
5674.55129150,0.00022277
5676.48009888,0.00017562
5678.40890625,0.00026318
5680.33771362,0.00031369
5682.26652100,0.00026693
5684.19532837,0.00031033
5686.12413574,0.00022942
5688.05294311,0.00018317
5689.98175049,0.00017532
5691.91055786,0.00022434
5693.83936523,0.00026506
5695.76817261,0.00019444
5697.69697998,0.00023443
5699.62578735,0.00018709
5701.55459473,0.00019489
5703.48340210,0.00028380
5705.41220947,0.00022539
5707.34101685,0.00023540
5709.26982422,0.00024282
5711.19863159,0.00024273
5713.12743896,0.00021205
5715.05624634,0.00019945
5716.98505371,0.00027930
5718.91386108,0.00026118
5720.84266846,0.00025311
5722.77147583,0.00019857
5724.70028320,0.00022227
5726.62909058,0.00027118
5728.55789795,0.00015515
5730.48670532,0.00018208
5732.41551270,0.00019151
5734.34432007,0.00019387
5736.27312744,0.00020125
5738.20193481,0.00017290
5740.13074219,0.00022904
5742.05954956,0.00021216
5743.98835693,0.00024483
5745.91716431,0.00020699
5747.84597168,0.00020183
5749.77477905,0.00027781
5751.70358643,0.00023284
5753.63239380,0.00019586
5755.56120117,0.00012288
5757.49000854,0.00018915
5759.41881592,0.00019355
5761.34762329,0.00014298
5763.27643066,0.00021777
5765.20523804,0.00016595
5767.13404541,0.00019594
5769.06285278,0.00019184
5770.99166016,0.00014095
5772.92046753,0.00019970
5774.84927490,0.00023785
5776.77808228,0.00025367
5778.70688965,0.00024829
5780.63569702,0.00026722
5782.56450439,0.00019765
5784.49331177,0.00017613
5786.42211914,0.00021147
5788.35092651,0.00013103
5790.27973389,0.00014317
5792.20854126,0.00020578
5794.13734863,0.00020276
5796.06615601,0.00017963
5797.99496338,0.00020140
5799.92377075,0.00024126
5801.85257812,0.00019831
5803.78138550,0.00018682
5805.71019287,0.00020982
5807.63900024,0.00014931
5809.56780762,0.00015021
5811.49661499,0.00017346
5813.42542236,0.00013740
5815.35422974,0.00020800
5817.28303711,0.00022062
5819.21184448,0.00019419
5821.14065186,0.00024952
5823.06945923,0.00020977
5824.99826660,0.00014314
5826.92707397,0.00017511
5828.85588135,0.00024642
5830.78468872,0.00018932
5832.71349609,0.00016690
5834.64230347,0.00023155
5836.57111084,0.00017387
5838.49991821,0.00016370
5840.42872559,0.00019898
5842.35753296,0.00017375
5844.28634033,0.00014009
5846.21514770,0.00014379
5848.14395508,0.00017664
5850.07276245,0.00014989
5852.00156982,0.00014104
5853.93037720,0.00018774
5855.85918457,0.00018893
5857.78799194,0.00015946
5859.71679932,0.00017225
5861.64560669,0.00018492
5863.57441406,0.00018233
5865.50322144,0.00018700
5867.43202881,0.00012991
5869.36083618,0.00010229
5871.28964355,0.00017281
5873.21845093,0.00017613
5875.14725830,0.00016103
5877.07606567,0.00018348
5879.00487305,0.00014309
5880.93368042,0.00016882
5882.86248779,0.00019383
5884.79129517,0.00015968
5886.72010254,0.00018694
5888.64890991,0.00017466
5890.57771728,0.00014328
5892.50652466,0.00015873
5894.43533203,0.00019411
5896.36413940,0.00012846
5898.29294678,0.00012287
5900.22175415,0.00022624
5902.15056152,0.00017157
5904.07936890,0.00019729
5906.00817627,0.00020596
5907.93698364,0.00013746
5909.86579102,0.00016707
5911.79459839,0.00015786
5913.72340576,0.00017713
5915.65221313,0.00013264
5917.58102051,0.00014341
5919.50982788,0.00017802
5921.43863525,0.00011192
5923.36744263,0.00019098
5925.29625000,0.00018751
5927.22505737,0.00011684
5929.15386475,0.00015667
5931.08267212,0.00014281
5933.01147949,0.00014468
5934.94028686,0.00017724
5936.86909424,0.00011822
5938.79790161,0.00008037
5940.72670898,0.00014613
5942.65551636,0.00017085
5944.58432373,0.00011043
5946.51313110,0.00011280
5948.44193848,0.00015149
5950.37074585,0.00007236
5952.29955322,0.00007173
5954.22836060,0.00012135
5956.15716797,0.00009253
5958.08597534,0.00013697
5960.01478271,0.00014411
5961.94359009,0.00019645
5963.87239746,0.00023933
5965.80120483,0.00011472
5967.73001221,0.00005407
5969.65881958,0.00010489
5971.58762695,0.00018671
5973.51643433,0.00017601
5975.44524170,0.00012670
5977.37404907,0.00015133
5979.30285645,0.00014378
5981.23166382,0.00012283
5983.16047119,0.00014109
5985.08927856,0.00015697
5987.01808594,0.00014398
5988.94689331,0.00013471
5990.87570068,0.00015291
5992.80450806,0.00016279
5994.73331543,0.00019464
5996.66212280,0.00021477
5998.59093018,0.00014668
6000.51973755,0.00016779
