399.26312622,0.00085412
401.19193359,0.00039124
403.12074097,0.00086001
405.04954834,0.00075868
406.97835571,0.00088638
408.90716309,0.00144983
410.83597046,0.00088663
412.76477783,0.00109071
414.69358521,0.00118318
416.62239258,0.00127956
418.55119995,0.00102198
420.48000732,0.00117068
422.40881470,0.00132903
424.33762207,0.00101155
426.26642944,0.00197604
428.19523682,0.00148416
430.12404419,0.00135529
432.05285156,0.00172732
433.98165894,0.00109889
435.91046631,0.00125695
437.83927368,0.00108973
439.76808105,0.00125798
441.69688843,0.00101491
443.62569580,0.00087357
445.55450317,0.00146681
447.48331055,0.00118618
449.41211792,0.00090022
451.34092529,0.00091557
453.26973267,0.00119905
455.19854004,0.00100853
457.12734741,0.00076060
459.05615479,0.00068985
460.98496216,0.00055951
462.91376953,0.00090555
464.84257690,0.00058755
466.77138428,0.00050982
468.70019165,0.00089787
470.62899902,0.00060730
472.55780640,0.00050112
474.48661377,0.00048942
476.41542114,0.00011716
478.34422852,0.00008654
480.27303589,0.00011139
482.20184326,-0.00004058
484.13065063,0.00028689
486.05945801,0.00013216
487.98826538,0.00001874
489.91707275,0.00033320
491.84588013,-0.00005194
493.77468750,0.00014798
495.70349487,0.00041595
497.63230225,0.00011952
499.56110962,0.00017767
501.48991699,0.00027238
503.41872437,0.00018686
505.34753174,-0.00010930
507.27633911,-0.00004519
509.20514648,0.00002794
511.13395386,0.00015741
513.06276123,0.00000180
514.99156860,0.00009486
516.92037598,0.00053186
518.84918335,0.00003630
520.77799072,-0.00000559
522.70679810,0.00016358
524.63560547,0.00028276
526.56441284,0.00041437
528.49322021,-0.00006281
530.42202759,0.00020503
532.35083496,0.00027135
534.27964233,0.00029553
536.20844971,0.00046530
538.13725708,0.00026546
540.06606445,0.00063550
541.99487183,0.00028875
543.92367920,0.00003480
545.85248657,0.00015662
547.78129395,-0.00005425
549.71010132,0.00018906
551.63890869,0.00000324
553.56771606,0.00006681
555.49652344,0.00022665
557.42533081,0.00018334
559.35413818,0.00035862
561.28294556,0.00009285
563.21175293,0.00021555
565.14056030,0.00009839
567.06936768,0.00004996
568.99817505,0.00026624
570.92698242,0.00011986
572.85578979,0.00020811
574.78459717,0.00017064
576.71340454,0.00032978
578.64221191,0.00000614
580.57101929,0.00015440
582.49982666,0.00082329
584.42863403,0.00018241
586.35744141,0.00000967
588.28624878,0.00023121
590.21505615,0.00018092
592.14386353,0.00020000
594.07267090,0.00011838
596.00147827,0.00017483
597.93028564,0.00012252
599.85909302,-0.00006813
601.78790039,-0.00003336
603.71670776,0.00045121
605.64551514,0.00027262
607.57432251,0.00026679
609.50312988,0.00039095
611.43193726,-0.00008332
613.36074463,-0.00019728
615.28955200,0.00008717
617.21835938,0.00038329
619.14716675,-0.00001880
621.07597412,0.00013228
623.00478149,0.00035678
624.93358887,0.00001522
626.86239624,0.00035035
628.79120361,0.00006503
630.72001099,0.00000712
632.64881836,0.00037599
634.57762573,0.00062315
636.50643311,0.00099391
638.43524048,0.00096029
640.36404785,0.00096900
642.29285522,0.00094239
644.22166260,0.00135657
646.15046997,0.00157762
648.07927734,0.00151328
650.00808472,0.00157534
651.93689209,0.00127965
653.86569946,0.00155853
655.79450684,0.00192932
657.72331421,0.00178128
659.65212158,0.00180044
661.58092896,0.00212683
663.50973633,0.00205648
665.43854370,0.00184183
667.36735107,0.00198850
669.29615845,0.00207625
671.22496582,0.00232491
673.15377319,0.00251451
675.08258057,0.00255317
677.01138794,0.00276888
678.94019531,0.00281268
680.86900269,0.00234242
682.79781006,0.00229317
684.72661743,0.00266220
686.65542480,0.00253285
688.58423218,0.00254594
690.51303955,0.00270163
692.44184692,0.00290190
694.37065430,0.00295778
696.29946167,0.00326099
698.22826904,0.00391019
700.15707642,0.00389854
702.08588379,0.00395238
704.01469116,0.00378945
705.94349854,0.00318732
707.87230591,0.00287631
709.80111328,0.00248744
711.72992065,0.00167388
713.65872803,0.00095596
715.58753540,0.00061852
717.51634277,0.00039335
719.44515015,0.00058323
721.37395752,0.00055577
723.30276489,0.00021455
725.23157227,0.00010452
727.16037964,0.00041693
729.08918701,0.00044992
731.01799438,0.00029926
732.94680176,0.00065093
734.87560913,0.00019324
736.80441650,0.00038163
738.73322388,0.00065559
740.66203125,0.00025966
742.59083862,0.00053127
744.51964600,0.00019521
746.44845337,0.00026256
748.37726074,0.00041409
750.30606812,0.00037469
752.23487549,0.00055987
754.16368286,0.00040185
756.09249023,0.00064418
758.02129761,0.00040949
759.95010498,0.00035055
761.87891235,0.00050770
763.80771973,0.00049914
765.73652710,0.00035788
767.66533447,-0.00010237
769.59414185,0.00036653
771.52294922,0.00025711
773.45175659,0.00024804
775.38056396,0.00084796
777.30937134,0.00050564
779.23817871,0.00037076
781.16698608,0.00032950
783.09579346,0.00024278
785.02460083,0.00024774
786.95340820,0.00041162
788.88221558,0.00069994
790.81102295,0.00052132
792.73983032,0.00038108
794.66863770,0.00058536
796.59744507,0.00076012
798.52625244,0.00055614
800.45505981,0.00049739
802.38386719,0.00049945
804.31267456,0.00041853
806.24148193,0.00056751
808.17028931,0.00049543
810.09909668,0.00044208
812.02790405,0.00028760
813.95671143,0.00016482
815.88551880,0.00040996
817.81432617,0.00029861
819.74313354,0.00030026
821.67194092,0.00058237
823.60074829,0.00040053
825.52955566,0.00027483
827.45836304,0.00040930
829.38717041,0.00042899
831.31597778,0.00056088
833.24478516,0.00079566
835.17359253,0.00098615
837.10239990,0.00104619
839.03120728,0.00101756
840.96001465,0.00097979
842.88882202,0.00086546
844.81762939,0.00078003
846.74643677,0.00081493
848.67524414,0.00061073
850.60405151,0.00052321
852.53285889,0.00080568
854.46166626,0.00047641
856.39047363,0.00050283
858.31928101,0.00087424
860.24808838,0.00057802
862.17689575,0.00049448
864.10570313,0.00041012
866.03451050,0.00024798
867.96331787,0.00029818
869.89212524,0.00045446
871.82093262,0.00040388
873.74973999,0.00046505
875.67854736,0.00055218
877.60735474,0.00034574
879.53616211,0.00043188
881.46496948,0.00030404
883.39377686,0.00046175
885.32258423,0.00048473
887.25139160,0.00041436
889.18019897,0.00075808
891.10900635,0.00054284
893.03781372,0.00042347
894.96662109,0.00037361
896.89542847,0.00053440
898.82423584,0.00056481
900.75304321,0.00039067
902.68185059,0.00080617
904.61065796,0.00087105
906.53946533,0.00070051
908.46827271,0.00064438
910.39708008,0.00068543
912.32588745,0.00077148
914.25469482,0.00090213
916.18350220,0.00094391
918.11230957,0.00079520
920.04111694,0.00082885
921.96992432,0.00064139
923.89873169,0.00075941
925.82753906,0.00103754
927.75634644,0.00122193
929.68515381,0.00127621
931.61396118,0.00106014
933.54276855,0.00150270
935.47157593,0.00155709
937.40038330,0.00135663
939.32919067,0.00141500
941.25799805,0.00159578
943.18680542,0.00196352
945.11561279,0.00155840
947.04442017,0.00142052
948.97322754,0.00139557
950.90203491,0.00129700
952.83084229,0.00151062
954.75964966,0.00143548
956.68845703,0.00156940
958.61726440,0.00151252
960.54607178,0.00159365
962.47487915,0.00170547
964.40368652,0.00144775
966.33249390,0.00156772
968.26130127,0.00175577
970.19010864,0.00174119
972.11891602,0.00164308
974.04772339,0.00183481
975.97653076,0.00212632
977.90533813,0.00226504
979.83414551,0.00225814
981.76295288,0.00217225
983.69176025,0.00253679
985.62056763,0.00286459
987.54937500,0.00317645
989.47818237,0.00365270
991.40698975,0.00378967
993.33579712,0.00409448
995.26460449,0.00452248
997.19341187,0.00476493
999.12221924,0.00498110
1001.05102661,0.00523720
1002.97983398,0.00584315
1004.90864136,0.00627053
1006.83744873,0.00643750
1008.76625610,0.00688826
1010.69506348,0.00724341
1012.62387085,0.00754406
1014.55267822,0.00794769
1016.48148560,0.00846646
1018.41029297,0.00898060
1020.33910034,0.00942814
1022.26790771,0.00976760
1024.19671509,0.00985688
1026.12552246,0.01036644
1028.05432983,0.01076570
1029.98313721,0.01082901
1031.91194458,0.01115852
1033.84075195,0.01143651
1035.76955933,0.01163571
1037.69836670,0.01173650
1039.62717407,0.01201237
1041.55598145,0.01175130
1043.48478882,0.01139413
1045.41359619,0.01158320
1047.34240356,0.01110852
1049.27121094,0.01106900
1051.20001831,0.01108154
1053.12882568,0.01070735
1055.05763306,0.01081154
1056.98644043,0.01033650
1058.91524780,0.01003268
1060.84405518,0.01006208
1062.77286255,0.00958253
1064.70166992,0.00922448
1066.63047729,0.00905806
1068.55928467,0.00856100
1070.48809204,0.00816591
1072.41689941,0.00808240
1074.34570679,0.00744128
1076.27451416,0.00708815
1078.20332153,0.00697883
1080.13212891,0.00650947
1082.06093628,0.00638449
1083.98974365,0.00591574
1085.91855103,0.00560354
1087.84735840,0.00563098
1089.77616577,0.00519135
1091.70497314,0.00497051
1093.63378052,0.00493267
1095.56258789,0.00473247
1097.49139526,0.00440078
1099.42020264,0.00432592
1101.34901001,0.00450310
1103.27781738,0.00432846
1105.20662476,0.00419532
1107.13543213,0.00430604
1109.06423950,0.00431537
1110.99304687,0.00416603
1112.92185425,0.00411735
1114.85066162,0.00418669
1116.77946899,0.00408765
1118.70827637,0.00405626
1120.63708374,0.00405908
1122.56589111,0.00409950
1124.49469849,0.00422568
1126.42350586,0.00414715
1128.35231323,0.00431474
1130.28112061,0.00442479
1132.20992798,0.00422909
1134.13873535,0.00448997
1136.06754272,0.00475314
1137.99635010,0.00496835
1139.92515747,0.00546803
1141.85396484,0.00565358
1143.78277222,0.00585057
1145.71157959,0.00616744
1147.64038696,0.00636494
1149.56919434,0.00693196
1151.49800171,0.00725265
1153.42680908,0.00733962
1155.35561646,0.00792714
1157.28442383,0.00821172
1159.21323120,0.00822515
1161.14203857,0.00854550
1163.07084595,0.00903855
1164.99965332,0.00941423
1166.92846069,0.00949862
1168.85726807,0.00976857
1170.78607544,0.01022925
1172.71488281,0.01069672
1174.64369019,0.01104164
1176.57249756,0.01125483
1178.50130493,0.01163308
1180.43011230,0.01210297
1182.35891968,0.01274329
1184.28772705,0.01338788
1186.21653442,0.01390992
1188.14534180,0.01432662
1190.07414917,0.01488914
1192.00295654,0.01574672
1193.93176392,0.01633835
1195.86057129,0.01702526
1197.78937866,0.01780518
1199.71818604,0.01845894
1201.64699341,0.01931214
1203.57580078,0.01999094
1205.50460815,0.02077958
1207.43341553,0.02158643
1209.36222290,0.02209734
1211.29103027,0.02283749
1213.21983765,0.02357117
1215.14864502,0.02417948
1217.07745239,0.02453434
1219.00625977,0.02462872
1220.93506714,0.02507629
1222.86387451,0.02543587
1224.79268188,0.02552675
1226.72148926,0.02566631
1228.65029663,0.02584692
1230.57910400,0.02607030
1232.50791138,0.02594746
1234.43671875,0.02594622
1236.36552612,0.02610302
1238.29433350,0.02595136
1240.22314087,0.02588017
1242.15194824,0.02569922
1244.08075562,0.02559202
1246.00956299,0.02554476
1247.93837036,0.02536418
1249.86717773,0.02529661
1251.79598511,0.02509229
1253.72479248,0.02495481
1255.65359985,0.02460329
1257.58240723,0.02406316
1259.51121460,0.02371907
1261.44002197,0.02328769
1263.36882935,0.02310848
1265.29763672,0.02283705
1267.22644409,0.02247473
1269.15525146,0.02233495
1271.08405884,0.02178464
1273.01286621,0.02144174
1274.94167358,0.02134057
1276.87048096,0.02086979
1278.79928833,0.02050066
1280.72809570,0.02008398
1282.65690308,0.01963667
1284.58571045,0.01920912
1286.51451782,0.01888705
1288.44332520,0.01888470
1290.37213257,0.01849923
1292.30093994,0.01817451
1294.22974731,0.01814535
1296.15855469,0.01814809
1298.08736206,0.01827132
1300.01616943,0.01788024
1301.94497681,0.01781145
1303.87378418,0.01829396
1305.80259155,0.01854121
1307.73139893,0.01869477
1309.66020630,0.01885572
1311.58901367,0.01929376
1313.51782104,0.01953955
1315.44662842,0.01977460
1317.37543579,0.02026517
1319.30424316,0.02068254
1321.23305054,0.02141375
1323.16185791,0.02206016
1325.09066528,0.02264104
1327.01947266,0.02330958
1328.94828003,0.02381751
1330.87708740,0.02440885
1332.80589478,0.02489391
1334.73470215,0.02529733
1336.66350952,0.02547103
1338.59231689,0.02505565
1340.52112427,0.02539714
1342.44993164,0.02660604
1344.37873901,0.02680136
1346.30754639,0.02671259
1348.23635376,0.02667470
1350.16516113,0.02639798
1352.09396851,0.02630500
1354.02277588,0.02582046
1355.95158325,0.02573254
1357.88039062,0.02565157
1359.80919800,0.02523259
1361.73800537,0.02403618
1363.66681274,0.02350160
1365.59562012,0.02512092
1367.52442749,0.02441922
1369.45323486,0.02392982
1371.38204224,0.02450819
1373.31084961,0.02300072
1375.23965698,0.02329180
1377.16846436,0.02390679
1379.09727173,0.02381169
1381.02607910,0.02387224
1382.95488647,0.02383638
1384.88369385,0.02391762
1386.81250122,0.02246920
1388.74130859,0.02287094
1390.67011597,0.02520928
1392.59892334,0.02429057
1394.52773071,0.02241527
1396.45653809,0.02376892
1398.38534546,0.02356043
1400.31415283,0.02345583
1402.24296021,0.02550276
1404.17176758,0.02366070
1406.10057495,0.02417072
1408.02938232,0.02523670
1409.95818970,0.02410484
1411.88699707,0.02473629
1413.81580444,0.02376574
1415.74461182,0.02435448
1417.67341919,0.02136862
1419.60222656,0.01887147
1421.53103394,0.02265484
1423.45984131,0.02192738
1425.38864868,0.02119111
1427.31745605,0.02150098
1429.24626343,0.01968764
1431.17507080,0.01924073
1433.10387817,0.01977558
1435.03268555,0.01786741
1436.96149292,0.01503744
1438.89030029,0.01749916
1440.81910767,0.01784076
1442.74791504,0.01649028
1444.67672241,0.01763466
1446.60552979,0.01594885
1448.53433716,0.01593234
1450.46314453,0.01677671
1452.39195190,0.01707584
1454.32075928,0.01742570
1456.24956665,0.01412140
1458.17837402,0.01470028
1460.10718140,0.01993696
1462.03598877,0.02127594
1463.96479614,0.02098273
1465.89360352,0.02164330
1467.82241089,0.02496298
1469.75121826,0.02673749
1471.68002563,0.02292567
1473.60883301,0.02427174
1475.53764038,0.02779322
1477.46644775,0.02987802
1479.39525513,0.03326275
1481.32406250,0.03341389
1483.25286987,0.03545396
1485.18167725,0.03651004
1487.11048462,0.03536989
1489.03929199,0.03473269
1490.96809937,0.03518025
1492.89690674,0.04163275
1494.82571411,0.03990897
1496.75452148,0.03536779
1498.68332886,0.04066788
1500.61213623,0.04199327
1502.54094360,0.04540020
1504.46975098,0.04201029
1506.39855835,0.02867879
1508.32736572,0.03652839
1510.25617310,0.04387012
1512.18498047,0.04224285
1514.11378784,0.04623294
1516.04259521,0.04076622
1517.97140259,0.04268457
1519.90020996,0.04095413
1521.82901733,0.03463062
1523.75782471,0.04397985
1525.68663208,0.04267544
1527.61543945,0.04273708
1529.54424683,0.04849159
1531.47305420,0.04573415
1533.40186157,0.04117576
1535.33066895,0.04446036
1537.25947632,0.04778505
1539.18828369,0.03229244
1541.11709106,0.03422890
1543.04589844,0.04211253
1544.97470581,0.04008090
1546.90351318,0.04879337
1548.83232056,0.04509190
1550.76112793,0.04661590
1552.68993530,0.04618002
1554.61874268,0.04130279
1556.54755005,0.04431921
1558.47635742,0.02918558
1560.40516479,0.03282895
1562.33397217,0.04911624
1564.26277954,0.04575776
1566.19158691,0.04755203
1568.12039429,0.04648890
1570.04920166,0.04041211
1571.97800903,0.04815214
1573.90681641,0.04842979
1575.83562378,0.03702092
1577.76443115,0.04328018
1579.69323853,0.04988283
1581.62204590,0.04715221
1583.55085327,0.04819810
1585.47966064,0.04738618
1587.40846802,0.04786945
1589.33727539,0.04735098
1591.26608276,0.04728774
1593.19489014,0.04742377
1595.12369751,0.04656165
1597.05250488,0.04740213
1598.98131226,0.04720462
1600.91011963,0.04719990
1602.83892700,0.04633725
1604.76773437,0.04736268
1606.69654175,0.04645795
1608.62534912,0.04629658
1610.55415649,0.04637881
1612.48296387,0.04681560
1614.41177124,0.04730447
1616.34057861,0.03758982
1618.26938599,0.04156785
1620.19819336,0.04919454
1622.12700073,0.04268024
1624.05580811,0.04317721
1625.98461548,0.04568570
1627.91342285,0.04527839
1629.84223022,0.04544753
1631.77103760,0.04890950
1633.69984497,0.04415878
1635.62865234,0.03528109
1637.55745972,0.04242117
1639.48626709,0.04752949
1641.41507446,0.04613759
1643.34388184,0.04758587
1645.27268921,0.04176008
1647.20149658,0.03579249
1649.13030396,0.04657157
1651.05911133,0.04343323
1652.98791870,0.02597743
1654.91672607,0.03759607
1656.84553345,0.04828506
1658.77434082,0.04611904
1660.70314819,0.04728152
1662.63195557,0.04224788
1664.56076294,0.04522484
1666.48957031,0.04881558
1668.41837769,0.04133058
1670.34718506,0.04010201
1672.27599243,0.04639320
1674.20479980,0.04194853
1676.13360718,0.04007954
1678.06241455,0.04709732
1679.99122192,0.04515929
1681.92002930,0.04424670
1683.84883667,0.03443567
1685.77764404,0.03477848
1687.70645142,0.04923788
1689.63525879,0.04172560
1691.56406616,0.04717388
1693.49287354,0.04727514
1695.42168091,0.03308842
1697.35048828,0.04221549
1699.27929565,0.03564066
1701.20810303,0.03219059
1703.13691040,0.04582307
1705.06571777,0.04110879
1706.99452515,0.04179544
1708.92333252,0.04600410
1710.85213989,0.04413069
1712.78094727,0.04473228
1714.70975464,0.04069240
1716.63856201,0.03604671
1718.56736938,0.03540661
1720.49617676,0.04325563
1722.42498413,0.04512408
1724.35379150,0.04135989
1726.28259888,0.04591423
1728.21140625,0.04162350
1730.14021362,0.04188492
1732.06902100,0.04075811
1733.99782837,0.02945393
1735.92663574,0.03872230
1737.85544312,0.04300330
1739.78425049,0.03731990
1741.71305786,0.04141315
1743.64186523,0.04158588
1745.57067261,0.04180229
1747.49947998,0.04202219
1749.42828735,0.03955382
1751.35709473,0.03770372
1753.28590210,0.04266648
1755.21470947,0.04466502
1757.14351685,0.03996072
1759.07232422,0.04489621
1761.00113159,0.04145073
1762.92993896,0.03987079
1764.85874634,0.04663420
1766.78755371,0.04107808
1768.71636108,0.04166929
1770.64516846,0.04101849
1772.57397583,0.03638697
1774.50278320,0.04145650
1776.43159058,0.04391605
1778.36039795,0.04330809
1780.28920532,0.04242672
1782.21801270,0.04289075
1784.14682007,0.04291951
1786.07562744,0.04178124
1788.00443481,0.04429616
1789.93324219,0.04272471
1791.86204956,0.03783927
1793.79085693,0.04008751
1795.71966431,0.04346477
1797.64847168,0.04270374
1799.57727905,0.04181416
1801.50608643,0.04073282
1803.43489380,0.04265209
1805.36370117,0.04370495
1807.29250854,0.04283602
1809.22131592,0.04288187
1811.15012329,0.04133443
1813.07893066,0.04312945
1815.00773804,0.04328185
1816.93654541,0.04265476
1818.86535278,0.04306450
1820.79416016,0.04275896
1822.72296753,0.04349770
1824.65177490,0.04007391
1826.58058228,0.04185215
1828.50938965,0.04171518
1830.43819702,0.03873540
1832.36700439,0.04300150
1834.29581177,0.04250973
1836.22461914,0.04231572
1838.15342651,0.04213053
1840.08223389,0.04251506
1842.01104126,0.04224706
1843.93984863,0.03673046
1845.86865601,0.03970806
1847.79746338,0.04208277
1849.72627075,0.04120632
1851.65507812,0.04249541
1853.58388550,0.04152765
1855.51269287,0.04205521
1857.44150024,0.04168643
1859.37030762,0.04141590
1861.29911499,0.04159601
1863.22792236,0.04112695
1865.15672974,0.04147528
1867.08553711,0.03963113
1869.01434448,0.03777787
1870.94315186,0.03965930
1872.87195923,0.04145874
1874.80076660,0.04065543
1876.72957397,0.04088199
1878.65838135,0.04050397
1880.58718872,0.04037819
1882.51599609,0.04083261
1884.44480347,0.03981493
1886.37361084,0.04060741
1888.30241821,0.03949030
1890.23122559,0.03854930
1892.16003296,0.04029236
1894.08884033,0.03961096
1896.01764771,0.03935142
1897.94645508,0.03969883
1899.87526245,0.03950893
1901.80406982,0.03957836
1903.73287720,0.03919492
1905.66168457,0.03940129
1907.59049194,0.03894988
1909.51929932,0.03868539
1911.44810669,0.03889260
1913.37691406,0.03893761
1915.30572144,0.03922488
1917.23452881,0.03707012
1919.16333618,0.03723829
1921.09214355,0.03887657
1923.02095093,0.03734336
1924.94975830,0.03833738
1926.87856567,0.03867704
1928.80737305,0.03809372
1930.73618042,0.03875322
1932.66498779,0.03799438
1934.59379517,0.03840388
1936.52260254,0.03801709
1938.45140991,0.03811663
1940.38021729,0.03812055
1942.30902466,0.03650936
1944.23783203,0.03727127
1946.16663940,0.03773272
1948.09544678,0.03777485
1950.02425415,0.03789290
1951.95306152,0.03752669
1953.88186890,0.03766598
1955.81067627,0.03745492
1957.73948364,0.03749193
1959.66829102,0.03741971
1961.59709839,0.03735460
1963.52590576,0.03753912
1965.45471313,0.03711027
1967.38352051,0.03651948
1969.31232788,0.03698800
1971.24113525,0.03733361
1973.16994263,0.03703075
1975.09875000,0.03710141
1977.02755737,0.03668902
1978.95636475,0.03674233
1980.88517212,0.03671228
1982.81397949,0.03649836
1984.74278687,0.03676146
1986.67159424,0.03634966
1988.60040161,0.03628288
1990.52920898,0.03586023
1992.45801636,0.03547849
1994.38682373,0.03600109
1996.31563110,0.03606360
1998.24443848,0.03596398
2000.17324585,0.03583194
2002.10205322,0.03559159
2004.03086060,0.03554462
2005.95966797,0.03548781
2007.88847534,0.03535384
2009.81728271,0.03535415
2011.74609009,0.03516223
2013.67489746,0.03512499
2015.60370483,0.03490820
2017.53251221,0.03440775
2019.46131958,0.03473007
2021.39012695,0.03478237
2023.31893433,0.03455625
2025.24774170,0.03449134
2027.17654907,0.03433195
2029.10535645,0.03428751
2031.03416382,0.03414657
2032.96297119,0.03413369
2034.89177856,0.03402768
2036.82058594,0.03399985
2038.74939331,0.03386565
2040.67820068,0.03358201
2042.60700806,0.03345718
2044.53581543,0.03335305
2046.46462280,0.03339611
2048.39343018,0.03326911
2050.32223755,0.03319886
2052.25104492,0.03305946
2054.17985229,0.03303795
2056.10865967,0.03306012
2058.03746704,0.03270585
2059.96627441,0.03265931
2061.89508179,0.03252516
2063.82388916,0.03228418
2065.75269653,0.03228493
2067.68150391,0.03230133
2069.61031128,0.03232074
2071.53911865,0.03225104
2073.46792603,0.03210510
2075.39673340,0.03205904
2077.32554077,0.03202134
2079.25434814,0.03184861
2081.18315552,0.03175405
2083.11196289,0.03155796
2085.04077026,0.03147538
2086.96957764,0.03148816
2088.89838501,0.03143468
2090.82719238,0.03140850
2092.75599976,0.03125742
2094.68480713,0.03134865
2096.61361450,0.03131209
2098.54242187,0.03108134
2100.47122925,0.03091988
2102.40003662,0.03087640
2104.32884399,0.03087740
2106.25765137,0.03068228
2108.18645874,0.03066806
2110.11526611,0.03050942
2112.04407349,0.03040940
2113.97288086,0.03048139
2115.90168823,0.03035310
2117.83049561,0.03024436
2119.75930298,0.03016743
2121.68811035,0.03016912
2123.61691772,0.03002805
2125.54572510,0.02996370
2127.47453247,0.02993025
2129.40333984,0.02980851
2131.33214722,0.02978836
2133.26095459,0.02972853
2135.18976196,0.02966060
2137.11856934,0.02951082
2139.04737671,0.02946644
2140.97618408,0.02939174
2142.90499146,0.02939347
2144.83379883,0.02942878
2146.76260620,0.02925738
2148.69141357,0.02927225
2150.62022095,0.02919274
2152.54902832,0.02910171
2154.47783569,0.02907701
2156.40664307,0.02889839
2158.33545044,0.02887277
2160.26425781,0.02895902
2162.19306519,0.02883521
2164.12187256,0.02865944
2166.05067993,0.02872625
2167.97948730,0.02870460
2169.90829468,0.02855910
2171.83710205,0.02857484
2173.76590942,0.02848932
2175.69471680,0.02828788
2177.62352417,0.02834342
2179.55233154,0.02830572
2181.48113892,0.02819336
2183.40994629,0.02815292
2185.33875366,0.02802606
2187.26756104,0.02814448
2189.19636841,0.02801150
2191.12517578,0.02787584
2193.05398315,0.02789955
2194.98279053,0.02769851
2196.91159790,0.02772946
2198.84040527,0.02774112
2200.76921265,0.02775068
2202.69802002,0.02760843
2204.62682739,0.02745581
2206.55563477,0.02752455
2208.48444214,0.02733134
2210.41324951,0.02721734
2212.34205688,0.02737156
2214.27086426,0.02725473
2216.19967163,0.02688725
2218.12847900,0.02704136
2220.05728638,0.02711166
2221.98609375,0.02693613
2223.91490112,0.02696269
2225.84370850,0.02690507
2227.77251587,0.02687376
2229.70132324,0.02663046
2231.63013062,0.02661958
2233.55893799,0.02655472
2235.48774536,0.02645975
2237.41655273,0.02660204
2239.34536011,0.02637239
2241.27416748,0.02635593
2243.20297485,0.02629165
2245.13178223,0.02613576
2247.06058960,0.02613605
2248.98939697,0.02622840
2250.91820435,0.02608116
2252.84701172,0.02579362
2254.77581909,0.02588004
2256.70462646,0.02571216
2258.63343384,0.02577520
2260.56224121,0.02573372
2262.49104858,0.02571752
2264.41985596,0.02581897
2266.34866333,0.02540204
2268.27747070,0.02552946
2270.20627808,0.02552287
2272.13508545,0.02536154
2274.06389282,0.02530940
2275.99270020,0.02513747
2277.92150757,0.02518614
2279.85031494,0.02510331
2281.77912231,0.02508188
2283.70792969,0.02500459
2285.63673706,0.02498928
2287.56554443,0.02491071
2289.49435181,0.02482660
2291.42315918,0.02469515
2293.35196655,0.02444456
2295.28077393,0.02459981
2297.20958130,0.02452306
2299.13838867,0.02431460
2301.06719604,0.02421367
2302.99600342,0.02416802
2304.92481079,0.02405093
2306.85361816,0.02387599
2308.78242554,0.02376730
2310.71123291,0.02346729
2312.64004028,0.02330517
2314.56884766,0.02300469
2316.49765503,0.02274526
2318.42646240,0.02245782
2320.35526978,0.02213657
2322.28407715,0.02198876
2324.21288452,0.02161646
2326.14169189,0.02136256
2328.07049927,0.02103014
2329.99930664,0.02084371
2331.92811401,0.02070227
2333.85692139,0.02058865
2335.78572876,0.02063192
2337.71453613,0.02046728
2339.64334351,0.02049302
2341.57215088,0.02061346
2343.50095825,0.02086884
2345.42976562,0.02105687
2347.35857300,0.02178350
2349.28738037,0.02237490
2351.21618774,0.02159349
2353.14499512,0.02074905
2355.07380249,0.01993716
2357.00260986,0.01941112
2358.93141724,0.01910430
2360.86022461,0.01876883
2362.78903198,0.01878051
2364.71783936,0.01880737
2366.64664673,0.01906129
2368.57545410,0.01935324
2370.50426147,0.01980335
2372.43306885,0.02027839
2374.36187622,0.02078252
2376.29068359,0.02131869
2378.21949097,0.02151949
2380.14829834,0.02184774
2382.07710571,0.02214681
2384.00591309,0.02227923
2385.93472046,0.02216715
2387.86352783,0.02205671
2389.79233521,0.02210839
2391.72114258,0.02217363
2393.64994995,0.02212606
2395.57875732,0.02192480
2397.50756470,0.02198702
2399.43637207,0.02183286
2401.36517944,0.02180951
2403.29398682,0.02195614
2405.22279419,0.02179947
2407.15160156,0.02171716
2409.08040894,0.02158665
2411.00921631,0.02153603
2412.93802368,0.02147126
2414.86683105,0.02161052
2416.79563843,0.02156279
2418.72444580,0.02121384
2420.65325317,0.02135388
2422.58206055,0.02133676
2424.51086792,0.02122113
2426.43967529,0.02125099
2428.36848267,0.02117914
2430.29729004,0.02109702
2432.22609741,0.02102518
2434.15490479,0.02097802
2436.08371216,0.02086690
2438.01251953,0.02093742
2439.94132690,0.02099816
2441.87013428,0.02087726
2443.79894165,0.02082054
2445.72774902,0.02075281
2447.65655640,0.02069234
2449.58536377,0.02070420
2451.51417114,0.02069631
2453.44297852,0.02058937
2455.37178589,0.02052573
2457.30059326,0.02054268
2459.22940063,0.02041100
2461.15820801,0.02031211
2463.08701538,0.02037504
2465.01582275,0.02029738
2466.94463013,0.02021461
2468.87343750,0.02015673
2470.80224487,0.02013098
2472.73105225,0.02013035
2474.65985962,0.02001051
2476.58866699,0.02005334
2478.51747437,0.02000711
2480.44628174,0.01990786
2482.37508911,0.01984060
2484.30389648,0.01970991
2486.23270386,0.01974724
2488.16151123,0.01965597
2490.09031860,0.01961971
2492.01912598,0.01968806
2493.94793335,0.01959934
2495.87674072,0.01953483
2497.80554810,0.01955878
2499.73435547,0.01940958
2501.66316284,0.01931968
2503.59197021,0.01953648
2505.52077759,0.01937464
2507.44958496,0.01925332
2509.37839233,0.01932285
2511.30719971,0.01913356
2513.23600708,0.01907822
2515.16481445,0.01912392
2517.09362183,0.01914612
2519.02242920,0.01902870
2520.95123657,0.01898829
2522.88004395,0.01896579
2524.80885132,0.01889383
2526.73765869,0.01896720
2528.66646606,0.01887841
2530.59527344,0.01876026
2532.52408081,0.01873074
2534.45288818,0.01873743
2536.38169556,0.01865925
2538.31050293,0.01856807
2540.23931030,0.01856015
2542.16811768,0.01852487
2544.09692505,0.01846501
2546.02573242,0.01843538
2547.95453979,0.01842858
2549.88334717,0.01829257
2551.81215454,0.01835957
2553.74096191,0.01829963
2555.66976929,0.01821226
2557.59857666,0.01828523
2559.52738403,0.01811008
2561.45619141,0.01817740
2563.38499878,0.01805349
2565.31380615,0.01800828
2567.24261353,0.01813902
2569.17142090,0.01790790
2571.10022827,0.01790311
2573.02903564,0.01787600
2574.95784302,0.01782564
2576.88665039,0.01784207
2578.81545776,0.01777716
2580.74426514,0.01765477
2582.67307251,0.01762083
2584.60187988,0.01767208
2586.53068726,0.01755426
2588.45949463,0.01747691
2590.38830200,0.01746863
2592.31710937,0.01759504
2594.24591675,0.01741856
2596.17472412,0.01732383
2598.10353149,0.01747490
2600.03233887,0.01727895
2601.96114624,0.01733968
2603.88995361,0.01720205
2605.81876099,0.01700969
2607.74756836,0.01714570
2609.67637573,0.01714361
2611.60518311,0.01710159
2613.53399048,0.01698540
2615.46279785,0.01696057
2617.39160522,0.01686783
2619.32041260,0.01687049
2621.24921997,0.01688441
2623.17802734,0.01677206
2625.10683472,0.01686347
2627.03564209,0.01674854
2628.96444946,0.01660687
2630.89325684,0.01663002
2632.82206421,0.01651824
2634.75087158,0.01645720
2636.67967895,0.01654712
2638.60848633,0.01643279
2640.53729370,0.01640014
2642.46610107,0.01658704
2644.39490845,0.01641126
2646.32371582,0.01620733
2648.25252319,0.01626474
2650.18133057,0.01628769
2652.11013794,0.01615849
2654.03894531,0.01615857
2655.96775269,0.01615252
2657.89656006,0.01599219
2659.82536743,0.01607104
2661.75417480,0.01607473
2663.68298218,0.01602636
2665.61178955,0.01597172
2667.54059692,0.01585394
2669.46940430,0.01592949
2671.39821167,0.01586091
2673.32701904,0.01567995
2675.25582642,0.01570133
2677.18463379,0.01577374
2679.11344116,0.01574222
2681.04224854,0.01569837
2682.97105591,0.01558274
2684.89986328,0.01556398
2686.82867065,0.01558831
2688.75747803,0.01543679
2690.68628540,0.01537084
2692.61509277,0.01535946
2694.54390015,0.01537127
2696.47270752,0.01525926
2698.40151489,0.01525068
2700.33032227,0.01534029
2702.25912964,0.01521737
2704.18793701,0.01518135
2706.11674438,0.01508021
2708.04555176,0.01504854
2709.97435913,0.01507931
2711.90316650,0.01497048
2713.83197388,0.01490517
2715.76078125,0.01497789
2717.68958862,0.01500304
2719.61839600,0.01482271
2721.54720337,0.01483338
2723.47601074,0.01483890
2725.40481812,0.01483097
2727.33362549,0.01476112
2729.26243286,0.01457996
2731.19124023,0.01461119
2733.12004761,0.01454293
2735.04885498,0.01453834
2736.97766235,0.01458191
2738.90646973,0.01456360
2740.83527710,0.01445309
2742.76408447,0.01441607
2744.69289185,0.01447818
2746.62169922,0.01433466
2748.55050659,0.01437564
2750.47931396,0.01426431
2752.40812134,0.01418890
2754.33692871,0.01423971
2756.26573608,0.01412431
2758.19454346,0.01414266
2760.12335083,0.01399535
2762.05215820,0.01399872
2763.98096558,0.01404948
2765.90977295,0.01406799
2767.83858032,0.01405283
2769.76738770,0.01383536
2771.69619507,0.01388131
2773.62500244,0.01384714
2775.55380981,0.01385174
2777.48261719,0.01379945
2779.41142456,0.01359765
2781.34023193,0.01361797
2783.26903931,0.01351793
2785.19784668,0.01359039
2787.12665405,0.01362145
2789.05546143,0.01342209
2790.98426880,0.01345742
2792.91307617,0.01337666
2794.84188354,0.01330809
2796.77069092,0.01340769
2798.69949829,0.01331780
2800.62830566,0.01327174
2802.55711304,0.01325969
2804.48592041,0.01324256
2806.41472778,0.01326839
2808.34353516,0.01311669
2810.27234253,0.01304242
2812.20114990,0.01303620
2814.12995728,0.01302722
2816.05876465,0.01297934
2817.98757202,0.01291429
2819.91637939,0.01297117
2821.84518677,0.01278962
2823.77399414,0.01273605
2825.70280151,0.01282024
2827.63160889,0.01268764
2829.56041626,0.01272975
2831.48922363,0.01270044
2833.41803101,0.01253834
2835.34683838,0.01256278
2837.27564575,0.01254482
2839.20445312,0.01244777
2841.13326050,0.01251077
2843.06206787,0.01246227
2844.99087524,0.01224969
2846.91968262,0.01226537
2848.84848999,0.01225281
2850.77729736,0.01215175
2852.70610474,0.01224000
2854.63491211,0.01217929
2856.56371948,0.01205504
2858.49252686,0.01218642
2860.42133423,0.01215326
2862.35014160,0.01206340
2864.27894897,0.01208838
2866.20775635,0.01200044
2868.13656372,0.01194616
2870.06537109,0.01195380
2871.99417847,0.01197503
2873.92298584,0.01189672
2875.85179321,0.01190170
2877.78060059,0.01184677
2879.70940796,0.01169450
2881.63821533,0.01176818
2883.56702270,0.01165794
2885.49583008,0.01165929
2887.42463745,0.01171506
2889.35344482,0.01159131
2891.28225220,0.01163007
2893.21105957,0.01156153
2895.13986694,0.01142599
2897.06867432,0.01137941
2898.99748169,0.01146523
2900.92628906,0.01140182
2902.85509644,0.01131062
2904.78390381,0.01133184
2906.71271118,0.01117852
2908.64151855,0.01127953
2910.57032593,0.01137804
2912.49913330,0.01112604
2914.42794067,0.01098720
2916.35674805,0.01119728
2918.28555542,0.01119872
2920.21436279,0.01098856
2922.14317017,0.01109920
2924.07197754,0.01115332
2926.00078491,0.01118578
2927.92959229,0.01112169
2929.85839966,0.01099583
2931.78720703,0.01103512
2933.71601440,0.01103961
2935.64482178,0.01106638
2937.57362915,0.01096854
2939.50243652,0.01099922
2941.43124390,0.01103430
2943.36005127,0.01092167
2945.28885864,0.01094683
2947.21766602,0.01088612
2949.14647339,0.01080298
2951.07528076,0.01075721
2953.00408813,0.01064311
2954.93289551,0.01065431
2956.86170288,0.01076281
2958.79051025,0.01055901
2960.71931763,0.01051367
2962.64812500,0.01063873
2964.57693237,0.01047117
2966.50573975,0.01053402
2968.43454712,0.01048460
2970.36335449,0.01033294
2972.29216187,0.01046644
2974.22096924,0.01050913
2976.14977661,0.01037561
2978.07858398,0.01030793
2980.00739136,0.01040354
2981.93619873,0.01031211
2983.86500610,0.01024755
2985.79381348,0.01032355
2987.72262085,0.01031301
2989.65142822,0.01022532
2991.58023560,0.01022715
2993.50904297,0.01026417
2995.43785034,0.01010989
2997.36665771,0.01013864
2999.29546509,0.01011063
3001.22427246,0.01009533
3003.15307983,0.01010987
3005.08188721,0.00994698
3007.01069458,0.01005065
3008.93950195,0.01001901
3010.86830933,0.00992463
3012.79711670,0.00985835
3014.72592407,0.00977558
3016.65473145,0.00982159
3018.58353882,0.00979181
3020.51234619,0.00981821
3022.44115356,0.00978831
3024.36996094,0.00975540
3026.29876831,0.00968369
3028.22757568,0.00967410
3030.15638306,0.00966609
3032.08519043,0.00952769
3034.01399780,0.00954452
3035.94280518,0.00956038
3037.87161255,0.00958787
3039.80041992,0.00944847
3041.72922729,0.00942441
3043.65803467,0.00951552
3045.58684204,0.00946692
3047.51564941,0.00950536
3049.44445679,0.00934610
3051.37326416,0.00935410
3053.30207153,0.00931789
3055.23087891,0.00918256
3057.15968628,0.00927478
3059.08849365,0.00925998
3061.01730103,0.00923933
3062.94610840,0.00911905
3064.87491577,0.00917022
3066.80372314,0.00924237
3068.73253052,0.00919000
3070.66133789,0.00914878
3072.59014526,0.00905921
3074.51895264,0.00918926
3076.44776001,0.00911157
3078.37656738,0.00900855
3080.30537476,0.00891672
3082.23418213,0.00889042
3084.16298950,0.00907816
3086.09179687,0.00888393
3088.02060425,0.00891225
3089.94941162,0.00898171
3091.87821899,0.00887406
3093.80702637,0.00894660
3095.73583374,0.00877736
3097.66464111,0.00877957
3099.59344849,0.00886057
3101.52225586,0.00875711
3103.45106323,0.00881944
3105.37987061,0.00886439
3107.30867798,0.00878158
3109.23748535,0.00869914
3111.16629272,0.00866742
3113.09510010,0.00864559
3115.02390747,0.00861920
3116.95271484,0.00860431
3118.88152222,0.00861737
3120.81032959,0.00853533
3122.73913696,0.00848516
3124.66794434,0.00852827
3126.59675171,0.00844717
3128.52555908,0.00848342
3130.45436645,0.00844562
3132.38317383,0.00834022
3134.31198120,0.00846506
3136.24078857,0.00844262
3138.16959595,0.00835742
3140.09840332,0.00841020
3142.02721069,0.00846617
3143.95601807,0.00836498
3145.88482544,0.00828434
3147.81363281,0.00838703
3149.74244019,0.00839714
3151.67124756,0.00833517
3153.60005493,0.00823862
3155.52886230,0.00825661
3157.45766968,0.00825330
3159.38647705,0.00813825
3161.31528442,0.00817464
3163.24409180,0.00817257
3165.17289917,0.00818915
3167.10170654,0.00809080
3169.03051392,0.00804557
3170.95932129,0.00814550
3172.88812866,0.00806040
3174.81693604,0.00811049
3176.74574341,0.00807656
3178.67455078,0.00801182
3180.60335815,0.00801864
3182.53216553,0.00795472
3184.46097290,0.00800693
3186.38978027,0.00794099
3188.31858765,0.00796582
3190.24739502,0.00805971
3192.17620239,0.00801988
3194.10500977,0.00791181
3196.03381714,0.00785618
3197.96262451,0.00794922
3199.89143188,0.00793356
3201.82023926,0.00799563
3203.74904663,0.00795588
3205.67785400,0.00783288
3207.60666138,0.00790658
3209.53546875,0.00786743
3211.46427612,0.00779250
3213.39308350,0.00775202
3215.32189087,0.00784844
3217.25069824,0.00788531
3219.17950562,0.00778591
3221.10831299,0.00780506
3223.03712036,0.00776685
3224.96592773,0.00782221
3226.89473511,0.00784356
3228.82354248,0.00773934
3230.75234985,0.00783222
3232.68115723,0.00789899
3234.60996460,0.00778736
3236.53877197,0.00774762
3238.46757935,0.00783481
3240.39638672,0.00784122
3242.32519409,0.00779261
3244.25400146,0.00785555
3246.18280884,0.00786869
3248.11161621,0.00777795
3250.04042358,0.00779994
3251.96923096,0.00775052
3253.89803833,0.00768922
3255.82684570,0.00778325
3257.75565308,0.00777274
3259.68446045,0.00781256
3261.61326782,0.00779656
3263.54207520,0.00772937
3265.47088257,0.00779054
3267.39968994,0.00768530
3269.32849731,0.00766641
3271.25730469,0.00779463
3273.18611206,0.00777501
3275.11491943,0.00774116
3277.04372681,0.00781577
3278.97253418,0.00780413
3280.90134155,0.00772446
3282.83014893,0.00776065
3284.75895630,0.00771867
3286.68776367,0.00773390
3288.61657104,0.00781085
3290.54537842,0.00772554
3292.47418579,0.00766744
3294.40299316,0.00767732
3296.33180054,0.00770569
3298.26060791,0.00768337
3300.18941528,0.00766066
3302.11822266,0.00768242
3304.04703003,0.00766091
3305.97583740,0.00764498
3307.90464478,0.00763784
3309.83345215,0.00768062
3311.76225952,0.00772100
3313.69106689,0.00764718
3315.61987427,0.00762100
3317.54868164,0.00771208
3319.47748901,0.00773123
3321.40629639,0.00766706
3323.33510376,0.00762109
3325.26391113,0.00760531
3327.19271851,0.00761914
3329.12152588,0.00760494
3331.05033325,0.00759185
3332.97914062,0.00767268
3334.90794800,0.00767272
3336.83675537,0.00754438
3338.76556274,0.00763100
3340.69437012,0.00770207
3342.62317749,0.00758537
3344.55198486,0.00756481
3346.48079224,0.00751418
3348.40959961,0.00757879
3350.33840698,0.00764317
3352.26721436,0.00752706
3354.19602173,0.00756961
3356.12482910,0.00764564
3358.05363647,0.00760423
3359.98244385,0.00757013
3361.91125122,0.00762296
3363.84005859,0.00759206
3365.76886597,0.00755381
3367.69767334,0.00760996
3369.62648071,0.00753626
3371.55528809,0.00746643
3373.48409546,0.00752341
3375.41290283,0.00765868
3377.34171020,0.00761382
3379.27051758,0.00753483
3381.19932495,0.00760312
3383.12813232,0.00758583
3385.05693970,0.00759161
3386.98574707,0.00753132
3388.91455444,0.00754179
3390.84336182,0.00754970
3392.77216919,0.00742779
3394.70097656,0.00746385
3396.62978394,0.00748044
3398.55859131,0.00745896
3400.48739868,0.00745708
3402.41620605,0.00754945
3404.34501343,0.00759263
3406.27382080,0.00751110
3408.20262817,0.00745480
3410.13143555,0.00743043
3412.06024292,0.00755344
3413.98905029,0.00749796
3415.91785767,0.00745152
3417.84666504,0.00752695
3419.77547241,0.00744414
3421.70427979,0.00740496
3423.63308716,0.00742634
3425.56189453,0.00750244
3427.49070190,0.00742023
3429.41950928,0.00736775
3431.34831665,0.00743829
3433.27712402,0.00738934
3435.20593140,0.00734133
3437.13473877,0.00731610
3439.06354614,0.00735418
3440.99235352,0.00721234
3442.92116089,0.00721121
3444.84996826,0.00731369
3446.77877563,0.00712332
3448.70758301,0.00719823
3450.63639038,0.00728717
3452.56519775,0.00724045
3454.49400513,0.00730693
3456.42281250,0.00727098
3458.35161987,0.00730400
3460.28042725,0.00734600
3462.20923462,0.00715818
3464.13804199,0.00712742
3466.06684937,0.00723063
3467.99565674,0.00712795
3469.92446411,0.00721339
3471.85327148,0.00722634
3473.78207886,0.00700140
3475.71088623,0.00707135
3477.63969360,0.00714657
3479.56850098,0.00707237
3481.49730835,0.00698253
3483.42611572,0.00694557
3485.35492310,0.00699564
3487.28373047,0.00698107
3489.21253784,0.00697384
3491.14134521,0.00696121
3493.07015259,0.00696272
3494.99895996,0.00702660
3496.92776733,0.00694059
3498.85657471,0.00693781
3500.78538208,0.00696957
3502.71418945,0.00668218
3504.64299683,0.00676553
3506.57180420,0.00699661
3508.50061157,0.00678620
3510.42941895,0.00673571
3512.35822632,0.00679815
3514.28703369,0.00684687
3516.21584106,0.00687740
3518.14464844,0.00682633
3520.07345581,0.00682793
3522.00226318,0.00674285
3523.93107056,0.00662197
3525.85987793,0.00663569
3527.78868530,0.00665366
3529.71749268,0.00652260
3531.64630005,0.00667848
3533.57510742,0.00686722
3535.50391479,0.00665949
3537.43272217,0.00661266
3539.36152954,0.00669296
3541.29033691,0.00670654
3543.21914429,0.00664320
3545.14795166,0.00635767
3547.07675903,0.00623988
3549.00556641,0.00655144
3550.93437378,0.00658874
3552.86318115,0.00642053
3554.79198853,0.00646550
3556.72079590,0.00646874
3558.64960327,0.00657282
3560.57841064,0.00636505
3562.50721802,0.00633937
3564.43602539,0.00641699
3566.36483276,0.00578953
3568.29364014,0.00575278
3570.22244751,0.00617372
3572.15125488,0.00632920
3574.08006226,0.00635599
3576.00886963,0.00625425
3577.93767700,0.00622044
3579.86648437,0.00627158
3581.79529175,0.00631289
3583.72409912,0.00619751
3585.65290649,0.00599822
3587.58171387,0.00543226
3589.51052124,0.00557920
3591.43932861,0.00631631
3593.36813599,0.00599324
3595.29694336,0.00577909
3597.22575073,0.00597323
3599.15455811,0.00600110
3601.08336548,0.00603542
3603.01217285,0.00604246
3604.94098022,0.00617314
3606.86978760,0.00593292
3608.79859497,0.00540623
3610.72740234,0.00557680
3612.65620972,0.00564215
3614.58501709,0.00546090
3616.51382446,0.00597748
3618.44263184,0.00536570
3620.37143921,0.00520767
3622.30024658,0.00603412
3624.22905395,0.00581122
3626.15786133,0.00608672
3628.08666870,0.00496595
3630.01547607,0.00449899
3631.94428345,0.00592426
3633.87309082,0.00568919
3635.80189819,0.00586454
3637.73070557,0.00599575
3639.65951294,0.00574004
3641.58832031,0.00578430
3643.51712769,0.00579476
3645.44593506,0.00589325
3647.37474243,0.00514434
3649.30354980,0.00464274
3651.23235718,0.00471691
3653.16116455,0.00570905
3655.08997192,0.00561756
3657.01877930,0.00497809
3658.94758667,0.00583090
3660.87639404,0.00568348
3662.80520142,0.00583891
3664.73400879,0.00575819
3666.66281616,0.00573323
3668.59162354,0.00548472
3670.52043091,0.00418058
3672.44923828,0.00537455
3674.37804565,0.00508478
3676.30685303,0.00417144
3678.23566040,0.00544949
3680.16446777,0.00540221
3682.09327515,0.00551395
3684.02208252,0.00576433
3685.95088989,0.00558156
3687.87969727,0.00497588
3689.80850464,0.00446876
3691.73731201,0.00509851
3693.66611938,0.00536209
3695.59492676,0.00558699
3697.52373413,0.00556264
3699.45254150,0.00549568
3701.38134888,0.00533235
3703.31015625,0.00516773
3705.23896362,0.00572502
3707.16777100,0.00543913
3709.09657837,0.00521147
3711.02538574,0.00475024
3712.95419312,0.00449880
3714.88300049,0.00535687
3716.81180786,0.00527243
3718.74061523,0.00535580
3720.66942261,0.00518855
3722.59822998,0.00494820
3724.52703735,0.00518436
3726.45584473,0.00481160
3728.38465210,0.00526334
3730.31345947,0.00520892
3732.24226685,0.00462403
3734.17107422,0.00447157
3736.09988159,0.00420238
3738.02868896,0.00446560
3739.95749634,0.00492104
3741.88630371,0.00515602
3743.81511108,0.00385124
3745.74391846,0.00346930
3747.67272583,0.00482075
3749.60153320,0.00410514
3751.53034058,0.00375052
3753.45914795,0.00445102
3755.38795532,0.00463943
3757.31676270,0.00496560
3759.24557007,0.00453230
3761.17437744,0.00469148
3763.10318481,0.00507543
3765.03199219,0.00448364
3766.96079956,0.00472509
3768.88960693,0.00467576
3770.81841431,0.00440449
3772.74722168,0.00495084
3774.67602905,0.00484303
3776.60483643,0.00484373
3778.53364380,0.00467225
3780.46245117,0.00441236
3782.39125854,0.00481733
3784.32006592,0.00463334
3786.24887329,0.00464204
3788.17768066,0.00479191
3790.10648804,0.00461212
3792.03529541,0.00460707
3793.96410278,0.00469445
3795.89291016,0.00430034
3797.82171753,0.00434223
3799.75052490,0.00459461
3801.67933228,0.00341250
3803.60813965,0.00412953
3805.53694702,0.00455963
3807.46575439,0.00361179
3809.39456177,0.00452936
3811.32336914,0.00438584
3813.25217651,0.00455824
3815.18098389,0.00402553
3817.10979126,0.00346685
3819.03859863,0.00460791
3820.96740601,0.00349947
3822.89621338,0.00372029
3824.82502075,0.00445990
3826.75382812,0.00401219
3828.68263550,0.00445881
3830.61144287,0.00414573
3832.54025024,0.00400221
3834.46905762,0.00406610
3836.39786499,0.00378610
3838.32667236,0.00338054
3840.25547974,0.00366570
3842.18428711,0.00400856
3844.11309448,0.00381131
3846.04190186,0.00421282
3847.97070923,0.00408572
3849.89951660,0.00416088
3851.82832397,0.00369534
3853.75713135,0.00253802
3855.68593872,0.00316938
3857.61474609,0.00405791
3859.54355347,0.00391372
3861.47236084,0.00390415
3863.40116821,0.00386217
3865.32997559,0.00349844
3867.25878296,0.00400860
3869.18759033,0.00364178
3871.11639770,0.00310705
3873.04520508,0.00393338
3874.97401245,0.00366530
3876.90281982,0.00392327
3878.83162720,0.00400216
3880.76043457,0.00328352
3882.68924194,0.00390450
3884.61804932,0.00364571
3886.54685669,0.00327060
3888.47566406,0.00389411
3890.40447144,0.00363628
3892.33327881,0.00334464
3894.26208618,0.00379349
3896.19089355,0.00385196
3898.11970093,0.00355615
3900.04850830,0.00342879
3901.97731567,0.00334131
3903.90612305,0.00323552
3905.83493042,0.00334329
3907.76373779,0.00376133
3909.69254517,0.00370977
3911.62135254,0.00362267
3913.55015991,0.00379314
3915.47896728,0.00363299
3917.40777466,0.00349528
3919.33658203,0.00342883
3921.26538940,0.00355651
3923.19419678,0.00352287
3925.12300415,0.00335813
3927.05181152,0.00342420
3928.98061890,0.00352901
3930.90942627,0.00353131
3932.83823364,0.00330700
3934.76704102,0.00347707
3936.69584839,0.00358194
3938.62465576,0.00345269
3940.55346313,0.00347898
3942.48227051,0.00330524
3944.41107788,0.00333017
3946.33988525,0.00338797
3948.26869263,0.00330623
3950.19750000,0.00331315
3952.12630737,0.00338915
3954.05511475,0.00340713
3955.98392212,0.00333190
3957.91272949,0.00334677
3959.84153687,0.00328508
3961.77034424,0.00324264
3963.69915161,0.00329719
3965.62795898,0.00337081
3967.55676636,0.00339239
3969.48557373,0.00338203
3971.41438110,0.00330688
3973.34318848,0.00312407
3975.27199585,0.00322280
3977.20080322,0.00331146
3979.12961060,0.00320708
3981.05841797,0.00324392
3982.98722534,0.00328965
3984.91603271,0.00325679
3986.84484009,0.00321620
3988.77364746,0.00321141
3990.70245483,0.00323240
3992.63126221,0.00318796
3994.56006958,0.00310246
3996.48887695,0.00311546
3998.41768433,0.00314237
4000.34649170,0.00312428
4002.27529907,0.00310854
4004.20410645,0.00313701
4006.13291382,0.00315706
4008.06172119,0.00309337
4009.99052856,0.00308221
4011.91933594,0.00304045
4013.84814331,0.00302941
4015.77695068,0.00307543
4017.70575806,0.00304989
4019.63456543,0.00306484
4021.56337280,0.00306780
4023.49218018,0.00298616
4025.42098755,0.00290838
4027.34979492,0.00294960
4029.27860229,0.00297186
4031.20740967,0.00295416
4033.13621704,0.00294353
4035.06502441,0.00293439
4036.99383179,0.00296930
4038.92263916,0.00291969
4040.85144653,0.00294691
4042.78025391,0.00295305
4044.70906128,0.00283458
4046.63786865,0.00287837
4048.56667603,0.00297431
4050.49548340,0.00289761
4052.42429077,0.00282281
4054.35309814,0.00288517
4056.28190552,0.00290485
4058.21071289,0.00288775
4060.13952026,0.00277289
4062.06832764,0.00273565
4063.99713501,0.00286991
4065.92594238,0.00290438
4067.85474976,0.00286564
4069.78355713,0.00278030
4071.71236450,0.00281405
4073.64117187,0.00280179
4075.56997925,0.00274185
4077.49878662,0.00278079
4079.42759399,0.00271833
4081.35640137,0.00277787
4083.28520874,0.00281933
4085.21401611,0.00266405
4087.14282349,0.00265484
4089.07163086,0.00281152
4091.00043823,0.00276236
4092.92924561,0.00265602
4094.85805298,0.00271543
4096.78686035,0.00272891
4098.71566772,0.00275989
4100.64447510,0.00274382
4102.57328247,0.00263159
4104.50208984,0.00259708
4106.43089722,0.00270184
4108.35970459,0.00262617
4110.28851196,0.00255773
4112.21731934,0.00268311
4114.14612671,0.00255088
4116.07493408,0.00251918
4118.00374145,0.00251970
4119.93254883,0.00252916
4121.86135620,0.00260071
4123.79016357,0.00260043
4125.71897095,0.00268095
4127.64777832,0.00249880
4129.57658569,0.00254241
4131.50539307,0.00256159
4133.43420044,0.00241702
4135.36300781,0.00247649
4137.29181519,0.00237610
4139.22062256,0.00247345
4141.14942993,0.00244763
4143.07823730,0.00240318
4145.00704468,0.00250539
4146.93585205,0.00246243
4148.86465942,0.00248707
4150.79346680,0.00242058
4152.72227417,0.00242017
4154.65108154,0.00240878
4156.57988892,0.00241672
4158.50869629,0.00240793
4160.43750366,0.00235484
4162.36631103,0.00241323
4164.29511841,0.00236289
4166.22392578,0.00235971
4168.15273315,0.00232014
4170.08154053,0.00234455
4172.01034790,0.00243897
4173.93915527,0.00238769
4175.86796265,0.00231554
4177.79677002,0.00230034
4179.72557739,0.00233395
4181.65438477,0.00231343
4183.58319214,0.00231542
4185.51199951,0.00233529
4187.44080688,0.00243082
4189.36961426,0.00228809
4191.29842163,0.00216408
4193.22722900,0.00234338
4195.15603638,0.00227770
4197.08484375,0.00230193
4199.01365112,0.00223509
4200.94245850,0.00215235
4202.87126587,0.00225898
4204.80007324,0.00218026
4206.72888062,0.00223102
4208.65768799,0.00216710
4210.58649536,0.00210006
4212.51530273,0.00215851
4214.44411011,0.00209478
4216.37291748,0.00215565
4218.30172485,0.00213892
4220.23053223,0.00203467
4222.15933960,0.00209834
4224.08814697,0.00210331
4226.01695435,0.00209263
4227.94576172,0.00216421
4229.87456909,0.00206071
4231.80337646,0.00207328
4233.73218384,0.00211326
4235.66099121,0.00204151
4237.58979858,0.00205563
4239.51860596,0.00200252
4241.44741333,0.00211437
4243.37622070,0.00208254
4245.30502808,0.00199333
4247.23383545,0.00211504
4249.16264282,0.00207890
4251.09145020,0.00207490
4253.02025757,0.00204594
4254.94906494,0.00205581
4256.87787231,0.00206182
4258.80667969,0.00200988
4260.73548706,0.00207256
4262.66429443,0.00205959
4264.59310181,0.00198544
4266.52190918,0.00187607
4268.45071655,0.00193946
4270.37952393,0.00203861
4272.30833130,0.00196127
4274.23713867,0.00192053
4276.16594604,0.00193313
4278.09475342,0.00200848
4280.02356079,0.00195737
4281.95236816,0.00186067
4283.88117554,0.00193031
4285.80998291,0.00192199
4287.73879028,0.00185343
4289.66759766,0.00191653
4291.59640503,0.00192566
4293.52521240,0.00186904
4295.45401978,0.00190901
4297.38282715,0.00192074
4299.31163452,0.00190612
4301.24044189,0.00191303
4303.16924927,0.00192022
4305.09805664,0.00192040
4307.02686401,0.00190789
4308.95567139,0.00187740
4310.88447876,0.00184643
4312.81328613,0.00185479
4314.74209351,0.00183681
4316.67090088,0.00178608
4318.59970825,0.00177588
4320.52851562,0.00186794
4322.45732300,0.00183826
4324.38613037,0.00173871
4326.31493774,0.00176957
4328.24374512,0.00177901
4330.17255249,0.00179921
4332.10135986,0.00173506
4334.03016724,0.00171312
4335.95897461,0.00178768
4337.88778198,0.00178365
4339.81658936,0.00178531
4341.74539673,0.00178109
4343.67420410,0.00175198
4345.60301147,0.00170666
4347.53181885,0.00179091
4349.46062622,0.00176831
4351.38943359,0.00172276
4353.31824097,0.00181679
4355.24704834,0.00173032
4357.17585571,0.00171741
4359.10466309,0.00168838
4361.03347046,0.00168595
4362.96227783,0.00175571
4364.89108520,0.00169697
4366.81989258,0.00168067
4368.74869995,0.00162840
4370.67750732,0.00166934
4372.60631470,0.00167556
4374.53512207,0.00165891
4376.46392944,0.00169942
4378.39273682,0.00160768
4380.32154419,0.00163428
4382.25035156,0.00167454
4384.17915894,0.00161938
4386.10796631,0.00158544
4388.03677368,0.00162113
4389.96558105,0.00165352
4391.89438843,0.00163872
4393.82319580,0.00164212
4395.75200317,0.00159057
4397.68081055,0.00162536
4399.60961792,0.00165682
4401.53842529,0.00160129
4403.46723267,0.00159973
4405.39604004,0.00158346
4407.32484741,0.00159474
4409.25365478,0.00164705
4411.18246216,0.00164032
4413.11126953,0.00160490
4415.04007690,0.00156390
4416.96888428,0.00151873
4418.89769165,0.00155906
4420.82649902,0.00156547
4422.75530640,0.00153008
4424.68411377,0.00153304
4426.61292114,0.00155247
4428.54172852,0.00158504
4430.47053589,0.00145134
4432.39934326,0.00141074
4434.32815063,0.00153121
4436.25695801,0.00152094
4438.18576538,0.00148705
4440.11457275,0.00149045
4442.04338013,0.00152273
4443.97218750,0.00149516
4445.90099487,0.00141933
4447.82980225,0.00136421
4449.75860962,0.00142292
4451.68741699,0.00149470
4453.61622437,0.00139989
4455.54503174,0.00145563
4457.47383911,0.00147746
4459.40264648,0.00137756
4461.33145386,0.00148922
4463.26026123,0.00149954
4465.18906860,0.00143294
4467.11787598,0.00149941
4469.04668335,0.00143861
4470.97549072,0.00135512
4472.90429810,0.00140605
4474.83310547,0.00136897
4476.76191284,0.00131490
4478.69072021,0.00134622
4480.61952759,0.00131448
4482.54833496,0.00133239
4484.47714233,0.00141533
4486.40594971,0.00142227
4488.33475708,0.00141744
4490.26356445,0.00137459
4492.19237183,0.00134881
4494.12117920,0.00136570
4496.04998657,0.00134240
4497.97879395,0.00140753
4499.90760132,0.00138044
4501.83640869,0.00130820
4503.76521606,0.00137932
4505.69402344,0.00133726
4507.62283081,0.00130382
4509.55163818,0.00131105
4511.48044556,0.00132672
4513.40925293,0.00134199
4515.33806030,0.00129289
4517.26686768,0.00135194
4519.19567505,0.00128223
4521.12448242,0.00125317
4523.05328979,0.00136214
4524.98209717,0.00122565
4526.91090454,0.00124435
4528.83971191,0.00135853
4530.76851929,0.00122999
4532.69732666,0.00123243
4534.62613403,0.00130133
4536.55494141,0.00128593
4538.48374878,0.00124644
4540.41255615,0.00123392
4542.34136353,0.00131941
4544.27017090,0.00124652
4546.19897827,0.00122519
4548.12778564,0.00127844
4550.05659302,0.00120000
4551.98540039,0.00123608
4553.91420776,0.00122747
4555.84301514,0.00120944
4557.77182251,0.00116757
4559.70062988,0.00121448
4561.62943726,0.00132939
4563.55824463,0.00121162
4565.48705200,0.00122006
4567.41585937,0.00116543
4569.34466675,0.00114589
4571.27347412,0.00117569
4573.20228149,0.00108996
4575.13108887,0.00120408
4577.05989624,0.00114951
4578.98870361,0.00109616
4580.91751099,0.00112060
4582.84631836,0.00113507
4584.77512573,0.00120294
4586.70393311,0.00116557
4588.63274048,0.00119607
4590.56154785,0.00113377
4592.49035522,0.00109404
4594.41916260,0.00109168
4596.34796997,0.00111013
4598.27677734,0.00120805
4600.20558472,0.00115757
4602.13439209,0.00109255
4604.06319946,0.00108244
4605.99200684,0.00119078
4607.92081421,0.00112128
4609.84962158,0.00103111
4611.77842895,0.00115648
4613.70723633,0.00106629
4615.63604370,0.00103161
4617.56485107,0.00108713
4619.49365845,0.00106301
4621.42246582,0.00110199
4623.35127319,0.00107924
4625.28008057,0.00099101
4627.20888794,0.00105807
4629.13769531,0.00111562
4631.06650269,0.00104856
4632.99531006,0.00110005
4634.92411743,0.00109508
4636.85292480,0.00109934
4638.78173218,0.00107178
4640.71053955,0.00095723
4642.63934692,0.00107660
4644.56815430,0.00115713
4646.49696167,0.00110000
4648.42576904,0.00103696
4650.35457642,0.00102605
4652.28338379,0.00104635
4654.21219116,0.00101751
4656.14099853,0.00102495
4658.06980591,0.00103090
4659.99861328,0.00101490
4661.92742065,0.00102214
4663.85622803,0.00109030
4665.78503540,0.00105423
4667.71384277,0.00099285
4669.64265015,0.00098082
4671.57145752,0.00092778
4673.50026489,0.00095720
4675.42907227,0.00091945
4677.35787964,0.00097442
4679.28668701,0.00104046
4681.21549438,0.00091382
4683.14430176,0.00093189
4685.07310913,0.00102168
4687.00191650,0.00104235
4688.93072388,0.00092640
4690.85953125,0.00084100
4692.78833862,0.00090200
4694.71714600,0.00091275
4696.64595337,0.00093460
4698.57476074,0.00091283
4700.50356812,0.00094242
4702.43237549,0.00099994
4704.36118286,0.00089894
4706.28999023,0.00093738
4708.21879761,0.00099592
4710.14760498,0.00090769
4712.07641235,0.00097911
4714.00521973,0.00103512
4715.93402710,0.00095892
4717.86283447,0.00093709
4719.79164185,0.00091841
4721.72044922,0.00092239
4723.64925659,0.00096644
4725.57806396,0.00097665
4727.50687134,0.00092460
4729.43567871,0.00088603
4731.36448608,0.00086629
4733.29329346,0.00087290
4735.22210083,0.00094586
4737.15090820,0.00094783
4739.07971558,0.00094358
4741.00852295,0.00087266
4742.93733032,0.00078810
4744.86613770,0.00090206
4746.79494507,0.00089148
4748.72375244,0.00082276
4750.65255981,0.00088251
4752.58136719,0.00088946
4754.51017456,0.00091239
4756.43898193,0.00089390
4758.36778931,0.00082117
4760.29659668,0.00081630
4762.22540405,0.00082344
4764.15421143,0.00086275
4766.08301880,0.00086740
4768.01182617,0.00084690
4769.94063354,0.00085109
4771.86944092,0.00081765
4773.79824829,0.00083056
4775.72705566,0.00082017
4777.65586304,0.00083944
4779.58467041,0.00086728
4781.51347778,0.00082113
4783.44228516,0.00085163
4785.37109253,0.00079380
4787.29989990,0.00079219
4789.22870728,0.00087333
4791.15751465,0.00079265
4793.08632202,0.00078223
4795.01512939,0.00082408
4796.94393677,0.00082246
4798.87274414,0.00082569
4800.80155151,0.00077586
4802.73035889,0.00076193
4804.65916626,0.00081073
4806.58797363,0.00077050
4808.51678101,0.00080383
4810.44558838,0.00083086
4812.37439575,0.00073468
4814.30320312,0.00080400
4816.23201050,0.00078805
4818.16081787,0.00081118
4820.08962524,0.00082317
4822.01843262,0.00065085
4823.94723999,0.00074798
4825.87604736,0.00073679
4827.80485474,0.00070782
4829.73366211,0.00079150
4831.66246948,0.00072553
4833.59127686,0.00073934
4835.52008423,0.00072193
4837.44889160,0.00074733
4839.37769897,0.00075237
4841.30650635,0.00071456
4843.23531372,0.00071325
4845.16412109,0.00070536
4847.09292847,0.00076454
4849.02173584,0.00068578
4850.95054321,0.00067374
4852.87935059,0.00077114
4854.80815796,0.00074944
4856.73696533,0.00073708
4858.66577270,0.00075601
4860.59458008,0.00071766
4862.52338745,0.00069048
4864.45219482,0.00073007
4866.38100220,0.00069165
4868.30980957,0.00070900
4870.23861694,0.00075151
4872.16742432,0.00072280
4874.09623169,0.00070793
4876.02503906,0.00069808
4877.95384644,0.00078195
4879.88265381,0.00073794
4881.81146118,0.00065574
4883.74026855,0.00069854
4885.66907593,0.00066147
4887.59788330,0.00064504
4889.52669067,0.00067628
4891.45549805,0.00069767
4893.38430542,0.00065569
4895.31311279,0.00060079
4897.24192017,0.00068154
4899.17072754,0.00075096
4901.09953491,0.00071791
4903.02834228,0.00067903
4904.95714966,0.00066667
4906.88595703,0.00071924
4908.81476440,0.00069505
4910.74357178,0.00059286
4912.67237915,0.00066657
4914.60118652,0.00068051
4916.52999390,0.00057868
4918.45880127,0.00061125
4920.38760864,0.00065489
4922.31641602,0.00060172
4924.24522339,0.00057988
4926.17403076,0.00064146
4928.10283813,0.00059492
4930.03164551,0.00059710
4931.96045288,0.00064974
4933.88926025,0.00057468
4935.81806763,0.00059864
4937.74687500,0.00062860
4939.67568237,0.00061248
4941.60448975,0.00062171
4943.53329712,0.00061795
4945.46210449,0.00060900
4947.39091187,0.00057240
4949.31971924,0.00055685
4951.24852661,0.00055647
4953.17733398,0.00055944
4955.10614136,0.00059818
4957.03494873,0.00064273
4958.96375610,0.00054117
4960.89256348,0.00052877
4962.82137085,0.00060609
4964.75017822,0.00051948
4966.67898560,0.00059333
4968.60779297,0.00061148
4970.53660034,0.00049312
4972.46540771,0.00053857
4974.39421509,0.00058694
4976.32302246,0.00056560
4978.25182983,0.00051171
4980.18063721,0.00056187
4982.10944458,0.00058032
4984.03825195,0.00049344
4985.96705933,0.00047956
4987.89586670,0.00055915
4989.82467407,0.00061510
4991.75348145,0.00051756
4993.68228882,0.00051578
4995.61109619,0.00055362
4997.53990356,0.00051667
4999.46871094,0.00057079
5001.39751831,0.00051967
5003.32632568,0.00045943
5005.25513306,0.00059419
5007.18394043,0.00058908
5009.11274780,0.00047218
5011.04155518,0.00053240
5012.97036255,0.00054145
5014.89916992,0.00052336
5016.82797729,0.00056515
5018.75678467,0.00051010
5020.68559204,0.00046413
5022.61439941,0.00049787
5024.54320679,0.00057373
5026.47201416,0.00056447
5028.40082153,0.00052536
5030.32962891,0.00051828
5032.25843628,0.00051515
5034.18724365,0.00053695
5036.11605103,0.00051415
5038.04485840,0.00053802
5039.97366577,0.00049822
5041.90247314,0.00044475
5043.83128052,0.00052040
5045.76008789,0.00056496
5047.68889526,0.00051661
5049.61770264,0.00044217
5051.54651001,0.00052238
5053.47531738,0.00052111
5055.40412476,0.00047506
5057.33293213,0.00053959
5059.26173950,0.00049351
5061.19054687,0.00049941
5063.11935425,0.00047378
5065.04816162,0.00049286
5066.97696899,0.00052741
5068.90577637,0.00038071
5070.83458374,0.00046110
5072.76339111,0.00051956
5074.69219849,0.00044307
5076.62100586,0.00052196
5078.54981323,0.00047213
5080.47862061,0.00043187
5082.40742798,0.00044370
5084.33623535,0.00039209
5086.26504272,0.00046487
5088.19385010,0.00040616
5090.12265747,0.00042184
5092.05146484,0.00059115
5093.98027222,0.00050064
5095.90907959,0.00047824
5097.83788696,0.00050539
5099.76669434,0.00045576
5101.69550171,0.00044989
5103.62430908,0.00044104
5105.55311645,0.00050482
5107.48192383,0.00044721
5109.41073120,0.00038701
5111.33953857,0.00043914
5113.26834595,0.00047142
5115.19715332,0.00047783
5117.12596069,0.00040681
5119.05476807,0.00042098
5120.98357544,0.00040406
5122.91238281,0.00039112
5124.84119019,0.00046326
5126.76999756,0.00039153
5128.69880493,0.00038795
5130.62761230,0.00042463
5132.55641968,0.00037673
5134.48522705,0.00041788
5136.41403442,0.00044404
5138.34284180,0.00039807
5140.27164917,0.00042564
5142.20045654,0.00042306
5144.12926392,0.00035284
5146.05807129,0.00039913
5147.98687866,0.00043002
5149.91568603,0.00043275
5151.84449341,0.00044151
5153.77330078,0.00036679
5155.70210815,0.00038024
5157.63091553,0.00041948
5159.55972290,0.00038752
5161.48853027,0.00030202
5163.41733765,0.00030276
5165.34614502,0.00044497
5167.27495239,0.00038910
5169.20375977,0.00036417
5171.13256714,0.00041573
5173.06137451,0.00030384
5174.99018188,0.00040717
5176.91898926,0.00047196
5178.84779663,0.00035495
5180.77660400,0.00041782
5182.70541138,0.00041619
5184.63421875,0.00032921
5186.56302612,0.00031645
5188.49183350,0.00036775
5190.42064087,0.00039366
5192.34944824,0.00037645
5194.27825562,0.00043047
5196.20706299,0.00039106
5198.13587036,0.00035524
5200.06467773,0.00036728
5201.99348511,0.00037972
5203.92229248,0.00044503
5205.85109985,0.00037908
5207.77990723,0.00035825
5209.70871460,0.00032413
5211.63752197,0.00026329
5213.56632935,0.00034530
5215.49513672,0.00036656
5217.42394409,0.00043558
5219.35275146,0.00038834
5221.28155884,0.00032037
5223.21036621,0.00041440
5225.13917358,0.00032012
5227.06798096,0.00034112
5228.99678833,0.00040944
5230.92559570,0.00033974
5232.85440308,0.00037158
5234.78321045,0.00033035
5236.71201782,0.00033303
5238.64082520,0.00035712
5240.56963257,0.00035272
5242.49843994,0.00039349
5244.42724731,0.00029135
5246.35605469,0.00028710
5248.28486206,0.00033657
5250.21366943,0.00032743
5252.14247681,0.00035628
5254.07128418,0.00030932
5256.00009155,0.00035148
5257.92889893,0.00036924
5259.85770630,0.00031075
5261.78651367,0.00034148
5263.71532104,0.00037823
5265.64412842,0.00037108
5267.57293579,0.00031014
5269.50174316,0.00035455
5271.43055054,0.00039958
5273.35935791,0.00036402
5275.28816528,0.00035413
5277.21697266,0.00035458
5279.14578003,0.00037953
5281.07458740,0.00032592
5283.00339478,0.00029637
5284.93220215,0.00028398
5286.86100952,0.00028272
5288.78981689,0.00032436
5290.71862427,0.00029781
5292.64743164,0.00034091
5294.57623901,0.00031096
5296.50504639,0.00025297
5298.43385376,0.00030148
5300.36266113,0.00030002
5302.29146851,0.00031203
5304.22027588,0.00025733
5306.14908325,0.00021067
5308.07789062,0.00033181
5310.00669800,0.00034847
5311.93550537,0.00024830
5313.86431274,0.00029708
5315.79312012,0.00033610
5317.72192749,0.00030516
5319.65073486,0.00029937
5321.57954224,0.00028393
5323.50834961,0.00033923
5325.43715698,0.00030355
5327.36596436,0.00024713
5329.29477173,0.00029003
5331.22357910,0.00028134
5333.15238647,0.00026766
5335.08119385,0.00027172
5337.01000122,0.00030839
5338.93880859,0.00028792
5340.86761597,0.00030119
5342.79642334,0.00036100
5344.72523071,0.00032531
5346.65403809,0.00025376
5348.58284546,0.00021064
5350.51165283,0.00027151
5352.44046020,0.00026646
5354.36926758,0.00030934
5356.29807495,0.00031646
5358.22688232,0.00017763
5360.15568970,0.00021374
5362.08449707,0.00027328
5364.01330444,0.00026933
5365.94211182,0.00021169
5367.87091919,0.00031708
5369.79972656,0.00037751
5371.72853394,0.00023930
5373.65734131,0.00028996
5375.58614868,0.00021510
5377.51495605,0.00023293
5379.44376343,0.00030130
5381.37257080,0.00024582
5383.30137817,0.00032365
5385.23018555,0.00028118
5387.15899292,0.00031684
5389.08780029,0.00027787
5391.01660767,0.00020222
5392.94541504,0.00025528
5394.87422241,0.00023111
5396.80302978,0.00026194
5398.73183716,0.00020556
5400.66064453,0.00024650
5402.58945190,0.00025763
5404.51825928,0.00017692
5406.44706665,0.00030597
5408.37587402,0.00029019
5410.30468140,0.00020666
5412.23348877,0.00022663
5414.16229614,0.00025220
5416.09110352,0.00027581
5418.01991089,0.00025352
5419.94871826,0.00025425
5421.87752563,0.00025808
5423.80633301,0.00022385
5425.73514038,0.00024972
5427.66394775,0.00025744
5429.59275513,0.00018677
5431.52156250,0.00023352
5433.45036987,0.00026368
5435.37917725,0.00022025
5437.30798462,0.00020906
5439.23679199,0.00020269
5441.16559936,0.00025578
5443.09440674,0.00023197
5445.02321411,0.00021115
5446.95202148,0.00025253
5448.88082886,0.00024204
5450.80963623,0.00023503
5452.73844360,0.00021687
5454.66725098,0.00020373
5456.59605835,0.00020960
5458.52486572,0.00023755
5460.45367310,0.00019833
5462.38248047,0.00021614
5464.31128784,0.00034816
5466.24009521,0.00026896
5468.16890259,0.00020240
5470.09770996,0.00029692
5472.02651733,0.00023452
5473.95532471,0.00015397
5475.88413208,0.00019917
5477.81293945,0.00024954
5479.74174683,0.00026832
5481.67055420,0.00021309
5483.59936157,0.00022821
5485.52816895,0.00026505
5487.45697632,0.00019565
5489.38578369,0.00017737
5491.31459106,0.00018973
5493.24339844,0.00024426
5495.17220581,0.00020780
5497.10101318,0.00017305
5499.02982056,0.00025967
5500.95862793,0.00020114
5502.88743530,0.00015963
5504.81624268,0.00014937
5506.74505005,0.00018937
5508.67385742,0.00026672
5510.60266479,0.00023709
5512.53147217,0.00018051
5514.46027954,0.00014616
5516.38908691,0.00022633
5518.31789429,0.00017478
5520.24670166,0.00017587
5522.17550903,0.00023508
5524.10431641,0.00013466
5526.03312378,0.00017003
5527.96193115,0.00017573
5529.89073853,0.00020344
5531.81954590,0.00018526
5533.74835327,0.00018492
5535.67716064,0.00025050
5537.60596802,0.00012412
5539.53477539,0.00017506
5541.46358276,0.00019704
5543.39239014,0.00017020
5545.32119751,0.00020961
5547.25000488,0.00016243
5549.17881226,0.00016667
5551.10761963,0.00013020
5553.03642700,0.00017150
5554.96523437,0.00018965
5556.89404175,0.00019906
5558.82284912,0.00020131
5560.75165649,0.00011923
5562.68046387,0.00016810
5564.60927124,0.00015438
5566.53807861,0.00017099
5568.46688599,0.00024602
5570.39569336,0.00022619
5572.32450073,0.00019473
5574.25330811,0.00018961
5576.18211548,0.00024093
5578.11092285,0.00018379
5580.03973022,0.00013680
5581.96853760,0.00020793
5583.89734497,0.00022463
5585.82615234,0.00019079
5587.75495972,0.00015977
5589.68376709,0.00018443
5591.61257446,0.00018255
5593.54138184,0.00016199
5595.47018921,0.00020707
5597.39899658,0.00017110
5599.32780395,0.00011504
5601.25661133,0.00018921
5603.18541870,0.00019599
5605.11422607,0.00014775
5607.04303345,0.00019621
5608.97184082,0.00016250
5610.90064819,0.00011164
5612.82945557,0.00014166
5614.75826294,0.00014146
5616.68707031,0.00019131
5618.61587769,0.00024727
5620.54468506,0.00019027
5622.47349243,0.00013489
5624.40229980,0.00017949
5626.33110718,0.00017371
5628.25991455,0.00012819
5630.18872192,0.00021203
5632.11752930,0.00023376
5634.04633667,0.00015001
5635.97514404,0.00018552
5637.90395142,0.00018951
5639.83275879,0.00013463
5641.76156616,0.00019347
5643.69037353,0.00016743
5645.61918091,0.00011663
5647.54798828,0.00019251
5649.47679565,0.00017867
5651.40560303,0.00012467
5653.33441040,0.00011432
5655.26321777,0.00013701
5657.19202515,0.00020421
5659.12083252,0.00015406
5661.04963989,0.00011920
5662.97844727,0.00019305
5664.90725464,0.00015948
5666.83606201,0.00016091
5668.76486938,0.00023642
5670.69367676,0.00018474
5672.62248413,0.00016567
5674.55129150,0.00021629
5676.48009888,0.00014327
5678.40890625,0.00011652
5680.33771362,0.00020692
5682.26652100,0.00022418
5684.19532837,0.00018889
5686.12413574,0.00014605
5688.05294311,0.00016856
5689.98175049,0.00013262
5691.91055786,0.00002970
5693.83936523,0.00012371
5695.76817261,0.00017836
5697.69697998,0.00015245
5699.62578735,0.00018133
5701.55459473,0.00014626
5703.48340210,0.00014167
5705.41220947,0.00015189
5707.34101685,0.00016929
5709.26982422,0.00014305
5711.19863159,0.00010611
5713.12743896,0.00016169
5715.05624634,0.00014698
5716.98505371,0.00012215
5718.91386108,0.00005860
5720.84266846,0.00004659
5722.77147583,0.00015830
5724.70028320,0.00012958
5726.62909058,0.00012461
5728.55789795,0.00016457
5730.48670532,0.00014038
5732.41551270,0.00012190
5734.34432007,0.00009225
5736.27312744,0.00012779
5738.20193481,0.00012227
5740.13074219,0.00013955
5742.05954956,0.00020469
5743.98835693,0.00014740
5745.91716431,0.00013011
5747.84597168,0.00011692
5749.77477905,0.00013916
5751.70358643,0.00016570
5753.63239380,0.00009928
5755.56120117,0.00008270
5757.49000854,0.00013640
5759.41881592,0.00021136
5761.34762329,0.00011740
5763.27643066,0.00009517
5765.20523804,0.00013718
5767.13404541,0.00009097
5769.06285278,0.00015707
5770.99166016,0.00007914
5772.92046753,0.00013174
5774.84927490,0.00023686
5776.77808228,0.00013478
5778.70688965,0.00022816
5780.63569702,0.00020708
5782.56450439,0.00013206
5784.49331177,0.00017019
5786.42211914,0.00014452
5788.35092651,0.00016077
5790.27973389,0.00018523
5792.20854126,0.00012034
5794.13734863,0.00001603
5796.06615601,0.00015825
5797.99496338,0.00024319
5799.92377075,0.00015329
5801.85257812,0.00014750
5803.78138550,0.00016242
5805.71019287,0.00017855
5807.63900024,0.00008702
5809.56780762,0.00015056
5811.49661499,0.00016339
5813.42542236,0.00004758
5815.35422974,0.00010747
5817.28303711,0.00009800
5819.21184448,0.00010146
5821.14065186,0.00011612
5823.06945923,0.00011995
5824.99826660,0.00008858
5826.92707397,0.00009218
5828.85588135,0.00014677
5830.78468872,0.00007165
5832.71349609,0.00007378
5834.64230347,0.00002111
5836.57111084,0.00002998
5838.49991821,0.00012307
5840.42872559,0.00010824
5842.35753296,0.00012756
5844.28634033,0.00006125
5846.21514770,0.00008019
5848.14395508,0.00017174
5850.07276245,0.00016875
5852.00156982,0.00010012
5853.93037720,0.00008104
5855.85918457,0.00013587
5857.78799194,0.00010560
5859.71679932,0.00017192
5861.64560669,0.00014485
5863.57441406,0.00003296
5865.50322144,0.00008417
5867.43202881,0.00011934
5869.36083618,0.00012046
5871.28964355,0.00004307
5873.21845093,0.00005763
5875.14725830,0.00016397
5877.07606567,0.00009310
5879.00487305,0.00009499
5880.93368042,0.00018111
5882.86248779,0.00012900
5884.79129517,0.00012060
5886.72010254,0.00012041
5888.64890991,0.00007694
5890.57771728,0.00010447
5892.50652466,0.00006010
5894.43533203,0.00002762
5896.36413940,0.00010658
5898.29294678,0.00015004
5900.22175415,0.00013743
5902.15056152,0.00010122
5904.07936890,0.00008606
5906.00817627,0.00013556
5907.93698364,0.00011756
5909.86579102,0.00006732
5911.79459839,0.00009968
5913.72340576,0.00005621
5915.65221313,0.00010557
5917.58102051,0.00013801
5919.50982788,0.00002906
5921.43863525,0.00007221
5923.36744263,0.00010169
5925.29625000,0.00015461
5927.22505737,0.00010502
5929.15386475,0.00002919
5931.08267212,0.00010015
5933.01147949,0.00004185
5934.94028686,0.00009135
5936.86909424,0.00007434
5938.79790161,0.00002080
5940.72670898,0.00009526
5942.65551636,0.00005973
5944.58432373,0.00006531
5946.51313110,0.00004750
5948.44193848,0.00005594
5950.37074585,0.00006975
5952.29955322,0.00007084
5954.22836060,0.00009474
5956.15716797,0.00008320
5958.08597534,0.00006568
5960.01478271,0.00004269
5961.94359009,0.00016639
5963.87239746,0.00018001
5965.80120483,0.00013355
5967.73001221,0.00012234
5969.65881958,0.00005061
5971.58762695,0.00011887
5973.51643433,0.00013509
5975.44524170,0.00007007
5977.37404907,0.00005895
5979.30285645,0.00014212
5981.23166382,0.00009642
5983.16047119,0.00001998
5985.08927856,0.00009707
5987.01808594,0.00005779
5988.94689331,0.00009882
5990.87570068,0.00010472
5992.80450806,0.00005785
5994.73331543,0.00008040
5996.66212280,0.00005484
5998.59093018,0.00008694
6000.51973755,0.00006091
