399.26312622,0.00078802
401.19193359,0.00077831
403.12074097,0.00107590
405.04954834,0.00099366
406.97835571,0.00131895
408.90716309,0.00086803
410.83597046,0.00144817
412.76477783,0.00136221
414.69358521,0.00115953
416.62239258,0.00148555
418.55119995,0.00070701
420.48000732,0.00118482
422.40881470,0.00117167
424.33762207,0.00111564
426.26642944,0.00165213
428.19523682,0.00104439
430.12404419,0.00126468
432.05285156,0.00145286
433.98165894,0.00122592
435.91046631,0.00147661
437.83927368,0.00139456
439.76808105,0.00141714
441.69688843,0.00140905
443.62569580,0.00130304
445.55450317,0.00152076
447.48331055,0.00131076
449.41211792,0.00105024
451.34092529,0.00113873
453.26973267,0.00111407
455.19854004,0.00106866
457.12734741,0.00064448
459.05615479,0.00075253
460.98496216,0.00098554
462.91376953,0.00053521
464.84257690,0.00078833
466.77138428,0.00086843
468.70019165,0.00060359
470.62899902,0.00060460
472.55780640,0.00055798
474.48661377,0.00061461
476.41542114,0.00051736
478.34422852,0.00061469
480.27303589,0.00070177
482.20184326,0.00033971
484.13065063,0.00000446
486.05945801,0.00021937
487.98826538,0.00042212
489.91707275,0.00006780
491.84588013,-0.00011048
493.77468750,0.00024602
495.70349487,0.00031855
497.63230225,0.00013841
499.56110962,0.00047823
501.48991699,0.00035260
503.41872437,0.00005337
505.34753174,0.00010256
507.27633911,0.00009767
509.20514648,0.00031193
511.13395386,0.00024443
513.06276123,0.00021028
514.99156860,0.00054799
516.92037598,0.00043156
518.84918335,0.00009560
520.77799072,0.00001729
522.70679810,0.00009438
524.63560547,0.00045885
526.56441284,0.00039463
528.49322021,0.00009541
530.42202759,0.00024020
532.35083496,-0.00003565
534.27964233,0.00000576
536.20844971,0.00004866
538.13725708,0.00004757
540.06606445,0.00042878
541.99487183,0.00009286
543.92367920,0.00017790
545.85248657,0.00012592
547.78129395,0.00014717
549.71010132,0.00055939
551.63890869,0.00028655
553.56771606,0.00018759
555.49652344,0.00013971
557.42533081,0.00025659
559.35413818,0.00042107
561.28294556,0.00019939
563.21175293,0.00017492
565.14056030,0.00013699
567.06936768,-0.00004149
568.99817505,0.00021796
570.92698242,0.00004470
572.85578979,-0.00011525
574.78459717,0.00003290
576.71340454,-0.00007682
578.64221191,0.00032304
580.57101929,0.00025349
582.49982666,0.00009789
584.42863403,0.00031172
586.35744141,0.00019436
588.28624878,0.00017002
590.21505615,0.00014691
592.14386353,-0.00018892
594.07267090,-0.00006142
596.00147827,0.00061565
597.93028564,0.00026828
599.85909302,0.00005741
601.78790039,0.00047359
603.71670776,0.00037392
605.64551514,0.00037001
607.57432251,-0.00014118
609.50312988,-0.00020980
611.43193726,0.00008726
613.36074463,-0.00008748
615.28955200,-0.00002471
617.21835938,0.00029780
619.14716675,0.00038565
621.07597412,0.00020282
623.00478149,-0.00020237
624.93358887,0.00006589
626.86239624,-0.00002197
628.79120361,-0.00004716
630.72001099,0.00064883
632.64881836,0.00060984
634.57762573,0.00067127
636.50643311,0.00079444
638.43524048,0.00070756
640.36404785,0.00122235
642.29285522,0.00139024
644.22166260,0.00130184
646.15046997,0.00168599
648.07927734,0.00150881
650.00808472,0.00145333
651.93689209,0.00177355
653.86569946,0.00154462
655.79450684,0.00179518
657.72331421,0.00173015
659.65212158,0.00179548
661.58092896,0.00232007
663.50973633,0.00211417
665.43854370,0.00237160
667.36735107,0.00219387
669.29615845,0.00193246
671.22496582,0.00220238
673.15377319,0.00217908
675.08258057,0.00252165
677.01138794,0.00269186
678.94019531,0.00248969
680.86900269,0.00234920
682.79781006,0.00271837
684.72661743,0.00264482
686.65542480,0.00253154
688.58423218,0.00289881
690.51303955,0.00249490
692.44184692,0.00277468
694.37065430,0.00325270
696.29946167,0.00341683
698.22826904,0.00381385
700.15707642,0.00422021
702.08588379,0.00429840
704.01469116,0.00364888
705.94349854,0.00357393
707.87230591,0.00279998
709.80111328,0.00201584
711.72992065,0.00167774
713.65872803,0.00075951
715.58753540,0.00093649
717.51634277,0.00057053
719.44515015,0.00028185
721.37395752,0.00049216
723.30276489,0.00027881
725.23157227,0.00057864
727.16037964,0.00022698
729.08918701,0.00006911
731.01799438,0.00008298
732.94680176,-0.00010255
734.87560913,0.00004494
736.80441650,0.00000362
738.73322388,0.00015207
740.66203125,0.00005542
742.59083862,0.00012311
744.51964600,0.00043206
746.44845337,0.00037368
748.37726074,0.00030392
750.30606812,0.00041592
752.23487549,0.00014887
754.16368286,-0.00015597
756.09249023,0.00040662
758.02129761,0.00046644
759.95010498,0.00016658
761.87891235,0.00029472
763.80771973,0.00046622
765.73652710,0.00056843
767.66533447,0.00054204
769.59414185,0.00018000
771.52294922,-0.00000824
773.45175659,0.00032206
775.38056396,0.00032020
777.30937134,0.00024619
779.23817871,0.00046488
781.16698608,0.00037432
783.09579346,0.00031763
785.02460083,0.00042585
786.95340820,0.00028269
788.88221558,0.00028155
790.81102295,0.00041800
792.73983032,0.00004955
794.66863770,0.00006181
796.59744507,0.00038808
798.52625244,0.00038211
800.45505981,0.00086176
802.38386719,0.00076676
804.31267456,0.00024654
806.24148193,0.00047847
808.17028931,0.00052433
810.09909668,0.00044147
812.02790405,0.00041989
813.95671143,0.00053143
815.88551880,0.00049804
817.81432617,0.00016667
819.74313354,0.00042467
821.67194092,0.00045580
823.60074829,0.00025052
825.52955566,0.00043078
827.45836304,0.00047322
829.38717041,0.00065128
831.31597778,0.00076385
833.24478516,0.00083960
835.17359253,0.00105304
837.10239990,0.00088128
839.03120728,0.00087140
840.96001465,0.00117641
842.88882202,0.00099789
844.81762939,0.00068421
846.74643677,0.00063224
848.67524414,0.00065704
850.60405151,0.00077108
852.53285889,0.00064127
854.46166626,0.00058025
856.39047363,0.00064524
858.31928101,0.00070447
860.24808838,0.00080275
862.17689575,0.00042448
864.10570313,0.00051232
866.03451050,0.00055416
867.96331787,0.00010901
869.89212524,0.00033667
871.82093262,0.00028161
873.74973999,0.00021268
875.67854736,0.00037521
877.60735474,0.00031059
879.53616211,0.00045725
881.46496948,0.00045971
883.39377686,0.00034317
885.32258423,0.00023038
887.25139160,0.00059194
889.18019897,0.00061537
891.10900635,0.00011766
893.03781372,0.00026690
894.96662109,0.00022650
896.89542847,0.00021021
898.82423584,0.00043791
900.75304321,0.00039631
902.68185059,0.00052667
904.61065796,0.00058840
906.53946533,0.00045551
908.46827271,0.00033136
910.39708008,0.00033640
912.32588745,0.00054826
914.25469482,0.00057719
916.18350220,0.00029568
918.11230957,0.00039400
920.04111694,0.00070094
921.96992432,0.00072092
923.89873169,0.00087789
925.82753906,0.00106327
927.75634644,0.00092834
929.68515381,0.00092789
931.61396118,0.00102347
933.54276855,0.00099116
935.47157593,0.00135018
937.40038330,0.00138677
939.32919067,0.00124358
941.25799805,0.00154980
943.18680542,0.00131569
945.11561279,0.00119727
947.04442017,0.00141343
948.97322754,0.00151198
950.90203491,0.00158418
952.83084229,0.00124335
954.75964966,0.00095990
956.68845703,0.00094715
958.61726440,0.00119190
960.54607178,0.00123925
962.47487915,0.00111406
964.40368652,0.00137688
966.33249390,0.00153367
968.26130127,0.00142480
970.19010864,0.00120941
972.11891602,0.00143535
974.04772339,0.00164700
975.97653076,0.00167621
977.90533813,0.00193793
979.83414551,0.00174668
981.76295288,0.00196395
983.69176025,0.00245813
985.62056763,0.00233945
987.54937500,0.00245083
989.47818237,0.00291702
991.40698975,0.00334736
993.33579712,0.00372061
995.26460449,0.00415441
997.19341187,0.00443440
999.12221924,0.00466133
1001.05102661,0.00505810
1002.97983398,0.00541271
1004.90864136,0.00575256
1006.83744873,0.00600059
1008.76625610,0.00620292
1010.69506348,0.00659091
1012.62387085,0.00704824
1014.55267822,0.00733280
1016.48148560,0.00780197
1018.41029297,0.00827672
1020.33910034,0.00846054
1022.26790771,0.00887180
1024.19671509,0.00921871
1026.12552246,0.00964350
1028.05432983,0.01010802
1029.98313721,0.01007471
1031.91194458,0.01022676
1033.84075195,0.01059548
1035.76955933,0.01075099
1037.69836670,0.01093925
1039.62717407,0.01106757
1041.55598145,0.01092607
1043.48478882,0.01090180
1045.41359619,0.01078014
1047.34240356,0.01052010
1049.27121094,0.01051295
1051.20001831,0.01027751
1053.12882568,0.01004228
1055.05763306,0.00972264
1056.98644043,0.00943661
1058.91524780,0.00939307
1060.84405518,0.00895373
1062.77286255,0.00881702
1064.70166992,0.00863381
1066.63047729,0.00827819
1068.55928467,0.00796957
1070.48809204,0.00734045
1072.41689941,0.00716717
1074.34570679,0.00672302
1076.27451416,0.00645957
1078.20332153,0.00649948
1080.13212891,0.00585423
1082.06093628,0.00562795
1083.98974365,0.00534321
1085.91855103,0.00511839
1087.84735840,0.00523036
1089.77616577,0.00493551
1091.70497314,0.00462521
1093.63378052,0.00432318
1095.56258789,0.00424944
1097.49139526,0.00409996
1099.42020264,0.00394022
1101.34901001,0.00390197
1103.27781738,0.00377121
1105.20662476,0.00370658
1107.13543213,0.00350784
1109.06423950,0.00367662
1110.99304687,0.00359024
1112.92185425,0.00337604
1114.85066162,0.00353099
1116.77946899,0.00341777
1118.70827637,0.00350449
1120.63708374,0.00353154
1122.56589111,0.00353130
1124.49469849,0.00349605
1126.42350586,0.00350493
1128.35231323,0.00367586
1130.28112061,0.00365201
1132.20992798,0.00390923
1134.13873535,0.00396501
1136.06754272,0.00423626
1137.99635010,0.00452538
1139.92515747,0.00447577
1141.85396484,0.00497168
1143.78277222,0.00521791
1145.71157959,0.00548080
1147.64038696,0.00593167
1149.56919434,0.00616472
1151.49800171,0.00645688
1153.42680908,0.00663173
1155.35561646,0.00689050
1157.28442383,0.00721793
1159.21323120,0.00751977
1161.14203857,0.00775074
1163.07084595,0.00794935
1164.99965332,0.00824936
1166.92846069,0.00869015
1168.85726807,0.00907353
1170.78607544,0.00936214
1172.71488281,0.00982469
1174.64369019,0.01008264
1176.57249756,0.01038202
1178.50130493,0.01070440
1180.43011230,0.01086141
1182.35891968,0.01154293
1184.28772705,0.01223155
1186.21653442,0.01244290
1188.14534180,0.01293346
1190.07414917,0.01376449
1192.00295654,0.01435901
1193.93176392,0.01500799
1195.86057129,0.01574582
1197.78937866,0.01634578
1199.71818604,0.01708468
1201.64699341,0.01775538
1203.57580078,0.01846672
1205.50460815,0.01939938
1207.43341553,0.02006970
1209.36222290,0.02051344
1211.29103027,0.02124692
1213.21983765,0.02194371
1215.14864502,0.02233076
1217.07745239,0.02264484
1219.00625977,0.02292675
1220.93506714,0.02345258
1222.86387451,0.02373163
1224.79268188,0.02380240
1226.72148926,0.02417989
1228.65029663,0.02432890
1230.57910400,0.02447003
1232.50791138,0.02452755
1234.43671875,0.02434087
1236.36552612,0.02429146
1238.29433350,0.02420296
1240.22314087,0.02432988
1242.15194824,0.02431522
1244.08075562,0.02390628
1246.00956299,0.02382798
1247.93837036,0.02376983
1249.86717773,0.02361684
1251.79598511,0.02351499
1253.72479248,0.02317777
1255.65359985,0.02299139
1257.58240723,0.02266086
1259.51121460,0.02192796
1261.44002197,0.02181731
1263.36882935,0.02182805
1265.29763672,0.02113776
1267.22644409,0.02098843
1269.15525146,0.02101392
1271.08405884,0.02046894
1273.01286621,0.02011235
1274.94167358,0.01969733
1276.87048096,0.01942997
1278.79928833,0.01902825
1280.72809570,0.01857059
1282.65690308,0.01848974
1284.58571045,0.01803011
1286.51451782,0.01768804
1288.44332520,0.01730035
1290.37213257,0.01711357
1292.30093994,0.01705187
1294.22974731,0.01658536
1296.15855469,0.01656522
1298.08736206,0.01663624
1300.01616943,0.01680739
1301.94497681,0.01676446
1303.87378418,0.01688612
1305.80259155,0.01722041
1307.73139893,0.01730793
1309.66020630,0.01788755
1311.58901367,0.01787159
1313.51782104,0.01806168
1315.44662842,0.01875441
1317.37543579,0.01907928
1319.30424316,0.01959027
1321.23305054,0.02010094
1323.16185791,0.02077449
1325.09066528,0.02132128
1327.01947266,0.02201479
1328.94828003,0.02243146
1330.87708740,0.02290280
1332.80589478,0.02371861
1334.73470215,0.02387776
1336.66350952,0.02412021
1338.59231689,0.02356945
1340.52112427,0.02385729
1342.44993164,0.02534171
1344.37873901,0.02528365
1346.30754639,0.02535428
1348.23635376,0.02541443
1350.16516113,0.02510310
1352.09396851,0.02507891
1354.02277588,0.02461718
1355.95158325,0.02450118
1357.88039062,0.02445891
1359.80919800,0.02399299
1361.73800537,0.02273713
1363.66681274,0.02240278
1365.59562012,0.02370368
1367.52442749,0.02304623
1369.45323486,0.02299686
1371.38204224,0.02370796
1373.31084961,0.02204011
1375.23965698,0.02203325
1377.16846436,0.02290590
1379.09727173,0.02284496
1381.02607910,0.02274887
1382.95488647,0.02265447
1384.88369385,0.02279749
1386.81250122,0.02153765
1388.74130859,0.02177062
1390.67011597,0.02398278
1392.59892334,0.02326262
1394.52773071,0.02143800
1396.45653809,0.02243611
1398.38534546,0.02236471
1400.31415283,0.02240651
1402.24296021,0.02458887
1404.17176758,0.02290815
1406.10057495,0.02293703
1408.02938232,0.02410698
1409.95818970,0.02295150
1411.88699707,0.02339733
1413.81580444,0.02262142
1415.74461182,0.02322168
1417.67341919,0.02037228
1419.60222656,0.01787231
1421.53103394,0.02154199
1423.45984131,0.02064335
1425.38864868,0.02005980
1427.31745605,0.02059274
1429.24626343,0.01879354
1431.17507080,0.01831922
1433.10387817,0.01877902
1435.03268555,0.01693366
1436.96149292,0.01381175
1438.89030029,0.01627533
1440.81910767,0.01692216
1442.74791504,0.01562739
1444.67672241,0.01651076
1446.60552979,0.01491335
1448.53433716,0.01528941
1450.46314453,0.01564115
1452.39195190,0.01607628
1454.32075928,0.01667259
1456.24956665,0.01307531
1458.17837402,0.01376070
1460.10718140,0.01890617
1462.03598877,0.02025297
1463.96479614,0.01985625
1465.89360352,0.02057062
1467.82241089,0.02395014
1469.75121826,0.02570182
1471.68002563,0.02213549
1473.60883301,0.02327379
1475.53764038,0.02685596
1477.46644775,0.02907270
1479.39525513,0.03216159
1481.32406250,0.03228994
1483.25286987,0.03444531
1485.18167725,0.03552852
1487.11048462,0.03453571
1489.03929199,0.03378088
1490.96809937,0.03388146
1492.89690674,0.04062325
1494.82571411,0.03916332
1496.75452148,0.03434540
1498.68332886,0.03947544
1500.61213623,0.04074167
1502.54094360,0.04417516
1504.46975098,0.04117344
1506.39855835,0.02795205
1508.32736572,0.03555495
1510.25617310,0.04293808
1512.18498047,0.04128564
1514.11378784,0.04536275
1516.04259521,0.03983589
1517.97140259,0.04177597
1519.90020996,0.04039091
1521.82901733,0.03375132
1523.75782471,0.04306073
1525.68663208,0.04200678
1527.61543945,0.04172577
1529.54424683,0.04734152
1531.47305420,0.04481035
1533.40186157,0.04013955
1535.33066895,0.04337641
1537.25947632,0.04690500
1539.18828369,0.03131198
1541.11709106,0.03315680
1543.04589844,0.04092278
1544.97470581,0.03905927
1546.90351318,0.04775359
1548.83232056,0.04376853
1550.76112793,0.04562751
1552.68993530,0.04512921
1554.61874268,0.04021927
1556.54755005,0.04359740
1558.47635742,0.02835842
1560.40516479,0.03168365
1562.33397217,0.04799124
1564.26277954,0.04477043
1566.19158691,0.04646315
1568.12039429,0.04543050
1570.04920166,0.03912096
1571.97800903,0.04680656
1573.90681641,0.04743342
1575.83562378,0.03597549
1577.76443115,0.04186540
1579.69323853,0.04829945
1581.62204590,0.04579162
1583.55085327,0.04695936
1585.47966064,0.04627944
1587.40846802,0.04653230
1589.33727539,0.04596116
1591.26608276,0.04613907
1593.19489014,0.04603762
1595.12369751,0.04524563
1597.05250488,0.04593308
1598.98131226,0.04570388
1600.91011963,0.04597020
1602.83892700,0.04502574
1604.76773437,0.04599814
1606.69654175,0.04513486
1608.62534912,0.04507474
1610.55415649,0.04499981
1612.48296387,0.04558113
1614.41177124,0.04617178
1616.34057861,0.03642592
1618.26938599,0.04046817
1620.19819336,0.04806069
1622.12700073,0.04184573
1624.05580811,0.04214425
1625.98461548,0.04472954
1627.91342285,0.04446873
1629.84223022,0.04437640
1631.77103760,0.04826046
1633.69984497,0.04362042
1635.62865234,0.03458227
1637.55745972,0.04183855
1639.48626709,0.04726152
1641.41507446,0.04593328
1643.34388184,0.04745822
1645.27268921,0.04205791
1647.20149658,0.03576906
1649.13030396,0.04681686
1651.05911133,0.04413380
1652.98791870,0.02578540
1654.91672607,0.03765841
1656.84553345,0.04932330
1658.77434082,0.04708717
1660.70314819,0.04837364
1662.63195557,0.04329710
1664.56076294,0.04622534
1666.48957031,0.05025915
1668.41837769,0.04267915
1670.34718506,0.04144442
1672.27599243,0.04811574
1674.20479980,0.04360208
1676.13360718,0.04171459
1678.06241455,0.04912617
1679.99122192,0.04705491
1681.92002930,0.04625632
1683.84883667,0.03609822
1685.77764404,0.03605583
1687.70645142,0.05193188
1689.63525879,0.04389449
1691.56406616,0.04933868
1693.49287354,0.05021141
1695.42168091,0.03452024
1697.35048828,0.04456230
1699.27929565,0.03776702
1701.20810303,0.03361708
1703.13691040,0.04878742
1705.06571777,0.04343587
1706.99452515,0.04430210
1708.92333252,0.04893312
1710.85213989,0.04672081
1712.78094727,0.04767677
1714.70975464,0.04318703
1716.63856201,0.03813558
1718.56736938,0.03749251
1720.49617676,0.04618919
1722.42498413,0.04838175
1724.35379150,0.04425525
1726.28259888,0.04915127
1728.21140625,0.04461713
1730.14021362,0.04493912
1732.06902100,0.04366691
1733.99782837,0.03146223
1735.92663574,0.04127844
1737.85544312,0.04615818
1739.78425049,0.04021722
1741.71305786,0.04469282
1743.64186523,0.04514985
1745.57067261,0.04517104
1747.49947998,0.04543594
1749.42828735,0.04298890
1751.35709473,0.04085169
1753.28590210,0.04633410
1755.21470947,0.04876409
1757.14351685,0.04355522
1759.07232422,0.04902217
1761.00113159,0.04538664
1762.92993896,0.04365819
1764.85874634,0.05123882
1766.78755371,0.04492938
1768.71636108,0.04572613
1770.64516846,0.04520971
1772.57397583,0.03985411
1774.50278320,0.04559083
1776.43159058,0.04845533
1778.36039795,0.04781980
1780.28920532,0.04690485
1782.21801270,0.04752898
1784.14682007,0.04741196
1786.07562744,0.04615998
1788.00443481,0.04938899
1789.93324219,0.04767898
1791.86204956,0.04204193
1793.79085693,0.04450540
1795.71966431,0.04846960
1797.64847168,0.04753490
1799.57727905,0.04664987
1801.50608643,0.04558455
1803.43489380,0.04758755
1805.36370117,0.04895342
1807.29250854,0.04788972
1809.22131592,0.04826991
1811.15012329,0.04661730
1813.07893066,0.04835157
1815.00773804,0.04880428
1816.93654541,0.04797845
1818.86535278,0.04843353
1820.79416016,0.04812243
1822.72296753,0.04892080
1824.65177490,0.04496965
1826.58058228,0.04710183
1828.50938965,0.04726534
1830.43819702,0.04360195
1832.36700439,0.04848071
1834.29581177,0.04812195
1836.22461914,0.04817943
1838.15342651,0.04786349
1840.08223389,0.04814736
1842.01104126,0.04829471
1843.93984863,0.04164732
1845.86865601,0.04508942
1847.79746338,0.04808186
1849.72627075,0.04699474
1851.65507812,0.04850053
1853.58388550,0.04728731
1855.51269287,0.04816164
1857.44150024,0.04762279
1859.37030762,0.04736465
1861.29911499,0.04770665
1863.22792236,0.04710688
1865.15672974,0.04776449
1867.08553711,0.04540876
1869.01434448,0.04334085
1870.94315186,0.04565303
1872.87195923,0.04764351
1874.80076660,0.04678560
1876.72957397,0.04706109
1878.65838135,0.04678095
1880.58718872,0.04660350
1882.51599609,0.04711497
1884.44480347,0.04599912
1886.37361084,0.04693732
1888.30241821,0.04558950
1890.23122559,0.04453006
1892.16003296,0.04660231
1894.08884033,0.04563788
1896.01764771,0.04554943
1897.94645508,0.04615260
1899.87526245,0.04595947
1901.80406982,0.04608775
1903.73287720,0.04562254
1905.66168457,0.04592734
1907.59049194,0.04532722
1909.51929932,0.04498229
1911.44810669,0.04527285
1913.37691406,0.04538363
1915.30572144,0.04579249
1917.23452881,0.04335704
1919.16333618,0.04355118
1921.09214355,0.04551262
1923.02095093,0.04377221
1924.94975830,0.04484554
1926.87856567,0.04534982
1928.80737305,0.04457071
1930.73618042,0.04530029
1932.66498779,0.04447711
1934.59379517,0.04498337
1936.52260254,0.04477172
1938.45140991,0.04476077
1940.38021729,0.04471552
1942.30902466,0.04295225
1944.23783203,0.04389790
1946.16663940,0.04439814
1948.09544678,0.04434424
1950.02425415,0.04465213
1951.95306152,0.04426519
1953.88186890,0.04440803
1955.81067627,0.04404403
1957.73948364,0.04413719
1959.66829102,0.04422387
1961.59709839,0.04394684
1963.52590576,0.04416473
1965.45471313,0.04384466
1967.38352051,0.04322737
1969.31232788,0.04366202
1971.24113525,0.04392234
1973.16994263,0.04352260
1975.09875000,0.04371939
1977.02755737,0.04349969
1978.95636475,0.04360195
1980.88517212,0.04356605
1982.81397949,0.04330296
1984.74278687,0.04344437
1986.67159424,0.04283972
1988.60040161,0.04305944
1990.52920898,0.04265872
1992.45801636,0.04187496
1994.38682373,0.04274272
1996.31563110,0.04288147
1998.24443848,0.04243683
2000.17324585,0.04253307
2002.10205322,0.04253732
2004.03086060,0.04238679
2005.95966797,0.04219822
2007.88847534,0.04201241
2009.81728271,0.04203536
2011.74609009,0.04182892
2013.67489746,0.04179518
2015.60370483,0.04156049
2017.53251221,0.04098754
2019.46131958,0.04146440
2021.39012695,0.04136572
2023.31893433,0.04108015
2025.24774170,0.04121561
2027.17654907,0.04091034
2029.10535645,0.04098392
2031.03416382,0.04079323
2032.96297119,0.04069172
2034.89177856,0.04056245
2036.82058594,0.04034576
2038.74939331,0.04039224
2040.67820068,0.04020699
2042.60700806,0.04018187
2044.53581543,0.04002263
2046.46462280,0.04001274
2048.39343018,0.03987078
2050.32223755,0.03970032
2052.25104492,0.03979910
2054.17985229,0.03958602
2056.10865967,0.03962735
2058.03746704,0.03945804
2059.96627441,0.03924901
2061.89508179,0.03932716
2063.82388916,0.03892868
2065.75269653,0.03879187
2067.68150391,0.03905661
2069.61031128,0.03885607
2071.53911865,0.03863218
2073.46792603,0.03859089
2075.39673340,0.03848683
2077.32554077,0.03846703
2079.25434814,0.03836244
2081.18315552,0.03832714
2083.11196289,0.03818870
2085.04077026,0.03807887
2086.96957764,0.03803687
2088.89838501,0.03791066
2090.82719238,0.03794263
2092.75599976,0.03772542
2094.68480713,0.03773533
2096.61361450,0.03769757
2098.54242187,0.03752336
2100.47122925,0.03756485
2102.40003662,0.03743336
2104.32884399,0.03752156
2106.25765137,0.03734265
2108.18645874,0.03723921
2110.11526611,0.03731471
2112.04407349,0.03714159
2113.97288086,0.03707574
2115.90168823,0.03692548
2117.83049561,0.03694059
2119.75930298,0.03681876
2121.68811035,0.03670747
2123.61691772,0.03674554
2125.54572510,0.03675766
2127.47453247,0.03676610
2129.40333984,0.03651755
2131.33214722,0.03649309
2133.26095459,0.03644337
2135.18976196,0.03641659
2137.11856934,0.03644899
2139.04737671,0.03632989
2140.97618408,0.03628622
2142.90499146,0.03615336
2144.83379883,0.03616169
2146.76260620,0.03612024
2148.69141357,0.03610173
2150.62022095,0.03612479
2152.54902832,0.03604829
2154.47783569,0.03603795
2156.40664307,0.03591324
2158.33545044,0.03591086
2160.26425781,0.03583797
2162.19306519,0.03575318
2164.12187256,0.03586714
2166.05067993,0.03575103
2167.97948730,0.03561794
2169.90829468,0.03570170
2171.83710205,0.03565459
2173.76590942,0.03555675
2175.69471680,0.03558496
2177.62352417,0.03552542
2179.55233154,0.03546125
2181.48113892,0.03536459
2183.40994629,0.03541921
2185.33875366,0.03542489
2187.26756104,0.03525425
2189.19636841,0.03539044
2191.12517578,0.03527513
2193.05398315,0.03507534
2194.98279053,0.03507438
2196.91159790,0.03500880
2198.84040527,0.03511309
2200.76921265,0.03515659
2202.69802002,0.03512274
2204.62682739,0.03508581
2206.55563477,0.03504472
2208.48444214,0.03496658
2210.41324951,0.03486493
2212.34205688,0.03484429
2214.27086426,0.03476052
2216.19967163,0.03472735
2218.12847900,0.03479987
2220.05728638,0.03483010
2221.98609375,0.03471578
2223.91490112,0.03461666
2225.84370850,0.03458358
2227.77251587,0.03461119
2229.70132324,0.03462962
2231.63013062,0.03453797
2233.55893799,0.03458985
2235.48774536,0.03448008
2237.41655273,0.03425925
2239.34536011,0.03424283
2241.27416748,0.03425115
2243.20297485,0.03419459
2245.13178223,0.03408391
2247.06058960,0.03412985
2248.98939697,0.03402739
2250.91820435,0.03391039
2252.84701172,0.03404279
2254.77581909,0.03397681
2256.70462646,0.03395189
2258.63343384,0.03397036
2260.56224121,0.03378353
2262.49104858,0.03372181
2264.41985596,0.03369952
2266.34866333,0.03362281
2268.27747070,0.03374524
2270.20627808,0.03370655
2272.13508545,0.03361490
2274.06389282,0.03371017
2275.99270020,0.03353917
2277.92150757,0.03352160
2279.85031494,0.03357577
2281.77912231,0.03345133
2283.70792969,0.03347167
2285.63673706,0.03333768
2287.56554443,0.03330864
2289.49435181,0.03329241
2291.42315918,0.03310516
2293.35196655,0.03314304
2295.28077393,0.03311453
2297.20958130,0.03301359
2299.13838867,0.03291150
2301.06719604,0.03279073
2302.99600342,0.03272139
2304.92481079,0.03247462
2306.85361816,0.03232471
2308.78242554,0.03219246
2310.71123291,0.03182815
2312.64004028,0.03166682
2314.56884766,0.03151758
2316.49765503,0.03114018
2318.42646240,0.03070660
2320.35526978,0.03026696
2322.28407715,0.02996792
2324.21288452,0.02963203
2326.14169189,0.02927499
2328.07049927,0.02901620
2329.99930664,0.02867982
2331.92811401,0.02850707
2333.85692139,0.02849126
2335.78572876,0.02837348
2337.71453613,0.02824959
2339.64334351,0.02816246
2341.57215088,0.02833352
2343.50095825,0.02878309
2345.42976562,0.02927474
2347.35857300,0.03025140
2349.28738037,0.03105621
2351.21618774,0.03024744
2353.14499512,0.02880201
2355.07380249,0.02793445
2357.00260986,0.02719773
2358.93141724,0.02657760
2360.86022461,0.02631239
2362.78903198,0.02632892
2364.71783936,0.02652033
2366.64664673,0.02671622
2368.57545410,0.02719319
2370.50426147,0.02796058
2372.43306885,0.02860570
2374.36187622,0.02926524
2376.29068359,0.02999709
2378.21949097,0.03059405
2380.14829834,0.03096407
2382.07710571,0.03131178
2384.00591309,0.03161268
2385.93472046,0.03154071
2387.86352783,0.03155946
2389.79233521,0.03160694
2391.72114258,0.03150539
2393.64994995,0.03154890
2395.57875732,0.03138219
2397.50756470,0.03136068
2399.43637207,0.03141160
2401.36517944,0.03114332
2403.29398682,0.03120102
2405.22279419,0.03132641
2407.15160156,0.03121952
2409.08040894,0.03120730
2411.00921631,0.03116111
2412.93802368,0.03106664
2414.86683105,0.03106295
2416.79563843,0.03106209
2418.72444580,0.03102226
2420.65325317,0.03096106
2422.58206055,0.03088405
2424.51086792,0.03093447
2426.43967529,0.03095313
2428.36848267,0.03077014
2430.29729004,0.03073956
2432.22609741,0.03081963
2434.15490479,0.03071799
2436.08371216,0.03061284
2438.01251953,0.03057178
2439.94132690,0.03054810
2441.87013428,0.03051635
2443.79894165,0.03049413
2445.72774902,0.03056413
2447.65655640,0.03049380
2449.58536377,0.03033758
2451.51417114,0.03027708
2453.44297852,0.03025734
2455.37178589,0.03026401
2457.30059326,0.03019489
2459.22940063,0.03021513
2461.15820801,0.03029344
2463.08701538,0.03020160
2465.01582275,0.03009136
2466.94463013,0.03010967
2468.87343750,0.03013831
2470.80224487,0.03003617
2472.73105225,0.02992263
2474.65985962,0.02988173
2476.58866699,0.02987953
2478.51747437,0.02982915
2480.44628174,0.02981085
2482.37508911,0.02980103
2484.30389648,0.02975588
2486.23270386,0.02979348
2488.16151123,0.02972060
2490.09031860,0.02964792
2492.01912598,0.02961276
2493.94793335,0.02959868
2495.87674072,0.02953621
2497.80554810,0.02944442
2499.73435547,0.02951755
2501.66316284,0.02939717
2503.59197021,0.02940231
2505.52077759,0.02934516
2507.44958496,0.02923500
2509.37839233,0.02941104
2511.30719971,0.02922744
2513.23600708,0.02914739
2515.16481445,0.02908407
2517.09362183,0.02905774
2519.02242920,0.02916811
2520.95123657,0.02904239
2522.88004395,0.02915789
2524.80885132,0.02900067
2526.73765869,0.02889304
2528.66646606,0.02899461
2530.59527344,0.02890962
2532.52408081,0.02889408
2534.45288818,0.02876233
2536.38169556,0.02891748
2538.31050293,0.02881278
2540.23931030,0.02860159
2542.16811768,0.02875314
2544.09692505,0.02859008
2546.02573242,0.02866700
2547.95453979,0.02865197
2549.88334717,0.02842590
2551.81215454,0.02854757
2553.74096191,0.02841223
2555.66976929,0.02829118
2557.59857666,0.02840239
2559.52738403,0.02832912
2561.45619141,0.02829221
2563.38499878,0.02828340
2565.31380615,0.02826052
2567.24261353,0.02824915
2569.17142090,0.02813518
2571.10022827,0.02812018
2573.02903564,0.02805226
2574.95784302,0.02799577
2576.88665039,0.02802955
2578.81545776,0.02796043
2580.74426514,0.02788334
2582.67307251,0.02771549
2584.60187988,0.02773282
2586.53068726,0.02773119
2588.45949463,0.02760823
2590.38830200,0.02768303
2592.31710937,0.02762286
2594.24591675,0.02756125
2596.17472412,0.02751643
2598.10353149,0.02748457
2600.03233887,0.02755558
2601.96114624,0.02748869
2603.88995361,0.02732947
2605.81876099,0.02732469
2607.74756836,0.02737438
2609.67637573,0.02722919
2611.60518311,0.02720434
2613.53399048,0.02709460
2615.46279785,0.02707887
2617.39160522,0.02726069
2619.32041260,0.02705724
2621.24921997,0.02705077
2623.17802734,0.02702151
2625.10683472,0.02679425
2627.03564209,0.02694402
2628.96444946,0.02696306
2630.89325684,0.02670693
2632.82206421,0.02662662
2634.75087158,0.02669222
2636.67967895,0.02671030
2638.60848633,0.02671013
2640.53729370,0.02659724
2642.46610107,0.02654518
2644.39490845,0.02651141
2646.32371582,0.02637652
2648.25252319,0.02635878
2650.18133057,0.02630974
2652.11013794,0.02633068
2654.03894531,0.02623016
2655.96775269,0.02615625
2657.89656006,0.02623742
2659.82536743,0.02603515
2661.75417480,0.02599704
2663.68298218,0.02596976
2665.61178955,0.02580906
2667.54059692,0.02588830
2669.46940430,0.02591294
2671.39821167,0.02577220
2673.32701904,0.02567298
2675.25582642,0.02571708
2677.18463379,0.02565462
2679.11344116,0.02560328
2681.04224854,0.02571431
2682.97105591,0.02555586
2684.89986328,0.02543462
2686.82867065,0.02551588
2688.75747803,0.02531120
2690.68628540,0.02519319
2692.61509277,0.02532372
2694.54390015,0.02532644
2696.47270752,0.02519783
2698.40151489,0.02513243
2700.33032227,0.02514367
2702.25912964,0.02496053
2704.18793701,0.02495895
2706.11674438,0.02486178
2708.04555176,0.02469590
2709.97435913,0.02500375
2711.90316650,0.02483117
2713.83197388,0.02468312
2715.76078125,0.02475147
2717.68958862,0.02452558
2719.61839600,0.02459846
2721.54720337,0.02456770
2723.47601074,0.02445637
2725.40481812,0.02435214
2727.33362549,0.02429122
2729.26243286,0.02432011
2731.19124023,0.02424972
2733.12004761,0.02421749
2735.04885498,0.02400512
2736.97766235,0.02403823
2738.90646973,0.02412949
2740.83527710,0.02400225
2742.76408447,0.02394963
2744.69289185,0.02384669
2746.62169922,0.02382421
2748.55050659,0.02373220
2750.47931396,0.02363583
2752.40812134,0.02359415
2754.33692871,0.02358443
2756.26573608,0.02350691
2758.19454346,0.02340174
2760.12335083,0.02350356
2762.05215820,0.02333648
2763.98096558,0.02316333
2765.90977295,0.02324289
2767.83858032,0.02321790
2769.76738770,0.02312851
2771.69619507,0.02304953
2773.62500244,0.02288727
2775.55380981,0.02282308
2777.48261719,0.02291951
2779.41142456,0.02271527
2781.34023193,0.02265278
2783.26903931,0.02273302
2785.19784668,0.02261058
2787.12665405,0.02252479
2789.05546143,0.02237646
2790.98426880,0.02243530
2792.91307617,0.02238877
2794.84188354,0.02229785
2796.77069092,0.02234065
2798.69949829,0.02209101
2800.62830566,0.02205269
2802.55711304,0.02210702
2804.48592041,0.02195444
2806.41472778,0.02180194
2808.34353516,0.02172493
2810.27234253,0.02174026
2812.20114990,0.02164306
2814.12995728,0.02151145
2816.05876465,0.02145315
2817.98757202,0.02147476
2819.91637939,0.02144254
2821.84518677,0.02129646
2823.77399414,0.02124809
2825.70280151,0.02115853
2827.63160889,0.02104929
2829.56041626,0.02108540
2831.48922363,0.02090359
2833.41803101,0.02069078
2835.34683838,0.02075157
2837.27564575,0.02063857
2839.20445312,0.02054738
2841.13326050,0.02054281
2843.06206787,0.02033994
2844.99087524,0.02021284
2846.91968262,0.02009320
2848.84848999,0.01991638
2850.77729736,0.01989331
2852.70610474,0.02003566
2854.63491211,0.02003558
2856.56371948,0.01984897
2858.49252686,0.01978683
2860.42133423,0.01978977
2862.35014160,0.01974433
2864.27894897,0.01964368
2866.20775635,0.01958172
2868.13656372,0.01949370
2870.06537109,0.01939835
2871.99417847,0.01936569
2873.92298584,0.01920900
2875.85179321,0.01923853
2877.78060059,0.01927294
2879.70940796,0.01909109
2881.63821533,0.01910709
2883.56702270,0.01896853
2885.49583008,0.01872508
2887.42463745,0.01877221
2889.35344482,0.01873541
2891.28225220,0.01854912
2893.21105957,0.01847894
2895.13986694,0.01846178
2897.06867432,0.01834274
2898.99748169,0.01823002
2900.92628906,0.01815117
2902.85509644,0.01811529
2904.78390381,0.01806503
2906.71271118,0.01784194
2908.64151855,0.01773650
2910.57032593,0.01771753
2912.49913330,0.01766145
2914.42794067,0.01760514
2916.35674805,0.01751154
2918.28555542,0.01749891
2920.21436279,0.01741192
2922.14317017,0.01739631
2924.07197754,0.01731333
2926.00078491,0.01721399
2927.92959229,0.01736162
2929.85839966,0.01726953
2931.78720703,0.01722216
2933.71601440,0.01722375
2935.64482178,0.01716254
2937.57362915,0.01715503
2939.50243652,0.01704118
2941.43124390,0.01705669
2943.36005127,0.01693626
2945.28885864,0.01680399
2947.21766602,0.01668359
2949.14647339,0.01660274
2951.07528076,0.01663731
2953.00408813,0.01636933
2954.93289551,0.01635029
2956.86170288,0.01634767
2958.79051025,0.01618233
2960.71931763,0.01617776
2962.64812500,0.01602704
2964.57693237,0.01597488
2966.50573975,0.01595287
2968.43454712,0.01591470
2970.36335449,0.01591355
2972.29216187,0.01583476
2974.22096924,0.01577702
2976.14977661,0.01571974
2978.07858398,0.01567734
2980.00739136,0.01563249
2981.93619873,0.01557802
2983.86500610,0.01548982
2985.79381348,0.01547985
2987.72262085,0.01536787
2989.65142822,0.01515249
2991.58023560,0.01518592
2993.50904297,0.01518366
2995.43785034,0.01505112
2997.36665771,0.01498404
2999.29546509,0.01500951
3001.22427246,0.01492958
3003.15307983,0.01469106
3005.08188721,0.01457002
3007.01069458,0.01454225
3008.93950195,0.01444391
3010.86830933,0.01430715
3012.79711670,0.01430081
3014.72592407,0.01419580
3016.65473145,0.01400749
3018.58353882,0.01403977
3020.51234619,0.01405075
3022.44115356,0.01400563
3024.36996094,0.01390147
3026.29876831,0.01376448
3028.22757568,0.01370765
3030.15638306,0.01356470
3032.08519043,0.01345748
3034.01399780,0.01337259
3035.94280518,0.01332117
3037.87161255,0.01336544
3039.80041992,0.01320703
3041.72922729,0.01315254
3043.65803467,0.01316833
3045.58684204,0.01302542
3047.51564941,0.01301995
3049.44445679,0.01286375
3051.37326416,0.01280110
3053.30207153,0.01281449
3055.23087891,0.01261195
3057.15968628,0.01260290
3059.08849365,0.01246300
3061.01730103,0.01237911
3062.94610840,0.01241823
3064.87491577,0.01224925
3066.80372314,0.01226073
3068.73253052,0.01227441
3070.66133789,0.01217043
3072.59014526,0.01208097
3074.51895264,0.01210137
3076.44776001,0.01212680
3078.37656738,0.01184858
3080.30537476,0.01166472
3082.23418213,0.01171786
3084.16298950,0.01164951
3086.09179687,0.01166633
3088.02060425,0.01172464
3089.94941162,0.01155853
3091.87821899,0.01156436
3093.80702637,0.01146904
3095.73583374,0.01123512
3097.66464111,0.01137398
3099.59344849,0.01132495
3101.52225586,0.01109960
3103.45106323,0.01110242
3105.37987061,0.01113283
3107.30867798,0.01104205
3109.23748535,0.01097064
3111.16629272,0.01100773
3113.09510010,0.01092112
3115.02390747,0.01086654
3116.95271484,0.01074748
3118.88152222,0.01065015
3120.81032959,0.01078549
3122.73913696,0.01062156
3124.66794434,0.01053650
3126.59675171,0.01061362
3128.52555908,0.01040091
3130.45436645,0.01037316
3132.38317383,0.01035695
3134.31198120,0.01030371
3136.24078857,0.01033065
3138.16959595,0.01020442
3140.09840332,0.01030750
3142.02721069,0.01022961
3143.95601807,0.01006556
3145.88482544,0.01015298
3147.81363281,0.01004630
3149.74244019,0.01007704
3151.67124756,0.00997541
3153.60005493,0.00986242
3155.52886230,0.00989952
3157.45766968,0.00980067
3159.38647705,0.00990651
3161.31528442,0.00977357
3163.24409180,0.00961891
3165.17289917,0.00964571
3167.10170654,0.00961461
3169.03051392,0.00970470
3170.95932129,0.00968566
3172.88812866,0.00958936
3174.81693604,0.00954374
3176.74574341,0.00958506
3178.67455078,0.00945316
3180.60335815,0.00944495
3182.53216553,0.00956360
3184.46097290,0.00936514
3186.38978027,0.00935749
3188.31858765,0.00933223
3190.24739502,0.00934839
3192.17620239,0.00946166
3194.10500977,0.00934625
3196.03381714,0.00932639
3197.96262451,0.00934220
3199.89143188,0.00934214
3201.82023926,0.00927519
3203.74904663,0.00924762
3205.67785400,0.00928131
3207.60666138,0.00927126
3209.53546875,0.00926217
3211.46427612,0.00925483
3213.39308350,0.00924214
3215.32189087,0.00908565
3217.25069824,0.00920334
3219.17950562,0.00929408
3221.10831299,0.00918647
3223.03712036,0.00933755
3224.96592773,0.00922112
3226.89473511,0.00913493
3228.82354248,0.00922788
3230.75234985,0.00914075
3232.68115723,0.00917134
3234.60996460,0.00914350
3236.53877197,0.00914166
3238.46757935,0.00920568
3240.39638672,0.00915805
3242.32519409,0.00914882
3244.25400146,0.00910800
3246.18280884,0.00918801
3248.11161621,0.00919866
3250.04042358,0.00914489
3251.96923096,0.00928007
3253.89803833,0.00920099
3255.82684570,0.00923331
3257.75565308,0.00927857
3259.68446045,0.00912012
3261.61326782,0.00915993
3263.54207520,0.00913602
3265.47088257,0.00920918
3267.39968994,0.00921116
3269.32849731,0.00912906
3271.25730469,0.00924289
3273.18611206,0.00919890
3275.11491943,0.00924760
3277.04372681,0.00926634
3278.97253418,0.00924485
3280.90134155,0.00935929
3282.83014893,0.00927027
3284.75895630,0.00918452
3286.68776367,0.00914687
3288.61657104,0.00915358
3290.54537842,0.00930307
3292.47418579,0.00929638
3294.40299316,0.00919513
3296.33180054,0.00925904
3298.26060791,0.00938182
3300.18941528,0.00936597
3302.11822266,0.00930047
3304.04703003,0.00935362
3305.97583740,0.00927577
3307.90464478,0.00922993
3309.83345215,0.00932037
3311.76225952,0.00925369
3313.69106689,0.00933257
3315.61987427,0.00927746
3317.54868164,0.00917139
3319.47748901,0.00931532
3321.40629639,0.00931646
3323.33510376,0.00934522
3325.26391113,0.00934817
3327.19271851,0.00936976
3329.12152588,0.00935319
3331.05033325,0.00932485
3332.97914062,0.00940265
3334.90794800,0.00928912
3336.83675537,0.00929100
3338.76556274,0.00941379
3340.69437012,0.00946736
3342.62317749,0.00937576
3344.55198486,0.00934926
3346.48079224,0.00943968
3348.40959961,0.00945413
3350.33840698,0.00950352
3352.26721436,0.00942659
3354.19602173,0.00947826
3356.12482910,0.00944886
3358.05363647,0.00935790
3359.98244385,0.00945732
3361.91125122,0.00946721
3363.84005859,0.00952745
3365.76886597,0.00946497
3367.69767334,0.00942149
3369.62648071,0.00947459
3371.55528809,0.00957054
3373.48409546,0.00959439
3375.41290283,0.00953325
3377.34171020,0.00958407
3379.27051758,0.00956322
3381.19932495,0.00969749
3383.12813232,0.00966118
3385.05693970,0.00956913
3386.98574707,0.00963550
3388.91455444,0.00962791
3390.84336182,0.00969760
3392.77216919,0.00962275
3394.70097656,0.00962461
3396.62978394,0.00966733
3398.55859131,0.00965706
3400.48739868,0.00963914
3402.41620605,0.00968172
3404.34501343,0.00971991
3406.27382080,0.00967040
3408.20262817,0.00979632
3410.13143555,0.00976695
3412.06024292,0.00977589
3413.98905029,0.00974208
3415.91785767,0.00980504
3417.84666504,0.00992783
3419.77547241,0.00977619
3421.70427979,0.00984083
3423.63308716,0.00982116
3425.56189453,0.00997871
3427.49070190,0.00993303
3429.41950928,0.00981745
3431.34831665,0.01003610
3433.27712402,0.00990081
3435.20593140,0.00997145
3437.13473877,0.00990421
3439.06354614,0.00985832
3440.99235352,0.01001474
3442.92116089,0.00996206
3444.84996826,0.00993804
3446.77877563,0.00982506
3448.70758301,0.00996868
3450.63639038,0.01004730
3452.56519775,0.01000895
3454.49400513,0.01004364
3456.42281250,0.01008275
3458.35161987,0.01008228
3460.28042725,0.00997342
3462.20923462,0.01013550
3464.13804199,0.01018712
3466.06684937,0.01013415
3467.99565674,0.01016038
3469.92446411,0.01018081
3471.85327148,0.01017009
3473.78207886,0.01010328
3475.71088623,0.01018252
3477.63969360,0.01032125
3479.56850098,0.01031701
3481.49730835,0.01010976
3483.42611572,0.01022263
3485.35492310,0.01035339
3487.28373047,0.01027455
3489.21253784,0.01028964
3491.14134521,0.01026947
3493.07015259,0.01042056
3494.99895996,0.01041311
3496.92776733,0.01031277
3498.85657471,0.01040401
3500.78538208,0.01043831
3502.71418945,0.01018980
3504.64299683,0.01017153
3506.57180420,0.01044070
3508.50061157,0.01033835
3510.42941895,0.01043678
3512.35822632,0.01049617
3514.28703369,0.01052496
3516.21584106,0.01062566
3518.14464844,0.01046325
3520.07345581,0.01059839
3522.00226318,0.01048065
3523.93107056,0.01023359
3525.85987793,0.01037070
3527.78868530,0.01049505
3529.71749268,0.01056752
3531.64630005,0.01067074
3533.57510742,0.01078117
3535.50391479,0.01077437
3537.43272217,0.01070264
3539.36152954,0.01078605
3541.29033691,0.01084989
3543.21914429,0.01066869
3545.14795166,0.01045548
3547.07675903,0.01026459
3549.00556641,0.01068328
3550.93437378,0.01082533
3552.86318115,0.01042365
3554.79198853,0.01086707
3556.72079590,0.01093570
3558.64960327,0.01079326
3560.57841064,0.01074959
3562.50721802,0.01074222
3564.43602539,0.01090137
3566.36483276,0.00991103
3568.29364014,0.00962239
3570.22244751,0.01062573
3572.15125488,0.01101496
3574.08006226,0.01092485
3576.00886963,0.01092082
3577.93767700,0.01083421
3579.86648437,0.01088816
3581.79529175,0.01099158
3583.72409912,0.01095160
3585.65290649,0.01073027
3587.58171387,0.00964434
3589.51052124,0.01003886
3591.43932861,0.01126698
3593.36813599,0.01081029
3595.29694336,0.01062617
3597.22575073,0.01085361
3599.15455811,0.01095762
3601.08336548,0.01081401
3603.01217285,0.01087267
3604.94098022,0.01122695
3606.86978760,0.01084563
3608.79859497,0.01007556
3610.72740234,0.01030270
3612.65620972,0.01066914
3614.58501709,0.01035036
3616.51382446,0.01118703
3618.44263184,0.01014670
3620.37143921,0.00978555
3622.30024658,0.01132200
3624.22905395,0.01094528
3626.15786133,0.01167074
3628.08666870,0.00951895
3630.01547607,0.00856327
3631.94428345,0.01132841
3633.87309082,0.01095253
3635.80189819,0.01131867
3637.73070557,0.01147792
3639.65951294,0.01135195
3641.58832031,0.01153841
3643.51712769,0.01134022
3645.44593506,0.01155376
3647.37474243,0.01012554
3649.30354980,0.00913734
3651.23235718,0.00930061
3653.16116455,0.01154827
3655.08997192,0.01140406
3657.01877930,0.01001668
3658.94758667,0.01186225
3660.87639404,0.01154947
3662.80520142,0.01179747
3664.73400879,0.01179776
3666.66281616,0.01173756
3668.59162354,0.01125259
3670.52043091,0.00892092
3672.44923828,0.01133606
3674.37804565,0.01061654
3676.30685303,0.00848060
3678.23566040,0.01114399
3680.16446777,0.01154386
3682.09327515,0.01159450
3684.02208252,0.01204335
3685.95088989,0.01180890
3687.87969727,0.01043203
3689.80850464,0.00957109
3691.73731201,0.01106233
3693.66611938,0.01153000
3695.59492676,0.01194870
3697.52373413,0.01188318
3699.45254150,0.01175359
3701.38134888,0.01139104
3703.31015625,0.01097871
3705.23896362,0.01228095
3707.16777100,0.01164567
3709.09657837,0.01125113
3711.02538574,0.01041854
3712.95419312,0.00970653
3714.88300049,0.01172078
3716.81180786,0.01154822
3718.74061523,0.01159697
3720.66942261,0.01141274
3722.59822998,0.01093601
3724.52703735,0.01134994
3726.45584473,0.01051056
3728.38465210,0.01153017
3730.31345947,0.01137933
3732.24226685,0.01018974
3734.17107422,0.00983219
3736.09988159,0.00936251
3738.02868896,0.01009341
3739.95749634,0.01109843
3741.88630371,0.01172303
3743.81511108,0.00873133
3745.74391846,0.00798746
3747.67272583,0.01091331
3749.60153320,0.00918124
3751.53034058,0.00826296
3753.45914795,0.00993319
3755.38795532,0.01084842
3757.31676270,0.01121652
3759.24557007,0.01019075
3761.17437744,0.01060373
3763.10318481,0.01148701
3765.03199219,0.01053211
3766.96079956,0.01074334
3768.88960693,0.01066710
3770.81841431,0.00994929
3772.74722168,0.01103273
3774.67602905,0.01113480
3776.60483643,0.01101238
3778.53364380,0.01071598
3780.46245117,0.01021857
3782.39125854,0.01108776
3784.32006592,0.01082801
3786.24887329,0.01067472
3788.17768066,0.01094221
3790.10648804,0.01084752
3792.03529541,0.01074415
3793.96410278,0.01093586
3795.89291016,0.01019440
3797.82171753,0.01002897
3799.75052490,0.01072338
3801.67933228,0.00812251
3803.60813965,0.00975929
3805.53694702,0.01083238
3807.46575439,0.00844787
3809.39456177,0.01063984
3811.32336914,0.01045405
3813.25217651,0.01087055
3815.18098389,0.00966906
3817.10979126,0.00821253
3819.03859863,0.01081527
3820.96740601,0.00834108
3822.89621338,0.00893389
3824.82502075,0.01081748
3826.75382812,0.00950571
3828.68263550,0.01034891
3830.61144287,0.00994991
3832.54025024,0.00954705
3834.46905762,0.00978568
3836.39786499,0.00929773
3838.32667236,0.00822556
3840.25547974,0.00896440
3842.18428711,0.00974741
3844.11309448,0.00927375
3846.04190186,0.01023170
3847.97070923,0.00999176
3849.89951660,0.01003443
3851.82832397,0.00885634
3853.75713135,0.00621485
3855.68593872,0.00762248
3857.61474609,0.00993441
3859.54355347,0.00972211
3861.47236084,0.00959004
3863.40116821,0.00925478
3865.32997559,0.00846117
3867.25878296,0.00979847
3869.18759033,0.00876675
3871.11639770,0.00791047
3873.04520508,0.00979648
3874.97401245,0.00875978
3876.90281982,0.00964988
3878.83162720,0.00992286
3880.76043457,0.00812853
3882.68924194,0.00964562
3884.61804932,0.00894976
3886.54685669,0.00806959
3888.47566406,0.00973433
3890.40447144,0.00912208
3892.33327881,0.00846376
3894.26208618,0.00941043
3896.19089355,0.00967146
3898.11970093,0.00915467
3900.04850830,0.00837793
3901.97731567,0.00828999
3903.90612305,0.00826150
3905.83493042,0.00833103
3907.76373779,0.00936908
3909.69254517,0.00936521
3911.62135254,0.00923306
3913.55015991,0.00947088
3915.47896728,0.00907196
3917.40777466,0.00873925
3919.33658203,0.00864989
3921.26538940,0.00914377
3923.19419678,0.00911769
3925.12300415,0.00886991
3927.05181152,0.00902369
3928.98061890,0.00907087
3930.90942627,0.00888223
3932.83823364,0.00852981
3934.76704102,0.00896290
3936.69584839,0.00912031
3938.62465576,0.00902248
3940.55346313,0.00903410
3942.48227051,0.00860757
3944.41107788,0.00875789
3946.33988525,0.00889435
3948.26869263,0.00859812
3950.19750000,0.00868893
3952.12630737,0.00888591
3954.05511475,0.00880194
3955.98392212,0.00878915
3957.91272949,0.00883094
3959.84153687,0.00883671
3961.77034424,0.00872900
3963.69915161,0.00865535
3965.62795898,0.00876009
3967.55676636,0.00865795
3969.48557373,0.00868431
3971.41438110,0.00859294
3973.34318848,0.00853622
3975.27199585,0.00863141
3977.20080322,0.00852033
3979.12961060,0.00854024
3981.05841797,0.00852833
3982.98722534,0.00861692
3984.91603271,0.00852145
3986.84484009,0.00848714
3988.77364746,0.00850376
3990.70245483,0.00832924
3992.63126221,0.00843089
3994.56006958,0.00838560
3996.48887695,0.00835727
3998.41768433,0.00830946
4000.34649170,0.00833338
4002.27529907,0.00831980
4004.20410645,0.00822484
4006.13291382,0.00830846
4008.06172119,0.00826564
4009.99052856,0.00828994
4011.91933594,0.00815397
4013.84814331,0.00827390
4015.77695068,0.00828611
4017.70575806,0.00813958
4019.63456543,0.00822545
4021.56337280,0.00807729
4023.49218018,0.00820685
4025.42098755,0.00805113
4027.34979492,0.00796314
4029.27860229,0.00810029
4031.20740967,0.00803130
4033.13621704,0.00809624
4035.06502441,0.00799766
4036.99383179,0.00803324
4038.92263916,0.00794759
4040.85144653,0.00797275
4042.78025391,0.00799252
4044.70906128,0.00785124
4046.63786865,0.00793301
4048.56667603,0.00785709
4050.49548340,0.00791159
4052.42429077,0.00783281
4054.35309814,0.00776595
4056.28190552,0.00783266
4058.21071289,0.00775248
4060.13952026,0.00773990
4062.06832764,0.00776644
4063.99713501,0.00778725
4065.92594238,0.00770353
4067.85474976,0.00775429
4069.78355713,0.00766595
4071.71236450,0.00752875
4073.64117187,0.00758664
4075.56997925,0.00761767
4077.49878662,0.00757342
4079.42759399,0.00750467
4081.35640137,0.00756246
4083.28520874,0.00748027
4085.21401611,0.00754802
4087.14282349,0.00753978
4089.07163086,0.00746133
4091.00043823,0.00752081
4092.92924561,0.00736197
4094.85805298,0.00740222
4096.78686035,0.00743686
4098.71566772,0.00742934
4100.64447510,0.00739066
4102.57328247,0.00740070
4104.50208984,0.00741634
4106.43089722,0.00730721
4108.35970459,0.00737561
4110.28851196,0.00723911
4112.21731934,0.00724767
4114.14612671,0.00725446
4116.07493408,0.00719531
4118.00374145,0.00726132
4119.93254883,0.00717654
4121.86135620,0.00725122
4123.79016357,0.00718556
4125.71897095,0.00717371
4127.64777832,0.00719790
4129.57658569,0.00714732
4131.50539307,0.00717249
4133.43420044,0.00708255
4135.36300781,0.00707241
4137.29181519,0.00707057
4139.22062256,0.00712623
4141.14942993,0.00704660
4143.07823730,0.00696337
4145.00704468,0.00699405
4146.93585205,0.00694774
4148.86465942,0.00696864
4150.79346680,0.00696741
4152.72227417,0.00695979
4154.65108154,0.00683751
4156.57988892,0.00682665
4158.50869629,0.00685031
4160.43750366,0.00682055
4162.36631103,0.00688448
4164.29511841,0.00687958
4166.22392578,0.00686876
4168.15273315,0.00673309
4170.08154053,0.00678407
4172.01034790,0.00679289
4173.93915527,0.00668581
4175.86796265,0.00676808
4177.79677002,0.00665671
4179.72557739,0.00666235
4181.65438477,0.00673820
4183.58319214,0.00668925
4185.51199951,0.00667540
4187.44080688,0.00663268
4189.36961426,0.00659876
4191.29842163,0.00659425
4193.22722900,0.00658070
4195.15603638,0.00651504
4197.08484375,0.00652621
4199.01365112,0.00654667
4200.94245850,0.00653364
4202.87126587,0.00648816
4204.80007324,0.00644745
4206.72888062,0.00651256
4208.65768799,0.00649925
4210.58649536,0.00638690
4212.51530273,0.00638100
4214.44411011,0.00643058
4216.37291748,0.00637098
4218.30172485,0.00639077
4220.23053223,0.00632011
4222.15933960,0.00624417
4224.08814697,0.00635725
4226.01695435,0.00632192
4227.94576172,0.00632544
4229.87456909,0.00626451
4231.80337646,0.00618236
4233.73218384,0.00622931
4235.66099121,0.00619260
4237.58979858,0.00624758
4239.51860596,0.00626476
4241.44741333,0.00616668
4243.37622070,0.00615042
4245.30502808,0.00615446
4247.23383545,0.00609140
4249.16264282,0.00611194
4251.09145020,0.00612934
4253.02025757,0.00609940
4254.94906494,0.00610564
4256.87787231,0.00606174
4258.80667969,0.00610809
4260.73548706,0.00602347
4262.66429443,0.00594405
4264.59310181,0.00601655
4266.52190918,0.00593413
4268.45071655,0.00595430
4270.37952393,0.00597015
4272.30833130,0.00589164
4274.23713867,0.00593182
4276.16594604,0.00590093
4278.09475342,0.00585444
4280.02356079,0.00593671
4281.95236816,0.00592137
4283.88117554,0.00586192
4285.80998291,0.00584193
4287.73879028,0.00584748
4289.66759766,0.00589359
4291.59640503,0.00574549
4293.52521240,0.00572616
4295.45401978,0.00582019
4297.38282715,0.00569942
4299.31163452,0.00564936
4301.24044189,0.00568791
4303.16924927,0.00572726
4305.09805664,0.00574728
4307.02686401,0.00572032
4308.95567139,0.00563723
4310.88447876,0.00562361
4312.81328613,0.00562942
4314.74209351,0.00566290
4316.67090088,0.00570572
4318.59970825,0.00555646
4320.52851562,0.00555129
4322.45732300,0.00555882
4324.38613037,0.00550904
4326.31493774,0.00548301
4328.24374512,0.00546814
4330.17255249,0.00554156
4332.10135986,0.00543053
4334.03016724,0.00541045
4335.95897461,0.00544715
4337.88778198,0.00546948
4339.81658936,0.00547235
4341.74539673,0.00534871
4343.67420410,0.00531968
4345.60301147,0.00529087
4347.53181885,0.00531947
4349.46062622,0.00530648
4351.38943359,0.00533235
4353.31824097,0.00531075
4355.24704834,0.00526928
4357.17585571,0.00534050
4359.10466309,0.00523724
4361.03347046,0.00524217
4362.96227783,0.00519680
4364.89108520,0.00523779
4366.81989258,0.00529747
4368.74869995,0.00514940
4370.67750732,0.00519271
4372.60631470,0.00517917
4374.53512207,0.00524409
4376.46392944,0.00521229
4378.39273682,0.00504521
4380.32154419,0.00514285
4382.25035156,0.00519371
4384.17915894,0.00510553
4386.10796631,0.00506980
4388.03677368,0.00514234
4389.96558105,0.00512181
4391.89438843,0.00506850
4393.82319580,0.00510633
4395.75200317,0.00512770
4397.68081055,0.00502622
4399.60961792,0.00500007
4401.53842529,0.00503012
4403.46723267,0.00494395
4405.39604004,0.00502580
4407.32484741,0.00500842
4409.25365478,0.00494369
4411.18246216,0.00492813
4413.11126953,0.00490496
4415.04007690,0.00490667
4416.96888428,0.00478641
4418.89769165,0.00488012
4420.82649902,0.00488542
4422.75530640,0.00486634
4424.68411377,0.00486785
4426.61292114,0.00478811
4428.54172852,0.00488192
4430.47053589,0.00476957
4432.39934326,0.00480370
4434.32815063,0.00484104
4436.25695801,0.00469383
4438.18576538,0.00473828
4440.11457275,0.00474951
4442.04338013,0.00472339
4443.97218750,0.00466908
4445.90099487,0.00467610
4447.82980225,0.00469376
4449.75860962,0.00466965
4451.68741699,0.00460681
4453.61622437,0.00455089
4455.54503174,0.00458422
4457.47383911,0.00458556
4459.40264648,0.00456724
4461.33145386,0.00449288
4463.26026123,0.00454440
4465.18906860,0.00453375
4467.11787598,0.00447528
4469.04668335,0.00457661
4470.97549072,0.00452379
4472.90429810,0.00451343
4474.83310547,0.00452282
4476.76191284,0.00448424
4478.69072021,0.00450918
4480.61952759,0.00446399
4482.54833496,0.00449230
4484.47714233,0.00454152
4486.40594971,0.00446392
4488.33475708,0.00445257
4490.26356445,0.00441242
4492.19237183,0.00431647
4494.12117920,0.00437305
4496.04998657,0.00436279
4497.97879395,0.00436036
4499.90760132,0.00432024
4501.83640869,0.00425756
4503.76521606,0.00434853
4505.69402344,0.00431006
4507.62283081,0.00434662
4509.55163818,0.00436518
4511.48044556,0.00431893
4513.40925293,0.00429265
4515.33806030,0.00418036
4517.26686768,0.00425083
4519.19567505,0.00425342
4521.12448242,0.00418325
4523.05328979,0.00424505
4524.98209717,0.00425535
4526.91090454,0.00420236
4528.83971191,0.00420334
4530.76851929,0.00418553
4532.69732666,0.00416079
4534.62613403,0.00420842
4536.55494141,0.00414261
4538.48374878,0.00412615
4540.41255615,0.00413203
4542.34136353,0.00411404
4544.27017090,0.00410844
4546.19897827,0.00407741
4548.12778564,0.00410751
4550.05659302,0.00401114
4551.98540039,0.00402115
4553.91420776,0.00407600
4555.84301514,0.00403558
4557.77182251,0.00400323
4559.70062988,0.00395839
4561.62943726,0.00396601
4563.55824463,0.00389592
4565.48705200,0.00398608
4567.41585937,0.00401858
4569.34466675,0.00388225
4571.27347412,0.00391171
4573.20228149,0.00399740
4575.13108887,0.00400673
4577.05989624,0.00391245
4578.98870361,0.00392903
4580.91751099,0.00384799
4582.84631836,0.00381310
4584.77512573,0.00392189
4586.70393311,0.00384907
4588.63274048,0.00383650
4590.56154785,0.00382338
4592.49035522,0.00383991
4594.41916260,0.00382948
4596.34796997,0.00378763
4598.27677734,0.00382753
4600.20558472,0.00374466
4602.13439209,0.00376463
4604.06319946,0.00383225
4605.99200684,0.00375015
4607.92081421,0.00368160
4609.84962158,0.00372311
4611.77842895,0.00378620
4613.70723633,0.00374778
4615.63604370,0.00369615
4617.56485107,0.00370213
4619.49365845,0.00370057
4621.42246582,0.00366451
4623.35127319,0.00363103
4625.28008057,0.00364893
4627.20888794,0.00366603
4629.13769531,0.00364906
4631.06650269,0.00367454
4632.99531006,0.00360665
4634.92411743,0.00362778
4636.85292480,0.00366277
4638.78173218,0.00353365
4640.71053955,0.00361033
4642.63934692,0.00354812
4644.56815430,0.00348445
4646.49696167,0.00356455
4648.42576904,0.00353446
4650.35457642,0.00356273
4652.28338379,0.00345462
4654.21219116,0.00344087
4656.14099853,0.00345516
4658.06980591,0.00344168
4659.99861328,0.00348878
4661.92742065,0.00348600
4663.85622803,0.00354899
4665.78503540,0.00342591
4667.71384277,0.00343062
4669.64265015,0.00350056
4671.57145752,0.00346244
4673.50026489,0.00350234
4675.42907227,0.00343795
4677.35787964,0.00343863
4679.28668701,0.00340574
4681.21549438,0.00335237
4683.14430176,0.00333689
4685.07310913,0.00329895
4687.00191650,0.00333573
4688.93072388,0.00334146
4690.85953125,0.00330040
4692.78833862,0.00329374
4694.71714600,0.00326008
4696.64595337,0.00318865
4698.57476074,0.00330667
4700.50356812,0.00334913
4702.43237549,0.00326051
4704.36118286,0.00320331
4706.28999023,0.00326018
4708.21879761,0.00338198
4710.14760498,0.00320435
4712.07641235,0.00326981
4714.00521973,0.00336143
4715.93402710,0.00324033
4717.86283447,0.00328431
4719.79164185,0.00314573
4721.72044922,0.00314415
4723.64925659,0.00319669
4725.57806396,0.00312176
4727.50687134,0.00315557
4729.43567871,0.00311673
4731.36448608,0.00308592
4733.29329346,0.00312132
4735.22210083,0.00311628
4737.15090820,0.00309644
4739.07971558,0.00309404
4741.00852295,0.00306828
4742.93733032,0.00312541
4744.86613770,0.00309009
4746.79494507,0.00306917
4748.72375244,0.00310772
4750.65255981,0.00301172
4752.58136719,0.00311085
4754.51017456,0.00306642
4756.43898193,0.00297555
4758.36778931,0.00302843
4760.29659668,0.00297030
4762.22540405,0.00298817
4764.15421143,0.00298900
4766.08301880,0.00302199
4768.01182617,0.00296347
4769.94063354,0.00292256
4771.86944092,0.00297501
4773.79824829,0.00292204
4775.72705566,0.00291810
4777.65586304,0.00294242
4779.58467041,0.00298719
4781.51347778,0.00292828
4783.44228516,0.00293968
4785.37109253,0.00294781
4787.29989990,0.00283955
4789.22870728,0.00282456
4791.15751465,0.00279517
4793.08632202,0.00288914
4795.01512939,0.00290621
4796.94393677,0.00284096
4798.87274414,0.00283438
4800.80155151,0.00281216
4802.73035889,0.00283078
4804.65916626,0.00279887
4806.58797363,0.00280082
4808.51678101,0.00277921
4810.44558838,0.00281070
4812.37439575,0.00282225
4814.30320312,0.00280864
4816.23201050,0.00286246
4818.16081787,0.00274389
4820.08962524,0.00269915
4822.01843262,0.00275278
4823.94723999,0.00277687
4825.87604736,0.00272029
4827.80485474,0.00265787
4829.73366211,0.00270060
4831.66246948,0.00268988
4833.59127686,0.00270764
4835.52008423,0.00265450
4837.44889160,0.00268646
4839.37769897,0.00274403
4841.30650635,0.00264624
4843.23531372,0.00267094
4845.16412109,0.00265747
4847.09292847,0.00267863
4849.02173584,0.00263421
4850.95054321,0.00254685
4852.87935059,0.00263367
4854.80815796,0.00252832
4856.73696533,0.00252006
4858.66577270,0.00259164
4860.59458008,0.00250713
4862.52338745,0.00251429
4864.45219482,0.00250518
4866.38100220,0.00256983
4868.30980957,0.00255842
4870.23861694,0.00248878
4872.16742432,0.00256544
4874.09623169,0.00252453
4876.02503906,0.00245095
4877.95384644,0.00245320
4879.88265381,0.00255374
4881.81146118,0.00249869
4883.74026855,0.00240165
4885.66907593,0.00257125
4887.59788330,0.00256043
4889.52669067,0.00247354
4891.45549805,0.00245371
4893.38430542,0.00247412
4895.31311279,0.00247012
4897.24192017,0.00240140
4899.17072754,0.00249016
4901.09953491,0.00240099
4903.02834228,0.00234857
4904.95714966,0.00241407
4906.88595703,0.00235419
4908.81476440,0.00237935
4910.74357178,0.00237065
4912.67237915,0.00240792
4914.60118652,0.00241704
4916.52999390,0.00234493
4918.45880127,0.00235133
4920.38760864,0.00236831
4922.31641602,0.00234882
4924.24522339,0.00233403
4926.17403076,0.00238137
4928.10283813,0.00234602
4930.03164551,0.00230364
4931.96045288,0.00228541
4933.88926025,0.00228449
4935.81806763,0.00230169
4937.74687500,0.00228464
4939.67568237,0.00229764
4941.60448975,0.00226721
4943.53329712,0.00229898
4945.46210449,0.00224563
4947.39091187,0.00224007
4949.31971924,0.00229569
4951.24852661,0.00214718
4953.17733398,0.00222509
4955.10614136,0.00222488
4957.03494873,0.00211646
4958.96375610,0.00224912
4960.89256348,0.00223174
4962.82137085,0.00217038
4964.75017822,0.00216344
4966.67898560,0.00209273
4968.60779297,0.00211509
4970.53660034,0.00221627
4972.46540771,0.00217229
4974.39421509,0.00215195
4976.32302246,0.00216229
4978.25182983,0.00202617
4980.18063721,0.00214910
4982.10944458,0.00220371
4984.03825195,0.00203333
4985.96705933,0.00209738
4987.89586670,0.00205957
4989.82467407,0.00207256
4991.75348145,0.00217186
4993.68228882,0.00207252
4995.61109619,0.00210473
4997.53990356,0.00210603
4999.46871094,0.00204112
5001.39751831,0.00205710
5003.32632568,0.00204454
5005.25513306,0.00203536
5007.18394043,0.00205300
5009.11274780,0.00211335
5011.04155518,0.00205034
5012.97036255,0.00203272
5014.89916992,0.00200591
5016.82797729,0.00191816
5018.75678467,0.00201637
5020.68559204,0.00199721
5022.61439941,0.00204485
5024.54320679,0.00204441
5026.47201416,0.00192696
5028.40082153,0.00201714
5030.32962891,0.00199751
5032.25843628,0.00200129
5034.18724365,0.00198346
5036.11605103,0.00191458
5038.04485840,0.00193579
5039.97366577,0.00192983
5041.90247314,0.00193919
5043.83128052,0.00188510
5045.76008789,0.00189721
5047.68889526,0.00193741
5049.61770264,0.00195198
5051.54651001,0.00190128
5053.47531738,0.00187451
5055.40412476,0.00201224
5057.33293213,0.00198254
5059.26173950,0.00188578
5061.19054687,0.00186734
5063.11935425,0.00193300
5065.04816162,0.00195277
5066.97696899,0.00184505
5068.90577637,0.00185220
5070.83458374,0.00187228
5072.76339111,0.00185783
5074.69219849,0.00187585
5076.62100586,0.00187839
5078.54981323,0.00180114
5080.47862061,0.00180064
5082.40742798,0.00181297
5084.33623535,0.00176508
5086.26504272,0.00179729
5088.19385010,0.00177002
5090.12265747,0.00181820
5092.05146484,0.00183305
5093.98027222,0.00186362
5095.90907959,0.00184315
5097.83788696,0.00167847
5099.76669434,0.00180381
5101.69550171,0.00181220
5103.62430908,0.00174820
5105.55311645,0.00174355
5107.48192383,0.00169250
5109.41073120,0.00172702
5111.33953857,0.00166088
5113.26834595,0.00170962
5115.19715332,0.00167000
5117.12596069,0.00165309
5119.05476807,0.00172545
5120.98357544,0.00163331
5122.91238281,0.00168282
5124.84119019,0.00163465
5126.76999756,0.00165629
5128.69880493,0.00173906
5130.62761230,0.00164144
5132.55641968,0.00163736
5134.48522705,0.00160125
5136.41403442,0.00167008
5138.34284180,0.00175165
5140.27164917,0.00165291
5142.20045654,0.00162536
5144.12926392,0.00164946
5146.05807129,0.00163797
5147.98687866,0.00159534
5149.91568603,0.00164087
5151.84449341,0.00169286
5153.77330078,0.00158694
5155.70210815,0.00152067
5157.63091553,0.00153133
5159.55972290,0.00157556
5161.48853027,0.00162022
5163.41733765,0.00155201
5165.34614502,0.00159465
5167.27495239,0.00168428
5169.20375977,0.00159188
5171.13256714,0.00151826
5173.06137451,0.00153422
5174.99018188,0.00159101
5176.91898926,0.00156185
5178.84779663,0.00150586
5180.77660400,0.00157538
5182.70541138,0.00153392
5184.63421875,0.00149085
5186.56302612,0.00159130
5188.49183350,0.00154199
5190.42064087,0.00149379
5192.34944824,0.00155303
5194.27825562,0.00150857
5196.20706299,0.00148209
5198.13587036,0.00146455
5200.06467773,0.00147269
5201.99348511,0.00150921
5203.92229248,0.00150684
5205.85109985,0.00149212
5207.77990723,0.00140644
5209.70871460,0.00144776
5211.63752197,0.00141288
5213.56632935,0.00142155
5215.49513672,0.00151725
5217.42394409,0.00134544
5219.35275146,0.00146545
5221.28155884,0.00150266
5223.21036621,0.00136938
5225.13917358,0.00150421
5227.06798096,0.00148012
5228.99678833,0.00146980
5230.92559570,0.00138947
5232.85440308,0.00133922
5234.78321045,0.00143470
5236.71201782,0.00142531
5238.64082520,0.00143188
5240.56963257,0.00140417
5242.49843994,0.00145170
5244.42724731,0.00143088
5246.35605469,0.00132285
5248.28486206,0.00127032
5250.21366943,0.00135535
5252.14247681,0.00146513
5254.07128418,0.00133705
5256.00009155,0.00136363
5257.92889893,0.00141537
5259.85770630,0.00142255
5261.78651367,0.00137160
5263.71532104,0.00122411
5265.64412842,0.00131516
5267.57293579,0.00129528
5269.50174316,0.00132709
5271.43055054,0.00138756
5273.35935791,0.00131613
5275.28816528,0.00138015
5277.21697266,0.00136891
5279.14578003,0.00133881
5281.07458740,0.00134315
5283.00339478,0.00141978
5284.93220215,0.00135423
5286.86100952,0.00127751
5288.78981689,0.00139390
5290.71862427,0.00127734
5292.64743164,0.00126308
5294.57623901,0.00131073
5296.50504639,0.00127440
5298.43385376,0.00130372
5300.36266113,0.00126016
5302.29146851,0.00135039
5304.22027588,0.00137257
5306.14908325,0.00128532
5308.07789062,0.00124572
5310.00669800,0.00122097
5311.93550537,0.00128201
5313.86431274,0.00125987
5315.79312012,0.00122232
5317.72192749,0.00123214
5319.65073486,0.00123005
5321.57954224,0.00127423
5323.50834961,0.00126978
5325.43715698,0.00124257
5327.36596436,0.00123009
5329.29477173,0.00117391
5331.22357910,0.00122306
5333.15238647,0.00126102
5335.08119385,0.00118180
5337.01000122,0.00120095
5338.93880859,0.00118591
5340.86761597,0.00118826
5342.79642334,0.00120440
5344.72523071,0.00113709
5346.65403809,0.00120701
5348.58284546,0.00124863
5350.51165283,0.00124566
5352.44046020,0.00123130
5354.36926758,0.00117981
5356.29807495,0.00122202
5358.22688232,0.00122242
5360.15568970,0.00119366
5362.08449707,0.00118623
5364.01330444,0.00115569
5365.94211182,0.00114640
5367.87091919,0.00117874
5369.79972656,0.00116239
5371.72853394,0.00114674
5373.65734131,0.00118297
5375.58614868,0.00115663
5377.51495605,0.00110181
5379.44376343,0.00104198
5381.37257080,0.00114134
5383.30137817,0.00121213
5385.23018555,0.00112200
5387.15899292,0.00113295
5389.08780029,0.00108554
5391.01660767,0.00112430
5392.94541504,0.00120025
5394.87422241,0.00113954
5396.80302978,0.00112773
5398.73183716,0.00112766
5400.66064453,0.00118897
5402.58945190,0.00115588
5404.51825928,0.00105538
5406.44706665,0.00108544
5408.37587402,0.00110610
5410.30468140,0.00105605
5412.23348877,0.00103909
5414.16229614,0.00106951
5416.09110352,0.00102270
5418.01991089,0.00104998
5419.94871826,0.00107783
5421.87752563,0.00104326
5423.80633301,0.00112744
5425.73514038,0.00110035
5427.66394775,0.00102375
5429.59275513,0.00100465
5431.52156250,0.00098640
5433.45036987,0.00105808
5435.37917725,0.00099753
5437.30798462,0.00095420
5439.23679199,0.00106192
5441.16559936,0.00096290
5443.09440674,0.00097209
5445.02321411,0.00107721
5446.95202148,0.00096788
5448.88082886,0.00101607
5450.80963623,0.00104966
5452.73844360,0.00101025
5454.66725098,0.00102790
5456.59605835,0.00097380
5458.52486572,0.00102005
5460.45367310,0.00099122
5462.38248047,0.00095461
5464.31128784,0.00099712
5466.24009521,0.00095500
5468.16890259,0.00100933
5470.09770996,0.00099912
5472.02651733,0.00093018
5473.95532471,0.00099908
5475.88413208,0.00099512
5477.81293945,0.00093994
5479.74174683,0.00095031
5481.67055420,0.00089841
5483.59936157,0.00088484
5485.52816895,0.00095482
5487.45697632,0.00094237
5489.38578369,0.00093108
5491.31459106,0.00092132
5493.24339844,0.00086267
5495.17220581,0.00086033
5497.10101318,0.00090698
5499.02982056,0.00090062
5500.95862793,0.00091804
5502.88743530,0.00098278
5504.81624268,0.00095279
5506.74505005,0.00093374
5508.67385742,0.00090550
5510.60266479,0.00089175
5512.53147217,0.00098937
5514.46027954,0.00092316
5516.38908691,0.00080389
5518.31789429,0.00089165
5520.24670166,0.00089388
5522.17550903,0.00081856
5524.10431641,0.00090849
5526.03312378,0.00091695
5527.96193115,0.00088906
5529.89073853,0.00092913
5531.81954590,0.00090621
5533.74835327,0.00086066
5535.67716064,0.00080346
5537.60596802,0.00085554
5539.53477539,0.00084999
5541.46358276,0.00085430
5543.39239014,0.00094396
5545.32119751,0.00085413
5547.25000488,0.00085228
5549.17881226,0.00088405
5551.10761963,0.00087539
5553.03642700,0.00088845
5554.96523437,0.00083169
5556.89404175,0.00082287
5558.82284912,0.00082766
5560.75165649,0.00089150
5562.68046387,0.00089974
5564.60927124,0.00082091
5566.53807861,0.00080177
5568.46688599,0.00080361
5570.39569336,0.00085168
5572.32450073,0.00085976
5574.25330811,0.00082961
5576.18211548,0.00083874
5578.11092285,0.00082146
5580.03973022,0.00078558
5581.96853760,0.00082642
5583.89734497,0.00084986
5585.82615234,0.00079599
5587.75495972,0.00078973
5589.68376709,0.00084510
5591.61257446,0.00085458
5593.54138184,0.00081395
5595.47018921,0.00087164
5597.39899658,0.00082106
5599.32780395,0.00071129
5601.25661133,0.00078722
5603.18541870,0.00079994
5605.11422607,0.00075162
5607.04303345,0.00076086
5608.97184082,0.00080007
5610.90064819,0.00079873
5612.82945557,0.00079693
5614.75826294,0.00078979
5616.68707031,0.00075647
5618.61587769,0.00080384
5620.54468506,0.00081440
5622.47349243,0.00082586
5624.40229980,0.00078384
5626.33110718,0.00073809
5628.25991455,0.00075568
5630.18872192,0.00071126
5632.11752930,0.00077439
5634.04633667,0.00082253
5635.97514404,0.00079355
5637.90395142,0.00078592
5639.83275879,0.00079877
5641.76156616,0.00077657
5643.69037353,0.00074496
5645.61918091,0.00075707
5647.54798828,0.00066735
5649.47679565,0.00071058
5651.40560303,0.00075904
5653.33441040,0.00065740
5655.26321777,0.00068473
5657.19202515,0.00073207
5659.12083252,0.00070649
5661.04963989,0.00067620
5662.97844727,0.00072617
5664.90725464,0.00073446
5666.83606201,0.00069311
5668.76486938,0.00069223
5670.69367676,0.00070509
5672.62248413,0.00069455
5674.55129150,0.00064304
5676.48009888,0.00073064
5678.40890625,0.00075175
5680.33771362,0.00069219
5682.26652100,0.00073107
5684.19532837,0.00074002
5686.12413574,0.00070421
5688.05294311,0.00065187
5689.98175049,0.00069570
5691.91055786,0.00070762
5693.83936523,0.00066356
5695.76817261,0.00065941
5697.69697998,0.00065195
5699.62578735,0.00067808
5701.55459473,0.00071721
5703.48340210,0.00072693
5705.41220947,0.00067295
5707.34101685,0.00068607
5709.26982422,0.00068370
5711.19863159,0.00066858
5713.12743896,0.00067647
5715.05624634,0.00064262
5716.98505371,0.00068081
5718.91386108,0.00060186
5720.84266846,0.00060306
5722.77147583,0.00067582
5724.70028320,0.00064189
5726.62909058,0.00070411
5728.55789795,0.00068686
5730.48670532,0.00066031
5732.41551270,0.00063085
5734.34432007,0.00064448
5736.27312744,0.00070015
5738.20193481,0.00058145
5740.13074219,0.00061422
5742.05954956,0.00067063
5743.98835693,0.00057844
5745.91716431,0.00056962
5747.84597168,0.00058914
5749.77477905,0.00061417
5751.70358643,0.00058662
5753.63239380,0.00056769
5755.56120117,0.00060900
5757.49000854,0.00059338
5759.41881592,0.00060489
5761.34762329,0.00060913
5763.27643066,0.00057267
5765.20523804,0.00058731
5767.13404541,0.00066554
5769.06285278,0.00064462
5770.99166016,0.00050001
5772.92046753,0.00056681
5774.84927490,0.00060747
5776.77808228,0.00057977
5778.70688965,0.00064434
5780.63569702,0.00056662
5782.56450439,0.00061858
5784.49331177,0.00060668
5786.42211914,0.00051358
5788.35092651,0.00058043
5790.27973389,0.00059534
5792.20854126,0.00064154
5794.13734863,0.00055717
5796.06615601,0.00055069
5797.99496338,0.00059265
5799.92377075,0.00052463
5801.85257812,0.00059693
5803.78138550,0.00054273
5805.71019287,0.00052260
5807.63900024,0.00055852
5809.56780762,0.00053198
5811.49661499,0.00055673
5813.42542236,0.00055855
5815.35422974,0.00054151
5817.28303711,0.00046961
5819.21184448,0.00052778
5821.14065186,0.00056969
5823.06945923,0.00055631
5824.99826660,0.00059969
5826.92707397,0.00051259
5828.85588135,0.00048733
5830.78468872,0.00050782
5832.71349609,0.00051733
5834.64230347,0.00054729
5836.57111084,0.00051748
5838.49991821,0.00053047
5840.42872559,0.00054042
5842.35753296,0.00052372
5844.28634033,0.00055449
5846.21514770,0.00057043
5848.14395508,0.00057218
5850.07276245,0.00056000
5852.00156982,0.00049625
5853.93037720,0.00052706
5855.85918457,0.00055005
5857.78799194,0.00048121
5859.71679932,0.00050167
5861.64560669,0.00049986
5863.57441406,0.00049264
5865.50322144,0.00051868
5867.43202881,0.00045671
5869.36083618,0.00043411
5871.28964355,0.00049181
5873.21845093,0.00049979
5875.14725830,0.00048295
5877.07606567,0.00042283
5879.00487305,0.00041156
5880.93368042,0.00055222
5882.86248779,0.00048651
5884.79129517,0.00039690
5886.72010254,0.00048767
5888.64890991,0.00045286
5890.57771728,0.00048267
5892.50652466,0.00049719
5894.43533203,0.00043919
5896.36413940,0.00050676
5898.29294678,0.00049080
5900.22175415,0.00048039
5902.15056152,0.00054547
5904.07936890,0.00048268
5906.00817627,0.00042924
5907.93698364,0.00043904
5909.86579102,0.00044303
5911.79459839,0.00049511
5913.72340576,0.00047876
5915.65221313,0.00042793
5917.58102051,0.00040128
5919.50982788,0.00043390
5921.43863525,0.00048991
5923.36744263,0.00041339
5925.29625000,0.00042781
5927.22505737,0.00046534
5929.15386475,0.00044017
5931.08267212,0.00046078
5933.01147949,0.00045817
5934.94028686,0.00044933
5936.86909424,0.00041207
5938.79790161,0.00043987
5940.72670898,0.00039528
5942.65551636,0.00040541
5944.58432373,0.00049333
5946.51313110,0.00037654
5948.44193848,0.00043045
5950.37074585,0.00045048
5952.29955322,0.00035286
5954.22836060,0.00044082
5956.15716797,0.00043144
5958.08597534,0.00039378
5960.01478271,0.00042078
5961.94359009,0.00041924
5963.87239746,0.00038570
5965.80120483,0.00036915
5967.73001221,0.00043207
5969.65881958,0.00044039
5971.58762695,0.00041301
5973.51643433,0.00045602
5975.44524170,0.00044507
5977.37404907,0.00040758
5979.30285645,0.00042834
5981.23166382,0.00042682
5983.16047119,0.00046427
5985.08927856,0.00043450
5987.01808594,0.00039151
5988.94689331,0.00043734
5990.87570068,0.00039612
5992.80450806,0.00041191
5994.73331543,0.00041658
5996.66212280,0.00041129
5998.59093018,0.00039725
6000.51973755,0.00030234
