399.26312622,0.00075244
401.19193359,0.00078434
403.12074097,0.00098867
405.04954834,0.00110651
406.97835571,0.00157113
408.90716309,0.00132263
410.83597046,0.00107188
412.76477783,0.00125596
414.69358521,0.00129413
416.62239258,0.00119866
418.55119995,0.00068445
420.48000732,0.00096255
422.40881470,0.00146786
424.33762207,0.00124919
426.26642944,0.00119190
428.19523682,0.00142032
430.12404419,0.00143913
432.05285156,0.00110905
433.98165894,0.00122840
435.91046631,0.00133662
437.83927368,0.00118297
439.76808105,0.00126725
441.69688843,0.00129409
443.62569580,0.00102750
445.55450317,0.00077691
447.48331055,0.00098249
449.41211792,0.00105599
451.34092529,0.00119319
453.26973267,0.00103198
455.19854004,0.00092761
457.12734741,0.00138452
459.05615479,0.00094227
460.98496216,0.00063961
462.91376953,0.00056183
464.84257690,0.00052352
466.77138428,0.00055590
468.70019165,0.00032851
470.62899902,0.00075664
472.55780640,0.00037355
474.48661377,0.00036729
476.41542114,0.00093247
478.34422852,0.00054078
480.27303589,0.00068063
482.20184326,0.00056120
484.13065063,0.00036342
486.05945801,0.00059679
487.98826538,0.00080939
489.91707275,0.00060508
491.84588013,-0.00012294
493.77468750,0.00026375
495.70349487,0.00060511
497.63230225,0.00038638
499.56110962,0.00041235
501.48991699,-0.00002393
503.41872437,-0.00018330
505.34753174,0.00029252
507.27633911,0.00048763
509.20514648,0.00009691
511.13395386,0.00011745
513.06276123,0.00019672
514.99156860,-0.00022155
516.92037598,0.00007705
518.84918335,0.00039935
520.77799072,0.00021684
522.70679810,-0.00002765
524.63560547,-0.00019421
526.56441284,0.00003630
528.49322021,0.00018360
530.42202759,0.00019967
532.35083496,0.00009417
534.27964233,0.00018965
536.20844971,0.00047761
538.13725708,0.00017711
540.06606445,-0.00009430
541.99487183,0.00015594
543.92367920,0.00017828
545.85248657,-0.00001972
547.78129395,0.00022630
549.71010132,0.00042223
551.63890869,0.00031427
553.56771606,0.00013510
555.49652344,0.00008753
557.42533081,0.00001211
559.35413818,0.00005432
561.28294556,0.00028738
563.21175293,-0.00012762
565.14056030,0.00005600
567.06936768,0.00044384
568.99817505,0.00005438
570.92698242,0.00008915
572.85578979,-0.00006459
574.78459717,0.00020273
576.71340454,0.00038312
578.64221191,-0.00002055
580.57101929,0.00014174
582.49982666,0.00005659
584.42863403,0.00013988
586.35744141,0.00029666
588.28624878,0.00025509
590.21505615,0.00009747
592.14386353,0.00011486
594.07267090,0.00042767
596.00147827,0.00003592
597.93028564,0.00028470
599.85909302,0.00037159
601.78790039,-0.00005080
603.71670776,0.00029072
605.64551514,0.00012182
607.57432251,0.00004170
609.50312988,0.00035058
611.43193726,0.00009505
613.36074463,0.00030740
615.28955200,0.00046636
617.21835938,0.00003435
619.14716675,0.00021770
621.07597412,0.00037109
623.00478149,0.00031021
624.93358887,0.00023399
626.86239624,-0.00016007
628.79120361,0.00006268
630.72001099,0.00050039
632.64881836,0.00060285
634.57762573,0.00099376
636.50643311,0.00109079
638.43524048,0.00076444
640.36404785,0.00099643
642.29285522,0.00134258
644.22166260,0.00117858
646.15046997,0.00126956
648.07927734,0.00156597
650.00808472,0.00151117
651.93689209,0.00155569
653.86569946,0.00173453
655.79450684,0.00176585
657.72331421,0.00173840
659.65212158,0.00173575
661.58092896,0.00186701
663.50973633,0.00174440
665.43854370,0.00169762
667.36735107,0.00195018
669.29615845,0.00231570
671.22496582,0.00250936
673.15377319,0.00217918
675.08258057,0.00245015
677.01138794,0.00255519
678.94019531,0.00252562
680.86900269,0.00297327
682.79781006,0.00264023
684.72661743,0.00255830
686.65542480,0.00247936
688.58423218,0.00248423
690.51303955,0.00280436
692.44184692,0.00259277
694.37065430,0.00287235
696.29946167,0.00334856
698.22826904,0.00398725
700.15707642,0.00435618
702.08588379,0.00404917
704.01469116,0.00394655
705.94349854,0.00360024
707.87230591,0.00276419
709.80111328,0.00206674
711.72992065,0.00159634
713.65872803,0.00096622
715.58753540,0.00074612
717.51634277,0.00055557
719.44515015,0.00047999
721.37395752,0.00039942
723.30276489,-0.00018107
725.23157227,0.00024840
727.16037964,0.00041555
729.08918701,0.00000895
731.01799438,0.00021719
732.94680176,0.00022871
734.87560913,0.00020776
736.80441650,0.00024170
738.73322388,0.00011693
740.66203125,0.00003117
742.59083862,0.00049152
744.51964600,0.00029780
746.44845337,0.00001384
748.37726074,0.00035550
750.30606812,-0.00001555
752.23487549,0.00028697
754.16368286,0.00069104
756.09249023,0.00039201
758.02129761,0.00023626
759.95010498,0.00035806
761.87891235,0.00061256
763.80771973,0.00042241
765.73652710,0.00043232
767.66533447,0.00034283
769.59414185,0.00049650
771.52294922,0.00043958
773.45175659,0.00003209
775.38056396,0.00043847
777.30937134,0.00040621
779.23817871,0.00033342
781.16698608,0.00026667
783.09579346,0.00036250
785.02460083,0.00054888
786.95340820,0.00031088
788.88221558,0.00051391
790.81102295,0.00035720
792.73983032,0.00031156
794.66863770,0.00057278
796.59744507,0.00068200
798.52625244,0.00055969
800.45505981,0.00045119
802.38386719,0.00066360
804.31267456,0.00060742
806.24148193,0.00066060
808.17028931,0.00017857
810.09909668,-0.00008575
812.02790405,0.00038119
813.95671143,0.00047787
815.88551880,0.00049053
817.81432617,0.00041736
819.74313354,0.00039481
821.67194092,0.00043467
823.60074829,0.00037190
825.52955566,0.00012899
827.45836304,0.00045872
829.38717041,0.00070435
831.31597778,0.00071309
833.24478516,0.00097325
835.17359253,0.00052989
837.10239990,0.00073582
839.03120728,0.00070908
840.96001465,0.00072535
842.88882202,0.00109762
844.81762939,0.00058274
846.74643677,0.00089069
848.67524414,0.00055107
850.60405151,0.00043964
852.53285889,0.00089599
854.46166626,0.00027463
856.39047363,0.00046030
858.31928101,0.00038100
860.24808838,0.00021916
862.17689575,0.00051070
864.10570313,0.00033512
866.03451050,0.00040540
867.96331787,0.00035480
869.89212524,0.00053129
871.82093262,0.00070406
873.74973999,0.00052628
875.67854736,0.00047132
877.60735474,0.00024297
879.53616211,0.00046710
881.46496948,0.00073596
883.39377686,0.00046086
885.32258423,0.00034862
887.25139160,0.00040249
889.18019897,0.00054167
891.10900635,0.00053913
893.03781372,0.00037546
894.96662109,0.00046207
896.89542847,0.00039882
898.82423584,0.00051299
900.75304321,0.00068997
902.68185059,0.00037505
904.61065796,0.00040950
906.53946533,0.00044204
908.46827271,0.00067001
910.39708008,0.00091847
912.32588745,0.00078838
914.25469482,0.00090056
916.18350220,0.00077099
918.11230957,0.00083995
920.04111694,0.00088176
921.96992432,0.00094514
923.89873169,0.00111832
925.82753906,0.00105113
927.75634644,0.00116983
929.68515381,0.00103496
931.61396118,0.00129450
933.54276855,0.00145735
935.47157593,0.00124192
937.40038330,0.00146939
939.32919067,0.00135564
941.25799805,0.00135287
943.18680542,0.00166817
945.11561279,0.00163846
947.04442017,0.00155441
948.97322754,0.00143212
950.90203491,0.00139662
952.83084229,0.00150368
954.75964966,0.00151895
956.68845703,0.00171281
958.61726440,0.00158481
960.54607178,0.00144661
962.47487915,0.00180202
964.40368652,0.00166036
966.33249390,0.00152565
968.26130127,0.00168046
970.19010864,0.00182123
972.11891602,0.00190160
974.04772339,0.00194697
975.97653076,0.00219225
977.90533813,0.00219138
979.83414551,0.00229441
981.76295288,0.00223850
983.69176025,0.00238462
985.62056763,0.00290425
987.54937500,0.00299638
989.47818237,0.00334341
991.40698975,0.00365793
993.33579712,0.00401490
995.26460449,0.00437119
997.19341187,0.00464607
999.12221924,0.00504876
1001.05102661,0.00535747
1002.97983398,0.00597110
1004.90864136,0.00607890
1006.83744873,0.00633339
1008.76625610,0.00691826
1010.69506348,0.00716499
1012.62387085,0.00778305
1014.55267822,0.00803204
1016.48148560,0.00838834
1018.41029297,0.00896974
1020.33910034,0.00913985
1022.26790771,0.00951133
1024.19671509,0.00975682
1026.12552246,0.01015294
1028.05432983,0.01054327
1029.98313721,0.01059818
1031.91194458,0.01099309
1033.84075195,0.01126556
1035.76955933,0.01138212
1037.69836670,0.01152199
1039.62717407,0.01157538
1041.55598145,0.01158092
1043.48478882,0.01131179
1045.41359619,0.01140387
1047.34240356,0.01134158
1049.27121094,0.01085011
1051.20001831,0.01087555
1053.12882568,0.01070974
1055.05763306,0.01038122
1056.98644043,0.01039572
1058.91524780,0.01005630
1060.84405518,0.00954126
1062.77286255,0.00953171
1064.70166992,0.00916062
1066.63047729,0.00869821
1068.55928467,0.00881323
1070.48809204,0.00804399
1072.41689941,0.00740660
1074.34570679,0.00736974
1076.27451416,0.00697247
1078.20332153,0.00677885
1080.13212891,0.00642264
1082.06093628,0.00634512
1083.98974365,0.00622695
1085.91855103,0.00568778
1087.84735840,0.00556773
1089.77616577,0.00550289
1091.70497314,0.00519862
1093.63378052,0.00485617
1095.56258789,0.00490384
1097.49139526,0.00466749
1099.42020264,0.00431313
1101.34901001,0.00448233
1103.27781738,0.00430894
1105.20662476,0.00414221
1107.13543213,0.00418608
1109.06423950,0.00415667
1110.99304687,0.00411039
1112.92185425,0.00410827
1114.85066162,0.00408644
1116.77946899,0.00392077
1118.70827637,0.00406577
1120.63708374,0.00405046
1122.56589111,0.00394777
1124.49469849,0.00420521
1126.42350586,0.00409494
1128.35231323,0.00411926
1130.28112061,0.00446261
1132.20992798,0.00444093
1134.13873535,0.00450963
1136.06754272,0.00465665
1137.99635010,0.00480518
1139.92515747,0.00506216
1141.85396484,0.00530286
1143.78277222,0.00585141
1145.71157959,0.00618715
1147.64038696,0.00646159
1149.56919434,0.00688086
1151.49800171,0.00697981
1153.42680908,0.00736373
1155.35561646,0.00779680
1157.28442383,0.00801606
1159.21323120,0.00821350
1161.14203857,0.00850367
1163.07084595,0.00891583
1164.99965332,0.00918861
1166.92846069,0.00949992
1168.85726807,0.00981111
1170.78607544,0.01021711
1172.71488281,0.01046660
1174.64369019,0.01087907
1176.57249756,0.01150535
1178.50130493,0.01158289
1180.43011230,0.01191665
1182.35891968,0.01246294
1184.28772705,0.01287186
1186.21653442,0.01362015
1188.14534180,0.01447095
1190.07414917,0.01491953
1192.00295654,0.01531280
1193.93176392,0.01615275
1195.86057129,0.01685634
1197.78937866,0.01749074
1199.71818604,0.01825994
1201.64699341,0.01903126
1203.57580078,0.01971601
1205.50460815,0.02041357
1207.43341553,0.02129092
1209.36222290,0.02199758
1211.29103027,0.02266156
1213.21983765,0.02313568
1215.14864502,0.02368899
1217.07745239,0.02427042
1219.00625977,0.02459397
1220.93506714,0.02498576
1222.86387451,0.02521827
1224.79268188,0.02552588
1226.72148926,0.02545972
1228.65029663,0.02546901
1230.57910400,0.02581627
1232.50791138,0.02568766
1234.43671875,0.02585133
1236.36552612,0.02592847
1238.29433350,0.02577968
1240.22314087,0.02582153
1242.15194824,0.02558905
1244.08075562,0.02530507
1246.00956299,0.02530016
1247.93837036,0.02524278
1249.86717773,0.02495781
1251.79598511,0.02488680
1253.72479248,0.02455648
1255.65359985,0.02413752
1257.58240723,0.02397545
1259.51121460,0.02354475
1261.44002197,0.02315624
1263.36882935,0.02287701
1265.29763672,0.02269064
1267.22644409,0.02243374
1269.15525146,0.02202289
1271.08405884,0.02154894
1273.01286621,0.02115759
1274.94167358,0.02095347
1276.87048096,0.02048630
1278.79928833,0.02015382
1280.72809570,0.01980565
1282.65690308,0.01930423
1284.58571045,0.01911911
1286.51451782,0.01876983
1288.44332520,0.01834774
1290.37213257,0.01821813
1292.30093994,0.01824567
1294.22974731,0.01804507
1296.15855469,0.01777271
1298.08736206,0.01779592
1300.01616943,0.01772624
1301.94497681,0.01770597
1303.87378418,0.01792919
1305.80259155,0.01810949
1307.73139893,0.01843809
1309.66020630,0.01881601
1311.58901367,0.01885582
1313.51782104,0.01919438
1315.44662842,0.01975870
1317.37543579,0.01999755
1319.30424316,0.02052787
1321.23305054,0.02116834
1323.16185791,0.02181950
1325.09066528,0.02249219
1327.01947266,0.02297222
1328.94828003,0.02356029
1330.87708740,0.02396152
1332.80589478,0.02458422
1334.73470215,0.02511378
1336.66350952,0.02498024
1338.59231689,0.02476813
1340.52112427,0.02508362
1342.44993164,0.02624064
1344.37873901,0.02651167
1346.30754639,0.02624332
1348.23635376,0.02637347
1350.16516113,0.02614864
1352.09396851,0.02610170
1354.02277588,0.02566119
1355.95158325,0.02534350
1357.88039062,0.02526762
1359.80919800,0.02481019
1361.73800537,0.02363962
1363.66681274,0.02313289
1365.59562012,0.02472768
1367.52442749,0.02409279
1369.45323486,0.02360085
1371.38204224,0.02435511
1373.31084961,0.02277436
1375.23965698,0.02295024
1377.16846436,0.02366170
1379.09727173,0.02360044
1381.02607910,0.02373092
1382.95488647,0.02353942
1384.88369385,0.02354442
1386.81250122,0.02217210
1388.74130859,0.02252446
1390.67011597,0.02465460
1392.59892334,0.02372858
1394.52773071,0.02223395
1396.45653809,0.02351125
1398.38534546,0.02306685
1400.31415283,0.02311644
1402.24296021,0.02534102
1404.17176758,0.02348792
1406.10057495,0.02373590
1408.02938232,0.02480959
1409.95818970,0.02388255
1411.88699707,0.02446568
1413.81580444,0.02352750
1415.74461182,0.02410994
1417.67341919,0.02122811
1419.60222656,0.01888442
1421.53103394,0.02225058
1423.45984131,0.02147920
1425.38864868,0.02102939
1427.31745605,0.02121151
1429.24626343,0.01945067
1431.17507080,0.01906470
1433.10387817,0.01951127
1435.03268555,0.01756407
1436.96149292,0.01476586
1438.89030029,0.01719672
1440.81910767,0.01761541
1442.74791504,0.01638178
1444.67672241,0.01708284
1446.60552979,0.01555626
1448.53433716,0.01611254
1450.46314453,0.01662624
1452.39195190,0.01682732
1454.32075928,0.01738527
1456.24956665,0.01388042
1458.17837402,0.01448606
1460.10718140,0.01983273
1462.03598877,0.02105287
1463.96479614,0.02070353
1465.89360352,0.02134023
1467.82241089,0.02466868
1469.75121826,0.02633017
1471.68002563,0.02262397
1473.60883301,0.02407488
1475.53764038,0.02741980
1477.46644775,0.02968214
1479.39525513,0.03281166
1481.32406250,0.03289570
1483.25286987,0.03516687
1485.18167725,0.03593878
1487.11048462,0.03496153
1489.03929199,0.03414239
1490.96809937,0.03457454
1492.89690674,0.04131047
1494.82571411,0.03929362
1496.75452148,0.03486818
1498.68332886,0.04005650
1500.61213623,0.04128410
1502.54094360,0.04477027
1504.46975098,0.04122707
1506.39855835,0.02826765
1508.32736572,0.03610015
1510.25617310,0.04322154
1512.18498047,0.04187262
1514.11378784,0.04563370
1516.04259521,0.04007418
1517.97140259,0.04220215
1519.90020996,0.04038358
1521.82901733,0.03427555
1523.75782471,0.04352926
1525.68663208,0.04228014
1527.61543945,0.04241690
1529.54424683,0.04761976
1531.47305420,0.04501807
1533.40186157,0.04056069
1535.33066895,0.04382907
1537.25947632,0.04716506
1539.18828369,0.03161468
1541.11709106,0.03377767
1543.04589844,0.04139076
1544.97470581,0.03958748
1546.90351318,0.04833230
1548.83232056,0.04419558
1550.76112793,0.04590686
1552.68993530,0.04553187
1554.61874268,0.04079445
1556.54755005,0.04391943
1558.47635742,0.02874917
1560.40516479,0.03233661
1562.33397217,0.04854839
1564.26277954,0.04511850
1566.19158691,0.04695757
1568.12039429,0.04603440
1570.04920166,0.03995007
1571.97800903,0.04772964
1573.90681641,0.04783513
1575.83562378,0.03676757
1577.76443115,0.04267085
1579.69323853,0.04839816
1581.62204590,0.04640125
1583.55085327,0.04767237
1585.47966064,0.04673105
1587.40846802,0.04746421
1589.33727539,0.04688623
1591.26608276,0.04685439
1593.19489014,0.04692684
1595.12369751,0.04625190
1597.05250488,0.04694282
1598.98131226,0.04657409
1600.91011963,0.04681980
1602.83892700,0.04591342
1604.76773437,0.04685134
1606.69654175,0.04608163
1608.62534912,0.04603084
1610.55415649,0.04601058
1612.48296387,0.04660179
1614.41177124,0.04695223
1616.34057861,0.03710243
1618.26938599,0.04134001
1620.19819336,0.04891688
1622.12700073,0.04254295
1624.05580811,0.04300996
1625.98461548,0.04548997
1627.91342285,0.04499543
1629.84223022,0.04489701
1631.77103760,0.04866093
1633.69984497,0.04393484
1635.62865234,0.03508637
1637.55745972,0.04226367
1639.48626709,0.04701377
1641.41507446,0.04572755
1643.34388184,0.04742669
1645.27268921,0.04171507
1647.20149658,0.03573570
1649.13030396,0.04644877
1651.05911133,0.04332482
1652.98791870,0.02573726
1654.91672607,0.03751604
1656.84553345,0.04835925
1658.77434082,0.04601838
1660.70314819,0.04722305
1662.63195557,0.04197060
1664.56076294,0.04493224
1666.48957031,0.04888941
1668.41837769,0.04111636
1670.34718506,0.03987114
1672.27599243,0.04631219
1674.20479980,0.04169257
1676.13360718,0.04002294
1678.06241455,0.04698356
1679.99122192,0.04491665
1681.92002930,0.04400505
1683.84883667,0.03408884
1685.77764404,0.03478654
1687.70645142,0.04924706
1689.63525879,0.04130362
1691.56406616,0.04696094
1693.49287354,0.04719633
1695.42168091,0.03281037
1697.35048828,0.04201331
1699.27929565,0.03552254
1701.20810303,0.03203645
1703.13691040,0.04548516
1705.06571777,0.04078937
1706.99452515,0.04163325
1708.92333252,0.04553143
1710.85213989,0.04355875
1712.78094727,0.04432527
1714.70975464,0.04022365
1716.63856201,0.03566658
1718.56736938,0.03506916
1720.49617676,0.04272754
1722.42498413,0.04459638
1724.35379150,0.04078424
1726.28259888,0.04512927
1728.21140625,0.04106147
1730.14021362,0.04143697
1732.06902100,0.04018370
1733.99782837,0.02897462
1735.92663574,0.03801957
1737.85544312,0.04223170
1739.78425049,0.03676429
1741.71305786,0.04087202
1743.64186523,0.04114100
1745.57067261,0.04129439
1747.49947998,0.04135254
1749.42828735,0.03895727
1751.35709473,0.03727566
1753.28590210,0.04214467
1755.21470947,0.04402837
1757.14351685,0.03950126
1759.07232422,0.04432498
1761.00113159,0.04087533
1762.92993896,0.03939737
1764.85874634,0.04587557
1766.78755371,0.04040624
1768.71636108,0.04109245
1770.64516846,0.04030266
1772.57397583,0.03579060
1774.50278320,0.04083754
1776.43159058,0.04318221
1778.36039795,0.04249243
1780.28920532,0.04169162
1782.21801270,0.04227093
1784.14682007,0.04205129
1786.07562744,0.04097427
1788.00443481,0.04365318
1789.93324219,0.04207048
1791.86204956,0.03736103
1793.79085693,0.03940652
1795.71966431,0.04264282
1797.64847168,0.04196124
1799.57727905,0.04100601
1801.50608643,0.04004264
1803.43489380,0.04187598
1805.36370117,0.04278308
1807.29250854,0.04198032
1809.22131592,0.04231659
1811.15012329,0.04093989
1813.07893066,0.04243375
1815.00773804,0.04259352
1816.93654541,0.04192454
1818.86535278,0.04218464
1820.79416016,0.04202190
1822.72296753,0.04263128
1824.65177490,0.03923646
1826.58058228,0.04114850
1828.50938965,0.04096087
1830.43819702,0.03808132
1832.36700439,0.04231586
1834.29581177,0.04183244
1836.22461914,0.04173931
1838.15342651,0.04138624
1840.08223389,0.04183372
1842.01104126,0.04164996
1843.93984863,0.03601089
1845.86865601,0.03910583
1847.79746338,0.04134692
1849.72627075,0.04046445
1851.65507812,0.04186225
1853.58388550,0.04075871
1855.51269287,0.04139552
1857.44150024,0.04088409
1859.37030762,0.04063282
1861.29911499,0.04090610
1863.22792236,0.04036912
1865.15672974,0.04092765
1867.08553711,0.03901307
1869.01434448,0.03718315
1870.94315186,0.03900176
1872.87195923,0.04066674
1874.80076660,0.03993406
1876.72957397,0.04015615
1878.65838135,0.03992858
1880.58718872,0.03962513
1882.51599609,0.04010664
1884.44480347,0.03935639
1886.37361084,0.03989660
1888.30241821,0.03850957
1890.23122559,0.03774341
1892.16003296,0.03972092
1894.08884033,0.03870568
1896.01764771,0.03857803
1897.94645508,0.03927954
1899.87526245,0.03881232
1901.80406982,0.03890086
1903.73287720,0.03858472
1905.66168457,0.03878129
1907.59049194,0.03832573
1909.51929932,0.03802728
1911.44810669,0.03831238
1913.37691406,0.03823205
1915.30572144,0.03858100
1917.23452881,0.03649126
1919.16333618,0.03662513
1921.09214355,0.03839125
1923.02095093,0.03665858
1924.94975830,0.03766956
1926.87856567,0.03830034
1928.80737305,0.03749630
1930.73618042,0.03808004
1932.66498779,0.03746153
1934.59379517,0.03768733
1936.52260254,0.03730313
1938.45140991,0.03750894
1940.38021729,0.03745167
1942.30902466,0.03590786
1944.23783203,0.03682262
1946.16663940,0.03735640
1948.09544678,0.03720775
1950.02425415,0.03733516
1951.95306152,0.03722145
1953.88186890,0.03705126
1955.81067627,0.03676832
1957.73948364,0.03699572
1959.66829102,0.03669738
1961.59709839,0.03669768
1963.52590576,0.03681479
1965.45471313,0.03636558
1967.38352051,0.03600660
1969.31232788,0.03633995
1971.24113525,0.03668845
1973.16994263,0.03631180
1975.09875000,0.03646817
1977.02755737,0.03627832
1978.95636475,0.03614827
1980.88517212,0.03612778
1982.81397949,0.03592394
1984.74278687,0.03601180
1986.67159424,0.03551973
1988.60040161,0.03567509
1990.52920898,0.03540216
1992.45801636,0.03482563
1994.38682373,0.03541831
1996.31563110,0.03546225
1998.24443848,0.03519609
2000.17324585,0.03525649
2002.10205322,0.03508878
2004.03086060,0.03488916
2005.95966797,0.03498077
2007.88847534,0.03490110
2009.81728271,0.03477908
2011.74609009,0.03470764
2013.67489746,0.03453276
2015.60370483,0.03420308
2017.53251221,0.03375900
2019.46131958,0.03396533
2021.39012695,0.03412142
2023.31893433,0.03404332
2025.24774170,0.03394575
2027.17654907,0.03377472
2029.10535645,0.03374818
2031.03416382,0.03353753
2032.96297119,0.03357206
2034.89177856,0.03341553
2036.82058594,0.03323536
2038.74939331,0.03325310
2040.67820068,0.03293148
2042.60700806,0.03285434
2044.53581543,0.03290850
2046.46462280,0.03280567
2048.39343018,0.03261414
2050.32223755,0.03249488
2052.25104492,0.03247305
2054.17985229,0.03255897
2056.10865967,0.03254001
2058.03746704,0.03226402
2059.96627441,0.03218181
2061.89508179,0.03216745
2063.82388916,0.03195914
2065.75269653,0.03167797
2067.68150391,0.03174400
2069.61031128,0.03183590
2071.53911865,0.03172615
2073.46792603,0.03157417
2075.39673340,0.03143463
2077.32554077,0.03151341
2079.25434814,0.03133509
2081.18315552,0.03122713
2083.11196289,0.03120065
2085.04077026,0.03111904
2086.96957764,0.03108307
2088.89838501,0.03079120
2090.82719238,0.03073264
2092.75599976,0.03076799
2094.68480713,0.03076067
2096.61361450,0.03059394
2098.54242187,0.03052687
2100.47122925,0.03056394
2102.40003662,0.03024281
2104.32884399,0.03024170
2106.25765137,0.03018758
2108.18645874,0.03000877
2110.11526611,0.03007532
2112.04407349,0.03006524
2113.97288086,0.02995441
2115.90168823,0.02979940
2117.83049561,0.02975271
2119.75930298,0.02971944
2121.68811035,0.02968332
2123.61691772,0.02952497
2125.54572510,0.02952475
2127.47453247,0.02963156
2129.40333984,0.02943785
2131.33214722,0.02931028
2133.26095459,0.02921020
2135.18976196,0.02911928
2137.11856934,0.02910703
2139.04737671,0.02908922
2140.97618408,0.02910449
2142.90499146,0.02908915
2144.83379883,0.02884877
2146.76260620,0.02871211
2148.69141357,0.02878297
2150.62022095,0.02865332
2152.54902832,0.02864821
2154.47783569,0.02858016
2156.40664307,0.02847096
2158.33545044,0.02845791
2160.26425781,0.02840009
2162.19306519,0.02843895
2164.12187256,0.02825234
2166.05067993,0.02815581
2167.97948730,0.02822815
2169.90829468,0.02824041
2171.83710205,0.02809471
2173.76590942,0.02790619
2175.69471680,0.02786341
2177.62352417,0.02773788
2179.55233154,0.02782601
2181.48113892,0.02788526
2183.40994629,0.02774243
2185.33875366,0.02753240
2187.26756104,0.02753983
2189.19636841,0.02770278
2191.12517578,0.02748135
2193.05398315,0.02738271
2194.98279053,0.02730061
2196.91159790,0.02729214
2198.84040527,0.02731026
2200.76921265,0.02710609
2202.69802002,0.02713494
2204.62682739,0.02710624
2206.55563477,0.02704572
2208.48444214,0.02692646
2210.41324951,0.02683616
2212.34205688,0.02678719
2214.27086426,0.02672382
2216.19967163,0.02675485
2218.12847900,0.02656028
2220.05728638,0.02660174
2221.98609375,0.02661978
2223.91490112,0.02646208
2225.84370850,0.02640839
2227.77251587,0.02630464
2229.70132324,0.02634974
2231.63013062,0.02625977
2233.55893799,0.02621986
2235.48774536,0.02613022
2237.41655273,0.02593310
2239.34536011,0.02592761
2241.27416748,0.02577361
2243.20297485,0.02576220
2245.13178223,0.02575960
2247.06058960,0.02566771
2248.98939697,0.02570075
2250.91820435,0.02562542
2252.84701172,0.02551600
2254.77581909,0.02539338
2256.70462646,0.02538518
2258.63343384,0.02533200
2260.56224121,0.02523830
2262.49104858,0.02523514
2264.41985596,0.02508724
2266.34866333,0.02505515
2268.27747070,0.02497747
2270.20627808,0.02489872
2272.13508545,0.02495402
2274.06389282,0.02482822
2275.99270020,0.02481402
2277.92150757,0.02476158
2279.85031494,0.02466070
2281.77912231,0.02469482
2283.70792969,0.02463448
2285.63673706,0.02450962
2287.56554443,0.02440132
2289.49435181,0.02445783
2291.42315918,0.02437206
2293.35196655,0.02418975
2295.28077393,0.02416461
2297.20958130,0.02406670
2299.13838867,0.02390059
2301.06719604,0.02361466
2302.99600342,0.02349662
2304.92481079,0.02352932
2306.85361816,0.02340198
2308.78242554,0.02319096
2310.71123291,0.02296983
2312.64004028,0.02285491
2314.56884766,0.02264990
2316.49765503,0.02230701
2318.42646240,0.02198316
2320.35526978,0.02172726
2322.28407715,0.02149286
2324.21288452,0.02121662
2326.14169189,0.02093804
2328.07049927,0.02068714
2329.99930664,0.02053211
2331.92811401,0.02036564
2333.85692139,0.02019784
2335.78572876,0.02004253
2337.71453613,0.01994862
2339.64334351,0.01995157
2341.57215088,0.02008328
2343.50095825,0.02028651
2345.42976562,0.02057128
2347.35857300,0.02148256
2349.28738037,0.02195549
2351.21618774,0.02119458
2353.14499512,0.02030861
2355.07380249,0.01961929
2357.00260986,0.01909395
2358.93141724,0.01869483
2360.86022461,0.01852795
2362.78903198,0.01850891
2364.71783936,0.01847456
2366.64664673,0.01875508
2368.57545410,0.01905994
2370.50426147,0.01936272
2372.43306885,0.01986967
2374.36187622,0.02036310
2376.29068359,0.02082095
2378.21949097,0.02119985
2380.14829834,0.02142934
2382.07710571,0.02161312
2384.00591309,0.02176027
2385.93472046,0.02180946
2387.86352783,0.02175297
2389.79233521,0.02168480
2391.72114258,0.02170840
2393.64994995,0.02165771
2395.57875732,0.02160949
2397.50756470,0.02157703
2399.43637207,0.02150999
2401.36517944,0.02144272
2403.29398682,0.02133450
2405.22279419,0.02136130
2407.15160156,0.02129168
2409.08040894,0.02125932
2411.00921631,0.02121973
2412.93802368,0.02102775
2414.86683105,0.02109221
2416.79563843,0.02109290
2418.72444580,0.02100611
2420.65325317,0.02092341
2422.58206055,0.02088415
2424.51086792,0.02086747
2426.43967529,0.02074706
2428.36848267,0.02075687
2430.29729004,0.02074575
2432.22609741,0.02081276
2434.15490479,0.02074362
2436.08371216,0.02052277
2438.01251953,0.02054825
2439.94132690,0.02053116
2441.87013428,0.02042642
2443.79894165,0.02038742
2445.72774902,0.02033944
2447.65655640,0.02019370
2449.58536377,0.02023786
2451.51417114,0.02023520
2453.44297852,0.02012963
2455.37178589,0.02026310
2457.30059326,0.02011840
2459.22940063,0.01997001
2461.15820801,0.02001163
2463.08701538,0.01984128
2465.01582275,0.01977082
2466.94463013,0.01984401
2468.87343750,0.01980310
2470.80224487,0.01982584
2472.73105225,0.01980698
2474.65985962,0.01964328
2476.58866699,0.01969129
2478.51747437,0.01961412
2480.44628174,0.01952431
2482.37508911,0.01957166
2484.30389648,0.01940963
2486.23270386,0.01940805
2488.16151123,0.01944328
2490.09031860,0.01929994
2492.01912598,0.01916180
2493.94793335,0.01917993
2495.87674072,0.01919394
2497.80554810,0.01910909
2499.73435547,0.01907557
2501.66316284,0.01899843
2503.59197021,0.01904242
2505.52077759,0.01900035
2507.44958496,0.01888905
2509.37839233,0.01891556
2511.30719971,0.01885572
2513.23600708,0.01869764
2515.16481445,0.01860641
2517.09362183,0.01876063
2519.02242920,0.01875561
2520.95123657,0.01859605
2522.88004395,0.01850805
2524.80885132,0.01845214
2526.73765869,0.01854292
2528.66646606,0.01850257
2530.59527344,0.01840393
2532.52408081,0.01836692
2534.45288818,0.01825800
2536.38169556,0.01826496
2538.31050293,0.01827775
2540.23931030,0.01808353
2542.16811768,0.01810651
2544.09692505,0.01817345
2546.02573242,0.01807423
2547.95453979,0.01808645
2549.88334717,0.01796295
2551.81215454,0.01798956
2553.74096191,0.01791338
2555.66976929,0.01778631
2557.59857666,0.01785389
2559.52738403,0.01771976
2561.45619141,0.01789515
2563.38499878,0.01781818
2565.31380615,0.01765881
2567.24261353,0.01780899
2569.17142090,0.01761849
2571.10022827,0.01752765
2573.02903564,0.01745923
2574.95784302,0.01742338
2576.88665039,0.01743323
2578.81545776,0.01733714
2580.74426514,0.01730406
2582.67307251,0.01733986
2584.60187988,0.01732138
2586.53068726,0.01720775
2588.45949463,0.01729614
2590.38830200,0.01713865
2592.31710937,0.01707385
2594.24591675,0.01713509
2596.17472412,0.01687581
2598.10353149,0.01692599
2600.03233887,0.01685303
2601.96114624,0.01677896
2603.88995361,0.01685033
2605.81876099,0.01673375
2607.74756836,0.01683405
2609.67637573,0.01678603
2611.60518311,0.01668744
2613.53399048,0.01675178
2615.46279785,0.01659158
2617.39160522,0.01657845
2619.32041260,0.01659009
2621.24921997,0.01638549
2623.17802734,0.01647538
2625.10683472,0.01648755
2627.03564209,0.01639711
2628.96444946,0.01635935
2630.89325684,0.01618288
2632.82206421,0.01626470
2634.75087158,0.01619991
2636.67967895,0.01614326
2638.60848633,0.01624439
2640.53729370,0.01611905
2642.46610107,0.01610305
2644.39490845,0.01604469
2646.32371582,0.01604039
2648.25252319,0.01604551
2650.18133057,0.01590702
2652.11013794,0.01582469
2654.03894531,0.01576041
2655.96775269,0.01574675
2657.89656006,0.01573610
2659.82536743,0.01570823
2661.75417480,0.01564755
2663.68298218,0.01563396
2665.61178955,0.01555633
2667.54059692,0.01556652
2669.46940430,0.01560457
2671.39821167,0.01541679
2673.32701904,0.01536835
2675.25582642,0.01534771
2677.18463379,0.01536711
2679.11344116,0.01529858
2681.04224854,0.01521045
2682.97105591,0.01530483
2684.89986328,0.01525229
2686.82867065,0.01522917
2688.75747803,0.01516805
2690.68628540,0.01515119
2692.61509277,0.01512901
2694.54390015,0.01502712
2696.47270752,0.01510066
2698.40151489,0.01503394
2700.33032227,0.01487674
2702.25912964,0.01488049
2704.18793701,0.01487404
2706.11674438,0.01475131
2708.04555176,0.01482479
2709.97435913,0.01479236
2711.90316650,0.01456028
2713.83197388,0.01462032
2715.76078125,0.01470606
2717.68958862,0.01473896
2719.61839600,0.01459880
2721.54720337,0.01449387
2723.47601074,0.01454973
2725.40481812,0.01439649
2727.33362549,0.01431071
2729.26243286,0.01437368
2731.19124023,0.01439768
2733.12004761,0.01426959
2735.04885498,0.01416413
2736.97766235,0.01415328
2738.90646973,0.01414602
2740.83527710,0.01409787
2742.76408447,0.01411027
2744.69289185,0.01416314
2746.62169922,0.01400224
2748.55050659,0.01403051
2750.47931396,0.01394790
2752.40812134,0.01383927
2754.33692871,0.01393630
2756.26573608,0.01381160
2758.19454346,0.01385656
2760.12335083,0.01378249
2762.05215820,0.01372767
2763.98096558,0.01371811
2765.90977295,0.01364499
2767.83858032,0.01374574
2769.76738770,0.01356125
2771.69619507,0.01357915
2773.62500244,0.01354631
2775.55380981,0.01348504
2777.48261719,0.01359576
2779.41142456,0.01333498
2781.34023193,0.01338715
2783.26903931,0.01338761
2785.19784668,0.01319079
2787.12665405,0.01328201
2789.05546143,0.01326375
2790.98426880,0.01324012
2792.91307617,0.01322954
2794.84188354,0.01316884
2796.77069092,0.01311123
2798.69949829,0.01306031
2800.62830566,0.01306124
2802.55711304,0.01302265
2804.48592041,0.01294354
2806.41472778,0.01285861
2808.34353516,0.01281310
2810.27234253,0.01286147
2812.20114990,0.01282208
2814.12995728,0.01274174
2816.05876465,0.01277725
2817.98757202,0.01260606
2819.91637939,0.01246698
2821.84518677,0.01255530
2823.77399414,0.01252799
2825.70280151,0.01246723
2827.63160889,0.01239931
2829.56041626,0.01239698
2831.48922363,0.01237802
2833.41803101,0.01227658
2835.34683838,0.01230989
2837.27564575,0.01223842
2839.20445312,0.01210613
2841.13326050,0.01217670
2843.06206787,0.01212816
2844.99087524,0.01199495
2846.91968262,0.01206773
2848.84848999,0.01204529
2850.77729736,0.01196780
2852.70610474,0.01195139
2854.63491211,0.01189125
2856.56371948,0.01193955
2858.49252686,0.01190369
2860.42133423,0.01184497
2862.35014160,0.01185094
2864.27894897,0.01174943
2866.20775635,0.01169047
2868.13656372,0.01164122
2870.06537109,0.01167000
2871.99417847,0.01167977
2873.92298584,0.01148349
2875.85179321,0.01144793
2877.78060059,0.01152519
2879.70940796,0.01150917
2881.63821533,0.01146059
2883.56702270,0.01140425
2885.49583008,0.01150072
2887.42463745,0.01145499
2889.35344482,0.01127207
2891.28225220,0.01127831
2893.21105957,0.01119928
2895.13986694,0.01110871
2897.06867432,0.01112993
2898.99748169,0.01123403
2900.92628906,0.01119940
2902.85509644,0.01102149
2904.78390381,0.01111898
2906.71271118,0.01114029
2908.64151855,0.01105230
2910.57032593,0.01102986
2912.49913330,0.01099529
2914.42794067,0.01092782
2916.35674805,0.01085702
2918.28555542,0.01096313
2920.21436279,0.01089816
2922.14317017,0.01089594
2924.07197754,0.01094965
2926.00078491,0.01090038
2927.92959229,0.01106452
2929.85839966,0.01093072
2931.78720703,0.01085294
2933.71601440,0.01093973
2935.64482178,0.01071063
2937.57362915,0.01070280
2939.50243652,0.01083111
2941.43124390,0.01073796
2943.36005127,0.01075146
2945.28885864,0.01073709
2947.21766602,0.01051590
2949.14647339,0.01059247
2951.07528076,0.01058416
2953.00408813,0.01041379
2954.93289551,0.01050264
2956.86170288,0.01044339
2958.79051025,0.01040237
2960.71931763,0.01036125
2962.64812500,0.01034102
2964.57693237,0.01036226
2966.50573975,0.01022963
2968.43454712,0.01030309
2970.36335449,0.01037045
2972.29216187,0.01034101
2974.22096924,0.01032376
2976.14977661,0.01029074
2978.07858398,0.01023508
2980.00739136,0.01019565
2981.93619873,0.01021954
2983.86500610,0.01017104
2985.79381348,0.01016425
2987.72262085,0.01001773
2989.65142822,0.00999497
2991.58023560,0.01007621
2993.50904297,0.00989738
2995.43785034,0.00997416
2997.36665771,0.01004976
2999.29546509,0.00992362
3001.22427246,0.00987723
3003.15307983,0.00984335
3005.08188721,0.00984911
3007.01069458,0.00986070
3008.93950195,0.00976210
3010.86830933,0.00973966
3012.79711670,0.00985223
3014.72592407,0.00970541
3016.65473145,0.00971193
3018.58353882,0.00978151
3020.51234619,0.00952687
3022.44115356,0.00963296
3024.36996094,0.00975708
3026.29876831,0.00957013
3028.22757568,0.00950957
3030.15638306,0.00942893
3032.08519043,0.00935542
3034.01399780,0.00946646
3035.94280518,0.00942384
3037.87161255,0.00935679
3039.80041992,0.00944833
3041.72922729,0.00936300
3043.65803467,0.00932061
3045.58684204,0.00926073
3047.51564941,0.00924659
3049.44445679,0.00930180
3051.37326416,0.00914683
3053.30207153,0.00916083
3055.23087891,0.00907495
3057.15968628,0.00895776
3059.08849365,0.00908193
3061.01730103,0.00914046
3062.94610840,0.00908053
3064.87491577,0.00899728
3066.80372314,0.00905468
3068.73253052,0.00897763
3070.66133789,0.00898164
3072.59014526,0.00905918
3074.51895264,0.00898240
3076.44776001,0.00897543
3078.37656738,0.00888799
3080.30537476,0.00886076
3082.23418213,0.00879256
3084.16298950,0.00884425
3086.09179687,0.00886262
3088.02060425,0.00872611
3089.94941162,0.00888400
3091.87821899,0.00880227
3093.80702637,0.00877922
3095.73583374,0.00883677
3097.66464111,0.00869809
3099.59344849,0.00874174
3101.52225586,0.00869060
3103.45106323,0.00866668
3105.37987061,0.00861787
3107.30867798,0.00856831
3109.23748535,0.00855445
3111.16629272,0.00853452
3113.09510010,0.00860009
3115.02390747,0.00843380
3116.95271484,0.00842135
3118.88152222,0.00844858
3120.81032959,0.00834944
3122.73913696,0.00841382
3124.66794434,0.00838329
3126.59675171,0.00829608
3128.52555908,0.00831953
3130.45436645,0.00849214
3132.38317383,0.00838873
3134.31198120,0.00820041
3136.24078857,0.00833274
3138.16959595,0.00833929
3140.09840332,0.00831217
3142.02721069,0.00830248
3143.95601807,0.00821487
3145.88482544,0.00814120
3147.81363281,0.00819989
3149.74244019,0.00822885
3151.67124756,0.00810739
3153.60005493,0.00818177
3155.52886230,0.00816080
3157.45766968,0.00813548
3159.38647705,0.00812736
3161.31528442,0.00802277
3163.24409180,0.00816313
3165.17289917,0.00803993
3167.10170654,0.00793066
3169.03051392,0.00802023
3170.95932129,0.00795591
3172.88812866,0.00803786
3174.81693604,0.00796407
3176.74574341,0.00787513
3178.67455078,0.00790555
3180.60335815,0.00788238
3182.53216553,0.00800470
3184.46097290,0.00793624
3186.38978027,0.00781213
3188.31858765,0.00788154
3190.24739502,0.00787995
3192.17620239,0.00780709
3194.10500977,0.00770942
3196.03381714,0.00773111
3197.96262451,0.00784201
3199.89143188,0.00783632
3201.82023926,0.00774161
3203.74904663,0.00772026
3205.67785400,0.00779800
3207.60666138,0.00774432
3209.53546875,0.00773862
3211.46427612,0.00780608
3213.39308350,0.00770469
3215.32189087,0.00770753
3217.25069824,0.00776921
3219.17950562,0.00778823
3221.10831299,0.00773836
3223.03712036,0.00765260
3224.96592773,0.00773072
3226.89473511,0.00773015
3228.82354248,0.00770985
3230.75234985,0.00772901
3232.68115723,0.00774226
3234.60996460,0.00773634
3236.53877197,0.00768926
3238.46757935,0.00780498
3240.39638672,0.00776117
3242.32519409,0.00768019
3244.25400146,0.00773438
3246.18280884,0.00770613
3248.11161621,0.00773702
3250.04042358,0.00771667
3251.96923096,0.00769153
3253.89803833,0.00769299
3255.82684570,0.00769143
3257.75565308,0.00766038
3259.68446045,0.00762044
3261.61326782,0.00771780
3263.54207520,0.00775703
3265.47088257,0.00773124
3267.39968994,0.00772757
3269.32849731,0.00774099
3271.25730469,0.00768230
3273.18611206,0.00767949
3275.11491943,0.00768842
3277.04372681,0.00760973
3278.97253418,0.00771347
3280.90134155,0.00771047
3282.83014893,0.00770460
3284.75895630,0.00771474
3286.68776367,0.00765003
3288.61657104,0.00773403
3290.54537842,0.00768188
3292.47418579,0.00763489
3294.40299316,0.00765158
3296.33180054,0.00769715
3298.26060791,0.00765256
3300.18941528,0.00758502
3302.11822266,0.00767094
3304.04703003,0.00758443
3305.97583740,0.00759365
3307.90464478,0.00760908
3309.83345215,0.00763103
3311.76225952,0.00769619
3313.69106689,0.00755814
3315.61987427,0.00760248
3317.54868164,0.00762716
3319.47748901,0.00754576
3321.40629639,0.00751566
3323.33510376,0.00750690
3325.26391113,0.00753462
3327.19271851,0.00751234
3329.12152588,0.00754773
3331.05033325,0.00754599
3332.97914062,0.00752988
3334.90794800,0.00759008
3336.83675537,0.00757339
3338.76556274,0.00753886
3340.69437012,0.00757956
3342.62317749,0.00751835
3344.55198486,0.00751705
3346.48079224,0.00757976
3348.40959961,0.00745981
3350.33840698,0.00750577
3352.26721436,0.00754908
3354.19602173,0.00750019
3356.12482910,0.00754337
3358.05363647,0.00746039
3359.98244385,0.00742449
3361.91125122,0.00750936
3363.84005859,0.00752460
3365.76886597,0.00751042
3367.69767334,0.00754164
3369.62648071,0.00745912
3371.55528809,0.00751185
3373.48409546,0.00753787
3375.41290283,0.00737080
3377.34171020,0.00747225
3379.27051758,0.00742058
3381.19932495,0.00738768
3383.12813232,0.00745042
3385.05693970,0.00737915
3386.98574707,0.00747458
3388.91455444,0.00744457
3390.84336182,0.00743385
3392.77216919,0.00742533
3394.70097656,0.00740651
3396.62978394,0.00743145
3398.55859131,0.00733759
3400.48739868,0.00737502
3402.41620605,0.00735267
3404.34501343,0.00728369
3406.27382080,0.00733233
3408.20262817,0.00737834
3410.13143555,0.00736078
3412.06024292,0.00736230
3413.98905029,0.00738947
3415.91785767,0.00742754
3417.84666504,0.00744624
3419.77547241,0.00735043
3421.70427979,0.00738119
3423.63308716,0.00730130
3425.56189453,0.00723313
3427.49070190,0.00729169
3429.41950928,0.00719997
3431.34831665,0.00731012
3433.27712402,0.00733560
3435.20593140,0.00717613
3437.13473877,0.00716990
3439.06354614,0.00723349
3440.99235352,0.00715789
3442.92116089,0.00711285
3444.84996826,0.00715241
3446.77877563,0.00705021
3448.70758301,0.00718726
3450.63639038,0.00719638
3452.56519775,0.00715081
3454.49400513,0.00727596
3456.42281250,0.00707790
3458.35161987,0.00707930
3460.28042725,0.00707140
3462.20923462,0.00696343
3464.13804199,0.00702728
3466.06684937,0.00690266
3467.99565674,0.00692322
3469.92446411,0.00708738
3471.85327148,0.00708044
3473.78207886,0.00695218
3475.71088623,0.00688938
3477.63969360,0.00688156
3479.56850098,0.00685302
3481.49730835,0.00692791
3483.42611572,0.00687935
3485.35492310,0.00689134
3487.28373047,0.00693390
3489.21253784,0.00676085
3491.14134521,0.00687226
3493.07015259,0.00690255
3494.99895996,0.00679225
3496.92776733,0.00686247
3498.85657471,0.00676571
3500.78538208,0.00673623
3502.71418945,0.00659739
3504.64299683,0.00660646
3506.57180420,0.00683937
3508.50061157,0.00669396
3510.42941895,0.00665840
3512.35822632,0.00665148
3514.28703369,0.00667640
3516.21584106,0.00672809
3518.14464844,0.00662007
3520.07345581,0.00666605
3522.00226318,0.00650796
3523.93107056,0.00639557
3525.85987793,0.00648178
3527.78868530,0.00641677
3529.71749268,0.00642561
3531.64630005,0.00658270
3533.57510742,0.00659572
3535.50391479,0.00639615
3537.43272217,0.00634272
3539.36152954,0.00644926
3541.29033691,0.00649074
3543.21914429,0.00638887
3545.14795166,0.00620928
3547.07675903,0.00609326
3549.00556641,0.00630683
3550.93437378,0.00638655
3552.86318115,0.00617293
3554.79198853,0.00631941
3556.72079590,0.00630928
3558.64960327,0.00631643
3560.57841064,0.00626018
3562.50721802,0.00603157
3564.43602539,0.00619253
3566.36483276,0.00573744
3568.29364014,0.00544149
3570.22244751,0.00598903
3572.15125488,0.00619744
3574.08006226,0.00616788
3576.00886963,0.00614993
3577.93767700,0.00611434
3579.86648437,0.00610334
3581.79529175,0.00606634
3583.72409912,0.00610004
3585.65290649,0.00586348
3587.58171387,0.00531873
3589.51052124,0.00554992
3591.43932861,0.00601176
3593.36813599,0.00581240
3595.29694336,0.00569502
3597.22575073,0.00580290
3599.15455811,0.00588883
3601.08336548,0.00568413
3603.01217285,0.00573280
3604.94098022,0.00601821
3606.86978760,0.00568865
3608.79859497,0.00523238
3610.72740234,0.00540220
3612.65620972,0.00545278
3614.58501709,0.00524677
3616.51382446,0.00570925
3618.44263184,0.00519769
3620.37143921,0.00503701
3622.30024658,0.00574369
3624.22905395,0.00554042
3626.15786133,0.00591874
3628.08666870,0.00484582
3630.01547607,0.00433492
3631.94428345,0.00562364
3633.87309082,0.00539393
3635.80189819,0.00554565
3637.73070557,0.00564292
3639.65951294,0.00561427
3641.58832031,0.00562479
3643.51712769,0.00544340
3645.44593506,0.00547567
3647.37474243,0.00474845
3649.30354980,0.00433728
3651.23235718,0.00434805
3653.16116455,0.00542737
3655.08997192,0.00541316
3657.01877930,0.00467056
3658.94758667,0.00555466
3660.87639404,0.00536573
3662.80520142,0.00545868
3664.73400879,0.00539301
3666.66281616,0.00527457
3668.59162354,0.00511431
3670.52043091,0.00401485
3672.44923828,0.00512193
3674.37804565,0.00475633
3676.30685303,0.00375066
3678.23566040,0.00499802
3680.16446777,0.00504648
3682.09327515,0.00499981
3684.02208252,0.00528264
3685.95088989,0.00510884
3687.87969727,0.00440487
3689.80850464,0.00408821
3691.73731201,0.00472861
3693.66611938,0.00489069
3695.59492676,0.00504877
3697.52373413,0.00499855
3699.45254150,0.00496460
3701.38134888,0.00478696
3703.31015625,0.00456845
3705.23896362,0.00500709
3707.16777100,0.00475187
3709.09657837,0.00463603
3711.02538574,0.00424436
3712.95419312,0.00393027
3714.88300049,0.00470672
3716.81180786,0.00468854
3718.74061523,0.00462352
3720.66942261,0.00448359
3722.59822998,0.00444373
3724.52703735,0.00454630
3726.45584473,0.00415724
3728.38465210,0.00460641
3730.31345947,0.00454240
3732.24226685,0.00408626
3734.17107422,0.00392827
3736.09988159,0.00372799
3738.02868896,0.00397006
3739.95749634,0.00428327
3741.88630371,0.00449574
3743.81511108,0.00343404
3745.74391846,0.00319915
3747.67272583,0.00429218
3749.60153320,0.00367559
3751.53034058,0.00324358
3753.45914795,0.00379572
3755.38795532,0.00417379
3757.31676270,0.00431498
3759.24557007,0.00399383
3761.17437744,0.00410522
3763.10318481,0.00441926
3765.03199219,0.00411429
3766.96079956,0.00410602
3768.88960693,0.00409485
3770.81841431,0.00393067
3772.74722168,0.00436359
3774.67602905,0.00427179
3776.60483643,0.00418102
3778.53364380,0.00415666
3780.46245117,0.00393279
3782.39125854,0.00424969
3784.32006592,0.00412275
3786.24887329,0.00405879
3788.17768066,0.00416312
3790.10648804,0.00412774
3792.03529541,0.00417525
3793.96410278,0.00423176
3795.89291016,0.00393191
3797.82171753,0.00385244
3799.75052490,0.00407893
3801.67933228,0.00308838
3803.60813965,0.00368621
3805.53694702,0.00408404
3807.46575439,0.00319438
3809.39456177,0.00402234
3811.32336914,0.00395708
3813.25217651,0.00416590
3815.18098389,0.00364091
3817.10979126,0.00311846
3819.03859863,0.00416452
3820.96740601,0.00311003
3822.89621338,0.00333634
3824.82502075,0.00408947
3826.75382812,0.00358684
3828.68263550,0.00383643
3830.61144287,0.00370327
3832.54025024,0.00355887
3834.46905762,0.00359903
3836.39786499,0.00349799
3838.32667236,0.00306053
3840.25547974,0.00337802
3842.18428711,0.00362292
3844.11309448,0.00334967
3846.04190186,0.00382049
3847.97070923,0.00369289
3849.89951660,0.00371267
3851.82832397,0.00328261
3853.75713135,0.00227284
3855.68593872,0.00284008
3857.61474609,0.00370510
3859.54355347,0.00359784
3861.47236084,0.00351367
3863.40116821,0.00344184
3865.32997559,0.00315712
3867.25878296,0.00357281
3869.18759033,0.00314583
3871.11639770,0.00293201
3873.04520508,0.00366799
3874.97401245,0.00324838
3876.90281982,0.00355671
3878.83162720,0.00354424
3880.76043457,0.00293060
3882.68924194,0.00351984
3884.61804932,0.00330545
3886.54685669,0.00300552
3888.47566406,0.00346335
3890.40447144,0.00326937
3892.33327881,0.00304492
3894.26208618,0.00333992
3896.19089355,0.00345919
3898.11970093,0.00337318
3900.04850830,0.00314842
3901.97731567,0.00302332
3903.90612305,0.00299792
3905.83493042,0.00300391
3907.76373779,0.00332756
3909.69254517,0.00339692
3911.62135254,0.00345257
3913.55015991,0.00343721
3915.47896728,0.00321551
3917.40777466,0.00319292
3919.33658203,0.00315079
3921.26538940,0.00330060
3923.19419678,0.00327398
3925.12300415,0.00318475
3927.05181152,0.00321900
3928.98061890,0.00319102
3930.90942627,0.00316277
3932.83823364,0.00302974
3934.76704102,0.00320610
3936.69584839,0.00329139
3938.62465576,0.00322355
3940.55346313,0.00324136
3942.48227051,0.00307106
3944.41107788,0.00309888
3946.33988525,0.00320965
3948.26869263,0.00309482
3950.19750000,0.00310940
3952.12630737,0.00317785
3954.05511475,0.00313465
3955.98392212,0.00319153
3957.91272949,0.00310584
3959.84153687,0.00310788
3961.77034424,0.00310652
3963.69915161,0.00300674
3965.62795898,0.00313808
3967.55676636,0.00300748
3969.48557373,0.00299001
3971.41438110,0.00303406
3973.34318848,0.00297464
3975.27199585,0.00303872
3977.20080322,0.00296351
3979.12961060,0.00305615
3981.05841797,0.00307945
3982.98722534,0.00297349
3984.91603271,0.00293698
3986.84484009,0.00300907
3988.77364746,0.00301311
3990.70245483,0.00286068
3992.63126221,0.00295474
3994.56006958,0.00301800
3996.48887695,0.00294571
3998.41768433,0.00288184
4000.34649170,0.00293125
4002.27529907,0.00293055
4004.20410645,0.00291284
4006.13291382,0.00291903
4008.06172119,0.00280249
4009.99052856,0.00289264
4011.91933594,0.00283302
4013.84814331,0.00276361
4015.77695068,0.00278597
4017.70575806,0.00281650
4019.63456543,0.00289036
4021.56337280,0.00278916
4023.49218018,0.00284514
4025.42098755,0.00273576
4027.34979492,0.00275896
4029.27860229,0.00283380
4031.20740967,0.00269803
4033.13621704,0.00283192
4035.06502441,0.00279205
4036.99383179,0.00269937
4038.92263916,0.00266799
4040.85144653,0.00276812
4042.78025391,0.00278130
4044.70906128,0.00267199
4046.63786865,0.00277888
4048.56667603,0.00261556
4050.49548340,0.00254874
4052.42429077,0.00264924
4054.35309814,0.00269213
4056.28190552,0.00266239
4058.21071289,0.00257492
4060.13952026,0.00268693
4062.06832764,0.00263499
4063.99713501,0.00255686
4065.92594238,0.00261168
4067.85474976,0.00262586
4069.78355713,0.00261670
4071.71236450,0.00265472
4073.64117187,0.00262065
4075.56997925,0.00251429
4077.49878662,0.00260701
4079.42759399,0.00259322
4081.35640137,0.00257411
4083.28520874,0.00258333
4085.21401611,0.00253448
4087.14282349,0.00259887
4089.07163086,0.00253330
4091.00043823,0.00253492
4092.92924561,0.00253186
4094.85805298,0.00245815
4096.78686035,0.00251188
4098.71566772,0.00248539
4100.64447510,0.00247922
4102.57328247,0.00248671
4104.50208984,0.00246903
4106.43089722,0.00248684
4108.35970459,0.00239680
4110.28851196,0.00241231
4112.21731934,0.00251739
4114.14612671,0.00243646
4116.07493408,0.00242506
4118.00374145,0.00246229
4119.93254883,0.00241732
4121.86135620,0.00244793
4123.79016357,0.00240062
4125.71897095,0.00229879
4127.64777832,0.00233160
4129.57658569,0.00237981
4131.50539307,0.00231582
4133.43420044,0.00231639
4135.36300781,0.00242318
4137.29181519,0.00238454
4139.22062256,0.00231798
4141.14942993,0.00237417
4143.07823730,0.00237250
4145.00704468,0.00234698
4146.93585205,0.00230232
4148.86465942,0.00217371
4150.79346680,0.00224765
4152.72227417,0.00228536
4154.65108154,0.00213125
4156.57988892,0.00219544
4158.50869629,0.00224197
4160.43750366,0.00224320
4162.36631103,0.00227229
4164.29511841,0.00219404
4166.22392578,0.00226970
4168.15273315,0.00230138
4170.08154053,0.00222369
4172.01034790,0.00226034
4173.93915527,0.00216879
4175.86796265,0.00213697
4177.79677002,0.00230915
4179.72557739,0.00224556
4181.65438477,0.00209364
4183.58319214,0.00209269
4185.51199951,0.00208651
4187.44080688,0.00210014
4189.36961426,0.00210873
4191.29842163,0.00207963
4193.22722900,0.00211360
4195.15603638,0.00215743
4197.08484375,0.00211278
4199.01365112,0.00209416
4200.94245850,0.00206519
4202.87126587,0.00208305
4204.80007324,0.00210523
4206.72888062,0.00197300
4208.65768799,0.00204815
4210.58649536,0.00211978
4212.51530273,0.00209603
4214.44411011,0.00214915
4216.37291748,0.00203235
4218.30172485,0.00199593
4220.23053223,0.00202734
4222.15933960,0.00203640
4224.08814697,0.00206699
4226.01695435,0.00203590
4227.94576172,0.00203113
4229.87456909,0.00202382
4231.80337646,0.00199417
4233.73218384,0.00196752
4235.66099121,0.00193920
4237.58979858,0.00186079
4239.51860596,0.00189027
4241.44741333,0.00193514
4243.37622070,0.00192300
4245.30502808,0.00196736
4247.23383545,0.00192343
4249.16264282,0.00192505
4251.09145020,0.00189983
4253.02025757,0.00191124
4254.94906494,0.00194706
4256.87787231,0.00184615
4258.80667969,0.00186964
4260.73548706,0.00191392
4262.66429443,0.00186527
4264.59310181,0.00181095
4266.52190918,0.00188821
4268.45071655,0.00190375
4270.37952393,0.00184222
4272.30833130,0.00191008
4274.23713867,0.00186800
4276.16594604,0.00183509
4278.09475342,0.00188153
4280.02356079,0.00188043
4281.95236816,0.00178932
4283.88117554,0.00176658
4285.80998291,0.00181395
4287.73879028,0.00177399
4289.66759766,0.00177640
4291.59640503,0.00173065
4293.52521240,0.00175272
4295.45401978,0.00177209
4297.38282715,0.00173032
4299.31163452,0.00178472
4301.24044189,0.00179352
4303.16924927,0.00175700
4305.09805664,0.00174359
4307.02686401,0.00177661
4308.95567139,0.00171221
4310.88447876,0.00168077
4312.81328613,0.00169078
4314.74209351,0.00172989
4316.67090088,0.00172600
4318.59970825,0.00161514
4320.52851562,0.00175967
4322.45732300,0.00171047
4324.38613037,0.00161745
4326.31493774,0.00170477
4328.24374512,0.00167540
4330.17255249,0.00169771
4332.10135986,0.00166739
4334.03016724,0.00171249
4335.95897461,0.00165938
4337.88778198,0.00163909
4339.81658936,0.00172001
4341.74539673,0.00168211
4343.67420410,0.00168515
4345.60301147,0.00158380
4347.53181885,0.00163873
4349.46062622,0.00166310
4351.38943359,0.00161863
4353.31824097,0.00160924
4355.24704834,0.00152808
4357.17585571,0.00164063
4359.10466309,0.00160296
4361.03347046,0.00157082
4362.96227783,0.00164353
4364.89108520,0.00159486
4366.81989258,0.00155607
4368.74869995,0.00155765
4370.67750732,0.00154095
4372.60631470,0.00148262
4374.53512207,0.00159420
4376.46392944,0.00154410
4378.39273682,0.00148825
4380.32154419,0.00161219
4382.25035156,0.00151820
4384.17915894,0.00149892
4386.10796631,0.00151971
4388.03677368,0.00150763
4389.96558105,0.00151475
4391.89438843,0.00150913
4393.82319580,0.00155430
4395.75200317,0.00150148
4397.68081055,0.00151151
4399.60961792,0.00153714
4401.53842529,0.00148850
4403.46723267,0.00150459
4405.39604004,0.00148529
4407.32484741,0.00149494
4409.25365478,0.00149966
4411.18246216,0.00147090
4413.11126953,0.00146572
4415.04007690,0.00142291
4416.96888428,0.00151550
4418.89769165,0.00150702
4420.82649902,0.00140167
4422.75530640,0.00145265
4424.68411377,0.00138309
4426.61292114,0.00145103
4428.54172852,0.00153888
4430.47053589,0.00141778
4432.39934326,0.00141262
4434.32815063,0.00146858
4436.25695801,0.00148018
4438.18576538,0.00137829
4440.11457275,0.00141581
4442.04338013,0.00144326
4443.97218750,0.00135155
4445.90099487,0.00142463
4447.82980225,0.00136285
4449.75860962,0.00132705
4451.68741699,0.00136454
4453.61622437,0.00133565
4455.54503174,0.00141119
4457.47383911,0.00140106
4459.40264648,0.00135051
4461.33145386,0.00138405
4463.26026123,0.00136272
4465.18906860,0.00135986
4467.11787598,0.00140095
4469.04668335,0.00132930
4470.97549072,0.00131525
4472.90429810,0.00134027
4474.83310547,0.00133614
4476.76191284,0.00137058
4478.69072021,0.00128036
4480.61952759,0.00126258
4482.54833496,0.00134099
4484.47714233,0.00134477
4486.40594971,0.00130892
4488.33475708,0.00129449
4490.26356445,0.00134345
4492.19237183,0.00130767
4494.12117920,0.00123492
4496.04998657,0.00126080
4497.97879395,0.00129254
4499.90760132,0.00125752
4501.83640869,0.00128530
4503.76521606,0.00127744
4505.69402344,0.00121891
4507.62283081,0.00124505
4509.55163818,0.00123471
4511.48044556,0.00126175
4513.40925293,0.00127330
4515.33806030,0.00127375
4517.26686768,0.00126888
4519.19567505,0.00124538
4521.12448242,0.00127832
4523.05328979,0.00122765
4524.98209717,0.00123197
4526.91090454,0.00127099
4528.83971191,0.00122822
4530.76851929,0.00112521
4532.69732666,0.00112155
4534.62613403,0.00120655
4536.55494141,0.00118167
4538.48374878,0.00119146
4540.41255615,0.00118555
4542.34136353,0.00121090
4544.27017090,0.00113157
4546.19897827,0.00106225
4548.12778564,0.00121706
4550.05659302,0.00116209
4551.98540039,0.00106747
4553.91420776,0.00111732
4555.84301514,0.00120770
4557.77182251,0.00120458
4559.70062988,0.00115481
4561.62943726,0.00118204
4563.55824463,0.00112540
4565.48705200,0.00107690
4567.41585937,0.00104053
4569.34466675,0.00109764
4571.27347412,0.00111489
4573.20228149,0.00105497
4575.13108887,0.00115334
4577.05989624,0.00116432
4578.98870361,0.00107295
4580.91751099,0.00107911
4582.84631836,0.00109749
4584.77512573,0.00105591
4586.70393311,0.00116175
4588.63274048,0.00115567
4590.56154785,0.00101320
4592.49035522,0.00103134
4594.41916260,0.00100349
4596.34796997,0.00107915
4598.27677734,0.00108427
4600.20558472,0.00100864
4602.13439209,0.00103053
4604.06319946,0.00096837
4605.99200684,0.00100404
4607.92081421,0.00103892
4609.84962158,0.00101921
4611.77842895,0.00102899
4613.70723633,0.00104634
4615.63604370,0.00101226
4617.56485107,0.00100250
4619.49365845,0.00107390
4621.42246582,0.00104560
4623.35127319,0.00101989
4625.28008057,0.00097305
4627.20888794,0.00093936
4629.13769531,0.00091754
4631.06650269,0.00094326
4632.99531006,0.00103899
4634.92411743,0.00098816
4636.85292480,0.00101650
4638.78173218,0.00102401
4640.71053955,0.00096499
4642.63934692,0.00102626
4644.56815430,0.00101972
4646.49696167,0.00097199
4648.42576904,0.00098911
4650.35457642,0.00100740
4652.28338379,0.00094376
4654.21219116,0.00090532
4656.14099853,0.00095019
4658.06980591,0.00096817
4659.99861328,0.00092711
4661.92742065,0.00095228
4663.85622803,0.00097982
4665.78503540,0.00091145
4667.71384277,0.00085902
4669.64265015,0.00086282
4671.57145752,0.00098254
4673.50026489,0.00094551
4675.42907227,0.00091073
4677.35787964,0.00099294
4679.28668701,0.00088107
4681.21549438,0.00092210
4683.14430176,0.00089698
4685.07310913,0.00083480
4687.00191650,0.00095379
4688.93072388,0.00088253
4690.85953125,0.00090804
4692.78833862,0.00092463
4694.71714600,0.00082974
4696.64595337,0.00088461
4698.57476074,0.00084802
4700.50356812,0.00077019
4702.43237549,0.00077867
4704.36118286,0.00084530
4706.28999023,0.00091384
4708.21879761,0.00086881
4710.14760498,0.00091212
4712.07641235,0.00089998
4714.00521973,0.00081461
4715.93402710,0.00094684
4717.86283447,0.00091185
4719.79164185,0.00081162
4721.72044922,0.00084032
4723.64925659,0.00081675
4725.57806396,0.00078861
4727.50687134,0.00078883
4729.43567871,0.00088513
4731.36448608,0.00075474
4733.29329346,0.00073915
4735.22210083,0.00092585
4737.15090820,0.00080850
4739.07971558,0.00084612
4741.00852295,0.00090850
4742.93733032,0.00081551
4744.86613770,0.00075216
4746.79494507,0.00077036
4748.72375244,0.00086420
4750.65255981,0.00077359
4752.58136719,0.00076987
4754.51017456,0.00080863
4756.43898193,0.00076874
4758.36778931,0.00082380
4760.29659668,0.00085911
4762.22540405,0.00086356
4764.15421143,0.00084789
4766.08301880,0.00085429
4768.01182617,0.00085813
4769.94063354,0.00076175
4771.86944092,0.00062538
4773.79824829,0.00071530
4775.72705566,0.00079789
4777.65586304,0.00073235
4779.58467041,0.00078630
4781.51347778,0.00070668
4783.44228516,0.00073189
4785.37109253,0.00079662
4787.29989990,0.00064602
4789.22870728,0.00072716
4791.15751465,0.00081920
4793.08632202,0.00077237
4795.01512939,0.00072783
4796.94393677,0.00073299
4798.87274414,0.00079881
4800.80155151,0.00077143
4802.73035889,0.00072615
4804.65916626,0.00067971
4806.58797363,0.00072451
4808.51678101,0.00079565
4810.44558838,0.00073563
4812.37439575,0.00077991
4814.30320312,0.00079022
4816.23201050,0.00069080
4818.16081787,0.00072617
4820.08962524,0.00073115
4822.01843262,0.00072362
4823.94723999,0.00076720
4825.87604736,0.00075951
4827.80485474,0.00079726
4829.73366211,0.00073505
4831.66246948,0.00069920
4833.59127686,0.00076966
4835.52008423,0.00068596
4837.44889160,0.00066945
4839.37769897,0.00071281
4841.30650635,0.00069617
4843.23531372,0.00066979
4845.16412109,0.00066992
4847.09292847,0.00074052
4849.02173584,0.00072364
4850.95054321,0.00071015
4852.87935059,0.00068985
4854.80815796,0.00069538
4856.73696533,0.00075023
4858.66577270,0.00065995
4860.59458008,0.00068360
4862.52338745,0.00073689
4864.45219482,0.00063424
4866.38100220,0.00060029
4868.30980957,0.00065781
4870.23861694,0.00066564
4872.16742432,0.00060592
4874.09623169,0.00060843
4876.02503906,0.00059408
4877.95384644,0.00063482
4879.88265381,0.00068094
4881.81146118,0.00061400
4883.74026855,0.00067010
4885.66907593,0.00067383
4887.59788330,0.00061429
4889.52669067,0.00063171
4891.45549805,0.00064453
4893.38430542,0.00065812
4895.31311279,0.00058513
4897.24192017,0.00060409
4899.17072754,0.00069874
4901.09953491,0.00064533
4903.02834228,0.00064022
4904.95714966,0.00063175
4906.88595703,0.00054647
4908.81476440,0.00060760
4910.74357178,0.00058439
4912.67237915,0.00059104
4914.60118652,0.00068643
4916.52999390,0.00051390
4918.45880127,0.00058174
4920.38760864,0.00064959
4922.31641602,0.00055832
4924.24522339,0.00066265
4926.17403076,0.00055539
4928.10283813,0.00062347
4930.03164551,0.00065012
4931.96045288,0.00050755
4933.88926025,0.00063194
4935.81806763,0.00058123
4937.74687500,0.00059703
4939.67568237,0.00062314
4941.60448975,0.00055935
4943.53329712,0.00062977
4945.46210449,0.00056830
4947.39091187,0.00055294
4949.31971924,0.00058769
4951.24852661,0.00058128
4953.17733398,0.00063639
4955.10614136,0.00065069
4957.03494873,0.00056890
4958.96375610,0.00049613
4960.89256348,0.00052704
4962.82137085,0.00058268
4964.75017822,0.00058469
4966.67898560,0.00052793
4968.60779297,0.00047283
4970.53660034,0.00052345
4972.46540771,0.00061842
4974.39421509,0.00056244
4976.32302246,0.00053796
4978.25182983,0.00056849
4980.18063721,0.00049685
4982.10944458,0.00054573
4984.03825195,0.00061773
4985.96705933,0.00055493
4987.89586670,0.00048355
4989.82467407,0.00049559
4991.75348145,0.00045810
4993.68228882,0.00045961
4995.61109619,0.00054771
4997.53990356,0.00053328
4999.46871094,0.00058717
5001.39751831,0.00050653
5003.32632568,0.00047522
5005.25513306,0.00058176
5007.18394043,0.00050693
5009.11274780,0.00054405
5011.04155518,0.00054057
5012.97036255,0.00052210
5014.89916992,0.00050881
5016.82797729,0.00048035
5018.75678467,0.00052866
5020.68559204,0.00045846
5022.61439941,0.00046524
5024.54320679,0.00044624
5026.47201416,0.00043945
5028.40082153,0.00043364
5030.32962891,0.00037943
5032.25843628,0.00044368
5034.18724365,0.00043091
5036.11605103,0.00049172
5038.04485840,0.00052053
5039.97366577,0.00045456
5041.90247314,0.00049743
5043.83128052,0.00049587
5045.76008789,0.00041703
5047.68889526,0.00045154
5049.61770264,0.00054300
5051.54651001,0.00044661
5053.47531738,0.00044382
5055.40412476,0.00048051
5057.33293213,0.00042572
5059.26173950,0.00047901
5061.19054687,0.00044575
5063.11935425,0.00042083
5065.04816162,0.00044476
5066.97696899,0.00043963
5068.90577637,0.00046221
5070.83458374,0.00042594
5072.76339111,0.00043592
5074.69219849,0.00048960
5076.62100586,0.00044182
5078.54981323,0.00043594
5080.47862061,0.00053683
5082.40742798,0.00050498
5084.33623535,0.00043813
5086.26504272,0.00053345
5088.19385010,0.00048726
5090.12265747,0.00034271
5092.05146484,0.00040406
5093.98027222,0.00042899
5095.90907959,0.00046978
5097.83788696,0.00050752
5099.76669434,0.00035348
5101.69550171,0.00038523
5103.62430908,0.00045593
5105.55311645,0.00045180
5107.48192383,0.00047186
5109.41073120,0.00040727
5111.33953857,0.00039887
5113.26834595,0.00037459
5115.19715332,0.00036245
5117.12596069,0.00040360
5119.05476807,0.00044569
5120.98357544,0.00042784
5122.91238281,0.00043664
5124.84119019,0.00049301
5126.76999756,0.00041901
5128.69880493,0.00043540
5130.62761230,0.00040833
5132.55641968,0.00035930
5134.48522705,0.00039510
5136.41403442,0.00037867
5138.34284180,0.00043856
5140.27164917,0.00038660
5142.20045654,0.00033711
5144.12926392,0.00038426
5146.05807129,0.00039038
5147.98687866,0.00037612
5149.91568603,0.00036199
5151.84449341,0.00043327
5153.77330078,0.00043486
5155.70210815,0.00036728
5157.63091553,0.00035790
5159.55972290,0.00034172
5161.48853027,0.00031717
5163.41733765,0.00040840
5165.34614502,0.00042428
5167.27495239,0.00036258
5169.20375977,0.00036535
5171.13256714,0.00028808
5173.06137451,0.00031247
5174.99018188,0.00036900
5176.91898926,0.00044479
5178.84779663,0.00041301
5180.77660400,0.00030315
5182.70541138,0.00040090
5184.63421875,0.00040957
5186.56302612,0.00045614
5188.49183350,0.00038843
5190.42064087,0.00034102
5192.34944824,0.00042921
5194.27825562,0.00028183
5196.20706299,0.00029475
5198.13587036,0.00035052
5200.06467773,0.00036283
5201.99348511,0.00037559
5203.92229248,0.00039223
5205.85109985,0.00040269
5207.77990723,0.00028560
5209.70871460,0.00036732
5211.63752197,0.00040076
5213.56632935,0.00036743
5215.49513672,0.00038061
5217.42394409,0.00036180
5219.35275146,0.00033425
5221.28155884,0.00026064
5223.21036621,0.00035944
5225.13917358,0.00034585
5227.06798096,0.00030943
5228.99678833,0.00034676
5230.92559570,0.00022671
5232.85440308,0.00024647
5234.78321045,0.00031086
5236.71201782,0.00034487
5238.64082520,0.00040807
5240.56963257,0.00034269
5242.49843994,0.00030111
5244.42724731,0.00034136
5246.35605469,0.00028294
5248.28486206,0.00030771
5250.21366943,0.00034751
5252.14247681,0.00030791
5254.07128418,0.00034668
5256.00009155,0.00031100
5257.92889893,0.00029777
5259.85770630,0.00029209
5261.78651367,0.00031480
5263.71532104,0.00037099
5265.64412842,0.00033555
5267.57293579,0.00034993
5269.50174316,0.00032227
5271.43055054,0.00029903
5273.35935791,0.00028491
5275.28816528,0.00029161
5277.21697266,0.00035275
5279.14578003,0.00034510
5281.07458740,0.00029954
5283.00339478,0.00025323
5284.93220215,0.00028359
5286.86100952,0.00031492
5288.78981689,0.00030657
5290.71862427,0.00026109
5292.64743164,0.00032262
5294.57623901,0.00039485
5296.50504639,0.00027190
5298.43385376,0.00024798
5300.36266113,0.00027552
5302.29146851,0.00030609
5304.22027588,0.00033434
5306.14908325,0.00031325
5308.07789062,0.00026519
5310.00669800,0.00017339
5311.93550537,0.00025913
5313.86431274,0.00030963
5315.79312012,0.00022273
5317.72192749,0.00021807
5319.65073486,0.00025354
5321.57954224,0.00030954
5323.50834961,0.00035844
5325.43715698,0.00032747
5327.36596436,0.00027992
5329.29477173,0.00021456
5331.22357910,0.00021271
5333.15238647,0.00034563
5335.08119385,0.00024267
5337.01000122,0.00021558
5338.93880859,0.00030292
5340.86761597,0.00023413
5342.79642334,0.00030672
5344.72523071,0.00020238
5346.65403809,0.00020347
5348.58284546,0.00029762
5350.51165283,0.00020919
5352.44046020,0.00027193
5354.36926758,0.00026374
5356.29807495,0.00028603
5358.22688232,0.00025741
5360.15568970,0.00025387
5362.08449707,0.00037784
5364.01330444,0.00033055
5365.94211182,0.00029835
5367.87091919,0.00026954
5369.79972656,0.00023618
5371.72853394,0.00025851
5373.65734131,0.00030342
5375.58614868,0.00027519
5377.51495605,0.00023771
5379.44376343,0.00025728
5381.37257080,0.00024377
5383.30137817,0.00027737
5385.23018555,0.00025527
5387.15899292,0.00028092
5389.08780029,0.00029565
5391.01660767,0.00022155
5392.94541504,0.00022363
5394.87422241,0.00021879
5396.80302978,0.00019437
5398.73183716,0.00022430
5400.66064453,0.00031185
5402.58945190,0.00020433
5404.51825928,0.00015904
5406.44706665,0.00026407
5408.37587402,0.00021893
5410.30468140,0.00023422
5412.23348877,0.00019500
5414.16229614,0.00018384
5416.09110352,0.00026588
5418.01991089,0.00024889
5419.94871826,0.00021802
5421.87752563,0.00021293
5423.80633301,0.00026310
5425.73514038,0.00022500
5427.66394775,0.00018378
5429.59275513,0.00021697
5431.52156250,0.00019882
5433.45036987,0.00022265
5435.37917725,0.00022503
5437.30798462,0.00020916
5439.23679199,0.00022445
5441.16559936,0.00018726
5443.09440674,0.00017124
5445.02321411,0.00016606
5446.95202148,0.00020867
5448.88082886,0.00022540
5450.80963623,0.00016271
5452.73844360,0.00027153
5454.66725098,0.00023460
5456.59605835,0.00012810
5458.52486572,0.00022323
5460.45367310,0.00019256
5462.38248047,0.00018486
5464.31128784,0.00019055
5466.24009521,0.00020830
5468.16890259,0.00020773
5470.09770996,0.00017761
5472.02651733,0.00021806
5473.95532471,0.00012857
5475.88413208,0.00020879
5477.81293945,0.00020501
5479.74174683,0.00012484
5481.67055420,0.00022283
5483.59936157,0.00015393
5485.52816895,0.00021622
5487.45697632,0.00022957
5489.38578369,0.00016764
5491.31459106,0.00023272
5493.24339844,0.00018143
5495.17220581,0.00015930
5497.10101318,0.00014201
5499.02982056,0.00014725
5500.95862793,0.00017855
5502.88743530,0.00019493
5504.81624268,0.00021372
5506.74505005,0.00017455
5508.67385742,0.00019228
5510.60266479,0.00021770
5512.53147217,0.00021370
5514.46027954,0.00021221
5516.38908691,0.00018736
5518.31789429,0.00018849
5520.24670166,0.00022449
5522.17550903,0.00024013
5524.10431641,0.00018731
5526.03312378,0.00013205
5527.96193115,0.00017334
5529.89073853,0.00023498
5531.81954590,0.00021526
5533.74835327,0.00018602
5535.67716064,0.00020524
5537.60596802,0.00018490
5539.53477539,0.00015314
5541.46358276,0.00020014
5543.39239014,0.00014556
5545.32119751,0.00012391
5547.25000488,0.00018190
5549.17881226,0.00012292
5551.10761963,0.00017071
5553.03642700,0.00017976
5554.96523437,0.00014344
5556.89404175,0.00011964
5558.82284912,0.00009800
5560.75165649,0.00018857
5562.68046387,0.00015689
5564.60927124,0.00021660
5566.53807861,0.00022808
5568.46688599,0.00019372
5570.39569336,0.00025610
5572.32450073,0.00010631
5574.25330811,0.00010504
5576.18211548,0.00020290
5578.11092285,0.00020944
5580.03973022,0.00014866
5581.96853760,0.00013399
5583.89734497,0.00021916
5585.82615234,0.00014333
5587.75495972,0.00020675
5589.68376709,0.00023329
5591.61257446,0.00011782
5593.54138184,0.00014908
5595.47018921,0.00017623
5597.39899658,0.00026191
5599.32780395,0.00023162
5601.25661133,0.00011843
5603.18541870,0.00014804
5605.11422607,0.00012548
5607.04303345,0.00011968
5608.97184082,0.00014966
5610.90064819,0.00011982
5612.82945557,0.00014103
5614.75826294,0.00012081
5616.68707031,0.00010130
5618.61587769,0.00014236
5620.54468506,0.00008452
5622.47349243,0.00011366
5624.40229980,0.00017924
5626.33110718,0.00013905
5628.25991455,0.00016307
5630.18872192,0.00014763
5632.11752930,0.00009465
5634.04633667,0.00014438
5635.97514404,0.00015674
5637.90395142,0.00012883
5639.83275879,0.00015794
5641.76156616,0.00012385
5643.69037353,0.00017567
5645.61918091,0.00023932
5647.54798828,0.00010915
5649.47679565,0.00009414
5651.40560303,0.00012107
5653.33441040,0.00010672
5655.26321777,0.00017273
5657.19202515,0.00018333
5659.12083252,0.00010572
5661.04963989,0.00005243
5662.97844727,0.00010551
5664.90725464,0.00017025
5666.83606201,0.00018490
5668.76486938,0.00017126
5670.69367676,0.00016374
5672.62248413,0.00015133
5674.55129150,0.00014418
5676.48009888,0.00012834
5678.40890625,0.00012542
5680.33771362,0.00014730
5682.26652100,0.00009496
5684.19532837,0.00015501
5686.12413574,0.00019655
5688.05294311,0.00014324
5689.98175049,0.00012598
5691.91055786,0.00008699
5693.83936523,0.00010928
5695.76817261,0.00011353
5697.69697998,0.00015035
5699.62578735,0.00009954
5701.55459473,0.00011085
5703.48340210,0.00022414
5705.41220947,0.00015093
5707.34101685,0.00018320
5709.26982422,0.00012855
5711.19863159,0.00011201
5713.12743896,0.00018103
5715.05624634,0.00008265
5716.98505371,0.00013900
5718.91386108,0.00016989
5720.84266846,0.00015595
5722.77147583,0.00011721
5724.70028320,0.00010373
5726.62909058,0.00020580
5728.55789795,0.00014689
5730.48670532,0.00010886
5732.41551270,0.00013117
5734.34432007,0.00008844
5736.27312744,0.00010665
5738.20193481,0.00015945
5740.13074219,0.00012662
5742.05954956,0.00012251
5743.98835693,0.00014159
5745.91716431,0.00008243
5747.84597168,0.00015397
5749.77477905,0.00022324
5751.70358643,0.00015188
5753.63239380,0.00011570
5755.56120117,0.00015289
5757.49000854,0.00012629
5759.41881592,0.00006333
5761.34762329,0.00012860
5763.27643066,0.00011283
5765.20523804,0.00008685
5767.13404541,0.00011493
5769.06285278,0.00006849
5770.99166016,0.00015466
5772.92046753,0.00018535
5774.84927490,0.00018150
5776.77808228,0.00023662
5778.70688965,0.00008618
5780.63569702,0.00007622
5782.56450439,0.00017970
5784.49331177,0.00011733
5786.42211914,0.00005243
5788.35092651,0.00001241
5790.27973389,0.00015664
5792.20854126,0.00018887
5794.13734863,0.00009007
5796.06615601,0.00014295
5797.99496338,0.00007639
5799.92377075,0.00012517
5801.85257812,0.00015268
5803.78138550,0.00010145
5805.71019287,0.00012776
5807.63900024,0.00001540
5809.56780762,0.00010880
5811.49661499,0.00013917
5813.42542236,0.00005667
5815.35422974,0.00014628
5817.28303711,0.00011458
5819.21184448,0.00010548
5821.14065186,0.00010275
5823.06945923,0.00006797
5824.99826660,0.00006408
5826.92707397,0.00009836
5828.85588135,0.00016526
5830.78468872,0.00011403
5832.71349609,0.00010386
5834.64230347,0.00008955
5836.57111084,0.00006226
5838.49991821,0.00010672
5840.42872559,0.00008879
5842.35753296,0.00010061
5844.28634033,0.00009607
5846.21514770,0.00010519
5848.14395508,0.00014403
5850.07276245,0.00009997
5852.00156982,0.00010118
5853.93037720,0.00006128
5855.85918457,0.00007173
5857.78799194,0.00011985
5859.71679932,0.00008723
5861.64560669,0.00016344
5863.57441406,0.00011666
5865.50322144,0.00007138
5867.43202881,0.00010318
5869.36083618,0.00002712
5871.28964355,0.00004990
5873.21845093,0.00006790
5875.14725830,0.00009924
5877.07606567,0.00013122
5879.00487305,0.00012533
5880.93368042,0.00012740
5882.86248779,0.00008452
5884.79129517,0.00007995
5886.72010254,0.00007373
5888.64890991,0.00009908
5890.57771728,0.00009413
5892.50652466,0.00008638
5894.43533203,0.00008422
5896.36413940,0.00010382
5898.29294678,0.00014530
5900.22175415,0.00005112
5902.15056152,0.00007008
5904.07936890,0.00010748
5906.00817627,0.00010729
5907.93698364,0.00008867
5909.86579102,0.00002461
5911.79459839,0.00008463
5913.72340576,0.00006425
5915.65221313,0.00005035
5917.58102051,0.00004698
5919.50982788,0.00004748
5921.43863525,0.00006789
5923.36744263,0.00006704
5925.29625000,0.00011058
5927.22505737,0.00003203
5929.15386475,0.00007527
5931.08267212,0.00010574
5933.01147949,0.00009141
5934.94028686,0.00014721
5936.86909424,0.00007173
5938.79790161,0.00012832
5940.72670898,0.00014245
5942.65551636,0.00009721
5944.58432373,0.00013342
5946.51313110,0.00010970
5948.44193848,0.00008760
5950.37074585,0.00005910
5952.29955322,0.00007315
5954.22836060,0.00006884
5956.15716797,0.00004145
5958.08597534,0.00007333
5960.01478271,0.00010364
5961.94359009,0.00010488
5963.87239746,0.00012911
5965.80120483,0.00011401
5967.73001221,0.00008119
5969.65881958,0.00009841
5971.58762695,0.00006109
5973.51643433,0.00006052
5975.44524170,0.00006916
5977.37404907,0.00007011
5979.30285645,0.00004972
5981.23166382,0.00002862
5983.16047119,0.00006663
5985.08927856,0.00005230
5987.01808594,0.00006949
5988.94689331,0.00000835
5990.87570068,0.00005296
5992.80450806,0.00012844
5994.73331543,0.00000119
5996.66212280,0.00003047
5998.59093018,0.00005473
6000.51973755,0.00004305
