399.26312622,0.00014305
401.19193359,0.00014926
403.12074097,0.00041724
405.04954834,0.00040494
406.97835571,0.00019646
408.90716309,0.00010889
410.83597046,0.00041944
412.76477783,0.00024108
414.69358521,0.00023898
416.62239258,0.00056398
418.55119995,0.00035453
420.48000732,0.00053698
422.40881470,0.00033452
424.33762207,0.00021092
426.26642944,0.00064127
428.19523682,0.00020920
430.12404419,0.00043008
432.05285156,0.00073543
433.98165894,0.00042933
435.91046631,0.00050459
437.83927368,0.00030376
439.76808105,0.00043803
441.69688843,0.00047380
443.62569580,0.00018262
445.55450317,0.00017954
447.48331055,0.00036721
449.41211792,0.00059605
451.34092529,0.00045705
453.26973267,0.00050190
455.19854004,0.00014321
457.12734741,-0.00005249
459.05615479,0.00036227
460.98496216,0.00015965
462.91376953,0.00013714
464.84257690,0.00037284
466.77138428,0.00038423
468.70019165,0.00011128
470.62899902,0.00013042
472.55780640,0.00032560
474.48661377,-0.00004820
476.41542114,-0.00010813
478.34422852,0.00005261
480.27303589,0.00004479
482.20184326,0.00004248
484.13065063,0.00021674
486.05945801,0.00015753
487.98826538,0.00005680
489.91707275,0.00025867
491.84588013,0.00011938
493.77468750,0.00008393
495.70349487,-0.00002375
497.63230225,0.00016936
499.56110962,0.00023654
501.48991699,-0.00006212
503.41872437,0.00034590
505.34753174,0.00012969
507.27633911,0.00007988
509.20514648,0.00042247
511.13395386,0.00011674
513.06276123,0.00016486
514.99156860,0.00039396
516.92037598,0.00033605
518.84918335,0.00008782
520.77799072,0.00017688
522.70679810,0.00022159
524.63560547,0.00014694
526.56441284,0.00013570
528.49322021,-0.00028519
530.42202759,-0.00006220
532.35083496,0.00016462
534.27964233,0.00001643
536.20844971,-0.00001260
538.13725708,-0.00017349
540.06606445,0.00014810
541.99487183,0.00018794
543.92367920,-0.00010895
545.85248657,0.00026647
547.78129395,0.00039282
549.71010132,0.00035107
551.63890869,0.00032835
553.56771606,-0.00013889
555.49652344,0.00036163
557.42533081,0.00051796
559.35413818,0.00028970
561.28294556,0.00024096
563.21175293,-0.00005346
565.14056030,0.00031560
567.06936768,0.00004490
568.99817505,-0.00009604
570.92698242,0.00036561
572.85578979,0.00005310
574.78459717,0.00011264
576.71340454,0.00054482
578.64221191,0.00047019
580.57101929,0.00026757
582.49982666,0.00022550
584.42863403,0.00038812
586.35744141,0.00030516
588.28624878,-0.00002958
590.21505615,0.00016672
592.14386353,0.00028156
594.07267090,0.00005627
596.00147827,0.00011019
597.93028564,0.00004142
599.85909302,0.00015817
601.78790039,0.00030285
603.71670776,0.00024237
605.64551514,0.00045395
607.57432251,0.00027272
609.50312988,0.00011722
611.43193726,0.00012100
613.36074463,0.00016553
615.28955200,0.00039929
617.21835938,0.00014758
619.14716675,0.00009119
621.07597412,0.00014520
623.00478149,0.00005740
624.93358887,0.00010838
626.86239624,0.00018212
628.79120361,0.00037731
630.72001099,0.00033589
632.64881836,0.00046883
634.57762573,0.00030288
636.50643311,0.00028062
638.43524048,0.00070975
640.36404785,0.00039679
642.29285522,0.00039324
644.22166260,0.00042990
646.15046997,0.00055686
648.07927734,0.00080539
650.00808472,0.00066081
651.93689209,0.00080205
653.86569946,0.00072869
655.79450684,0.00089384
657.72331421,0.00076109
659.65212158,0.00051108
661.58092896,0.00061757
663.50973633,0.00060770
665.43854370,0.00093154
667.36735107,0.00079249
669.29615845,0.00081799
671.22496582,0.00078504
673.15377319,0.00088215
675.08258057,0.00125254
677.01138794,0.00096376
678.94019531,0.00116906
680.86900269,0.00089245
682.79781006,0.00066221
684.72661743,0.00099822
686.65542480,0.00105477
688.58423218,0.00113604
690.51303955,0.00088570
692.44184692,0.00110650
694.37065430,0.00111843
696.29946167,0.00113413
698.22826904,0.00163356
700.15707642,0.00155554
702.08588379,0.00142757
704.01469116,0.00125264
705.94349854,0.00128062
707.87230591,0.00116920
709.80111328,0.00071574
711.72992065,0.00062775
713.65872803,0.00051569
715.58753540,0.00035662
717.51634277,0.00033896
719.44515015,0.00024735
721.37395752,0.00019951
723.30276489,0.00018824
725.23157227,-0.00012696
727.16037964,0.00021999
729.08918701,0.00049150
731.01799438,-0.00003030
732.94680176,0.00027842
734.87560913,0.00037696
736.80441650,0.00009880
738.73322388,0.00036090
740.66203125,0.00043402
742.59083862,0.00039244
744.51964600,0.00026773
746.44845337,0.00009955
748.37726074,0.00032137
750.30606812,0.00047301
752.23487549,0.00011131
754.16368286,0.00012372
756.09249023,0.00019205
758.02129761,0.00011379
759.95010498,0.00022319
761.87891235,0.00024202
763.80771973,0.00046236
765.73652710,0.00025904
767.66533447,0.00022565
769.59414185,0.00028164
771.52294922,0.00016429
773.45175659,0.00042157
775.38056396,0.00017660
777.30937134,0.00016379
779.23817871,0.00006978
781.16698608,0.00011218
783.09579346,0.00045718
785.02460083,0.00028486
786.95340820,0.00030223
788.88221558,0.00015571
790.81102295,0.00044453
792.73983032,0.00048326
794.66863770,0.00011806
796.59744507,0.00036263
798.52625244,0.00032136
800.45505981,0.00036589
802.38386719,0.00038034
804.31267456,0.00014338
806.24148193,0.00014481
808.17028931,0.00035237
810.09909668,0.00030509
812.02790405,0.00018042
813.95671143,0.00029171
815.88551880,0.00029478
817.81432617,0.00047497
819.74313354,0.00036658
821.67194092,0.00035517
823.60074829,0.00040218
825.52955566,0.00018431
827.45836304,0.00045755
829.38717041,0.00042848
831.31597778,0.00028138
833.24478516,0.00041436
835.17359253,0.00050392
837.10239990,0.00036685
839.03120728,0.00023899
840.96001465,0.00023845
842.88882202,0.00013502
844.81762939,0.00034746
846.74643677,0.00024863
848.67524414,0.00022370
850.60405151,0.00044924
852.53285889,0.00038470
854.46166626,0.00040471
856.39047363,0.00033606
858.31928101,0.00038012
860.24808838,0.00027105
862.17689575,0.00022615
864.10570313,0.00046080
866.03451050,0.00046379
867.96331787,0.00044279
869.89212524,0.00049570
871.82093262,0.00038805
873.74973999,0.00009531
875.67854736,0.00032776
877.60735474,0.00037497
879.53616211,0.00021194
881.46496948,0.00053525
883.39377686,0.00042000
885.32258423,0.00038856
887.25139160,0.00047197
889.18019897,0.00041065
891.10900635,0.00039839
893.03781372,0.00034660
894.96662109,0.00054483
896.89542847,0.00040954
898.82423584,0.00027728
900.75304321,0.00036720
902.68185059,0.00034713
904.61065796,0.00048835
906.53946533,0.00057345
908.46827271,0.00055636
910.39708008,0.00042916
912.32588745,0.00043758
914.25469482,0.00059798
916.18350220,0.00060541
918.11230957,0.00057532
920.04111694,0.00057769
921.96992432,0.00067739
923.89873169,0.00071366
925.82753906,0.00065569
927.75634644,0.00064977
929.68515381,0.00075022
931.61396118,0.00073538
933.54276855,0.00050119
935.47157593,0.00060347
937.40038330,0.00077610
939.32919067,0.00070388
941.25799805,0.00075743
943.18680542,0.00082649
945.11561279,0.00076943
947.04442017,0.00087668
948.97322754,0.00101712
950.90203491,0.00071812
952.83084229,0.00073005
954.75964966,0.00100589
956.68845703,0.00088307
958.61726440,0.00088611
960.54607178,0.00079425
962.47487915,0.00079308
964.40368652,0.00092557
966.33249390,0.00091331
968.26130127,0.00103613
970.19010864,0.00094728
972.11891602,0.00102031
974.04772339,0.00099614
975.97653076,0.00092811
977.90533813,0.00129153
979.83414551,0.00113607
981.76295288,0.00110729
983.69176025,0.00150921
985.62056763,0.00155745
987.54937500,0.00151521
989.47818237,0.00149146
991.40698975,0.00160715
993.33579712,0.00180247
995.26460449,0.00185800
997.19341187,0.00194351
999.12221924,0.00206304
1001.05102661,0.00221518
1002.97983398,0.00244930
1004.90864136,0.00266274
1006.83744873,0.00286430
1008.76625610,0.00287687
1010.69506348,0.00295260
1012.62387085,0.00308529
1014.55267822,0.00300313
1016.48148560,0.00330607
1018.41029297,0.00342724
1020.33910034,0.00335055
1022.26790771,0.00380448
1024.19671509,0.00404641
1026.12552246,0.00399542
1028.05432983,0.00407453
1029.98313721,0.00427971
1031.91194458,0.00446054
1033.84075195,0.00462098
1035.76955933,0.00457336
1037.69836670,0.00440300
1039.62717407,0.00452404
1041.55598145,0.00448582
1043.48478882,0.00437181
1045.41359619,0.00447258
1047.34240356,0.00457309
1049.27121094,0.00439007
1051.20001831,0.00420334
1053.12882568,0.00434330
1055.05763306,0.00430222
1056.98644043,0.00414285
1058.91524780,0.00384904
1060.84405518,0.00372423
1062.77286255,0.00396206
1064.70166992,0.00392602
1066.63047729,0.00373232
1068.55928467,0.00348553
1070.48809204,0.00329691
1072.41689941,0.00317484
1074.34570679,0.00308319
1076.27451416,0.00313424
1078.20332153,0.00290446
1080.13212891,0.00248634
1082.06093628,0.00251670
1083.98974365,0.00265988
1085.91855103,0.00250124
1087.84735840,0.00232810
1089.77616577,0.00218987
1091.70497314,0.00242024
1093.63378052,0.00232727
1095.56258789,0.00200123
1097.49139526,0.00222711
1099.42020264,0.00202922
1101.34901001,0.00208333
1103.27781738,0.00210284
1105.20662476,0.00179810
1107.13543213,0.00197927
1109.06423950,0.00185020
1110.99304687,0.00198361
1112.92185425,0.00193411
1114.85066162,0.00174561
1116.77946899,0.00202940
1118.70827637,0.00200016
1120.63708374,0.00200406
1122.56589111,0.00187005
1124.49469849,0.00214961
1126.42350586,0.00220947
1128.35231323,0.00179997
1130.28112061,0.00216038
1132.20992798,0.00212158
1134.13873535,0.00208242
1136.06754272,0.00230331
1137.99635010,0.00234013
1139.92515747,0.00248483
1141.85396484,0.00241145
1143.78277222,0.00273638
1145.71157959,0.00292454
1147.64038696,0.00279274
1149.56919434,0.00299585
1151.49800171,0.00315323
1153.42680908,0.00330189
1155.35561646,0.00337447
1157.28442383,0.00346845
1159.21323120,0.00365603
1161.14203857,0.00373747
1163.07084595,0.00385518
1164.99965332,0.00392160
1166.92846069,0.00391755
1168.85726807,0.00418553
1170.78607544,0.00441565
1172.71488281,0.00442508
1174.64369019,0.00449600
1176.57249756,0.00455903
1178.50130493,0.00496589
1180.43011230,0.00518279
1182.35891968,0.00517875
1184.28772705,0.00542311
1186.21653442,0.00547021
1188.14534180,0.00587789
1190.07414917,0.00612273
1192.00295654,0.00623417
1193.93176392,0.00662182
1195.86057129,0.00677910
1197.78937866,0.00711905
1199.71818604,0.00722915
1201.64699341,0.00760998
1203.57580078,0.00804706
1205.50460815,0.00816039
1207.43341553,0.00863017
1209.36222290,0.00875991
1211.29103027,0.00903353
1213.21983765,0.00932257
1215.14864502,0.00943712
1217.07745239,0.00966516
1219.00625977,0.00970221
1220.93506714,0.00997459
1222.86387451,0.01015628
1224.79268188,0.01021796
1226.72148926,0.01010728
1228.65029663,0.01015629
1230.57910400,0.01034613
1232.50791138,0.01025099
1234.43671875,0.01033945
1236.36552612,0.01012028
1238.29433350,0.01007873
1240.22314087,0.01013327
1242.15194824,0.01004575
1244.08075562,0.01021344
1246.00956299,0.01007937
1247.93837036,0.01019542
1249.86717773,0.01018362
1251.79598511,0.00988448
1253.72479248,0.00982429
1255.65359985,0.00970300
1257.58240723,0.00956943
1259.51121460,0.00945611
1261.44002197,0.00945165
1263.36882935,0.00917881
1265.29763672,0.00906433
1267.22644409,0.00918507
1269.15525146,0.00898349
1271.08405884,0.00894850
1273.01286621,0.00882985
1274.94167358,0.00862329
1276.87048096,0.00849875
1278.79928833,0.00823947
1280.72809570,0.00803361
1282.65690308,0.00800165
1284.58571045,0.00801650
1286.51451782,0.00781738
1288.44332520,0.00762668
1290.37213257,0.00758350
1292.30093994,0.00752509
1294.22974731,0.00744227
1296.15855469,0.00745240
1298.08736206,0.00749580
1300.01616943,0.00740687
1301.94497681,0.00739170
1303.87378418,0.00746703
1305.80259155,0.00748417
1307.73139893,0.00760018
1309.66020630,0.00785545
1311.58901367,0.00787528
1313.51782104,0.00781867
1315.44662842,0.00814807
1317.37543579,0.00845304
1319.30424316,0.00848072
1321.23305054,0.00872914
1323.16185791,0.00910664
1325.09066528,0.00930427
1327.01947266,0.00958888
1328.94828003,0.00967783
1330.87708740,0.00977388
1332.80589478,0.01006641
1334.73470215,0.01012697
1336.66350952,0.01027966
1338.59231689,0.01023124
1340.52112427,0.01027678
1342.44993164,0.01068175
1344.37873901,0.01079939
1346.30754639,0.01085512
1348.23635376,0.01072343
1350.16516113,0.01066792
1352.09396851,0.01065181
1354.02277588,0.01038600
1355.95158325,0.01044323
1357.88039062,0.01037671
1359.80919800,0.01005433
1361.73800537,0.00969161
1363.66681274,0.00971616
1365.59562012,0.01021294
1367.52442749,0.00989969
1369.45323486,0.00967508
1371.38204224,0.00987931
1373.31084961,0.00933222
1375.23965698,0.00930849
1377.16846436,0.00976162
1379.09727173,0.00965341
1381.02607910,0.00967456
1382.95488647,0.00986987
1384.88369385,0.00973248
1386.81250122,0.00929528
1388.74130859,0.00926226
1390.67011597,0.01000578
1392.59892334,0.00988664
1394.52773071,0.00905458
1396.45653809,0.00952568
1398.38534546,0.00953073
1400.31415283,0.00963603
1402.24296021,0.01039923
1404.17176758,0.00959963
1406.10057495,0.00992822
1408.02938232,0.01027140
1409.95818970,0.00976266
1411.88699707,0.01008039
1413.81580444,0.00968994
1415.74461182,0.00985506
1417.67341919,0.00892557
1419.60222656,0.00811634
1421.53103394,0.00923334
1423.45984131,0.00885107
1425.38864868,0.00865199
1427.31745605,0.00897918
1429.24626343,0.00836660
1431.17507080,0.00791917
1433.10387817,0.00836817
1435.03268555,0.00751909
1436.96149292,0.00626779
1438.89030029,0.00748393
1440.81910767,0.00749705
1442.74791504,0.00720789
1444.67672241,0.00744798
1446.60552979,0.00671004
1448.53433716,0.00712650
1450.46314453,0.00717186
1452.39195190,0.00730394
1454.32075928,0.00747768
1456.24956665,0.00616904
1458.17837402,0.00643533
1460.10718140,0.00830813
1462.03598877,0.00886942
1463.96479614,0.00870064
1465.89360352,0.00899742
1467.82241089,0.01009869
1469.75121826,0.01076885
1471.68002563,0.00950138
1473.60883301,0.00990145
1475.53764038,0.01135725
1477.46644775,0.01210762
1479.39525513,0.01348653
1481.32406250,0.01358172
1483.25286987,0.01421641
1485.18167725,0.01480240
1487.11048462,0.01424048
1489.03929199,0.01396668
1490.96809937,0.01425254
1492.89690674,0.01655724
1494.82571411,0.01599945
1496.75452148,0.01429802
1498.68332886,0.01620306
1500.61213623,0.01691333
1502.54094360,0.01807835
1504.46975098,0.01654178
1506.39855835,0.01179349
1508.32736572,0.01481371
1510.25617310,0.01742652
1512.18498047,0.01692813
1514.11378784,0.01839971
1516.04259521,0.01635774
1517.97140259,0.01716262
1519.90020996,0.01619699
1521.82901733,0.01390886
1523.75782471,0.01777017
1525.68663208,0.01708728
1527.61543945,0.01705446
1529.54424683,0.01923497
1531.47305420,0.01816168
1533.40186157,0.01651379
1535.33066895,0.01785615
1537.25947632,0.01909209
1539.18828369,0.01323678
1541.11709106,0.01411680
1543.04589844,0.01679738
1544.97470581,0.01611421
1546.90351318,0.01958627
1548.83232056,0.01798706
1550.76112793,0.01865518
1552.68993530,0.01839057
1554.61874268,0.01677160
1556.54755005,0.01783064
1558.47635742,0.01188487
1560.40516479,0.01369362
1562.33397217,0.01963120
1564.26277954,0.01824509
1566.19158691,0.01912073
1568.12039429,0.01852637
1570.04920166,0.01632142
1571.97800903,0.01933230
1573.90681641,0.01933831
1575.83562378,0.01521495
1577.76443115,0.01739794
1579.69323853,0.01963209
1581.62204590,0.01890337
1583.55085327,0.01936562
1585.47966064,0.01914835
1587.40846802,0.01927818
1589.33727539,0.01897932
1591.26608276,0.01902150
1593.19489014,0.01895415
1595.12369751,0.01890313
1597.05250488,0.01911871
1598.98131226,0.01891920
1600.91011963,0.01905721
1602.83892700,0.01869768
1604.76773437,0.01927297
1606.69654175,0.01877617
1608.62534912,0.01866731
1610.55415649,0.01878742
1612.48296387,0.01899367
1614.41177124,0.01910915
1616.34057861,0.01539962
1618.26938599,0.01715072
1620.19819336,0.01984891
1622.12700073,0.01742347
1624.05580811,0.01755677
1625.98461548,0.01845208
1627.91342285,0.01857527
1629.84223022,0.01846445
1631.77103760,0.01976947
1633.69984497,0.01793487
1635.62865234,0.01457907
1637.55745972,0.01740022
1639.48626709,0.01934393
1641.41507446,0.01884219
1643.34388184,0.01927307
1645.27268921,0.01712331
1647.20149658,0.01488589
1649.13030396,0.01909082
1651.05911133,0.01774797
1652.98791870,0.01084391
1654.91672607,0.01560207
1656.84553345,0.01979539
1658.77434082,0.01880838
1660.70314819,0.01931100
1662.63195557,0.01753108
1664.56076294,0.01857990
1666.48957031,0.02000244
1668.41837769,0.01713184
1670.34718506,0.01645728
1672.27599243,0.01898857
1674.20479980,0.01721115
1676.13360718,0.01657677
1678.06241455,0.01941168
1679.99122192,0.01860285
1681.92002930,0.01829538
1683.84883667,0.01435129
1685.77764404,0.01454524
1687.70645142,0.02010319
1689.63525879,0.01721331
1691.56406616,0.01944532
1693.49287354,0.01918858
1695.42168091,0.01375306
1697.35048828,0.01739054
1699.27929565,0.01474881
1701.20810303,0.01359653
1703.13691040,0.01894785
1705.06571777,0.01702091
1706.99452515,0.01725112
1708.92333252,0.01872703
1710.85213989,0.01786053
1712.78094727,0.01827458
1714.70975464,0.01672969
1716.63856201,0.01485631
1718.56736938,0.01478741
1720.49617676,0.01775235
1722.42498413,0.01836188
1724.35379150,0.01704521
1726.28259888,0.01869901
1728.21140625,0.01693880
1730.14021362,0.01710206
1732.06902100,0.01645041
1733.99782837,0.01212993
1735.92663574,0.01582832
1737.85544312,0.01730772
1739.78425049,0.01531551
1741.71305786,0.01695171
1743.64186523,0.01688376
1745.57067261,0.01705595
1747.49947998,0.01706556
1749.42828735,0.01604548
1751.35709473,0.01542364
1753.28590210,0.01735089
1755.21470947,0.01801058
1757.14351685,0.01631662
1759.07232422,0.01818806
1761.00113159,0.01665555
1762.92993896,0.01635123
1764.85874634,0.01894189
1766.78755371,0.01650486
1768.71636108,0.01693300
1770.64516846,0.01680031
1772.57397583,0.01495420
1774.50278320,0.01697100
1776.43159058,0.01788785
1778.36039795,0.01756734
1780.28920532,0.01723186
1782.21801270,0.01737333
1784.14682007,0.01741923
1786.07562744,0.01700292
1788.00443481,0.01797734
1789.93324219,0.01742576
1791.86204956,0.01546453
1793.79085693,0.01630698
1795.71966431,0.01759772
1797.64847168,0.01730843
1799.57727905,0.01698318
1801.50608643,0.01662929
1803.43489380,0.01738391
1805.36370117,0.01760294
1807.29250854,0.01737105
1809.22131592,0.01749789
1811.15012329,0.01689272
1813.07893066,0.01750665
1815.00773804,0.01739128
1816.93654541,0.01731156
1818.86535278,0.01754763
1820.79416016,0.01742625
1822.72296753,0.01758941
1824.65177490,0.01611052
1826.58058228,0.01694490
1828.50938965,0.01681995
1830.43819702,0.01565131
1832.36700439,0.01736315
1834.29581177,0.01712517
1836.22461914,0.01712334
1838.15342651,0.01713022
1840.08223389,0.01732235
1842.01104126,0.01700153
1843.93984863,0.01488868
1845.86865601,0.01633326
1847.79746338,0.01706170
1849.72627075,0.01671857
1851.65507812,0.01741960
1853.58388550,0.01692122
1855.51269287,0.01711957
1857.44150024,0.01696636
1859.37030762,0.01681840
1861.29911499,0.01687142
1863.22792236,0.01673739
1865.15672974,0.01701817
1867.08553711,0.01608524
1869.01434448,0.01531513
1870.94315186,0.01619278
1872.87195923,0.01689617
1874.80076660,0.01665483
1876.72957397,0.01654656
1878.65838135,0.01633747
1880.58718872,0.01629931
1882.51599609,0.01641348
1884.44480347,0.01631565
1886.37361084,0.01662948
1888.30241821,0.01599251
1890.23122559,0.01572403
1892.16003296,0.01647718
1894.08884033,0.01621263
1896.01764771,0.01604744
1897.94645508,0.01611889
1899.87526245,0.01604254
1901.80406982,0.01605725
1903.73287720,0.01607874
1905.66168457,0.01607795
1907.59049194,0.01570455
1909.51929932,0.01576973
1911.44810669,0.01580204
1913.37691406,0.01586642
1915.30572144,0.01598739
1917.23452881,0.01502231
1919.16333618,0.01526184
1921.09214355,0.01586980
1923.02095093,0.01533764
1924.94975830,0.01572203
1926.87856567,0.01575587
1928.80737305,0.01558724
1930.73618042,0.01575218
1932.66498779,0.01552635
1934.59379517,0.01572919
1936.52260254,0.01552120
1938.45140991,0.01548393
1940.38021729,0.01551398
1942.30902466,0.01495432
1944.23783203,0.01521672
1946.16663940,0.01540510
1948.09544678,0.01531091
1950.02425415,0.01544175
1951.95306152,0.01528870
1953.88186890,0.01525219
1955.81067627,0.01519073
1957.73948364,0.01518583
1959.66829102,0.01536333
1961.59709839,0.01528786
1963.52590576,0.01529286
1965.45471313,0.01518619
1967.38352051,0.01491908
1969.31232788,0.01502245
1971.24113525,0.01508542
1973.16994263,0.01509407
1975.09875000,0.01508360
1977.02755737,0.01503354
1978.95636475,0.01505098
1980.88517212,0.01489297
1982.81397949,0.01507500
1984.74278687,0.01510838
1986.67159424,0.01472248
1988.60040161,0.01470877
1990.52920898,0.01451133
1992.45801636,0.01436494
1994.38682373,0.01464898
1996.31563110,0.01463619
1998.24443848,0.01458842
2000.17324585,0.01456278
2002.10205322,0.01444337
2004.03086060,0.01451567
2005.95966797,0.01437103
2007.88847534,0.01436820
2009.81728271,0.01449847
2011.74609009,0.01432470
2013.67489746,0.01432362
2015.60370483,0.01417810
2017.53251221,0.01410024
2019.46131958,0.01415870
2021.39012695,0.01405706
2023.31893433,0.01409711
2025.24774170,0.01401419
2027.17654907,0.01397480
2029.10535645,0.01388731
2031.03416382,0.01383201
2032.96297119,0.01392147
2034.89177856,0.01386670
2036.82058594,0.01390903
2038.74939331,0.01381714
2040.67820068,0.01372664
2042.60700806,0.01373413
2044.53581543,0.01358612
2046.46462280,0.01357478
2048.39343018,0.01371967
2050.32223755,0.01357907
2052.25104492,0.01342633
2054.17985229,0.01355909
2056.10865967,0.01349132
2058.03746704,0.01337228
2059.96627441,0.01327958
2061.89508179,0.01334296
2063.82388916,0.01332320
2065.75269653,0.01319346
2067.68150391,0.01338185
2069.61031128,0.01317437
2071.53911865,0.01312976
2073.46792603,0.01320788
2075.39673340,0.01299863
2077.32554077,0.01307303
2079.25434814,0.01305396
2081.18315552,0.01302069
2083.11196289,0.01289299
2085.04077026,0.01289274
2086.96957764,0.01296269
2088.89838501,0.01279674
2090.82719238,0.01278434
2092.75599976,0.01284157
2094.68480713,0.01292190
2096.61361450,0.01272788
2098.54242187,0.01265789
2100.47122925,0.01268927
2102.40003662,0.01257115
2104.32884399,0.01263740
2106.25765137,0.01251528
2108.18645874,0.01248264
2110.11526611,0.01246073
2112.04407349,0.01246349
2113.97288086,0.01253401
2115.90168823,0.01235524
2117.83049561,0.01240363
2119.75930298,0.01242223
2121.68811035,0.01234917
2123.61691772,0.01230799
2125.54572510,0.01218427
2127.47453247,0.01230058
2129.40333984,0.01238202
2131.33214722,0.01230080
2133.26095459,0.01222601
2135.18976196,0.01213381
2137.11856934,0.01218846
2139.04737671,0.01216210
2140.97618408,0.01210499
2142.90499146,0.01209483
2144.83379883,0.01189847
2146.76260620,0.01199808
2148.69141357,0.01210256
2150.62022095,0.01202037
2152.54902832,0.01196391
2154.47783569,0.01178728
2156.40664307,0.01187242
2158.33545044,0.01194953
2160.26425781,0.01195103
2162.19306519,0.01186078
2164.12187256,0.01179287
2166.05067993,0.01187434
2167.97948730,0.01176623
2169.90829468,0.01183318
2171.83710205,0.01169116
2173.76590942,0.01160089
2175.69471680,0.01167749
2177.62352417,0.01151672
2179.55233154,0.01159340
2181.48113892,0.01158083
2183.40994629,0.01153656
2185.33875366,0.01156262
2187.26756104,0.01163315
2189.19636841,0.01155765
2191.12517578,0.01143778
2193.05398315,0.01156315
2194.98279053,0.01143070
2196.91159790,0.01144686
2198.84040527,0.01144391
2200.76921265,0.01130831
2202.69802002,0.01129569
2204.62682739,0.01128627
2206.55563477,0.01132983
2208.48444214,0.01119250
2210.41324951,0.01128646
2212.34205688,0.01133820
2214.27086426,0.01122112
2216.19967163,0.01113609
2218.12847900,0.01100981
2220.05728638,0.01115121
2221.98609375,0.01115206
2223.91490112,0.01113557
2225.84370850,0.01121329
2227.77251587,0.01111855
2229.70132324,0.01101851
2231.63013062,0.01099586
2233.55893799,0.01102112
2235.48774536,0.01102313
2237.41655273,0.01091730
2239.34536011,0.01083774
2241.27416748,0.01089135
2243.20297485,0.01073075
2245.13178223,0.01074746
2247.06058960,0.01072521
2248.98939697,0.01062070
2250.91820435,0.01083079
2252.84701172,0.01061837
2254.77581909,0.01060223
2256.70462646,0.01068919
2258.63343384,0.01054362
2260.56224121,0.01066935
2262.49104858,0.01065202
2264.41985596,0.01055331
2266.34866333,0.01044037
2268.27747070,0.01053235
2270.20627808,0.01058987
2272.13508545,0.01046260
2274.06389282,0.01045612
2275.99270020,0.01036261
2277.92150757,0.01032643
2279.85031494,0.01033079
2281.77912231,0.01042381
2283.70792969,0.01043405
2285.63673706,0.01031456
2287.56554443,0.01028940
2289.49435181,0.01029703
2291.42315918,0.01028863
2293.35196655,0.01014077
2295.28077393,0.01009327
2297.20958130,0.01011186
2299.13838867,0.01006373
2301.06719604,0.00994347
2302.99600342,0.00989845
2304.92481079,0.00993124
2306.85361816,0.00982864
2308.78242554,0.00983669
2310.71123291,0.00980321
2312.64004028,0.00962015
2314.56884766,0.00952609
2316.49765503,0.00956247
2318.42646240,0.00931472
2320.35526978,0.00902333
2322.28407715,0.00907910
2324.21288452,0.00903015
2326.14169189,0.00890621
2328.07049927,0.00864342
2329.99930664,0.00862783
2331.92811401,0.00866388
2333.85692139,0.00844149
2335.78572876,0.00852002
2337.71453613,0.00850205
2339.64334351,0.00846123
2341.57215088,0.00848778
2343.50095825,0.00869100
2345.42976562,0.00889722
2347.35857300,0.00898018
2349.28738037,0.00927144
2351.21618774,0.00893206
2353.14499512,0.00842789
2355.07380249,0.00832430
2357.00260986,0.00814798
2358.93141724,0.00793063
2360.86022461,0.00783117
2362.78903198,0.00786393
2364.71783936,0.00789530
2366.64664673,0.00806557
2368.57545410,0.00808235
2370.50426147,0.00814276
2372.43306885,0.00844596
2374.36187622,0.00869543
2376.29068359,0.00890202
2378.21949097,0.00894811
2380.14829834,0.00901311
2382.07710571,0.00913298
2384.00591309,0.00925577
2385.93472046,0.00916740
2387.86352783,0.00914113
2389.79233521,0.00928187
2391.72114258,0.00921880
2393.64994995,0.00918127
2395.57875732,0.00910787
2397.50756470,0.00916722
2399.43637207,0.00908091
2401.36517944,0.00900709
2403.29398682,0.00909864
2405.22279419,0.00895990
2407.15160156,0.00906320
2409.08040894,0.00898296
2411.00921631,0.00890236
2412.93802368,0.00897191
2414.86683105,0.00878433
2416.79563843,0.00877235
2418.72444580,0.00884396
2420.65325317,0.00887624
2422.58206055,0.00878141
2424.51086792,0.00878289
2426.43967529,0.00888384
2428.36848267,0.00874684
2430.29729004,0.00864907
2432.22609741,0.00878053
2434.15490479,0.00873356
2436.08371216,0.00861042
2438.01251953,0.00883581
2439.94132690,0.00875734
2441.87013428,0.00861377
2443.79894165,0.00863879
2445.72774902,0.00857713
2447.65655640,0.00861542
2449.58536377,0.00848748
2451.51417114,0.00849456
2453.44297852,0.00849919
2455.37178589,0.00851188
2457.30059326,0.00858492
2459.22940063,0.00843623
2461.15820801,0.00840050
2463.08701538,0.00837682
2465.01582275,0.00845427
2466.94463013,0.00842992
2468.87343750,0.00837216
2470.80224487,0.00847915
2472.73105225,0.00839464
2474.65985962,0.00832462
2476.58866699,0.00827255
2478.51747437,0.00823567
2480.44628174,0.00826221
2482.37508911,0.00825009
2484.30389648,0.00813808
2486.23270386,0.00814317
2488.16151123,0.00827091
2490.09031860,0.00817493
2492.01912598,0.00806809
2493.94793335,0.00813549
2495.87674072,0.00822658
2497.80554810,0.00809108
2499.73435547,0.00807905
2501.66316284,0.00810073
2503.59197021,0.00794762
2505.52077759,0.00810242
2507.44958496,0.00807171
2509.37839233,0.00791068
2511.30719971,0.00796966
2513.23600708,0.00795942
2515.16481445,0.00795086
2517.09362183,0.00798177
2519.02242920,0.00791034
2520.95123657,0.00782312
2522.88004395,0.00795349
2524.80885132,0.00794267
2526.73765869,0.00788500
2528.66646606,0.00788497
2530.59527344,0.00781111
2532.52408081,0.00785868
2534.45288818,0.00773167
2536.38169556,0.00775249
2538.31050293,0.00782551
2540.23931030,0.00767047
2542.16811768,0.00778465
2544.09692505,0.00778580
2546.02573242,0.00765829
2547.95453979,0.00769696
2549.88334717,0.00762878
2551.81215454,0.00763279
2553.74096191,0.00766438
2555.66976929,0.00757185
2557.59857666,0.00757062
2559.52738403,0.00754115
2561.45619141,0.00749060
2563.38499878,0.00744306
2565.31380615,0.00743272
2567.24261353,0.00749871
2569.17142090,0.00746893
2571.10022827,0.00742348
2573.02903564,0.00732117
2574.95784302,0.00731378
2576.88665039,0.00730558
2578.81545776,0.00729754
2580.74426514,0.00741998
2582.67307251,0.00735994
2584.60187988,0.00738049
2586.53068726,0.00732047
2588.45949463,0.00721490
2590.38830200,0.00722946
2592.31710937,0.00721524
2594.24591675,0.00728318
2596.17472412,0.00722823
2598.10353149,0.00720857
2600.03233887,0.00714252
2601.96114624,0.00726555
2603.88995361,0.00732616
2605.81876099,0.00699944
2607.74756836,0.00706170
2609.67637573,0.00709316
2611.60518311,0.00701725
2613.53399048,0.00702677
2615.46279785,0.00698819
2617.39160522,0.00701846
2619.32041260,0.00702792
2621.24921997,0.00702977
2623.17802734,0.00694977
2625.10683472,0.00701202
2627.03564209,0.00698766
2628.96444946,0.00703328
2630.89325684,0.00706746
2632.82206421,0.00679416
2634.75087158,0.00688466
2636.67967895,0.00686639
2638.60848633,0.00672549
2640.53729370,0.00680777
2642.46610107,0.00684815
2644.39490845,0.00683911
2646.32371582,0.00667014
2648.25252319,0.00669136
2650.18133057,0.00680194
2652.11013794,0.00667894
2654.03894531,0.00669108
2655.96775269,0.00679650
2657.89656006,0.00664065
2659.82536743,0.00668258
2661.75417480,0.00674991
2663.68298218,0.00656023
2665.61178955,0.00668293
2667.54059692,0.00660687
2669.46940430,0.00652268
2671.39821167,0.00666723
2673.32701904,0.00650928
2675.25582642,0.00652418
2677.18463379,0.00658438
2679.11344116,0.00642760
2681.04224854,0.00642719
2682.97105591,0.00650064
2684.89986328,0.00642703
2686.82867065,0.00644642
2688.75747803,0.00644631
2690.68628540,0.00640292
2692.61509277,0.00646907
2694.54390015,0.00635276
2696.47270752,0.00637300
2698.40151489,0.00638093
2700.33032227,0.00630027
2702.25912964,0.00634640
2704.18793701,0.00627261
2706.11674438,0.00634116
2708.04555176,0.00630787
2709.97435913,0.00622439
2711.90316650,0.00630997
2713.83197388,0.00623920
2715.76078125,0.00630688
2717.68958862,0.00630402
2719.61839600,0.00605134
2721.54720337,0.00616261
2723.47601074,0.00620066
2725.40481812,0.00610076
2727.33362549,0.00632004
2729.26243286,0.00616251
2731.19124023,0.00607386
2733.12004761,0.00619627
2735.04885498,0.00609201
2736.97766235,0.00612898
2738.90646973,0.00600580
2740.83527710,0.00609443
2742.76408447,0.00615686
2744.69289185,0.00594686
2746.62169922,0.00600403
2748.55050659,0.00600269
2750.47931396,0.00600706
2752.40812134,0.00594721
2754.33692871,0.00589045
2756.26573608,0.00587670
2758.19454346,0.00582872
2760.12335083,0.00583713
2762.05215820,0.00582799
2763.98096558,0.00588937
2765.90977295,0.00580629
2767.83858032,0.00590701
2769.76738770,0.00593145
2771.69619507,0.00570082
2773.62500244,0.00574885
2775.55380981,0.00576876
2777.48261719,0.00578231
2779.41142456,0.00571839
2781.34023193,0.00568165
2783.26903931,0.00578191
2785.19784668,0.00571721
2787.12665405,0.00567645
2789.05546143,0.00572743
2790.98426880,0.00573328
2792.91307617,0.00561263
2794.84188354,0.00554970
2796.77069092,0.00558796
2798.69949829,0.00563647
2800.62830566,0.00560503
2802.55711304,0.00553799
2804.48592041,0.00555743
2806.41472778,0.00551986
2808.34353516,0.00545852
2810.27234253,0.00536916
2812.20114990,0.00541356
2814.12995728,0.00544037
2816.05876465,0.00540162
2817.98757202,0.00547651
2819.91637939,0.00541294
2821.84518677,0.00543407
2823.77399414,0.00541540
2825.70280151,0.00528935
2827.63160889,0.00527013
2829.56041626,0.00530002
2831.48922363,0.00534033
2833.41803101,0.00526899
2835.34683838,0.00527260
2837.27564575,0.00522187
2839.20445312,0.00519160
2841.13326050,0.00522720
2843.06206787,0.00512062
2844.99087524,0.00515382
2846.91968262,0.00509536
2848.84848999,0.00501016
2850.77729736,0.00516247
2852.70610474,0.00512926
2854.63491211,0.00503748
2856.56371948,0.00514251
2858.49252686,0.00511503
2860.42133423,0.00503749
2862.35014160,0.00501029
2864.27894897,0.00498494
2866.20775635,0.00506106
2868.13656372,0.00504599
2870.06537109,0.00506848
2871.99417847,0.00503055
2873.92298584,0.00491707
2875.85179321,0.00492883
2877.78060059,0.00489130
2879.70940796,0.00493684
2881.63821533,0.00489591
2883.56702270,0.00489507
2885.49583008,0.00498038
2887.42463745,0.00492488
2889.35344482,0.00489158
2891.28225220,0.00481394
2893.21105957,0.00484782
2895.13986694,0.00481047
2897.06867432,0.00475218
2898.99748169,0.00474263
2900.92628906,0.00464913
2902.85509644,0.00478210
2904.78390381,0.00476035
2906.71271118,0.00471229
2908.64151855,0.00473815
2910.57032593,0.00455073
2912.49913330,0.00457914
2914.42794067,0.00471313
2916.35674805,0.00472048
2918.28555542,0.00470545
2920.21436279,0.00470215
2922.14317017,0.00467759
2924.07197754,0.00466187
2926.00078491,0.00468513
2927.92959229,0.00463757
2929.85839966,0.00458184
2931.78720703,0.00457463
2933.71601440,0.00464234
2935.64482178,0.00464068
2937.57362915,0.00457483
2939.50243652,0.00465599
2941.43124390,0.00462088
2943.36005127,0.00454117
2945.28885864,0.00459227
2947.21766602,0.00449027
2949.14647339,0.00447927
2951.07528076,0.00456333
2953.00408813,0.00447820
2954.93289551,0.00449003
2956.86170288,0.00443570
2958.79051025,0.00436013
2960.71931763,0.00443659
2962.64812500,0.00443799
2964.57693237,0.00443199
2966.50573975,0.00438618
2968.43454712,0.00442527
2970.36335449,0.00441955
2972.29216187,0.00435028
2974.22096924,0.00441658
2976.14977661,0.00429852
2978.07858398,0.00433794
2980.00739136,0.00439322
2981.93619873,0.00427056
2983.86500610,0.00433496
2985.79381348,0.00420134
2987.72262085,0.00418786
2989.65142822,0.00437053
2991.58023560,0.00430864
2993.50904297,0.00428894
2995.43785034,0.00431681
2997.36665771,0.00429085
2999.29546509,0.00424204
3001.22427246,0.00423267
3003.15307983,0.00418509
3005.08188721,0.00413463
3007.01069458,0.00425976
3008.93950195,0.00426077
3010.86830933,0.00412778
3012.79711670,0.00412101
3014.72592407,0.00418370
3016.65473145,0.00420237
3018.58353882,0.00420113
3020.51234619,0.00414965
3022.44115356,0.00406105
3024.36996094,0.00404640
3026.29876831,0.00403943
3028.22757568,0.00405738
3030.15638306,0.00397615
3032.08519043,0.00394437
3034.01399780,0.00404174
3035.94280518,0.00401229
3037.87161255,0.00406052
3039.80041992,0.00400062
3041.72922729,0.00395180
3043.65803467,0.00404747
3045.58684204,0.00401439
3047.51564941,0.00399443
3049.44445679,0.00394323
3051.37326416,0.00405060
3053.30207153,0.00398996
3055.23087891,0.00380154
3057.15968628,0.00395000
3059.08849365,0.00395369
3061.01730103,0.00392248
3062.94610840,0.00386494
3064.87491577,0.00384797
3066.80372314,0.00393903
3068.73253052,0.00383721
3070.66133789,0.00380121
3072.59014526,0.00382373
3074.51895264,0.00389743
3076.44776001,0.00382702
3078.37656738,0.00375862
3080.30537476,0.00389092
3082.23418213,0.00382753
3084.16298950,0.00381147
3086.09179687,0.00384309
3088.02060425,0.00378770
3089.94941162,0.00375386
3091.87821899,0.00382332
3093.80702637,0.00381575
3095.73583374,0.00365170
3097.66464111,0.00381690
3099.59344849,0.00386193
3101.52225586,0.00366719
3103.45106323,0.00371130
3105.37987061,0.00370244
3107.30867798,0.00365281
3109.23748535,0.00372059
3111.16629272,0.00378532
3113.09510010,0.00371114
3115.02390747,0.00365167
3116.95271484,0.00365432
3118.88152222,0.00361095
3120.81032959,0.00366973
3122.73913696,0.00360271
3124.66794434,0.00356791
3126.59675171,0.00371238
3128.52555908,0.00357880
3130.45436645,0.00354221
3132.38317383,0.00369322
3134.31198120,0.00361313
3136.24078857,0.00357279
3138.16959595,0.00361206
3140.09840332,0.00360202
3142.02721069,0.00354797
3143.95601807,0.00350579
3145.88482544,0.00356782
3147.81363281,0.00357694
3149.74244019,0.00353840
3151.67124756,0.00357189
3153.60005493,0.00359401
3155.52886230,0.00347570
3157.45766968,0.00346685
3159.38647705,0.00357247
3161.31528442,0.00350886
3163.24409180,0.00345557
3165.17289917,0.00341255
3167.10170654,0.00344992
3169.03051392,0.00348400
3170.95932129,0.00340253
3172.88812866,0.00343391
3174.81693604,0.00344090
3176.74574341,0.00343463
3178.67455078,0.00341391
3180.60335815,0.00339851
3182.53216553,0.00336235
3184.46097290,0.00332226
3186.38978027,0.00332537
3188.31858765,0.00326019
3190.24739502,0.00336569
3192.17620239,0.00329626
3194.10500977,0.00322117
3196.03381714,0.00335235
3197.96262451,0.00330512
3199.89143188,0.00337296
3201.82023926,0.00331841
3203.74904663,0.00330304
3205.67785400,0.00338150
3207.60666138,0.00326993
3209.53546875,0.00331881
3211.46427612,0.00333348
3213.39308350,0.00336019
3215.32189087,0.00337431
3217.25069824,0.00328790
3219.17950562,0.00329012
3221.10831299,0.00332707
3223.03712036,0.00338015
3224.96592773,0.00332854
3226.89473511,0.00327838
3228.82354248,0.00331750
3230.75234985,0.00335945
3232.68115723,0.00327910
3234.60996460,0.00323200
3236.53877197,0.00329766
3238.46757935,0.00327840
3240.39638672,0.00338207
3242.32519409,0.00342775
3244.25400146,0.00331527
3246.18280884,0.00328142
3248.11161621,0.00331695
3250.04042358,0.00333830
3251.96923096,0.00333417
3253.89803833,0.00337918
3255.82684570,0.00332034
3257.75565308,0.00332779
3259.68446045,0.00335366
3261.61326782,0.00329370
3263.54207520,0.00330466
3265.47088257,0.00326739
3267.39968994,0.00331236
3269.32849731,0.00331956
3271.25730469,0.00333912
3273.18611206,0.00336420
3275.11491943,0.00329407
3277.04372681,0.00339507
3278.97253418,0.00338430
3280.90134155,0.00328764
3282.83014893,0.00333109
3284.75895630,0.00336142
3286.68776367,0.00324530
3288.61657104,0.00324634
3290.54537842,0.00339464
3292.47418579,0.00334558
3294.40299316,0.00337808
3296.33180054,0.00333788
3298.26060791,0.00327305
3300.18941528,0.00333868
3302.11822266,0.00326338
3304.04703003,0.00327217
3305.97583740,0.00328586
3307.90464478,0.00333248
3309.83345215,0.00329540
3311.76225952,0.00326078
3313.69106689,0.00331438
3315.61987427,0.00321424
3317.54868164,0.00335766
3319.47748901,0.00339346
3321.40629639,0.00332556
3323.33510376,0.00334581
3325.26391113,0.00327001
3327.19271851,0.00334444
3329.12152588,0.00323045
3331.05033325,0.00320285
3332.97914062,0.00333121
3334.90794800,0.00326510
3336.83675537,0.00327904
3338.76556274,0.00328299
3340.69437012,0.00330815
3342.62317749,0.00336199
3344.55198486,0.00328999
3346.48079224,0.00322480
3348.40959961,0.00328658
3350.33840698,0.00326791
3352.26721436,0.00321947
3354.19602173,0.00328762
3356.12482910,0.00335532
3358.05363647,0.00344810
3359.98244385,0.00333629
3361.91125122,0.00327517
3363.84005859,0.00331341
3365.76886597,0.00325654
3367.69767334,0.00334402
3369.62648071,0.00330089
3371.55528809,0.00329107
3373.48409546,0.00332005
3375.41290283,0.00327558
3377.34171020,0.00333631
3379.27051758,0.00327275
3381.19932495,0.00324249
3383.12813232,0.00329135
3385.05693970,0.00326060
3386.98574707,0.00322933
3388.91455444,0.00331049
3390.84336182,0.00324009
3392.77216919,0.00314952
3394.70097656,0.00333678
3396.62978394,0.00326204
3398.55859131,0.00322685
3400.48739868,0.00333129
3402.41620605,0.00320842
3404.34501343,0.00324215
3406.27382080,0.00328271
3408.20262817,0.00322750
3410.13143555,0.00324723
3412.06024292,0.00325356
3413.98905029,0.00323591
3415.91785767,0.00327255
3417.84666504,0.00327575
3419.77547241,0.00318359
3421.70427979,0.00318557
3423.63308716,0.00321096
3425.56189453,0.00322486
3427.49070190,0.00327603
3429.41950928,0.00325480
3431.34831665,0.00321357
3433.27712402,0.00320136
3435.20593140,0.00316092
3437.13473877,0.00318043
3439.06354614,0.00324971
3440.99235352,0.00314211
3442.92116089,0.00306956
3444.84996826,0.00320878
3446.77877563,0.00325353
3448.70758301,0.00326190
3450.63639038,0.00327628
3452.56519775,0.00313887
3454.49400513,0.00318005
3456.42281250,0.00324189
3458.35161987,0.00312090
3460.28042725,0.00314324
3462.20923462,0.00309133
3464.13804199,0.00306931
3466.06684937,0.00308443
3467.99565674,0.00305939
3469.92446411,0.00311436
3471.85327148,0.00301416
3473.78207886,0.00310986
3475.71088623,0.00312124
3477.63969360,0.00300584
3479.56850098,0.00309119
3481.49730835,0.00297502
3483.42611572,0.00305819
3485.35492310,0.00318833
3487.28373047,0.00308584
3489.21253784,0.00308029
3491.14134521,0.00310673
3493.07015259,0.00311792
3494.99895996,0.00306215
3496.92776733,0.00308594
3498.85657471,0.00312006
3500.78538208,0.00301367
3502.71418945,0.00290520
3504.64299683,0.00294235
3506.57180420,0.00300730
3508.50061157,0.00296555
3510.42941895,0.00296035
3512.35822632,0.00290956
3514.28703369,0.00294097
3516.21584106,0.00304138
3518.14464844,0.00297802
3520.07345581,0.00289167
3522.00226318,0.00288894
3523.93107056,0.00292497
3525.85987793,0.00292805
3527.78868530,0.00291397
3529.71749268,0.00291457
3531.64630005,0.00298753
3533.57510742,0.00293549
3535.50391479,0.00284545
3537.43272217,0.00294021
3539.36152954,0.00289278
3541.29033691,0.00281230
3543.21914429,0.00288495
3545.14795166,0.00284994
3547.07675903,0.00277770
3549.00556641,0.00291966
3550.93437378,0.00289849
3552.86318115,0.00278155
3554.79198853,0.00289573
3556.72079590,0.00289913
3558.64960327,0.00286813
3560.57841064,0.00276517
3562.50721802,0.00278994
3564.43602539,0.00285765
3566.36483276,0.00259949
3568.29364014,0.00262057
3570.22244751,0.00280784
3572.15125488,0.00284365
3574.08006226,0.00278485
3576.00886963,0.00269429
3577.93767700,0.00266983
3579.86648437,0.00271048
3581.79529175,0.00278429
3583.72409912,0.00273094
3585.65290649,0.00262535
3587.58171387,0.00240329
3589.51052124,0.00246922
3591.43932861,0.00269880
3593.36813599,0.00260429
3595.29694336,0.00259315
3597.22575073,0.00260424
3599.15455811,0.00267627
3601.08336548,0.00265409
3603.01217285,0.00258894
3604.94098022,0.00271023
3606.86978760,0.00252733
3608.79859497,0.00236385
3610.72740234,0.00250980
3612.65620972,0.00244065
3614.58501709,0.00242993
3616.51382446,0.00267997
3618.44263184,0.00236013
3620.37143921,0.00229823
3622.30024658,0.00263856
3624.22905395,0.00253245
3626.15786133,0.00259364
3628.08666870,0.00220161
3630.01547607,0.00208583
3631.94428345,0.00255632
3633.87309082,0.00248551
3635.80189819,0.00252349
3637.73070557,0.00253283
3639.65951294,0.00261841
3641.58832031,0.00263363
3643.51712769,0.00253653
3645.44593506,0.00253606
3647.37474243,0.00222939
3649.30354980,0.00207991
3651.23235718,0.00209922
3653.16116455,0.00250636
3655.08997192,0.00246938
3657.01877930,0.00221870
3658.94758667,0.00257258
3660.87639404,0.00240812
3662.80520142,0.00242030
3664.73400879,0.00241124
3666.66281616,0.00239163
3668.59162354,0.00236181
3670.52043091,0.00186753
3672.44923828,0.00227621
3674.37804565,0.00215974
3676.30685303,0.00181498
3678.23566040,0.00231113
3680.16446777,0.00224011
3682.09327515,0.00231132
3684.02208252,0.00244159
3685.95088989,0.00224961
3687.87969727,0.00198094
3689.80850464,0.00183182
3691.73731201,0.00203955
3693.66611938,0.00216283
3695.59492676,0.00231303
3697.52373413,0.00225763
3699.45254150,0.00224309
3701.38134888,0.00215203
3703.31015625,0.00203838
3705.23896362,0.00229432
3707.16777100,0.00214106
3709.09657837,0.00214077
3711.02538574,0.00195635
3712.95419312,0.00178797
3714.88300049,0.00218951
3716.81180786,0.00208917
3718.74061523,0.00213620
3720.66942261,0.00204604
3722.59822998,0.00186616
3724.52703735,0.00202738
3726.45584473,0.00196718
3728.38465210,0.00212059
3730.31345947,0.00204313
3732.24226685,0.00187910
3734.17107422,0.00185034
3736.09988159,0.00173256
3738.02868896,0.00177140
3739.95749634,0.00200366
3741.88630371,0.00213164
3743.81511108,0.00154785
3745.74391846,0.00155123
3747.67272583,0.00203638
3749.60153320,0.00166084
3751.53034058,0.00154576
3753.45914795,0.00181920
3755.38795532,0.00188141
3757.31676270,0.00192808
3759.24557007,0.00191194
3761.17437744,0.00194911
3763.10318481,0.00206279
3765.03199219,0.00197066
3766.96079956,0.00193006
3768.88960693,0.00191465
3770.81841431,0.00179182
3772.74722168,0.00193339
3774.67602905,0.00196221
3776.60483643,0.00190125
3778.53364380,0.00187613
3780.46245117,0.00181562
3782.39125854,0.00191448
3784.32006592,0.00189107
3786.24887329,0.00183392
3788.17768066,0.00194434
3790.10648804,0.00204049
3792.03529541,0.00196049
3793.96410278,0.00192652
3795.89291016,0.00172180
3797.82171753,0.00175398
3799.75052490,0.00194017
3801.67933228,0.00148072
3803.60813965,0.00176634
3805.53694702,0.00190720
3807.46575439,0.00155681
3809.39456177,0.00186069
3811.32336914,0.00180092
3813.25217651,0.00198840
3815.18098389,0.00180439
3817.10979126,0.00152108
3819.03859863,0.00185253
3820.96740601,0.00150345
3822.89621338,0.00163468
3824.82502075,0.00188798
3826.75382812,0.00168944
3828.68263550,0.00182498
3830.61144287,0.00175613
3832.54025024,0.00159971
3834.46905762,0.00164616
3836.39786499,0.00158563
3838.32667236,0.00141761
3840.25547974,0.00159823
3842.18428711,0.00168100
3844.11309448,0.00164381
3846.04190186,0.00178875
3847.97070923,0.00170081
3849.89951660,0.00165967
3851.82832397,0.00142082
3853.75713135,0.00113508
3855.68593872,0.00137615
3857.61474609,0.00169345
3859.54355347,0.00172466
3861.47236084,0.00164480
3863.40116821,0.00154143
3865.32997559,0.00149819
3867.25878296,0.00172168
3869.18759033,0.00154663
3871.11639770,0.00144286
3873.04520508,0.00168841
3874.97401245,0.00149285
3876.90281982,0.00171112
3878.83162720,0.00173628
3880.76043457,0.00141969
3882.68924194,0.00173182
3884.61804932,0.00157319
3886.54685669,0.00140754
3888.47566406,0.00165941
3890.40447144,0.00150367
3892.33327881,0.00150608
3894.26208618,0.00165913
3896.19089355,0.00161313
3898.11970093,0.00153550
3900.04850830,0.00145930
3901.97731567,0.00145068
3903.90612305,0.00139748
3905.83493042,0.00142922
3907.76373779,0.00156197
3909.69254517,0.00156067
3911.62135254,0.00158314
3913.55015991,0.00164561
3915.47896728,0.00155559
3917.40777466,0.00140214
3919.33658203,0.00143165
3921.26538940,0.00153879
3923.19419678,0.00152584
3925.12300415,0.00149658
3927.05181152,0.00151230
3928.98061890,0.00154588
3930.90942627,0.00147884
3932.83823364,0.00142466
3934.76704102,0.00154399
3936.69584839,0.00150325
3938.62465576,0.00140255
3940.55346313,0.00150971
3942.48227051,0.00150678
3944.41107788,0.00146823
3946.33988525,0.00149429
3948.26869263,0.00144098
3950.19750000,0.00142703
3952.12630737,0.00142874
3954.05511475,0.00146616
3955.98392212,0.00149141
3957.91272949,0.00147603
3959.84153687,0.00147635
3961.77034424,0.00147636
3963.69915161,0.00147782
3965.62795898,0.00140065
3967.55676636,0.00146310
3969.48557373,0.00147824
3971.41438110,0.00140099
3973.34318848,0.00148178
3975.27199585,0.00140887
3977.20080322,0.00138922
3979.12961060,0.00145418
3981.05841797,0.00144314
3982.98722534,0.00144456
3984.91603271,0.00140178
3986.84484009,0.00139757
3988.77364746,0.00135867
3990.70245483,0.00137912
3992.63126221,0.00139583
3994.56006958,0.00134403
3996.48887695,0.00141719
3998.41768433,0.00148289
4000.34649170,0.00142164
4002.27529907,0.00135339
4004.20410645,0.00136322
4006.13291382,0.00134976
4008.06172119,0.00138626
4009.99052856,0.00138819
4011.91933594,0.00138325
4013.84814331,0.00141793
4015.77695068,0.00131743
4017.70575806,0.00133545
4019.63456543,0.00138924
4021.56337280,0.00138262
4023.49218018,0.00133201
4025.42098755,0.00123670
4027.34979492,0.00126995
4029.27860229,0.00134250
4031.20740967,0.00133417
4033.13621704,0.00125725
4035.06502441,0.00131479
4036.99383179,0.00127877
4038.92263916,0.00128880
4040.85144653,0.00139305
4042.78025391,0.00122454
4044.70906128,0.00129314
4046.63786865,0.00133278
4048.56667603,0.00127130
4050.49548340,0.00138552
4052.42429077,0.00126766
4054.35309814,0.00124156
4056.28190552,0.00132376
4058.21071289,0.00125825
4060.13952026,0.00128430
4062.06832764,0.00131782
4063.99713501,0.00119801
4065.92594238,0.00123568
4067.85474976,0.00130353
4069.78355713,0.00124667
4071.71236450,0.00131595
4073.64117187,0.00119871
4075.56997925,0.00116500
4077.49878662,0.00130700
4079.42759399,0.00119914
4081.35640137,0.00119745
4083.28520874,0.00127164
4085.21401611,0.00118959
4087.14282349,0.00114580
4089.07163086,0.00122220
4091.00043823,0.00122515
4092.92924561,0.00123331
4094.85805298,0.00130760
4096.78686035,0.00117714
4098.71566772,0.00108894
4100.64447510,0.00118770
4102.57328247,0.00122534
4104.50208984,0.00122029
4106.43089722,0.00125354
4108.35970459,0.00123109
4110.28851196,0.00120062
4112.21731934,0.00120401
4114.14612671,0.00115783
4116.07493408,0.00116842
4118.00374145,0.00110736
4119.93254883,0.00106852
4121.86135620,0.00120403
4123.79016357,0.00119923
4125.71897095,0.00118605
4127.64777832,0.00118510
4129.57658569,0.00110386
4131.50539307,0.00120603
4133.43420044,0.00119140
4135.36300781,0.00109567
4137.29181519,0.00120956
4139.22062256,0.00113376
4141.14942993,0.00108913
4143.07823730,0.00116640
4145.00704468,0.00114985
4146.93585205,0.00121824
4148.86465942,0.00114934
4150.79346680,0.00108737
4152.72227417,0.00109240
4154.65108154,0.00109818
4156.57988892,0.00117240
4158.50869629,0.00107603
4160.43750366,0.00108199
4162.36631103,0.00118613
4164.29511841,0.00109971
4166.22392578,0.00097856
4168.15273315,0.00103365
4170.08154053,0.00109889
4172.01034790,0.00107684
4173.93915527,0.00115048
4175.86796265,0.00109965
4177.79677002,0.00108108
4179.72557739,0.00113843
4181.65438477,0.00109729
4183.58319214,0.00110032
4185.51199951,0.00099290
4187.44080688,0.00097311
4189.36961426,0.00109404
4191.29842163,0.00105966
4193.22722900,0.00102938
4195.15603638,0.00112352
4197.08484375,0.00109025
4199.01365112,0.00103146
4200.94245850,0.00109773
4202.87126587,0.00103695
4204.80007324,0.00096143
4206.72888062,0.00095241
4208.65768799,0.00102847
4210.58649536,0.00105599
4212.51530273,0.00099933
4214.44411011,0.00104368
4216.37291748,0.00099551
4218.30172485,0.00103022
4220.23053223,0.00102445
4222.15933960,0.00098380
4224.08814697,0.00106226
4226.01695435,0.00095933
4227.94576172,0.00098089
4229.87456909,0.00101667
4231.80337646,0.00094453
4233.73218384,0.00096100
4235.66099121,0.00096935
4237.58979858,0.00101088
4239.51860596,0.00097140
4241.44741333,0.00091689
4243.37622070,0.00092104
4245.30502808,0.00095471
4247.23383545,0.00099988
4249.16264282,0.00096381
4251.09145020,0.00093647
4253.02025757,0.00095725
4254.94906494,0.00098477
4256.87787231,0.00096851
4258.80667969,0.00093142
4260.73548706,0.00091316
4262.66429443,0.00093502
4264.59310181,0.00096440
4266.52190918,0.00094969
4268.45071655,0.00093475
4270.37952393,0.00089924
4272.30833130,0.00090002
4274.23713867,0.00094165
4276.16594604,0.00089527
4278.09475342,0.00083831
4280.02356079,0.00088400
4281.95236816,0.00086725
4283.88117554,0.00085727
4285.80998291,0.00093152
4287.73879028,0.00086103
4289.66759766,0.00085466
4291.59640503,0.00090587
4293.52521240,0.00086684
4295.45401978,0.00090818
4297.38282715,0.00094528
4299.31163452,0.00091621
4301.24044189,0.00086479
4303.16924927,0.00087548
4305.09805664,0.00085354
4307.02686401,0.00088073
4308.95567139,0.00092222
4310.88447876,0.00076521
4312.81328613,0.00087455
4314.74209351,0.00095082
4316.67090088,0.00082584
4318.59970825,0.00093114
4320.52851562,0.00086159
4322.45732300,0.00079005
4324.38613037,0.00085704
4326.31493774,0.00083586
4328.24374512,0.00085376
4330.17255249,0.00081395
4332.10135986,0.00078428
4334.03016724,0.00083307
4335.95897461,0.00087453
4337.88778198,0.00081856
4339.81658936,0.00082559
4341.74539673,0.00086998
4343.67420410,0.00078365
4345.60301147,0.00086592
4347.53181885,0.00084640
4349.46062622,0.00072939
4351.38943359,0.00084638
4353.31824097,0.00086404
4355.24704834,0.00077754
4357.17585571,0.00080478
4359.10466309,0.00087431
4361.03347046,0.00081077
4362.96227783,0.00077704
4364.89108520,0.00072823
4366.81989258,0.00069145
4368.74869995,0.00080279
4370.67750732,0.00075166
4372.60631470,0.00079515
4374.53512207,0.00083026
4376.46392944,0.00078528
4378.39273682,0.00079929
4380.32154419,0.00073388
4382.25035156,0.00084520
4384.17915894,0.00082563
4386.10796631,0.00081862
4388.03677368,0.00083318
4389.96558105,0.00070804
4391.89438843,0.00081141
4393.82319580,0.00078180
4395.75200317,0.00076085
4397.68081055,0.00078284
4399.60961792,0.00075779
4401.53842529,0.00074994
4403.46723267,0.00063862
4405.39604004,0.00069055
4407.32484741,0.00068995
4409.25365478,0.00074647
4411.18246216,0.00076642
4413.11126953,0.00066846
4415.04007690,0.00076490
4416.96888428,0.00074248
4418.89769165,0.00073201
4420.82649902,0.00070738
4422.75530640,0.00072194
4424.68411377,0.00076214
4426.61292114,0.00063999
4428.54172852,0.00070885
4430.47053589,0.00072857
4432.39934326,0.00071776
4434.32815063,0.00073460
4436.25695801,0.00065633
4438.18576538,0.00070423
4440.11457275,0.00074767
4442.04338013,0.00080622
4443.97218750,0.00079563
4445.90099487,0.00070215
4447.82980225,0.00069263
4449.75860962,0.00067075
4451.68741699,0.00072069
4453.61622437,0.00073078
4455.54503174,0.00065681
4457.47383911,0.00067030
4459.40264648,0.00068136
4461.33145386,0.00072913
4463.26026123,0.00074011
4465.18906860,0.00067078
4467.11787598,0.00067290
4469.04668335,0.00065059
4470.97549072,0.00068831
4472.90429810,0.00069634
4474.83310547,0.00064442
4476.76191284,0.00071264
4478.69072021,0.00066653
4480.61952759,0.00070604
4482.54833496,0.00076600
4484.47714233,0.00062954
4486.40594971,0.00062348
4488.33475708,0.00062856
4490.26356445,0.00068882
4492.19237183,0.00071498
4494.12117920,0.00062710
4496.04998657,0.00072823
4497.97879395,0.00072104
4499.90760132,0.00064459
4501.83640869,0.00064620
4503.76521606,0.00060799
4505.69402344,0.00064381
4507.62283081,0.00060588
4509.55163818,0.00059958
4511.48044556,0.00068013
4513.40925293,0.00068333
4515.33806030,0.00065712
4517.26686768,0.00059120
4519.19567505,0.00061368
4521.12448242,0.00063252
4523.05328979,0.00059510
4524.98209717,0.00059952
4526.91090454,0.00061787
4528.83971191,0.00065366
4530.76851929,0.00057774
4532.69732666,0.00061104
4534.62613403,0.00067468
4536.55494141,0.00058004
4538.48374878,0.00059710
4540.41255615,0.00063675
4542.34136353,0.00066864
4544.27017090,0.00060204
4546.19897827,0.00053943
4548.12778564,0.00062316
4550.05659302,0.00061983
4551.98540039,0.00061995
4553.91420776,0.00060261
4555.84301514,0.00060143
4557.77182251,0.00060530
4559.70062988,0.00056957
4561.62943726,0.00061163
4563.55824463,0.00057420
4565.48705200,0.00053000
4567.41585937,0.00054901
4569.34466675,0.00056443
4571.27347412,0.00053791
4573.20228149,0.00053591
4575.13108887,0.00058466
4577.05989624,0.00053262
4578.98870361,0.00055754
4580.91751099,0.00058369
4582.84631836,0.00051745
4584.77512573,0.00051452
4586.70393311,0.00053446
4588.63274048,0.00060496
4590.56154785,0.00061886
4592.49035522,0.00062267
4594.41916260,0.00063190
4596.34796997,0.00053801
4598.27677734,0.00056572
4600.20558472,0.00061082
4602.13439209,0.00052069
4604.06319946,0.00050867
4605.99200684,0.00054152
4607.92081421,0.00055859
4609.84962158,0.00057809
4611.77842895,0.00052768
4613.70723633,0.00054394
4615.63604370,0.00058108
4617.56485107,0.00054974
4619.49365845,0.00053057
4621.42246582,0.00048331
4623.35127319,0.00053374
4625.28008057,0.00052637
4627.20888794,0.00043383
4629.13769531,0.00052010
4631.06650269,0.00054995
4632.99531006,0.00049317
4634.92411743,0.00047240
4636.85292480,0.00048997
4638.78173218,0.00056475
4640.71053955,0.00057937
4642.63934692,0.00049890
4644.56815430,0.00044644
4646.49696167,0.00050462
4648.42576904,0.00048688
4650.35457642,0.00050373
4652.28338379,0.00050788
4654.21219116,0.00035592
4656.14099853,0.00051134
4658.06980591,0.00062700
4659.99861328,0.00048437
4661.92742065,0.00049239
4663.85622803,0.00046007
4665.78503540,0.00047448
4667.71384277,0.00054268
4669.64265015,0.00051026
4671.57145752,0.00050899
4673.50026489,0.00053860
4675.42907227,0.00056238
4677.35787964,0.00050567
4679.28668701,0.00045897
4681.21549438,0.00043957
4683.14430176,0.00045259
4685.07310913,0.00051424
4687.00191650,0.00048284
4688.93072388,0.00048929
4690.85953125,0.00052479
4692.78833862,0.00049771
4694.71714600,0.00047711
4696.64595337,0.00049220
4698.57476074,0.00051235
4700.50356812,0.00048849
4702.43237549,0.00047690
4704.36118286,0.00044739
4706.28999023,0.00050455
4708.21879761,0.00054260
4710.14760498,0.00049181
4712.07641235,0.00055862
4714.00521973,0.00041980
4715.93402710,0.00033747
4717.86283447,0.00051673
4719.79164185,0.00045511
4721.72044922,0.00043880
4723.64925659,0.00049002
4725.57806396,0.00039847
4727.50687134,0.00038863
4729.43567871,0.00045218
4731.36448608,0.00051176
4733.29329346,0.00043881
4735.22210083,0.00041907
4737.15090820,0.00049175
4739.07971558,0.00051301
4741.00852295,0.00053982
4742.93733032,0.00045081
4744.86613770,0.00044366
4746.79494507,0.00043984
4748.72375244,0.00042443
4750.65255981,0.00048117
4752.58136719,0.00037615
4754.51017456,0.00046180
4756.43898193,0.00049519
4758.36778931,0.00039085
4760.29659668,0.00043695
4762.22540405,0.00038200
4764.15421143,0.00046159
4766.08301880,0.00049278
4768.01182617,0.00039109
4769.94063354,0.00044732
4771.86944092,0.00053103
4773.79824829,0.00054280
4775.72705566,0.00039322
4777.65586304,0.00035430
4779.58467041,0.00042277
4781.51347778,0.00041433
4783.44228516,0.00046090
4785.37109253,0.00051069
4787.29989990,0.00050313
4789.22870728,0.00038115
4791.15751465,0.00029478
4793.08632202,0.00037744
4795.01512939,0.00044113
4796.94393677,0.00043046
4798.87274414,0.00038891
4800.80155151,0.00030388
4802.73035889,0.00034466
4804.65916626,0.00042980
4806.58797363,0.00040955
4808.51678101,0.00044720
4810.44558838,0.00038801
4812.37439575,0.00034587
4814.30320312,0.00040197
4816.23201050,0.00041390
4818.16081787,0.00041486
4820.08962524,0.00035873
4822.01843262,0.00042621
4823.94723999,0.00035167
4825.87604736,0.00032541
4827.80485474,0.00051228
4829.73366211,0.00040675
4831.66246948,0.00040094
4833.59127686,0.00046501
4835.52008423,0.00041342
4837.44889160,0.00038606
4839.37769897,0.00037755
4841.30650635,0.00044658
4843.23531372,0.00035993
4845.16412109,0.00033876
4847.09292847,0.00041840
4849.02173584,0.00043639
4850.95054321,0.00044764
4852.87935059,0.00039139
4854.80815796,0.00037586
4856.73696533,0.00034812
4858.66577270,0.00037256
4860.59458008,0.00034011
4862.52338745,0.00029140
4864.45219482,0.00041156
4866.38100220,0.00034479
4868.30980957,0.00033657
4870.23861694,0.00046204
4872.16742432,0.00031819
4874.09623169,0.00027598
4876.02503906,0.00044375
4877.95384644,0.00043447
4879.88265381,0.00037671
4881.81146118,0.00041923
4883.74026855,0.00043085
4885.66907593,0.00036985
4887.59788330,0.00032401
4889.52669067,0.00038188
4891.45549805,0.00037147
4893.38430542,0.00033319
4895.31311279,0.00036274
4897.24192017,0.00033332
4899.17072754,0.00037802
4901.09953491,0.00035192
4903.02834228,0.00027281
4904.95714966,0.00036701
4906.88595703,0.00036448
4908.81476440,0.00031287
4910.74357178,0.00031812
4912.67237915,0.00034643
4914.60118652,0.00037378
4916.52999390,0.00029327
4918.45880127,0.00034491
4920.38760864,0.00037441
4922.31641602,0.00031071
4924.24522339,0.00040352
4926.17403076,0.00034463
4928.10283813,0.00024710
4930.03164551,0.00032855
4931.96045288,0.00032944
4933.88926025,0.00024431
4935.81806763,0.00032282
4937.74687500,0.00039526
4939.67568237,0.00024284
4941.60448975,0.00026998
4943.53329712,0.00036600
4945.46210449,0.00032400
4947.39091187,0.00034941
4949.31971924,0.00034986
4951.24852661,0.00032597
4953.17733398,0.00033278
4955.10614136,0.00036196
4957.03494873,0.00030056
4958.96375610,0.00029223
4960.89256348,0.00038372
4962.82137085,0.00031897
4964.75017822,0.00027752
4966.67898560,0.00033253
4968.60779297,0.00036939
4970.53660034,0.00031471
4972.46540771,0.00028979
4974.39421509,0.00033433
4976.32302246,0.00030221
4978.25182983,0.00029136
4980.18063721,0.00028928
4982.10944458,0.00032363
4984.03825195,0.00033900
4985.96705933,0.00029756
4987.89586670,0.00028885
4989.82467407,0.00032749
4991.75348145,0.00033322
4993.68228882,0.00021362
4995.61109619,0.00026166
4997.53990356,0.00035260
4999.46871094,0.00029487
5001.39751831,0.00029264
5003.32632568,0.00032596
5005.25513306,0.00031671
5007.18394043,0.00027754
5009.11274780,0.00033123
5011.04155518,0.00033380
5012.97036255,0.00027855
5014.89916992,0.00028771
5016.82797729,0.00030681
5018.75678467,0.00033548
5020.68559204,0.00035130
5022.61439941,0.00035949
5024.54320679,0.00029015
5026.47201416,0.00032155
5028.40082153,0.00035562
5030.32962891,0.00025829
5032.25843628,0.00026020
5034.18724365,0.00024451
5036.11605103,0.00021865
5038.04485840,0.00026638
5039.97366577,0.00032632
5041.90247314,0.00029769
5043.83128052,0.00027930
5045.76008789,0.00029727
5047.68889526,0.00024590
5049.61770264,0.00024634
5051.54651001,0.00024001
5053.47531738,0.00028969
5055.40412476,0.00030277
5057.33293213,0.00024103
5059.26173950,0.00029266
5061.19054687,0.00034374
5063.11935425,0.00029098
5065.04816162,0.00027298
5066.97696899,0.00035362
5068.90577637,0.00028227
5070.83458374,0.00031461
5072.76339111,0.00029112
5074.69219849,0.00017516
5076.62100586,0.00032577
5078.54981323,0.00020890
5080.47862061,0.00018763
5082.40742798,0.00030539
5084.33623535,0.00023381
5086.26504272,0.00027627
5088.19385010,0.00025929
5090.12265747,0.00028647
5092.05146484,0.00029815
5093.98027222,0.00028780
5095.90907959,0.00026181
5097.83788696,0.00019747
5099.76669434,0.00025393
5101.69550171,0.00028380
5103.62430908,0.00033139
5105.55311645,0.00030196
5107.48192383,0.00028438
5109.41073120,0.00030304
5111.33953857,0.00022680
5113.26834595,0.00021795
5115.19715332,0.00026130
5117.12596069,0.00030090
5119.05476807,0.00032070
5120.98357544,0.00028670
5122.91238281,0.00018390
5124.84119019,0.00025198
5126.76999756,0.00028822
5128.69880493,0.00023246
5130.62761230,0.00031047
5132.55641968,0.00023270
5134.48522705,0.00024970
5136.41403442,0.00030535
5138.34284180,0.00024847
5140.27164917,0.00023085
5142.20045654,0.00017548
5144.12926392,0.00023521
5146.05807129,0.00027798
5147.98687866,0.00031263
5149.91568603,0.00029710
5151.84449341,0.00021338
5153.77330078,0.00025323
5155.70210815,0.00026483
5157.63091553,0.00025548
5159.55972290,0.00024227
5161.48853027,0.00023465
5163.41733765,0.00024141
5165.34614502,0.00026787
5167.27495239,0.00026843
5169.20375977,0.00021573
5171.13256714,0.00023923
5173.06137451,0.00027548
5174.99018188,0.00032278
5176.91898926,0.00031797
5178.84779663,0.00025096
5180.77660400,0.00022811
5182.70541138,0.00020527
5184.63421875,0.00024124
5186.56302612,0.00031481
5188.49183350,0.00026140
5190.42064087,0.00018720
5192.34944824,0.00022748
5194.27825562,0.00019071
5196.20706299,0.00016334
5198.13587036,0.00021076
5200.06467773,0.00022854
5201.99348511,0.00026521
5203.92229248,0.00022704
5205.85109985,0.00022974
5207.77990723,0.00023106
5209.70871460,0.00016026
5211.63752197,0.00022078
5213.56632935,0.00024070
5215.49513672,0.00018465
5217.42394409,0.00022093
5219.35275146,0.00020254
5221.28155884,0.00015358
5223.21036621,0.00021211
5225.13917358,0.00020877
5227.06798096,0.00020166
5228.99678833,0.00020406
5230.92559570,0.00015764
5232.85440308,0.00023416
5234.78321045,0.00021818
5236.71201782,0.00014926
5238.64082520,0.00021938
5240.56963257,0.00022680
5242.49843994,0.00017132
5244.42724731,0.00014287
5246.35605469,0.00019921
5248.28486206,0.00026476
5250.21366943,0.00019570
5252.14247681,0.00014985
5254.07128418,0.00021232
5256.00009155,0.00022416
5257.92889893,0.00025822
5259.85770630,0.00026871
5261.78651367,0.00018884
5263.71532104,0.00023595
5265.64412842,0.00025973
5267.57293579,0.00022303
5269.50174316,0.00021115
5271.43055054,0.00014206
5273.35935791,0.00019589
5275.28816528,0.00026485
5277.21697266,0.00022521
5279.14578003,0.00025093
5281.07458740,0.00022641
5283.00339478,0.00015999
5284.93220215,0.00017450
5286.86100952,0.00019095
5288.78981689,0.00021670
5290.71862427,0.00017661
5292.64743164,0.00015174
5294.57623901,0.00019645
5296.50504639,0.00019737
5298.43385376,0.00022724
5300.36266113,0.00021558
5302.29146851,0.00021294
5304.22027588,0.00021379
5306.14908325,0.00020973
5308.07789062,0.00025915
5310.00669800,0.00025126
5311.93550537,0.00024298
5313.86431274,0.00017881
5315.79312012,0.00018856
5317.72192749,0.00017803
5319.65073486,0.00013652
5321.57954224,0.00021166
5323.50834961,0.00014540
5325.43715698,0.00021957
5327.36596436,0.00022130
5329.29477173,0.00009651
5331.22357910,0.00018273
5333.15238647,0.00019444
5335.08119385,0.00019936
5337.01000122,0.00016244
5338.93880859,0.00021678
5340.86761597,0.00028030
5342.79642334,0.00016704
5344.72523071,0.00017843
5346.65403809,0.00017143
5348.58284546,0.00016756
5350.51165283,0.00019931
5352.44046020,0.00017959
5354.36926758,0.00019733
5356.29807495,0.00016302
5358.22688232,0.00012402
5360.15568970,0.00023834
5362.08449707,0.00024912
5364.01330444,0.00013644
5365.94211182,0.00022269
5367.87091919,0.00021108
5369.79972656,0.00014788
5371.72853394,0.00019114
5373.65734131,0.00017215
5375.58614868,0.00017209
5377.51495605,0.00011803
5379.44376343,0.00014472
5381.37257080,0.00022452
5383.30137817,0.00022068
5385.23018555,0.00018256
5387.15899292,0.00019216
5389.08780029,0.00022214
5391.01660767,0.00014466
5392.94541504,0.00021654
5394.87422241,0.00020443
5396.80302978,0.00008580
5398.73183716,0.00014253
5400.66064453,0.00013574
5402.58945190,0.00013286
5404.51825928,0.00019337
5406.44706665,0.00022808
5408.37587402,0.00016675
5410.30468140,0.00016905
5412.23348877,0.00019248
5414.16229614,0.00014750
5416.09110352,0.00020887
5418.01991089,0.00014791
5419.94871826,0.00012438
5421.87752563,0.00017255
5423.80633301,0.00016346
5425.73514038,0.00021766
5427.66394775,0.00019376
5429.59275513,0.00020067
5431.52156250,0.00017358
5433.45036987,0.00011937
5435.37917725,0.00016475
5437.30798462,0.00016725
5439.23679199,0.00012962
5441.16559936,0.00007926
5443.09440674,0.00013271
5445.02321411,0.00016702
5446.95202148,0.00011992
5448.88082886,0.00013685
5450.80963623,0.00013727
5452.73844360,0.00019605
5454.66725098,0.00016922
5456.59605835,0.00009231
5458.52486572,0.00017695
5460.45367310,0.00012868
5462.38248047,0.00009123
5464.31128784,0.00018227
5466.24009521,0.00015629
5468.16890259,0.00016760
5470.09770996,0.00020387
5472.02651733,0.00013291
5473.95532471,0.00012820
5475.88413208,0.00018430
5477.81293945,0.00015425
5479.74174683,0.00013903
5481.67055420,0.00012495
5483.59936157,0.00011878
5485.52816895,0.00014525
5487.45697632,0.00009401
5489.38578369,0.00016451
5491.31459106,0.00019716
5493.24339844,0.00010571
5495.17220581,0.00018137
5497.10101318,0.00023652
5499.02982056,0.00020003
5500.95862793,0.00018428
5502.88743530,0.00019110
5504.81624268,0.00013592
5506.74505005,0.00011965
5508.67385742,0.00014407
5510.60266479,0.00010142
5512.53147217,0.00019314
5514.46027954,0.00019161
5516.38908691,0.00007980
5518.31789429,0.00007529
5520.24670166,0.00011847
5522.17550903,0.00009212
5524.10431641,0.00007164
5526.03312378,0.00020104
5527.96193115,0.00009983
5529.89073853,0.00003839
5531.81954590,0.00012388
5533.74835327,0.00011634
5535.67716064,0.00016622
5537.60596802,0.00010268
5539.53477539,0.00011653
5541.46358276,0.00012134
5543.39239014,0.00014983
5545.32119751,0.00020512
5547.25000488,0.00010736
5549.17881226,0.00015895
5551.10761963,0.00015663
5553.03642700,0.00017755
5554.96523437,0.00015507
5556.89404175,0.00009986
5558.82284912,0.00017297
5560.75165649,0.00012543
5562.68046387,0.00016913
5564.60927124,0.00014132
5566.53807861,0.00009999
5568.46688599,0.00015222
5570.39569336,0.00011124
5572.32450073,0.00011317
5574.25330811,0.00016128
5576.18211548,0.00018414
5578.11092285,0.00010199
5580.03973022,0.00013145
5581.96853760,0.00014236
5583.89734497,0.00008438
5585.82615234,0.00009128
5587.75495972,0.00007330
5589.68376709,0.00011963
5591.61257446,0.00012343
5593.54138184,0.00019398
5595.47018921,0.00016728
5597.39899658,0.00014336
5599.32780395,0.00021340
5601.25661133,0.00009230
5603.18541870,0.00013676
5605.11422607,0.00015201
5607.04303345,0.00007768
5608.97184082,0.00010506
5610.90064819,0.00013165
5612.82945557,0.00011394
5614.75826294,0.00005811
5616.68707031,0.00014789
5618.61587769,0.00011422
5620.54468506,0.00007401
5622.47349243,0.00011419
5624.40229980,0.00010789
5626.33110718,0.00015929
5628.25991455,0.00009641
5630.18872192,0.00014753
5632.11752930,0.00018627
5634.04633667,0.00009559
5635.97514404,0.00015237
5637.90395142,0.00014337
5639.83275879,0.00009561
5641.76156616,0.00014345
5643.69037353,0.00012414
5645.61918091,0.00008490
5647.54798828,0.00012844
5649.47679565,0.00007242
5651.40560303,0.00011449
5653.33441040,0.00022940
5655.26321777,0.00011524
5657.19202515,0.00009142
5659.12083252,0.00014996
5661.04963989,0.00018762
5662.97844727,0.00012002
5664.90725464,0.00005530
5666.83606201,0.00018054
5668.76486938,0.00013342
5670.69367676,0.00010261
5672.62248413,0.00011514
5674.55129150,0.00005020
5676.48009888,0.00013521
5678.40890625,0.00012678
5680.33771362,0.00009044
5682.26652100,0.00009811
5684.19532837,0.00005192
5686.12413574,0.00014963
5688.05294311,0.00012905
5689.98175049,0.00008841
5691.91055786,0.00020392
5693.83936523,0.00011916
5695.76817261,0.00012975
5697.69697998,0.00015497
5699.62578735,0.00008221
5701.55459473,0.00010029
5703.48340210,0.00003777
5705.41220947,0.00011656
5707.34101685,0.00014758
5709.26982422,0.00010021
5711.19863159,0.00014799
5713.12743896,0.00010466
5715.05624634,0.00009307
5716.98505371,0.00007486
5718.91386108,0.00007970
5720.84266846,0.00011414
5722.77147583,0.00014387
5724.70028320,0.00012649
5726.62909058,0.00007802
5728.55789795,0.00009976
5730.48670532,0.00005729
5732.41551270,0.00008445
5734.34432007,0.00006919
5736.27312744,0.00006644
5738.20193481,0.00013333
5740.13074219,0.00007709
5742.05954956,0.00011554
5743.98835693,0.00009780
5745.91716431,0.00007994
5747.84597168,0.00010946
5749.77477905,0.00009872
5751.70358643,0.00009482
5753.63239380,0.00002526
5755.56120117,0.00007564
5757.49000854,0.00010996
5759.41881592,0.00012399
5761.34762329,0.00014280
5763.27643066,0.00010562
5765.20523804,0.00010802
5767.13404541,0.00010633
5769.06285278,0.00017359
5770.99166016,0.00010501
5772.92046753,0.00003949
5774.84927490,0.00012606
5776.77808228,0.00010282
5778.70688965,0.00006979
5780.63569702,0.00008152
5782.56450439,0.00014237
5784.49331177,0.00014792
5786.42211914,0.00009372
5788.35092651,0.00011710
5790.27973389,0.00008620
5792.20854126,0.00004139
5794.13734863,0.00012662
5796.06615601,0.00014156
5797.99496338,0.00005889
5799.92377075,0.00010817
5801.85257812,0.00009738
5803.78138550,0.00005282
5805.71019287,0.00008212
5807.63900024,0.00007649
5809.56780762,0.00013116
5811.49661499,0.00010729
5813.42542236,0.00010408
5815.35422974,0.00011828
5817.28303711,0.00003869
5819.21184448,0.00008159
5821.14065186,0.00007122
5823.06945923,0.00005565
5824.99826660,0.00010655
5826.92707397,0.00008020
5828.85588135,0.00007895
5830.78468872,0.00007249
5832.71349609,0.00008368
5834.64230347,0.00011770
5836.57111084,0.00010640
5838.49991821,0.00007363
5840.42872559,0.00003891
5842.35753296,0.00003380
5844.28634033,0.00006664
5846.21514770,0.00011558
5848.14395508,0.00005350
5850.07276245,0.00002167
5852.00156982,0.00012857
5853.93037720,0.00006594
5855.85918457,0.00003260
5857.78799194,0.00011432
5859.71679932,0.00005086
5861.64560669,0.00006877
5863.57441406,0.00011388
5865.50322144,0.00008348
5867.43202881,0.00005635
5869.36083618,0.00001757
5871.28964355,0.00003309
5873.21845093,0.00007231
5875.14725830,0.00015121
5877.07606567,0.00012111
5879.00487305,0.00007825
5880.93368042,0.00011284
5882.86248779,0.00006175
5884.79129517,0.00008041
5886.72010254,0.00003696
5888.64890991,0.00005036
5890.57771728,0.00013997
5892.50652466,0.00007325
5894.43533203,0.00009814
5896.36413940,0.00009611
5898.29294678,0.00007945
5900.22175415,0.00008220
5902.15056152,0.00001904
5904.07936890,0.00008622
5906.00817627,0.00010035
5907.93698364,0.00007320
5909.86579102,0.00010988
5911.79459839,0.00009173
5913.72340576,0.00009477
5915.65221313,0.00008928
5917.58102051,0.00007319
5919.50982788,0.00008484
5921.43863525,0.00008453
5923.36744263,0.00010183
5925.29625000,0.00011014
5927.22505737,0.00004774
5929.15386475,0.00002457
5931.08267212,0.00009434
5933.01147949,0.00004073
5934.94028686,-0.00001005
5936.86909424,0.00008913
5938.79790161,0.00010075
5940.72670898,0.00007194
5942.65551636,0.00007115
5944.58432373,0.00005393
5946.51313110,0.00007443
5948.44193848,0.00007443
5950.37074585,0.00004022
5952.29955322,0.00004168
5954.22836060,0.00009994
5956.15716797,0.00007207
5958.08597534,0.00005597
5960.01478271,0.00012943
5961.94359009,0.00007334
5963.87239746,0.00004213
5965.80120483,0.00006038
5967.73001221,0.00009304
5969.65881958,0.00010016
5971.58762695,0.00002500
5973.51643433,0.00008626
5975.44524170,0.00014713
5977.37404907,0.00014459
5979.30285645,0.00005256
5981.23166382,0.00002634
5983.16047119,0.00012636
5985.08927856,0.00004208
5987.01808594,0.00009217
5988.94689331,0.00015035
5990.87570068,0.00007091
5992.80450806,0.00014523
5994.73331543,0.00016518
5996.66212280,0.00011327
5998.59093018,0.00006413
6000.51973755,0.00009188
