399.26312622,0.00034727
401.19193359,0.00078105
403.12074097,0.00073614
405.04954834,0.00098526
406.97835571,0.00057574
408.90716309,0.00023478
410.83597046,0.00043299
412.76477783,0.00036568
414.69358521,0.00029577
416.62239258,0.00019967
418.55119995,0.00048408
420.48000732,0.00038030
422.40881470,0.00048959
424.33762207,0.00063791
426.26642944,0.00050658
428.19523682,0.00114981
430.12404419,0.00069789
432.05285156,0.00057321
433.98165894,0.00093839
435.91046631,0.00014297
437.83927368,0.00029480
439.76808105,0.00053602
441.69688843,0.00038380
443.62569580,0.00073923
445.55450317,0.00071256
447.48331055,0.00073309
449.41211792,0.00104366
451.34092529,0.00060982
453.26973267,0.00016124
455.19854004,0.00035249
457.12734741,0.00037405
459.05615479,0.00026787
460.98496216,0.00025511
462.91376953,0.00050643
464.84257690,0.00061913
466.77138428,0.00056869
468.70019165,0.00042424
470.62899902,0.00025912
472.55780640,0.00033815
474.48661377,-0.00001129
476.41542114,0.00014099
478.34422852,0.00021522
480.27303589,0.00001773
482.20184326,0.00044310
484.13065063,0.00007236
486.05945801,-0.00012434
487.98826538,-0.00007822
489.91707275,-0.00020175
491.84588013,-0.00005049
493.77468750,0.00025216
495.70349487,0.00067138
497.63230225,0.00019146
499.56110962,-0.00009801
501.48991699,0.00041530
503.41872437,0.00012968
505.34753174,-0.00022602
507.27633911,0.00022567
509.20514648,0.00032368
511.13395386,0.00041863
513.06276123,0.00040556
514.99156860,0.00020568
516.92037598,0.00032632
518.84918335,0.00053040
520.77799072,0.00011089
522.70679810,-0.00001763
524.63560547,0.00047153
526.56441284,0.00032454
528.49322021,0.00004211
530.42202759,0.00018333
532.35083496,0.00014658
534.27964233,0.00000521
536.20844971,0.00024151
538.13725708,0.00012212
540.06606445,-0.00010049
541.99487183,0.00030164
543.92367920,0.00012107
545.85248657,0.00020366
547.78129395,0.00031357
549.71010132,-0.00031462
551.63890869,0.00020513
553.56771606,0.00045631
555.49652344,-0.00016429
557.42533081,0.00012952
559.35413818,0.00033992
561.28294556,0.00036239
563.21175293,0.00034877
565.14056030,-0.00025296
567.06936768,-0.00008780
568.99817505,0.00020284
570.92698242,0.00007793
572.85578979,0.00022803
574.78459717,-0.00006523
576.71340454,0.00028869
578.64221191,0.00059923
580.57101929,0.00016295
582.49982666,0.00015914
584.42863403,0.00002091
586.35744141,0.00006517
588.28624878,0.00004567
590.21505615,0.00013715
592.14386353,0.00037464
594.07267090,0.00023845
596.00147827,0.00013701
597.93028564,-0.00003653
599.85909302,-0.00000836
601.78790039,-0.00011398
603.71670776,0.00005160
605.64551514,0.00038448
607.57432251,0.00023111
609.50312988,0.00010255
611.43193726,0.00021947
613.36074463,0.00025263
615.28955200,0.00016270
617.21835938,0.00003990
619.14716675,-0.00008021
621.07597412,0.00014081
623.00478149,0.00016812
624.93358887,0.00017085
626.86239624,0.00029941
628.79120361,0.00008390
630.72001099,0.00004626
632.64881836,0.00043474
634.57762573,0.00092620
636.50643311,0.00082412
638.43524048,0.00041112
640.36404785,0.00074179
642.29285522,0.00075903
644.22166260,0.00069380
646.15046997,0.00089858
648.07927734,0.00086664
650.00808472,0.00121680
651.93689209,0.00111039
653.86569946,0.00083852
655.79450684,0.00100698
657.72331421,0.00116633
659.65212158,0.00127663
661.58092896,0.00094721
663.50973633,0.00098310
665.43854370,0.00129870
667.36735107,0.00129938
669.29615845,0.00154745
671.22496582,0.00148301
673.15377319,0.00139805
675.08258057,0.00162367
677.01138794,0.00153765
678.94019531,0.00166552
680.86900269,0.00162159
682.79781006,0.00137748
684.72661743,0.00159729
686.65542480,0.00167280
688.58423218,0.00170038
690.51303955,0.00184249
692.44184692,0.00175580
694.37065430,0.00177336
696.29946167,0.00236420
698.22826904,0.00248452
700.15707642,0.00205504
702.08588379,0.00244959
704.01469116,0.00243851
705.94349854,0.00195619
707.87230591,0.00185842
709.80111328,0.00133460
711.72992065,0.00103452
713.65872803,0.00084047
715.58753540,0.00046429
717.51634277,0.00041040
719.44515015,0.00001964
721.37395752,-0.00011155
723.30276489,0.00028871
725.23157227,0.00014725
727.16037964,-0.00007583
729.08918701,-0.00007024
731.01799438,-0.00002935
732.94680176,0.00029205
734.87560913,0.00027260
736.80441650,-0.00000134
738.73322388,0.00012778
740.66203125,0.00026233
742.59083862,0.00024749
744.51964600,0.00007029
746.44845337,-0.00012494
748.37726074,0.00024455
750.30606812,0.00019080
752.23487549,0.00012015
754.16368286,0.00021480
756.09249023,-0.00008522
758.02129761,0.00019954
759.95010498,0.00007067
761.87891235,0.00003500
763.80771973,0.00041182
765.73652710,0.00009952
767.66533447,0.00015206
769.59414185,0.00039023
771.52294922,0.00026816
773.45175659,0.00042577
775.38056396,0.00052400
777.30937134,0.00009105
779.23817871,0.00032091
781.16698608,0.00046811
783.09579346,-0.00007652
785.02460083,0.00023818
786.95340820,0.00049413
788.88221558,0.00037048
790.81102295,0.00019566
792.73983032,0.00004475
794.66863770,0.00018647
796.59744507,0.00033577
798.52625244,0.00042470
800.45505981,0.00029149
802.38386719,0.00048474
804.31267456,0.00032962
806.24148193,0.00023012
808.17028931,0.00050938
810.09909668,0.00019786
812.02790405,0.00043497
813.95671143,0.00039498
815.88551880,0.00000807
817.81432617,0.00011976
819.74313354,0.00011266
821.67194092,0.00034007
823.60074829,0.00031685
825.52955566,0.00035424
827.45836304,0.00057820
829.38717041,0.00033789
831.31597778,0.00033353
833.24478516,0.00052521
835.17359253,0.00058007
837.10239990,0.00056449
839.03120728,0.00037340
840.96001465,0.00062207
842.88882202,0.00104206
844.81762939,0.00055639
846.74643677,0.00031368
848.67524414,0.00071179
850.60405151,0.00057785
852.53285889,0.00029871
854.46166626,0.00032124
856.39047363,0.00055576
858.31928101,0.00059807
860.24808838,0.00050049
862.17689575,0.00037569
864.10570313,0.00042579
866.03451050,0.00054509
867.96331787,0.00012659
869.89212524,0.00006246
871.82093262,0.00027398
873.74973999,0.00057500
875.67854736,0.00044201
877.60735474,0.00003952
879.53616211,0.00034151
881.46496948,0.00020809
883.39377686,0.00036156
885.32258423,0.00056926
887.25139160,0.00035930
889.18019897,0.00032669
891.10900635,0.00017826
893.03781372,0.00051989
894.96662109,0.00043712
896.89542847,0.00015379
898.82423584,0.00024842
900.75304321,0.00037390
902.68185059,0.00057009
904.61065796,0.00013273
906.53946533,0.00010018
908.46827271,0.00050135
910.39708008,0.00040599
912.32588745,0.00041966
914.25469482,0.00064673
916.18350220,0.00057422
918.11230957,0.00039023
920.04111694,0.00049249
921.96992432,0.00054592
923.89873169,0.00071161
925.82753906,0.00051445
927.75634644,0.00040784
929.68515381,0.00087930
931.61396118,0.00079328
933.54276855,0.00089606
935.47157593,0.00106679
937.40038330,0.00075845
939.32919067,0.00080218
941.25799805,0.00104978
943.18680542,0.00111092
945.11561279,0.00108052
947.04442017,0.00083455
948.97322754,0.00077322
950.90203491,0.00110209
952.83084229,0.00074913
954.75964966,0.00068426
956.68845703,0.00103880
958.61726440,0.00087483
960.54607178,0.00104866
962.47487915,0.00102237
964.40368652,0.00105473
966.33249390,0.00120432
968.26130127,0.00093155
970.19010864,0.00094624
972.11891602,0.00111535
974.04772339,0.00128939
975.97653076,0.00138329
977.90533813,0.00150652
979.83414551,0.00152351
981.76295288,0.00158150
983.69176025,0.00178155
985.62056763,0.00175845
987.54937500,0.00216171
989.47818237,0.00253395
991.40698975,0.00263057
993.33579712,0.00295851
995.26460449,0.00323456
997.19341187,0.00355842
999.12221924,0.00387849
1001.05102661,0.00412928
1002.97983398,0.00442839
1004.90864136,0.00463687
1006.83744873,0.00485387
1008.76625610,0.00517141
1010.69506348,0.00546934
1012.62387085,0.00591213
1014.55267822,0.00615533
1016.48148560,0.00624173
1018.41029297,0.00658262
1020.33910034,0.00675506
1022.26790771,0.00706358
1024.19671509,0.00750389
1026.12552246,0.00787717
1028.05432983,0.00824713
1029.98313721,0.00841463
1031.91194458,0.00855546
1033.84075195,0.00879985
1035.76955933,0.00911354
1037.69836670,0.00902591
1039.62717407,0.00895003
1041.55598145,0.00890623
1043.48478882,0.00865902
1045.41359619,0.00879971
1047.34240356,0.00873034
1049.27121094,0.00849979
1051.20001831,0.00844711
1053.12882568,0.00825272
1055.05763306,0.00785940
1056.98644043,0.00775932
1058.91524780,0.00779460
1060.84405518,0.00740710
1062.77286255,0.00725428
1064.70166992,0.00703776
1066.63047729,0.00689181
1068.55928467,0.00672448
1070.48809204,0.00623101
1072.41689941,0.00614015
1074.34570679,0.00581327
1076.27451416,0.00549212
1078.20332153,0.00519104
1080.13212891,0.00470916
1082.06093628,0.00455822
1083.98974365,0.00443852
1085.91855103,0.00428203
1087.84735840,0.00407126
1089.77616577,0.00412676
1091.70497314,0.00389831
1093.63378052,0.00362033
1095.56258789,0.00380104
1097.49139526,0.00341918
1099.42020264,0.00316685
1101.34901001,0.00329107
1103.27781738,0.00326694
1105.20662476,0.00322427
1107.13543213,0.00303576
1109.06423950,0.00299147
1110.99304687,0.00308815
1112.92185425,0.00297462
1114.85066162,0.00287414
1116.77946899,0.00294096
1118.70827637,0.00283730
1120.63708374,0.00309967
1122.56589111,0.00338077
1124.49469849,0.00305152
1126.42350586,0.00298468
1128.35231323,0.00306868
1130.28112061,0.00333069
1132.20992798,0.00337689
1134.13873535,0.00322238
1136.06754272,0.00357033
1137.99635010,0.00349321
1139.92515747,0.00362503
1141.85396484,0.00418578
1143.78277222,0.00445230
1145.71157959,0.00466228
1147.64038696,0.00485805
1149.56919434,0.00531390
1151.49800171,0.00548201
1153.42680908,0.00571769
1155.35561646,0.00610382
1157.28442383,0.00617462
1159.21323120,0.00653718
1161.14203857,0.00675965
1163.07084595,0.00699942
1164.99965332,0.00721614
1166.92846069,0.00743993
1168.85726807,0.00784495
1170.78607544,0.00801906
1172.71488281,0.00838234
1174.64369019,0.00859058
1176.57249756,0.00910103
1178.50130493,0.00953772
1180.43011230,0.00950524
1182.35891968,0.01011943
1184.28772705,0.01055598
1186.21653442,0.01082795
1188.14534180,0.01146909
1190.07414917,0.01219761
1192.00295654,0.01255764
1193.93176392,0.01294737
1195.86057129,0.01381040
1197.78937866,0.01427187
1199.71818604,0.01502298
1201.64699341,0.01577011
1203.57580078,0.01617222
1205.50460815,0.01676896
1207.43341553,0.01727059
1209.36222290,0.01794821
1211.29103027,0.01838927
1213.21983765,0.01899214
1215.14864502,0.01944682
1217.07745239,0.01962600
1219.00625977,0.02037152
1220.93506714,0.02072219
1222.86387451,0.02081451
1224.79268188,0.02095635
1226.72148926,0.02124522
1228.65029663,0.02138406
1230.57910400,0.02110517
1232.50791138,0.02128437
1234.43671875,0.02139163
1236.36552612,0.02156536
1238.29433350,0.02178708
1240.22314087,0.02153748
1242.15194824,0.02151356
1244.08075562,0.02152290
1246.00956299,0.02134521
1247.93837036,0.02112600
1249.86717773,0.02108451
1251.79598511,0.02102732
1253.72479248,0.02072492
1255.65359985,0.02067621
1257.58240723,0.02037743
1259.51121460,0.01996121
1261.44002197,0.01988702
1263.36882935,0.01961307
1265.29763672,0.01929723
1267.22644409,0.01898554
1269.15525146,0.01881730
1271.08405884,0.01852060
1273.01286621,0.01799341
1274.94167358,0.01794735
1276.87048096,0.01768053
1278.79928833,0.01722802
1280.72809570,0.01694376
1282.65690308,0.01662702
1284.58571045,0.01648688
1286.51451782,0.01611763
1288.44332520,0.01576458
1290.37213257,0.01549714
1292.30093994,0.01534053
1294.22974731,0.01547106
1296.15855469,0.01533182
1298.08736206,0.01509536
1300.01616943,0.01526897
1301.94497681,0.01553323
1303.87378418,0.01540205
1305.80259155,0.01562078
1307.73139893,0.01595752
1309.66020630,0.01605087
1311.58901367,0.01641625
1313.51782104,0.01661758
1315.44662842,0.01714289
1317.37543579,0.01758426
1319.30424316,0.01781517
1321.23305054,0.01854460
1323.16185791,0.01911234
1325.09066528,0.01974245
1327.01947266,0.02022481
1328.94828003,0.02063980
1330.87708740,0.02138943
1332.80589478,0.02174005
1334.73470215,0.02202877
1336.66350952,0.02238644
1338.59231689,0.02199742
1340.52112427,0.02218308
1342.44993164,0.02336243
1344.37873901,0.02353949
1346.30754639,0.02363563
1348.23635376,0.02357152
1350.16516113,0.02308257
1352.09396851,0.02325695
1354.02277588,0.02296616
1355.95158325,0.02284578
1357.88039062,0.02265384
1359.80919800,0.02224797
1361.73800537,0.02134652
1363.66681274,0.02081902
1365.59562012,0.02222821
1367.52442749,0.02161216
1369.45323486,0.02134055
1371.38204224,0.02189834
1373.31084961,0.02020366
1375.23965698,0.02047121
1377.16846436,0.02134238
1379.09727173,0.02122469
1381.02607910,0.02127472
1382.95488647,0.02146671
1384.88369385,0.02137841
1386.81250122,0.02005712
1388.74130859,0.02044350
1390.67011597,0.02252796
1392.59892334,0.02195117
1394.52773071,0.01997454
1396.45653809,0.02129199
1398.38534546,0.02126502
1400.31415283,0.02089222
1402.24296021,0.02321346
1404.17176758,0.02153982
1406.10057495,0.02171872
1408.02938232,0.02283336
1409.95818970,0.02175058
1411.88699707,0.02239347
1413.81580444,0.02139746
1415.74461182,0.02202819
1417.67341919,0.01953004
1419.60222656,0.01691932
1421.53103394,0.02033315
1423.45984131,0.01983737
1425.38864868,0.01911797
1427.31745605,0.01950531
1429.24626343,0.01783844
1431.17507080,0.01724907
1433.10387817,0.01793819
1435.03268555,0.01632096
1436.96149292,0.01334636
1438.89030029,0.01554184
1440.81910767,0.01627195
1442.74791504,0.01512905
1444.67672241,0.01587116
1446.60552979,0.01429969
1448.53433716,0.01444835
1450.46314453,0.01520980
1452.39195190,0.01551546
1454.32075928,0.01590795
1456.24956665,0.01270971
1458.17837402,0.01293980
1460.10718140,0.01811865
1462.03598877,0.01972900
1463.96479614,0.01919117
1465.89360352,0.01975492
1467.82241089,0.02301464
1469.75121826,0.02492572
1471.68002563,0.02119966
1473.60883301,0.02223514
1475.53764038,0.02595944
1477.46644775,0.02817505
1479.39525513,0.03147015
1481.32406250,0.03163086
1483.25286987,0.03368274
1485.18167725,0.03482960
1487.11048462,0.03370171
1489.03929199,0.03312963
1490.96809937,0.03321906
1492.89690674,0.03986961
1494.82571411,0.03889499
1496.75452148,0.03383485
1498.68332886,0.03889393
1500.61213623,0.04032792
1502.54094360,0.04374142
1504.46975098,0.04139846
1506.39855835,0.02764444
1508.32736572,0.03463531
1510.25617310,0.04270950
1512.18498047,0.04086765
1514.11378784,0.04484362
1516.04259521,0.03967743
1517.97140259,0.04164078
1519.90020996,0.04052926
1521.82901733,0.03346693
1523.75782471,0.04258662
1525.68663208,0.04198558
1527.61543945,0.04154866
1529.54424683,0.04723600
1531.47305420,0.04512399
1533.40186157,0.04019568
1535.33066895,0.04288456
1537.25947632,0.04731230
1539.18828369,0.03166256
1541.11709106,0.03264258
1543.04589844,0.04098038
1544.97470581,0.03865474
1546.90351318,0.04805210
1548.83232056,0.04439962
1550.76112793,0.04551659
1552.68993530,0.04608805
1554.61874268,0.04065581
1556.54755005,0.04422712
1558.47635742,0.02900732
1560.40516479,0.03101969
1562.33397217,0.04854220
1564.26277954,0.04558364
1566.19158691,0.04690582
1568.12039429,0.04669680
1570.04920166,0.04004440
1571.97800903,0.04740343
1573.90681641,0.04860358
1575.83562378,0.03681302
1577.76443115,0.04238793
1579.69323853,0.04909714
1581.62204590,0.04668768
1583.55085327,0.04831706
1585.47966064,0.04740983
1587.40846802,0.04782949
1589.33727539,0.04754271
1591.26608276,0.04723566
1593.19489014,0.04753732
1595.12369751,0.04701761
1597.05250488,0.04760549
1598.98131226,0.04724868
1600.91011963,0.04756362
1602.83892700,0.04648922
1604.76773437,0.04737329
1606.69654175,0.04667353
1608.62534912,0.04653949
1610.55415649,0.04650704
1612.48296387,0.04663961
1614.41177124,0.04784855
1616.34057861,0.03786437
1618.26938599,0.04103833
1620.19819336,0.04966263
1622.12700073,0.04307199
1624.05580811,0.04292772
1625.98461548,0.04568104
1627.91342285,0.04545670
1629.84223022,0.04531038
1631.77103760,0.04886057
1633.69984497,0.04476912
1635.62865234,0.03525131
1637.55745972,0.04203651
1639.48626709,0.04772895
1641.41507446,0.04637556
1643.34388184,0.04793281
1645.27268921,0.04247678
1647.20149658,0.03584988
1649.13030396,0.04681700
1651.05911133,0.04509199
1652.98791870,0.02589606
1654.91672607,0.03712464
1656.84553345,0.04977896
1658.77434082,0.04734980
1660.70314819,0.04904229
1662.63195557,0.04377491
1664.56076294,0.04636836
1666.48957031,0.05125073
1668.41837769,0.04328280
1670.34718506,0.04136925
1672.27599243,0.04861690
1674.20479980,0.04436979
1676.13360718,0.04203370
1678.06241455,0.05003372
1679.99122192,0.04795078
1681.92002930,0.04716072
1683.84883667,0.03716578
1685.77764404,0.03621961
1687.70645142,0.05304384
1689.63525879,0.04503051
1691.56406616,0.05020127
1693.49287354,0.05233361
1695.42168091,0.03557328
1697.35048828,0.04571631
1699.27929565,0.03960429
1701.20810303,0.03403262
1703.13691040,0.04995835
1705.06571777,0.04531935
1706.99452515,0.04544310
1708.92333252,0.05064024
1710.85213989,0.04850262
1712.78094727,0.04936446
1714.70975464,0.04523136
1716.63856201,0.03978167
1718.56736938,0.03877052
1720.49617676,0.04771115
1722.42498413,0.05033996
1724.35379150,0.04581960
1726.28259888,0.05100210
1728.21140625,0.04669930
1730.14021362,0.04652373
1732.06902100,0.04589969
1733.99782837,0.03275464
1735.92663574,0.04245966
1737.85544312,0.04857180
1739.78425049,0.04167050
1741.71305786,0.04623114
1743.64186523,0.04704602
1745.57067261,0.04692527
1747.49947998,0.04745043
1749.42828735,0.04480866
1751.35709473,0.04253737
1753.28590210,0.04807467
1755.21470947,0.05097562
1757.14351685,0.04525682
1759.07232422,0.05089884
1761.00113159,0.04758885
1762.92993896,0.04501960
1764.85874634,0.05364845
1766.78755371,0.04722507
1768.71636108,0.04737857
1770.64516846,0.04745028
1772.57397583,0.04135954
1774.50278320,0.04722180
1776.43159058,0.05062905
1778.36039795,0.04993944
1780.28920532,0.04908271
1782.21801270,0.04951048
1784.14682007,0.04954009
1786.07562744,0.04825510
1788.00443481,0.05151324
1789.93324219,0.05007790
1791.86204956,0.04399304
1793.79085693,0.04618013
1795.71966431,0.05068840
1797.64847168,0.04995227
1799.57727905,0.04886168
1801.50608643,0.04770631
1803.43489380,0.04962534
1805.36370117,0.05122678
1807.29250854,0.05043214
1809.22131592,0.05054342
1811.15012329,0.04858809
1813.07893066,0.05058493
1815.00773804,0.05113123
1816.93654541,0.05024231
1818.86535278,0.05082854
1820.79416016,0.05056317
1822.72296753,0.05165438
1824.65177490,0.04738944
1826.58058228,0.04934464
1828.50938965,0.04975480
1830.43819702,0.04566950
1832.36700439,0.05091323
1834.29581177,0.05074011
1836.22461914,0.05047450
1838.15342651,0.05048176
1840.08223389,0.05074635
1842.01104126,0.05089520
1843.93984863,0.04395662
1845.86865601,0.04706109
1847.79746338,0.05049584
1849.72627075,0.04951743
1851.65507812,0.05109590
1853.58388550,0.05000856
1855.51269287,0.05086626
1857.44150024,0.05043885
1859.37030762,0.04997210
1861.29911499,0.05038491
1863.22792236,0.04979111
1865.15672974,0.05047403
1867.08553711,0.04847210
1869.01434448,0.04580524
1870.94315186,0.04805583
1872.87195923,0.05061286
1874.80076660,0.04956322
1876.72957397,0.04999211
1878.65838135,0.04981021
1880.58718872,0.04949390
1882.51599609,0.05016622
1884.44480347,0.04907586
1886.37361084,0.05002560
1888.30241821,0.04857429
1890.23122559,0.04738961
1892.16003296,0.04974936
1894.08884033,0.04878516
1896.01764771,0.04858787
1897.94645508,0.04941935
1899.87526245,0.04905916
1901.80406982,0.04919066
1903.73287720,0.04879867
1905.66168457,0.04903959
1907.59049194,0.04853390
1909.51929932,0.04821044
1911.44810669,0.04865579
1913.37691406,0.04862593
1915.30572144,0.04926694
1917.23452881,0.04674225
1919.16333618,0.04659517
1921.09214355,0.04900030
1923.02095093,0.04698370
1924.94975830,0.04816882
1926.87856567,0.04894439
1928.80737305,0.04800313
1930.73618042,0.04882716
1932.66498779,0.04789980
1934.59379517,0.04861843
1936.52260254,0.04825861
1938.45140991,0.04842437
1940.38021729,0.04855545
1942.30902466,0.04632273
1944.23783203,0.04748655
1946.16663940,0.04814941
1948.09544678,0.04803424
1950.02425415,0.04835540
1951.95306152,0.04809912
1953.88186890,0.04818891
1955.81067627,0.04791581
1957.73948364,0.04821805
1959.66829102,0.04808357
1961.59709839,0.04801020
1963.52590576,0.04812082
1965.45471313,0.04775821
1967.38352051,0.04727573
1969.31232788,0.04762091
1971.24113525,0.04827538
1973.16994263,0.04779146
1975.09875000,0.04792452
1977.02755737,0.04781187
1978.95636475,0.04781631
1980.88517212,0.04786357
1982.81397949,0.04757495
1984.74278687,0.04784792
1986.67159424,0.04728091
1988.60040161,0.04741000
1990.52920898,0.04703579
1992.45801636,0.04632045
1994.38682373,0.04728680
1996.31563110,0.04746353
1998.24443848,0.04710973
2000.17324585,0.04716163
2002.10205322,0.04709221
2004.03086060,0.04713488
2005.95966797,0.04704849
2007.88847534,0.04670930
2009.81728271,0.04670683
2011.74609009,0.04664919
2013.67489746,0.04666593
2015.60370483,0.04642431
2017.53251221,0.04590993
2019.46131958,0.04631641
2021.39012695,0.04629981
2023.31893433,0.04620619
2025.24774170,0.04608282
2027.17654907,0.04571363
2029.10535645,0.04598054
2031.03416382,0.04591199
2032.96297119,0.04593140
2034.89177856,0.04579118
2036.82058594,0.04567370
2038.74939331,0.04569096
2040.67820068,0.04535139
2042.60700806,0.04535642
2044.53581543,0.04530147
2046.46462280,0.04529142
2048.39343018,0.04527869
2050.32223755,0.04514461
2052.25104492,0.04508391
2054.17985229,0.04504370
2056.10865967,0.04500365
2058.03746704,0.04488122
2059.96627441,0.04467971
2061.89508179,0.04462620
2063.82388916,0.04462620
2065.75269653,0.04434014
2067.68150391,0.04445689
2069.61031128,0.04434945
2071.53911865,0.04436946
2073.46792603,0.04454149
2075.39673340,0.04411524
2077.32554077,0.04424240
2079.25434814,0.04408442
2081.18315552,0.04404911
2083.11196289,0.04411986
2085.04077026,0.04392077
2086.96957764,0.04406351
2088.89838501,0.04373113
2090.82719238,0.04367828
2092.75599976,0.04361954
2094.68480713,0.04352494
2096.61361450,0.04347216
2098.54242187,0.04326541
2100.47122925,0.04343347
2102.40003662,0.04334280
2104.32884399,0.04329869
2106.25765137,0.04320274
2108.18645874,0.04317740
2110.11526611,0.04325691
2112.04407349,0.04313249
2113.97288086,0.04297087
2115.90168823,0.04280587
2117.83049561,0.04298704
2119.75930298,0.04294408
2121.68811035,0.04274960
2123.61691772,0.04266898
2125.54572510,0.04269393
2127.47453247,0.04267121
2129.40333984,0.04257217
2131.33214722,0.04260217
2133.26095459,0.04244081
2135.18976196,0.04250834
2137.11856934,0.04253119
2139.04737671,0.04241142
2140.97618408,0.04228570
2142.90499146,0.04228096
2144.83379883,0.04228686
2146.76260620,0.04201487
2148.69141357,0.04218162
2150.62022095,0.04213477
2152.54902832,0.04204798
2154.47783569,0.04207846
2156.40664307,0.04194169
2158.33545044,0.04202750
2160.26425781,0.04188418
2162.19306519,0.04190703
2164.12187256,0.04178087
2166.05067993,0.04167554
2167.97948730,0.04191284
2169.90829468,0.04174504
2171.83710205,0.04161032
2173.76590942,0.04177277
2175.69471680,0.04182869
2177.62352417,0.04164379
2179.55233154,0.04163807
2181.48113892,0.04158483
2183.40994629,0.04148082
2185.33875366,0.04156809
2187.26756104,0.04142737
2189.19636841,0.04121256
2191.12517578,0.04118795
2193.05398315,0.04131236
2194.98279053,0.04121900
2196.91159790,0.04126025
2198.84040527,0.04140625
2200.76921265,0.04123536
2202.69802002,0.04116062
2204.62682739,0.04110861
2206.55563477,0.04115304
2208.48444214,0.04114475
2210.41324951,0.04097237
2212.34205688,0.04089818
2214.27086426,0.04083463
2216.19967163,0.04090071
2218.12847900,0.04098147
2220.05728638,0.04073540
2221.98609375,0.04057517
2223.91490112,0.04076694
2225.84370850,0.04073477
2227.77251587,0.04061975
2229.70132324,0.04051716
2231.63013062,0.04043745
2233.55893799,0.04052287
2235.48774536,0.04043212
2237.41655273,0.04033300
2239.34536011,0.04027899
2241.27416748,0.04023584
2243.20297485,0.04016931
2245.13178223,0.04020809
2247.06058960,0.04025509
2248.98939697,0.04012641
2250.91820435,0.04003343
2252.84701172,0.03986137
2254.77581909,0.03991389
2256.70462646,0.03992437
2258.63343384,0.03988637
2260.56224121,0.03993014
2262.49104858,0.03975599
2264.41985596,0.03977951
2266.34866333,0.03967212
2268.27747070,0.03960017
2270.20627808,0.03964446
2272.13508545,0.03944939
2274.06389282,0.03949523
2275.99270020,0.03958656
2277.92150757,0.03946740
2279.85031494,0.03945037
2281.77912231,0.03953097
2283.70792969,0.03943215
2285.63673706,0.03928660
2287.56554443,0.03922813
2289.49435181,0.03921875
2291.42315918,0.03906006
2293.35196655,0.03890640
2295.28077393,0.03896420
2297.20958130,0.03885030
2299.13838867,0.03872715
2301.06719604,0.03849465
2302.99600342,0.03832218
2304.92481079,0.03823286
2306.85361816,0.03788189
2308.78242554,0.03771060
2310.71123291,0.03751398
2312.64004028,0.03721629
2314.56884766,0.03688931
2316.49765503,0.03653522
2318.42646240,0.03610707
2320.35526978,0.03560448
2322.28407715,0.03525362
2324.21288452,0.03485848
2326.14169189,0.03458098
2328.07049927,0.03412105
2329.99930664,0.03361031
2331.92811401,0.03353720
2333.85692139,0.03344618
2335.78572876,0.03322727
2337.71453613,0.03317226
2339.64334351,0.03319986
2341.57215088,0.03327720
2343.50095825,0.03377344
2345.42976562,0.03431109
2347.35857300,0.03543300
2349.28738037,0.03652336
2351.21618774,0.03555665
2353.14499512,0.03394356
2355.07380249,0.03284472
2357.00260986,0.03206503
2358.93141724,0.03156535
2360.86022461,0.03108945
2362.78903198,0.03096810
2364.71783936,0.03118099
2366.64664673,0.03155737
2368.57545410,0.03201167
2370.50426147,0.03273740
2372.43306885,0.03349829
2374.36187622,0.03433222
2376.29068359,0.03534807
2378.21949097,0.03588566
2380.14829834,0.03641799
2382.07710571,0.03684514
2384.00591309,0.03695077
2385.93472046,0.03724212
2387.86352783,0.03725052
2389.79233521,0.03710847
2391.72114258,0.03724641
2393.64994995,0.03719668
2395.57875732,0.03698074
2397.50756470,0.03701184
2399.43637207,0.03702927
2401.36517944,0.03687102
2403.29398682,0.03679199
2405.22279419,0.03686690
2407.15160156,0.03686762
2409.08040894,0.03672142
2411.00921631,0.03665021
2412.93802368,0.03671564
2414.86683105,0.03673804
2416.79563843,0.03662426
2418.72444580,0.03654959
2420.65325317,0.03647309
2422.58206055,0.03650406
2424.51086792,0.03650235
2426.43967529,0.03633301
2428.36848267,0.03637288
2430.29729004,0.03638664
2432.22609741,0.03630628
2434.15490479,0.03619511
2436.08371216,0.03617759
2438.01251953,0.03621197
2439.94132690,0.03610066
2441.87013428,0.03609902
2443.79894165,0.03604565
2445.72774902,0.03602836
2447.65655640,0.03597765
2449.58536377,0.03586835
2451.51417114,0.03587326
2453.44297852,0.03585859
2455.37178589,0.03592803
2457.30059326,0.03587191
2459.22940063,0.03578088
2461.15820801,0.03574762
2463.08701538,0.03568237
2465.01582275,0.03564314
2466.94463013,0.03565641
2468.87343750,0.03555975
2470.80224487,0.03535151
2472.73105225,0.03537199
2474.65985962,0.03535035
2476.58866699,0.03540841
2478.51747437,0.03538590
2480.44628174,0.03531490
2482.37508911,0.03540684
2484.30389648,0.03519525
2486.23270386,0.03520255
2488.16151123,0.03519285
2490.09031860,0.03510735
2492.01912598,0.03512434
2493.94793335,0.03498314
2495.87674072,0.03506935
2497.80554810,0.03500042
2499.73435547,0.03494994
2501.66316284,0.03495760
2503.59197021,0.03482468
2505.52077759,0.03488928
2507.44958496,0.03481006
2509.37839233,0.03466088
2511.30719971,0.03463656
2513.23600708,0.03461882
2515.16481445,0.03462768
2517.09362183,0.03461406
2519.02242920,0.03451345
2520.95123657,0.03448579
2522.88004395,0.03447310
2524.80885132,0.03436938
2526.73765869,0.03436343
2528.66646606,0.03437363
2530.59527344,0.03429879
2532.52408081,0.03419755
2534.45288818,0.03419594
2536.38169556,0.03416828
2538.31050293,0.03416468
2540.23931030,0.03413429
2542.16811768,0.03404231
2544.09692505,0.03407635
2546.02573242,0.03397851
2547.95453979,0.03406259
2549.88334717,0.03402226
2551.81215454,0.03378653
2553.74096191,0.03385399
2555.66976929,0.03383262
2557.59857666,0.03381706
2559.52738403,0.03368689
2561.45619141,0.03361961
2563.38499878,0.03366195
2565.31380615,0.03360277
2567.24261353,0.03362862
2569.17142090,0.03340879
2571.10022827,0.03331723
2573.02903564,0.03347549
2574.95784302,0.03350866
2576.88665039,0.03337011
2578.81545776,0.03320812
2580.74426514,0.03325911
2582.67307251,0.03328763
2584.60187988,0.03318511
2586.53068726,0.03313109
2588.45949463,0.03317724
2590.38830200,0.03307731
2592.31710937,0.03300487
2594.24591675,0.03304041
2596.17472412,0.03297661
2598.10353149,0.03290667
2600.03233887,0.03286169
2601.96114624,0.03291923
2603.88995361,0.03286415
2605.81876099,0.03278100
2607.74756836,0.03270497
2609.67637573,0.03269725
2611.60518311,0.03276645
2613.53399048,0.03260226
2615.46279785,0.03257998
2617.39160522,0.03251330
2619.32041260,0.03246335
2621.24921997,0.03253064
2623.17802734,0.03237551
2625.10683472,0.03237273
2627.03564209,0.03243741
2628.96444946,0.03230342
2630.89325684,0.03213018
2632.82206421,0.03219134
2634.75087158,0.03221370
2636.67967895,0.03213542
2638.60848633,0.03210062
2640.53729370,0.03197201
2642.46610107,0.03201574
2644.39490845,0.03201669
2646.32371582,0.03200262
2648.25252319,0.03194825
2650.18133057,0.03180750
2652.11013794,0.03182125
2654.03894531,0.03170304
2655.96775269,0.03172933
2657.89656006,0.03178598
2659.82536743,0.03167652
2661.75417480,0.03170644
2663.68298218,0.03164949
2665.61178955,0.03153796
2667.54059692,0.03155402
2669.46940430,0.03152283
2671.39821167,0.03142083
2673.32701904,0.03138888
2675.25582642,0.03137580
2677.18463379,0.03135885
2679.11344116,0.03128387
2681.04224854,0.03125106
2682.97105591,0.03129147
2684.89986328,0.03122631
2686.82867065,0.03116282
2688.75747803,0.03106084
2690.68628540,0.03095142
2692.61509277,0.03093631
2694.54390015,0.03096287
2696.47270752,0.03089109
2698.40151489,0.03080554
2700.33032227,0.03084411
2702.25912964,0.03079177
2704.18793701,0.03073293
2706.11674438,0.03070385
2708.04555176,0.03068946
2709.97435913,0.03066105
2711.90316650,0.03057801
2713.83197388,0.03047872
2715.76078125,0.03040219
2717.68958862,0.03043190
2719.61839600,0.03033426
2721.54720337,0.03031705
2723.47601074,0.03033767
2725.40481812,0.03020977
2727.33362549,0.03016162
2729.26243286,0.03017442
2731.19124023,0.03017797
2733.12004761,0.03005634
2735.04885498,0.03006771
2736.97766235,0.02997196
2738.90646973,0.02987125
2740.83527710,0.02997513
2742.76408447,0.02985539
2744.69289185,0.02990796
2746.62169922,0.02985555
2748.55050659,0.02965042
2750.47931396,0.02965589
2752.40812134,0.02965220
2754.33692871,0.02960396
2756.26573608,0.02951284
2758.19454346,0.02948140
2760.12335083,0.02935698
2762.05215820,0.02939870
2763.98096558,0.02941875
2765.90977295,0.02932769
2767.83858032,0.02933203
2769.76738770,0.02914473
2771.69619507,0.02923899
2773.62500244,0.02920870
2775.55380981,0.02901893
2777.48261719,0.02906577
2779.41142456,0.02901882
2781.34023193,0.02906176
2783.26903931,0.02897424
2785.19784668,0.02888916
2787.12665405,0.02883661
2789.05546143,0.02870750
2790.98426880,0.02870085
2792.91307617,0.02867029
2794.84188354,0.02863299
2796.77069092,0.02859269
2798.69949829,0.02857692
2800.62830566,0.02833583
2802.55711304,0.02823956
2804.48592041,0.02840265
2806.41472778,0.02828605
2808.34353516,0.02821448
2810.27234253,0.02812724
2812.20114990,0.02809209
2814.12995728,0.02806758
2816.05876465,0.02792304
2817.98757202,0.02797318
2819.91637939,0.02791162
2821.84518677,0.02788512
2823.77399414,0.02784041
2825.70280151,0.02763158
2827.63160889,0.02765404
2829.56041626,0.02759181
2831.48922363,0.02747356
2833.41803101,0.02749191
2835.34683838,0.02733701
2837.27564575,0.02722249
2839.20445312,0.02717566
2841.13326050,0.02696081
2843.06206787,0.02684383
2844.99087524,0.02678260
2846.91968262,0.02655889
2848.84848999,0.02632777
2850.77729736,0.02630757
2852.70610474,0.02640653
2854.63491211,0.02645305
2856.56371948,0.02650936
2858.49252686,0.02646247
2860.42133423,0.02652863
2862.35014160,0.02656021
2864.27894897,0.02637671
2866.20775635,0.02645241
2868.13656372,0.02635287
2870.06537109,0.02626997
2871.99417847,0.02631136
2873.92298584,0.02615769
2875.85179321,0.02630893
2877.78060059,0.02615341
2879.70940796,0.02600140
2881.63821533,0.02618761
2883.56702270,0.02600475
2885.49583008,0.02595499
2887.42463745,0.02591579
2889.35344482,0.02581611
2891.28225220,0.02573477
2893.21105957,0.02551378
2895.13986694,0.02552963
2897.06867432,0.02555226
2898.99748169,0.02548062
2900.92628906,0.02534968
2902.85509644,0.02521876
2904.78390381,0.02516319
2906.71271118,0.02509787
2908.64151855,0.02508487
2910.57032593,0.02492706
2912.49913330,0.02472850
2914.42794067,0.02457671
2916.35674805,0.02441337
2918.28555542,0.02437321
2920.21436279,0.02442475
2922.14317017,0.02446305
2924.07197754,0.02452331
2926.00078491,0.02466848
2927.92959229,0.02469648
2929.85839966,0.02467885
2931.78720703,0.02472863
2933.71601440,0.02476157
2935.64482178,0.02478420
2937.57362915,0.02471238
2939.50243652,0.02464559
2941.43124390,0.02477283
2943.36005127,0.02482970
2945.28885864,0.02461691
2947.21766602,0.02459769
2949.14647339,0.02459448
2951.07528076,0.02442361
2953.00408813,0.02443364
2954.93289551,0.02449307
2956.86170288,0.02451495
2958.79051025,0.02430477
2960.71931763,0.02423088
2962.64812500,0.02429840
2964.57693237,0.02414374
2966.50573975,0.02412556
2968.43454712,0.02405370
2970.36335449,0.02416672
2972.29216187,0.02436393
2974.22096924,0.02430078
2976.14977661,0.02429064
2978.07858398,0.02420899
2980.00739136,0.02418372
2981.93619873,0.02417804
2983.86500610,0.02411972
2985.79381348,0.02408613
2987.72262085,0.02402482
2989.65142822,0.02400257
2991.58023560,0.02401252
2993.50904297,0.02393745
2995.43785034,0.02374124
2997.36665771,0.02375091
2999.29546509,0.02380551
3001.22427246,0.02378261
3003.15307983,0.02371939
3005.08188721,0.02360711
3007.01069458,0.02362056
3008.93950195,0.02349786
3010.86830933,0.02340451
3012.79711670,0.02338944
3014.72592407,0.02330140
3016.65473145,0.02330645
3018.58353882,0.02331583
3020.51234619,0.02316796
3022.44115356,0.02307669
3024.36996094,0.02322002
3026.29876831,0.02307108
3028.22757568,0.02292374
3030.15638306,0.02294560
3032.08519043,0.02277292
3034.01399780,0.02278012
3035.94280518,0.02276859
3037.87161255,0.02260810
3039.80041992,0.02256294
3041.72922729,0.02260710
3043.65803467,0.02255360
3045.58684204,0.02249037
3047.51564941,0.02239382
3049.44445679,0.02225476
3051.37326416,0.02236141
3053.30207153,0.02229772
3055.23087891,0.02216844
3057.15968628,0.02207266
3059.08849365,0.02197920
3061.01730103,0.02202358
3062.94610840,0.02195343
3064.87491577,0.02195845
3066.80372314,0.02174659
3068.73253052,0.02170058
3070.66133789,0.02181826
3072.59014526,0.02160516
3074.51895264,0.02167007
3076.44776001,0.02163591
3078.37656738,0.02152672
3080.30537476,0.02150181
3082.23418213,0.02141130
3084.16298950,0.02143434
3086.09179687,0.02133881
3088.02060425,0.02129544
3089.94941162,0.02123069
3091.87821899,0.02117039
3093.80702637,0.02108856
3095.73583374,0.02093144
3097.66464111,0.02091888
3099.59344849,0.02082564
3101.52225586,0.02086128
3103.45106323,0.02088955
3105.37987061,0.02072228
3107.30867798,0.02072208
3109.23748535,0.02069438
3111.16629272,0.02050038
3113.09510010,0.02040434
3115.02390747,0.02036053
3116.95271484,0.02026225
3118.88152222,0.02033351
3120.81032959,0.02029064
3122.73913696,0.02012494
3124.66794434,0.02016801
3126.59675171,0.02000245
3128.52555908,0.01988807
3130.45436645,0.01998602
3132.38317383,0.01986440
3134.31198120,0.01976724
3136.24078857,0.01965877
3138.16959595,0.01956909
3140.09840332,0.01961015
3142.02721069,0.01955844
3143.95601807,0.01946921
3145.88482544,0.01933300
3147.81363281,0.01928092
3149.74244019,0.01922550
3151.67124756,0.01917340
3153.60005493,0.01919118
3155.52886230,0.01899193
3157.45766968,0.01898292
3159.38647705,0.01905720
3161.31528442,0.01889939
3163.24409180,0.01877508
3165.17289917,0.01872695
3167.10170654,0.01875772
3169.03051392,0.01866612
3170.95932129,0.01860793
3172.88812866,0.01861721
3174.81693604,0.01851729
3176.74574341,0.01839505
3178.67455078,0.01826279
3180.60335815,0.01820329
3182.53216553,0.01811632
3184.46097290,0.01811220
3186.38978027,0.01810299
3188.31858765,0.01796703
3190.24739502,0.01791270
3192.17620239,0.01790043
3194.10500977,0.01787481
3196.03381714,0.01776640
3197.96262451,0.01778973
3199.89143188,0.01785736
3201.82023926,0.01771275
3203.74904663,0.01759024
3205.67785400,0.01757743
3207.60666138,0.01755481
3209.53546875,0.01750469
3211.46427612,0.01749212
3213.39308350,0.01742318
3215.32189087,0.01737838
3217.25069824,0.01730925
3219.17950562,0.01719327
3221.10831299,0.01717181
3223.03712036,0.01716541
3224.96592773,0.01717426
3226.89473511,0.01708704
3228.82354248,0.01708101
3230.75234985,0.01709460
3232.68115723,0.01702460
3234.60996460,0.01704285
3236.53877197,0.01698059
3238.46757935,0.01696422
3240.39638672,0.01693658
3242.32519409,0.01687024
3244.25400146,0.01685787
3246.18280884,0.01680990
3248.11161621,0.01682749
3250.04042358,0.01687647
3251.96923096,0.01680772
3253.89803833,0.01672990
3255.82684570,0.01679140
3257.75565308,0.01673556
3259.68446045,0.01671118
3261.61326782,0.01670858
3263.54207520,0.01663524
3265.47088257,0.01670941
3267.39968994,0.01667100
3269.32849731,0.01669080
3271.25730469,0.01672070
3273.18611206,0.01665456
3275.11491943,0.01660540
3277.04372681,0.01652150
3278.97253418,0.01658620
3280.90134155,0.01659024
3282.83014893,0.01653609
3284.75895630,0.01651685
3286.68776367,0.01648836
3288.61657104,0.01650136
3290.54537842,0.01648786
3292.47418579,0.01639320
3294.40299316,0.01637223
3296.33180054,0.01650704
3298.26060791,0.01645803
3300.18941528,0.01636785
3302.11822266,0.01640290
3304.04703003,0.01639426
3305.97583740,0.01629369
3307.90464478,0.01627494
3309.83345215,0.01627067
3311.76225952,0.01624011
3313.69106689,0.01637969
3315.61987427,0.01623624
3317.54868164,0.01616773
3319.47748901,0.01624313
3321.40629639,0.01622191
3323.33510376,0.01625938
3325.26391113,0.01614024
3327.19271851,0.01626590
3329.12152588,0.01614525
3331.05033325,0.01603817
3332.97914062,0.01624278
3334.90794800,0.01610284
3336.83675537,0.01602110
3338.76556274,0.01603577
3340.69437012,0.01617394
3342.62317749,0.01603855
3344.55198486,0.01592615
3346.48079224,0.01609676
3348.40959961,0.01599566
3350.33840698,0.01598991
3352.26721436,0.01597652
3354.19602173,0.01594444
3356.12482910,0.01582151
3358.05363647,0.01585238
3359.98244385,0.01594201
3361.91125122,0.01577976
3363.84005859,0.01584179
3365.76886597,0.01582623
3367.69767334,0.01577193
3369.62648071,0.01569919
3371.55528809,0.01579607
3373.48409546,0.01584829
3375.41290283,0.01565040
3377.34171020,0.01575630
3379.27051758,0.01569436
3381.19932495,0.01565782
3383.12813232,0.01568820
3385.05693970,0.01556161
3386.98574707,0.01561274
3388.91455444,0.01576882
3390.84336182,0.01579610
3392.77216919,0.01561988
3394.70097656,0.01557482
3396.62978394,0.01555219
3398.55859131,0.01546030
3400.48739868,0.01550765
3402.41620605,0.01566353
3404.34501343,0.01560360
3406.27382080,0.01563167
3408.20262817,0.01568133
3410.13143555,0.01550272
3412.06024292,0.01565430
3413.98905029,0.01550631
3415.91785767,0.01550226
3417.84666504,0.01564570
3419.77547241,0.01539702
3421.70427979,0.01549752
3423.63308716,0.01551375
3425.56189453,0.01554668
3427.49070190,0.01554322
3429.41950928,0.01552456
3431.34831665,0.01549891
3433.27712402,0.01542109
3435.20593140,0.01552144
3437.13473877,0.01535935
3439.06354614,0.01551581
3440.99235352,0.01548599
3442.92116089,0.01535643
3444.84996826,0.01543402
3446.77877563,0.01513900
3448.70758301,0.01527418
3450.63639038,0.01549871
3452.56519775,0.01550140
3454.49400513,0.01548089
3456.42281250,0.01546916
3458.35161987,0.01550416
3460.28042725,0.01545964
3462.20923462,0.01546829
3464.13804199,0.01547700
3466.06684937,0.01545307
3467.99565674,0.01536118
3469.92446411,0.01542406
3471.85327148,0.01548775
3473.78207886,0.01550300
3475.71088623,0.01538772
3477.63969360,0.01537569
3479.56850098,0.01550508
3481.49730835,0.01526070
3483.42611572,0.01537120
3485.35492310,0.01545934
3487.28373047,0.01538433
3489.21253784,0.01548614
3491.14134521,0.01549501
3493.07015259,0.01549525
3494.99895996,0.01545873
3496.92776733,0.01558526
3498.85657471,0.01550993
3500.78538208,0.01546793
3502.71418945,0.01519611
3504.64299683,0.01515826
3506.57180420,0.01562219
3508.50061157,0.01537229
3510.42941895,0.01539782
3512.35822632,0.01561125
3514.28703369,0.01566660
3516.21584106,0.01563761
3518.14464844,0.01554976
3520.07345581,0.01571027
3522.00226318,0.01545936
3523.93107056,0.01530091
3525.85987793,0.01531351
3527.78868530,0.01538915
3529.71749268,0.01547018
3531.64630005,0.01569093
3533.57510742,0.01587103
3535.50391479,0.01553496
3537.43272217,0.01564850
3539.36152954,0.01585891
3541.29033691,0.01577736
3543.21914429,0.01561545
3545.14795166,0.01525870
3547.07675903,0.01503137
3549.00556641,0.01556727
3550.93437378,0.01579098
3552.86318115,0.01528586
3554.79198853,0.01572225
3556.72079590,0.01591437
3558.64960327,0.01577662
3560.57841064,0.01563910
3562.50721802,0.01552093
3564.43602539,0.01571817
3566.36483276,0.01444457
3568.29364014,0.01387641
3570.22244751,0.01526224
3572.15125488,0.01590506
3574.08006226,0.01567215
3576.00886963,0.01580304
3577.93767700,0.01581489
3579.86648437,0.01565348
3581.79529175,0.01575851
3583.72409912,0.01584186
3585.65290649,0.01543313
3587.58171387,0.01390399
3589.51052124,0.01436579
3591.43932861,0.01599751
3593.36813599,0.01547349
3595.29694336,0.01512310
3597.22575073,0.01547979
3599.15455811,0.01574998
3601.08336548,0.01549950
3603.01217285,0.01564407
3604.94098022,0.01605628
3606.86978760,0.01528307
3608.79859497,0.01427985
3610.72740234,0.01469841
3612.65620972,0.01509286
3614.58501709,0.01451924
3616.51382446,0.01572907
3618.44263184,0.01440147
3620.37143921,0.01376711
3622.30024658,0.01605233
3624.22905395,0.01558047
3626.15786133,0.01635581
3628.08666870,0.01344251
3630.01547607,0.01193974
3631.94428345,0.01585466
3633.87309082,0.01535188
3635.80189819,0.01566717
3637.73070557,0.01610617
3639.65951294,0.01577473
3641.58832031,0.01596627
3643.51712769,0.01577993
3645.44593506,0.01595759
3647.37474243,0.01391389
3649.30354980,0.01263332
3651.23235718,0.01283236
3653.16116455,0.01566389
3655.08997192,0.01560514
3657.01877930,0.01367103
3658.94758667,0.01618766
3660.87639404,0.01588465
3662.80520142,0.01607507
3664.73400879,0.01598424
3666.66281616,0.01572624
3668.59162354,0.01518203
3670.52043091,0.01195129
3672.44923828,0.01510996
3674.37804565,0.01425288
3676.30685303,0.01128367
3678.23566040,0.01497532
3680.16446777,0.01544097
3682.09327515,0.01538183
3684.02208252,0.01594032
3685.95088989,0.01572552
3687.87969727,0.01391462
3689.80850464,0.01247096
3691.73731201,0.01447793
3693.66611938,0.01509637
3695.59492676,0.01561216
3697.52373413,0.01553864
3699.45254150,0.01540905
3701.38134888,0.01497598
3703.31015625,0.01424584
3705.23896362,0.01592712
3707.16777100,0.01505204
3709.09657837,0.01459154
3711.02538574,0.01356303
3712.95419312,0.01253138
3714.88300049,0.01520191
3716.81180786,0.01495354
3718.74061523,0.01507649
3720.66942261,0.01478695
3722.59822998,0.01409284
3724.52703735,0.01473754
3726.45584473,0.01348986
3728.38465210,0.01484967
3730.31345947,0.01481694
3732.24226685,0.01324971
3734.17107422,0.01293556
3736.09988159,0.01215322
3738.02868896,0.01289836
3739.95749634,0.01434242
3741.88630371,0.01501605
3743.81511108,0.01116863
3745.74391846,0.01039532
3747.67272583,0.01413961
3749.60153320,0.01190871
3751.53034058,0.01072369
3753.45914795,0.01278943
3755.38795532,0.01394785
3757.31676270,0.01452637
3759.24557007,0.01323700
3761.17437744,0.01377809
3763.10318481,0.01493108
3765.03199219,0.01373206
3766.96079956,0.01400705
3768.88960693,0.01396437
3770.81841431,0.01321658
3772.74722168,0.01445668
3774.67602905,0.01460011
3776.60483643,0.01459307
3778.53364380,0.01403580
3780.46245117,0.01340783
3782.39125854,0.01449056
3784.32006592,0.01400877
3786.24887329,0.01388257
3788.17768066,0.01433918
3790.10648804,0.01426613
3792.03529541,0.01421221
3793.96410278,0.01442021
3795.89291016,0.01333078
3797.82171753,0.01313676
3799.75052490,0.01409826
3801.67933228,0.01073481
3803.60813965,0.01268760
3805.53694702,0.01415093
3807.46575439,0.01123780
3809.39456177,0.01396807
3811.32336914,0.01367917
3813.25217651,0.01423529
3815.18098389,0.01273329
3817.10979126,0.01078835
3819.03859863,0.01421958
3820.96740601,0.01106051
3822.89621338,0.01170846
3824.82502075,0.01415250
3826.75382812,0.01249625
3828.68263550,0.01372438
3830.61144287,0.01307820
3832.54025024,0.01255753
3834.46905762,0.01296031
3836.39786499,0.01225153
3838.32667236,0.01091799
3840.25547974,0.01178134
3842.18428711,0.01286865
3844.11309448,0.01219853
3846.04190186,0.01348715
3847.97070923,0.01334558
3849.89951660,0.01324293
3851.82832397,0.01175085
3853.75713135,0.00829343
3855.68593872,0.01022201
3857.61474609,0.01328193
3859.54355347,0.01288386
3861.47236084,0.01277186
3863.40116821,0.01238826
3865.32997559,0.01134922
3867.25878296,0.01298203
3869.18759033,0.01170271
3871.11639770,0.01053299
3873.04520508,0.01300660
3874.97401245,0.01181480
3876.90281982,0.01289348
3878.83162720,0.01323972
3880.76043457,0.01088658
3882.68924194,0.01296368
3884.61804932,0.01205804
3886.54685669,0.01083850
3888.47566406,0.01303058
3890.40447144,0.01215041
3892.33327881,0.01130100
3894.26208618,0.01261341
3896.19089355,0.01291776
3898.11970093,0.01220150
3900.04850830,0.01139678
3901.97731567,0.01122295
3903.90612305,0.01120260
3905.83493042,0.01142315
3907.76373779,0.01256531
3909.69254517,0.01271187
3911.62135254,0.01247466
3913.55015991,0.01266862
3915.47896728,0.01235331
3917.40777466,0.01190963
3919.33658203,0.01172340
3921.26538940,0.01225223
3923.19419678,0.01221477
3925.12300415,0.01186040
3927.05181152,0.01214955
3928.98061890,0.01236417
3930.90942627,0.01207334
3932.83823364,0.01158663
3934.76704102,0.01211460
3936.69584839,0.01234209
3938.62465576,0.01221176
3940.55346313,0.01232220
3942.48227051,0.01174828
3944.41107788,0.01182720
3946.33988525,0.01211917
3948.26869263,0.01171774
3950.19750000,0.01170862
3952.12630737,0.01196200
3954.05511475,0.01204693
3955.98392212,0.01209198
3957.91272949,0.01199190
3959.84153687,0.01191915
3961.77034424,0.01180744
3963.69915161,0.01185705
3965.62795898,0.01206593
3967.55676636,0.01184575
3969.48557373,0.01178883
3971.41438110,0.01178161
3973.34318848,0.01178427
3975.27199585,0.01179327
3977.20080322,0.01168320
3979.12961060,0.01183393
3981.05841797,0.01167151
3982.98722534,0.01164059
3984.91603271,0.01163967
3986.84484009,0.01163164
3988.77364746,0.01175701
3990.70245483,0.01157373
3992.63126221,0.01163571
3994.56006958,0.01158675
3996.48887695,0.01148641
3998.41768433,0.01150827
4000.34649170,0.01153684
4002.27529907,0.01144745
4004.20410645,0.01136026
4006.13291382,0.01151983
4008.06172119,0.01134326
4009.99052856,0.01134952
4011.91933594,0.01135559
4013.84814331,0.01127277
4015.77695068,0.01139552
4017.70575806,0.01127376
4019.63456543,0.01124853
4021.56337280,0.01126254
4023.49218018,0.01119291
4025.42098755,0.01119029
4027.34979492,0.01123055
4029.27860229,0.01110885
4031.20740967,0.01115677
4033.13621704,0.01121309
4035.06502441,0.01107567
4036.99383179,0.01111727
4038.92263916,0.01101957
4040.85144653,0.01114685
4042.78025391,0.01103989
4044.70906128,0.01087454
4046.63786865,0.01102200
4048.56667603,0.01088265
4050.49548340,0.01096069
4052.42429077,0.01089142
4054.35309814,0.01085954
4056.28190552,0.01089775
4058.21071289,0.01073943
4060.13952026,0.01074359
4062.06832764,0.01077039
4063.99713501,0.01090654
4065.92594238,0.01076633
4067.85474976,0.01066154
4069.78355713,0.01075027
4071.71236450,0.01073239
4073.64117187,0.01067943
4075.56997925,0.01059911
4077.49878662,0.01070520
4079.42759399,0.01067997
4081.35640137,0.01055666
4083.28520874,0.01049244
4085.21401611,0.01052220
4087.14282349,0.01053172
4089.07163086,0.01043582
4091.00043823,0.01048699
4092.92924561,0.01046165
4094.85805298,0.01040744
4096.78686035,0.01043257
4098.71566772,0.01041584
4100.64447510,0.01035561
4102.57328247,0.01035800
4104.50208984,0.01030988
4106.43089722,0.01023390
4108.35970459,0.01026937
4110.28851196,0.01027808
4112.21731934,0.01029694
4114.14612671,0.01023307
4116.07493408,0.01025524
4118.00374145,0.01026978
4119.93254883,0.01020109
4121.86135620,0.01018882
4123.79016357,0.01012555
4125.71897095,0.01011467
4127.64777832,0.01003667
4129.57658569,0.01004461
4131.50539307,0.01005399
4133.43420044,0.01002542
4135.36300781,0.01004105
4137.29181519,0.00999346
4139.22062256,0.00993089
4141.14942993,0.00986105
4143.07823730,0.00995744
4145.00704468,0.00988749
4146.93585205,0.00984311
4148.86465942,0.00978949
4150.79346680,0.00975181
4152.72227417,0.00992862
4154.65108154,0.00976786
4156.57988892,0.00979797
4158.50869629,0.00976714
4160.43750366,0.00965166
4162.36631103,0.00976042
4164.29511841,0.00969094
4166.22392578,0.00970968
4168.15273315,0.00963572
4170.08154053,0.00966163
4172.01034790,0.00968770
4173.93915527,0.00959280
4175.86796265,0.00959321
4177.79677002,0.00953972
4179.72557739,0.00954920
4181.65438477,0.00951258
4183.58319214,0.00946873
4185.51199951,0.00938256
4187.44080688,0.00941727
4189.36961426,0.00949869
4191.29842163,0.00941934
4193.22722900,0.00937227
4195.15603638,0.00937767
4197.08484375,0.00936451
4199.01365112,0.00923268
4200.94245850,0.00931154
4202.87126587,0.00927343
4204.80007324,0.00919401
4206.72888062,0.00933216
4208.65768799,0.00920942
4210.58649536,0.00920997
4212.51530273,0.00927279
4214.44411011,0.00920221
4216.37291748,0.00913782
4218.30172485,0.00912341
4220.23053223,0.00914304
4222.15933960,0.00908330
4224.08814697,0.00904778
4226.01695435,0.00902901
4227.94576172,0.00904724
4229.87456909,0.00902778
4231.80337646,0.00907236
4233.73218384,0.00901982
4235.66099121,0.00892554
4237.58979858,0.00898305
4239.51860596,0.00892731
4241.44741333,0.00894473
4243.37622070,0.00892403
4245.30502808,0.00885821
4247.23383545,0.00879934
4249.16264282,0.00876044
4251.09145020,0.00880122
4253.02025757,0.00879599
4254.94906494,0.00879120
4256.87787231,0.00865012
4258.80667969,0.00868850
4260.73548706,0.00877835
4262.66429443,0.00873702
4264.59310181,0.00873722
4266.52190918,0.00866626
4268.45071655,0.00867009
4270.37952393,0.00859580
4272.30833130,0.00863850
4274.23713867,0.00872930
4276.16594604,0.00856652
4278.09475342,0.00852424
4280.02356079,0.00859100
4281.95236816,0.00849384
4283.88117554,0.00841931
4285.80998291,0.00850964
4287.73879028,0.00846098
4289.66759766,0.00848271
4291.59640503,0.00852307
4293.52521240,0.00843622
4295.45401978,0.00843859
4297.38282715,0.00835245
4299.31163452,0.00834971
4301.24044189,0.00836605
4303.16924927,0.00830970
4305.09805664,0.00830038
4307.02686401,0.00827962
4308.95567139,0.00828747
4310.88447876,0.00826663
4312.81328613,0.00826730
4314.74209351,0.00822846
4316.67090088,0.00811633
4318.59970825,0.00813649
4320.52851562,0.00821818
4322.45732300,0.00812379
4324.38613037,0.00811194
4326.31493774,0.00815920
4328.24374512,0.00813429
4330.17255249,0.00815277
4332.10135986,0.00801639
4334.03016724,0.00809826
4335.95897461,0.00809430
4337.88778198,0.00789024
4339.81658936,0.00801213
4341.74539673,0.00796731
4343.67420410,0.00796400
4345.60301147,0.00800402
4347.53181885,0.00789123
4349.46062622,0.00792298
4351.38943359,0.00789350
4353.31824097,0.00792304
4355.24704834,0.00789215
4357.17585571,0.00776152
4359.10466309,0.00782519
4361.03347046,0.00781115
4362.96227783,0.00776058
4364.89108520,0.00780663
4366.81989258,0.00777078
4368.74869995,0.00776221
4370.67750732,0.00772827
4372.60631470,0.00770436
4374.53512207,0.00771350
4376.46392944,0.00764073
4378.39273682,0.00769354
4380.32154419,0.00768880
4382.25035156,0.00770492
4384.17915894,0.00772301
4386.10796631,0.00756227
4388.03677368,0.00759287
4389.96558105,0.00759092
4391.89438843,0.00750477
4393.82319580,0.00750951
4395.75200317,0.00749352
4397.68081055,0.00748430
4399.60961792,0.00753604
4401.53842529,0.00758169
4403.46723267,0.00747208
4405.39604004,0.00736256
4407.32484741,0.00731794
4409.25365478,0.00738576
4411.18246216,0.00743318
4413.11126953,0.00735628
4415.04007690,0.00734830
4416.96888428,0.00731762
4418.89769165,0.00730273
4420.82649902,0.00729448
4422.75530640,0.00728809
4424.68411377,0.00732885
4426.61292114,0.00730326
4428.54172852,0.00718942
4430.47053589,0.00720323
4432.39934326,0.00731363
4434.32815063,0.00717161
4436.25695801,0.00713785
4438.18576538,0.00720135
4440.11457275,0.00708536
4442.04338013,0.00715061
4443.97218750,0.00716886
4445.90099487,0.00704573
4447.82980225,0.00714428
4449.75860962,0.00711472
4451.68741699,0.00699383
4453.61622437,0.00710885
4455.54503174,0.00702959
4457.47383911,0.00700056
4459.40264648,0.00703497
4461.33145386,0.00691027
4463.26026123,0.00700579
4465.18906860,0.00698249
4467.11787598,0.00690172
4469.04668335,0.00690283
4470.97549072,0.00689089
4472.90429810,0.00690936
4474.83310547,0.00685981
4476.76191284,0.00688729
4478.69072021,0.00681999
4480.61952759,0.00677004
4482.54833496,0.00681896
4484.47714233,0.00682543
4486.40594971,0.00678636
4488.33475708,0.00675443
4490.26356445,0.00684261
4492.19237183,0.00678875
4494.12117920,0.00668996
4496.04998657,0.00666630
4497.97879395,0.00669758
4499.90760132,0.00669777
4501.83640869,0.00667180
4503.76521606,0.00672508
4505.69402344,0.00666576
4507.62283081,0.00667856
4509.55163818,0.00661024
4511.48044556,0.00653253
4513.40925293,0.00659036
4515.33806030,0.00649669
4517.26686768,0.00649383
4519.19567505,0.00651740
4521.12448242,0.00647731
4523.05328979,0.00648205
4524.98209717,0.00651162
4526.91090454,0.00643479
4528.83971191,0.00632923
4530.76851929,0.00643975
4532.69732666,0.00647287
4534.62613403,0.00644074
4536.55494141,0.00645869
4538.48374878,0.00635908
4540.41255615,0.00633296
4542.34136353,0.00639203
4544.27017090,0.00635828
4546.19897827,0.00635076
4548.12778564,0.00629086
4550.05659302,0.00623619
4551.98540039,0.00628067
4553.91420776,0.00627713
4555.84301514,0.00633633
4557.77182251,0.00621966
4559.70062988,0.00615009
4561.62943726,0.00625866
4563.55824463,0.00619366
4565.48705200,0.00621562
4567.41585937,0.00619081
4569.34466675,0.00617434
4571.27347412,0.00618206
4573.20228149,0.00609274
4575.13108887,0.00606410
4577.05989624,0.00605348
4578.98870361,0.00614473
4580.91751099,0.00610891
4582.84631836,0.00603805
4584.77512573,0.00604262
4586.70393311,0.00603462
4588.63274048,0.00607139
4590.56154785,0.00600494
4592.49035522,0.00596657
4594.41916260,0.00598148
4596.34796997,0.00598765
4598.27677734,0.00594641
4600.20558472,0.00593249
4602.13439209,0.00595696
4604.06319946,0.00589759
4605.99200684,0.00586686
4607.92081421,0.00588278
4609.84962158,0.00592489
4611.77842895,0.00588053
4613.70723633,0.00587397
4615.63604370,0.00589562
4617.56485107,0.00580975
4619.49365845,0.00582067
4621.42246582,0.00583191
4623.35127319,0.00575476
4625.28008057,0.00571262
4627.20888794,0.00568993
4629.13769531,0.00568570
4631.06650269,0.00577055
4632.99531006,0.00570692
4634.92411743,0.00566264
4636.85292480,0.00571353
4638.78173218,0.00561067
4640.71053955,0.00565508
4642.63934692,0.00561934
4644.56815430,0.00560803
4646.49696167,0.00568313
4648.42576904,0.00559330
4650.35457642,0.00559464
4652.28338379,0.00554418
4654.21219116,0.00557927
4656.14099853,0.00557568
4658.06980591,0.00555858
4659.99861328,0.00563703
4661.92742065,0.00553896
4663.85622803,0.00557845
4665.78503540,0.00554409
4667.71384277,0.00546287
4669.64265015,0.00552253
4671.57145752,0.00543145
4673.50026489,0.00543340
4675.42907227,0.00550047
4677.35787964,0.00538052
4679.28668701,0.00536529
4681.21549438,0.00542887
4683.14430176,0.00533392
4685.07310913,0.00537126
4687.00191650,0.00539360
4688.93072388,0.00528177
4690.85953125,0.00532828
4692.78833862,0.00534846
4694.71714600,0.00525400
4696.64595337,0.00522259
4698.57476074,0.00529458
4700.50356812,0.00533996
4702.43237549,0.00525484
4704.36118286,0.00524914
4706.28999023,0.00537415
4708.21879761,0.00521919
4710.14760498,0.00515382
4712.07641235,0.00527603
4714.00521973,0.00514778
4715.93402710,0.00520726
4717.86283447,0.00515420
4719.79164185,0.00507520
4721.72044922,0.00521336
4723.64925659,0.00514614
4725.57806396,0.00515596
4727.50687134,0.00510764
4729.43567871,0.00508513
4731.36448608,0.00508292
4733.29329346,0.00501668
4735.22210083,0.00507223
4737.15090820,0.00505366
4739.07971558,0.00505454
4741.00852295,0.00499710
4742.93733032,0.00502275
4744.86613770,0.00506464
4746.79494507,0.00497400
4748.72375244,0.00498827
4750.65255981,0.00499098
4752.58136719,0.00492356
4754.51017456,0.00489713
4756.43898193,0.00495848
4758.36778931,0.00489077
4760.29659668,0.00491748
4762.22540405,0.00496840
4764.15421143,0.00483297
4766.08301880,0.00487370
4768.01182617,0.00489891
4769.94063354,0.00492173
4771.86944092,0.00490641
4773.79824829,0.00479764
4775.72705566,0.00485603
4777.65586304,0.00489759
4779.58467041,0.00485160
4781.51347778,0.00481951
4783.44228516,0.00478474
4785.37109253,0.00479578
4787.29989990,0.00482270
4789.22870728,0.00478592
4791.15751465,0.00481650
4793.08632202,0.00478758
4795.01512939,0.00471785
4796.94393677,0.00469018
4798.87274414,0.00470087
4800.80155151,0.00473538
4802.73035889,0.00464801
4804.65916626,0.00473178
4806.58797363,0.00467973
4808.51678101,0.00464541
4810.44558838,0.00472925
4812.37439575,0.00461474
4814.30320312,0.00469789
4816.23201050,0.00459884
4818.16081787,0.00457197
4820.08962524,0.00458020
4822.01843262,0.00453628
4823.94723999,0.00465093
4825.87604736,0.00448222
4827.80485474,0.00453499
4829.73366211,0.00454106
4831.66246948,0.00453754
4833.59127686,0.00457904
4835.52008423,0.00444443
4837.44889160,0.00455466
4839.37769897,0.00454918
4841.30650635,0.00451537
4843.23531372,0.00441682
4845.16412109,0.00441801
4847.09292847,0.00445176
4849.02173584,0.00440882
4850.95054321,0.00450620
4852.87935059,0.00438591
4854.80815796,0.00444744
4856.73696533,0.00443433
4858.66577270,0.00437886
4860.59458008,0.00441631
4862.52338745,0.00432614
4864.45219482,0.00442288
4866.38100220,0.00436458
4868.30980957,0.00432368
4870.23861694,0.00428338
4872.16742432,0.00431162
4874.09623169,0.00436906
4876.02503906,0.00427228
4877.95384644,0.00435827
4879.88265381,0.00425615
4881.81146118,0.00424861
4883.74026855,0.00428963
4885.66907593,0.00416945
4887.59788330,0.00423743
4889.52669067,0.00426239
4891.45549805,0.00424113
4893.38430542,0.00418696
4895.31311279,0.00415726
4897.24192017,0.00419267
4899.17072754,0.00421237
4901.09953491,0.00417735
4903.02834228,0.00413061
4904.95714966,0.00415506
4906.88595703,0.00416116
4908.81476440,0.00410557
4910.74357178,0.00406298
4912.67237915,0.00414406
4914.60118652,0.00414361
4916.52999390,0.00412472
4918.45880127,0.00411528
4920.38760864,0.00407264
4922.31641602,0.00409227
4924.24522339,0.00400100
4926.17403076,0.00404077
4928.10283813,0.00406336
4930.03164551,0.00399053
4931.96045288,0.00403009
4933.88926025,0.00399501
4935.81806763,0.00394716
4937.74687500,0.00388776
4939.67568237,0.00386915
4941.60448975,0.00387455
4943.53329712,0.00394052
4945.46210449,0.00397286
4947.39091187,0.00389994
4949.31971924,0.00393734
4951.24852661,0.00389114
4953.17733398,0.00392175
4955.10614136,0.00392260
4957.03494873,0.00380421
4958.96375610,0.00390571
4960.89256348,0.00390231
4962.82137085,0.00383339
4964.75017822,0.00382350
4966.67898560,0.00384208
4968.60779297,0.00387666
4970.53660034,0.00377947
4972.46540771,0.00383907
4974.39421509,0.00386469
4976.32302246,0.00373813
4978.25182983,0.00376484
4980.18063721,0.00380669
4982.10944458,0.00382403
4984.03825195,0.00379828
4985.96705933,0.00380833
4987.89586670,0.00382700
4989.82467407,0.00376484
4991.75348145,0.00375217
4993.68228882,0.00374465
4995.61109619,0.00380049
4997.53990356,0.00377499
4999.46871094,0.00369897
5001.39751831,0.00372649
5003.32632568,0.00371188
5005.25513306,0.00364879
5007.18394043,0.00359997
5009.11274780,0.00367379
5011.04155518,0.00363841
5012.97036255,0.00360524
5014.89916992,0.00360374
5016.82797729,0.00350658
5018.75678467,0.00361316
5020.68559204,0.00358677
5022.61439941,0.00352047
5024.54320679,0.00358309
5026.47201416,0.00357818
5028.40082153,0.00352217
5030.32962891,0.00350131
5032.25843628,0.00358819
5034.18724365,0.00344091
5036.11605103,0.00343371
5038.04485840,0.00354843
5039.97366577,0.00350301
5041.90247314,0.00354164
5043.83128052,0.00346612
5045.76008789,0.00345216
5047.68889526,0.00338657
5049.61770264,0.00335184
5051.54651001,0.00347826
5053.47531738,0.00345190
5055.40412476,0.00343940
5057.33293213,0.00345288
5059.26173950,0.00343637
5061.19054687,0.00335788
5063.11935425,0.00339057
5065.04816162,0.00340530
5066.97696899,0.00330220
5068.90577637,0.00334261
5070.83458374,0.00332549
5072.76339111,0.00332863
5074.69219849,0.00334339
5076.62100586,0.00333543
5078.54981323,0.00336990
5080.47862061,0.00332522
5082.40742798,0.00328901
5084.33623535,0.00327828
5086.26504272,0.00327826
5088.19385010,0.00328331
5090.12265747,0.00329978
5092.05146484,0.00325770
5093.98027222,0.00323035
5095.90907959,0.00320364
5097.83788696,0.00319766
5099.76669434,0.00334858
5101.69550171,0.00332467
5103.62430908,0.00323031
5105.55311645,0.00323593
5107.48192383,0.00321184
5109.41073120,0.00321706
5111.33953857,0.00319949
5113.26834595,0.00317457
5115.19715332,0.00318522
5117.12596069,0.00317325
5119.05476807,0.00317417
5120.98357544,0.00321667
5122.91238281,0.00315660
5124.84119019,0.00316146
5126.76999756,0.00317953
5128.69880493,0.00309687
5130.62761230,0.00316292
5132.55641968,0.00312369
5134.48522705,0.00303629
5136.41403442,0.00303652
5138.34284180,0.00305737
5140.27164917,0.00309367
5142.20045654,0.00302823
5144.12926392,0.00306167
5146.05807129,0.00306580
5147.98687866,0.00304033
5149.91568603,0.00304952
5151.84449341,0.00294658
5153.77330078,0.00297127
5155.70210815,0.00303686
5157.63091553,0.00301954
5159.55972290,0.00302383
5161.48853027,0.00302637
5163.41733765,0.00305529
5165.34614502,0.00303958
5167.27495239,0.00296486
5169.20375977,0.00301409
5171.13256714,0.00302545
5173.06137451,0.00299051
5174.99018188,0.00302170
5176.91898926,0.00291450
5178.84779663,0.00294294
5180.77660400,0.00302955
5182.70541138,0.00291972
5184.63421875,0.00285748
5186.56302612,0.00288895
5188.49183350,0.00296792
5190.42064087,0.00293311
5192.34944824,0.00291209
5194.27825562,0.00293307
5196.20706299,0.00288951
5198.13587036,0.00292265
5200.06467773,0.00292144
5201.99348511,0.00285548
5203.92229248,0.00280168
5205.85109985,0.00282553
5207.77990723,0.00277986
5209.70871460,0.00276611
5211.63752197,0.00287368
5213.56632935,0.00279247
5215.49513672,0.00275106
5217.42394409,0.00275657
5219.35275146,0.00274805
5221.28155884,0.00279757
5223.21036621,0.00275070
5225.13917358,0.00274384
5227.06798096,0.00275835
5228.99678833,0.00278113
5230.92559570,0.00277803
5232.85440308,0.00275100
5234.78321045,0.00278772
5236.71201782,0.00273496
5238.64082520,0.00273721
5240.56963257,0.00281805
5242.49843994,0.00276263
5244.42724731,0.00268243
5246.35605469,0.00267992
5248.28486206,0.00262884
5250.21366943,0.00261505
5252.14247681,0.00269685
5254.07128418,0.00268091
5256.00009155,0.00270539
5257.92889893,0.00271161
5259.85770630,0.00268969
5261.78651367,0.00273906
5263.71532104,0.00254479
5265.64412842,0.00246493
5267.57293579,0.00258809
5269.50174316,0.00257640
5271.43055054,0.00266722
5273.35935791,0.00267067
5275.28816528,0.00258625
5277.21697266,0.00263259
5279.14578003,0.00259912
5281.07458740,0.00255978
5283.00339478,0.00257124
5284.93220215,0.00254952
5286.86100952,0.00253969
5288.78981689,0.00250566
5290.71862427,0.00249540
5292.64743164,0.00257517
5294.57623901,0.00257090
5296.50504639,0.00253951
5298.43385376,0.00255114
5300.36266113,0.00251448
5302.29146851,0.00253825
5304.22027588,0.00251282
5306.14908325,0.00247469
5308.07789062,0.00251322
5310.00669800,0.00250290
5311.93550537,0.00253663
5313.86431274,0.00256037
5315.79312012,0.00249187
5317.72192749,0.00245145
5319.65073486,0.00250829
5321.57954224,0.00249489
5323.50834961,0.00246340
5325.43715698,0.00252110
5327.36596436,0.00242967
5329.29477173,0.00239858
5331.22357910,0.00245096
5333.15238647,0.00235543
5335.08119385,0.00239747
5337.01000122,0.00243786
5338.93880859,0.00232605
5340.86761597,0.00241478
5342.79642334,0.00242264
5344.72523071,0.00226936
5346.65403809,0.00233061
5348.58284546,0.00234158
5350.51165283,0.00233258
5352.44046020,0.00235811
5354.36926758,0.00232878
5356.29807495,0.00236976
5358.22688232,0.00234571
5360.15568970,0.00237550
5362.08449707,0.00235855
5364.01330444,0.00226670
5365.94211182,0.00233272
5367.87091919,0.00238363
5369.79972656,0.00230013
5371.72853394,0.00224958
5373.65734131,0.00234256
5375.58614868,0.00226808
5377.51495605,0.00219466
5379.44376343,0.00227977
5381.37257080,0.00231631
5383.30137817,0.00234412
5385.23018555,0.00219953
5387.15899292,0.00215482
5389.08780029,0.00230036
5391.01660767,0.00228958
5392.94541504,0.00220556
5394.87422241,0.00223787
5396.80302978,0.00226916
5398.73183716,0.00218014
5400.66064453,0.00221699
5402.58945190,0.00223222
5404.51825928,0.00217398
5406.44706665,0.00222040
5408.37587402,0.00220005
5410.30468140,0.00212662
5412.23348877,0.00214664
5414.16229614,0.00221245
5416.09110352,0.00218809
5418.01991089,0.00215517
5419.94871826,0.00214464
5421.87752563,0.00220546
5423.80633301,0.00222211
5425.73514038,0.00213416
5427.66394775,0.00212987
5429.59275513,0.00207670
5431.52156250,0.00210933
5433.45036987,0.00215672
5435.37917725,0.00210085
5437.30798462,0.00212804
5439.23679199,0.00211389
5441.16559936,0.00205614
5443.09440674,0.00208620
5445.02321411,0.00210991
5446.95202148,0.00207214
5448.88082886,0.00215859
5450.80963623,0.00212388
5452.73844360,0.00206420
5454.66725098,0.00206768
5456.59605835,0.00200558
5458.52486572,0.00211515
5460.45367310,0.00201928
5462.38248047,0.00206936
5464.31128784,0.00216302
5466.24009521,0.00199540
5468.16890259,0.00207932
5470.09770996,0.00206668
5472.02651733,0.00210232
5473.95532471,0.00200891
5475.88413208,0.00189628
5477.81293945,0.00209811
5479.74174683,0.00205587
5481.67055420,0.00201258
5483.59936157,0.00197939
5485.52816895,0.00194199
5487.45697632,0.00194824
5489.38578369,0.00193183
5491.31459106,0.00198946
5493.24339844,0.00199246
5495.17220581,0.00196470
5497.10101318,0.00192437
5499.02982056,0.00200683
5500.95862793,0.00196429
5502.88743530,0.00189360
5504.81624268,0.00198764
5506.74505005,0.00195442
5508.67385742,0.00195901
5510.60266479,0.00200101
5512.53147217,0.00200593
5514.46027954,0.00192431
5516.38908691,0.00192260
5518.31789429,0.00199334
5520.24670166,0.00193105
5522.17550903,0.00191296
5524.10431641,0.00192556
5526.03312378,0.00199471
5527.96193115,0.00194784
5529.89073853,0.00186698
5531.81954590,0.00190202
5533.74835327,0.00187814
5535.67716064,0.00190129
5537.60596802,0.00188489
5539.53477539,0.00187709
5541.46358276,0.00189520
5543.39239014,0.00184005
5545.32119751,0.00186598
5547.25000488,0.00191934
5549.17881226,0.00187468
5551.10761963,0.00184715
5553.03642700,0.00183089
5554.96523437,0.00179151
5556.89404175,0.00186238
5558.82284912,0.00188101
5560.75165649,0.00187267
5562.68046387,0.00189961
5564.60927124,0.00186526
5566.53807861,0.00184912
5568.46688599,0.00181254
5570.39569336,0.00177856
5572.32450073,0.00177494
5574.25330811,0.00181821
5576.18211548,0.00180593
5578.11092285,0.00176943
5580.03973022,0.00176198
5581.96853760,0.00177449
5583.89734497,0.00187619
5585.82615234,0.00180558
5587.75495972,0.00175782
5589.68376709,0.00176416
5591.61257446,0.00170373
5593.54138184,0.00175392
5595.47018921,0.00171941
5597.39899658,0.00173117
5599.32780395,0.00179038
5601.25661133,0.00182587
5603.18541870,0.00179961
5605.11422607,0.00166699
5607.04303345,0.00170328
5608.97184082,0.00170795
5610.90064819,0.00167386
5612.82945557,0.00169012
5614.75826294,0.00164251
5616.68707031,0.00168253
5618.61587769,0.00168322
5620.54468506,0.00167369
5622.47349243,0.00171144
5624.40229980,0.00162858
5626.33110718,0.00169002
5628.25991455,0.00175408
5630.18872192,0.00163344
5632.11752930,0.00167438
5634.04633667,0.00167598
5635.97514404,0.00163383
5637.90395142,0.00164761
5639.83275879,0.00157583
5641.76156616,0.00158779
5643.69037353,0.00160394
5645.61918091,0.00162179
5647.54798828,0.00163138
5649.47679565,0.00162385
5651.40560303,0.00166413
5653.33441040,0.00166617
5655.26321777,0.00166854
5657.19202515,0.00165087
5659.12083252,0.00164210
5661.04963989,0.00158263
5662.97844727,0.00161777
5664.90725464,0.00167534
5666.83606201,0.00152680
5668.76486938,0.00153874
5670.69367676,0.00160847
5672.62248413,0.00157950
5674.55129150,0.00155976
5676.48009888,0.00155841
5678.40890625,0.00160530
5680.33771362,0.00157385
5682.26652100,0.00151617
5684.19532837,0.00151041
5686.12413574,0.00155858
5688.05294311,0.00156482
5689.98175049,0.00153534
5691.91055786,0.00156190
5693.83936523,0.00156538
5695.76817261,0.00157143
5697.69697998,0.00155340
5699.62578735,0.00151756
5701.55459473,0.00150794
5703.48340210,0.00152211
5705.41220947,0.00154143
5707.34101685,0.00153453
5709.26982422,0.00151960
5711.19863159,0.00149333
5713.12743896,0.00151811
5715.05624634,0.00150566
5716.98505371,0.00145983
5718.91386108,0.00149692
5720.84266846,0.00149222
5722.77147583,0.00147790
5724.70028320,0.00148659
5726.62909058,0.00147339
5728.55789795,0.00149680
5730.48670532,0.00147818
5732.41551270,0.00148561
5734.34432007,0.00150249
5736.27312744,0.00140267
5738.20193481,0.00139961
5740.13074219,0.00142489
5742.05954956,0.00141845
5743.98835693,0.00140382
5745.91716431,0.00136016
5747.84597168,0.00144270
5749.77477905,0.00141919
5751.70358643,0.00137338
5753.63239380,0.00141875
5755.56120117,0.00143351
5757.49000854,0.00145949
5759.41881592,0.00139946
5761.34762329,0.00145789
5763.27643066,0.00149821
5765.20523804,0.00140923
5767.13404541,0.00137363
5769.06285278,0.00136345
5770.99166016,0.00140024
5772.92046753,0.00135870
5774.84927490,0.00137958
5776.77808228,0.00138975
5778.70688965,0.00133776
5780.63569702,0.00131847
5782.56450439,0.00128293
5784.49331177,0.00138514
5786.42211914,0.00133932
5788.35092651,0.00128278
5790.27973389,0.00133841
5792.20854126,0.00132333
5794.13734863,0.00136914
5796.06615601,0.00131984
5797.99496338,0.00135996
5799.92377075,0.00138284
5801.85257812,0.00130086
5803.78138550,0.00138970
5805.71019287,0.00138153
5807.63900024,0.00131949
5809.56780762,0.00129258
5811.49661499,0.00124752
5813.42542236,0.00126000
5815.35422974,0.00129344
5817.28303711,0.00130375
5819.21184448,0.00125858
5821.14065186,0.00130311
5823.06945923,0.00132471
5824.99826660,0.00120096
5826.92707397,0.00122468
5828.85588135,0.00128353
5830.78468872,0.00126051
5832.71349609,0.00133233
5834.64230347,0.00131922
5836.57111084,0.00125457
5838.49991821,0.00121478
5840.42872559,0.00117639
5842.35753296,0.00128762
5844.28634033,0.00130715
5846.21514770,0.00124414
5848.14395508,0.00121578
5850.07276245,0.00122349
5852.00156982,0.00129251
5853.93037720,0.00120316
5855.85918457,0.00118853
5857.78799194,0.00121427
5859.71679932,0.00117066
5861.64560669,0.00120376
5863.57441406,0.00116948
5865.50322144,0.00120340
5867.43202881,0.00121668
5869.36083618,0.00119448
5871.28964355,0.00120028
5873.21845093,0.00116146
5875.14725830,0.00117556
5877.07606567,0.00116399
5879.00487305,0.00121987
5880.93368042,0.00121538
5882.86248779,0.00117559
5884.79129517,0.00120812
5886.72010254,0.00119648
5888.64890991,0.00123559
5890.57771728,0.00116314
5892.50652466,0.00117830
5894.43533203,0.00123039
5896.36413940,0.00114979
5898.29294678,0.00117838
5900.22175415,0.00117144
5902.15056152,0.00120468
5904.07936890,0.00120054
5906.00817627,0.00117207
5907.93698364,0.00118625
5909.86579102,0.00108084
5911.79459839,0.00107662
5913.72340576,0.00112515
5915.65221313,0.00116456
5917.58102051,0.00115785
5919.50982788,0.00111392
5921.43863525,0.00114236
5923.36744263,0.00110623
5925.29625000,0.00106292
5927.22505737,0.00110187
5929.15386475,0.00115917
5931.08267212,0.00111673
5933.01147949,0.00107012
5934.94028686,0.00106167
5936.86909424,0.00101799
5938.79790161,0.00106565
5940.72670898,0.00112919
5942.65551636,0.00112059
5944.58432373,0.00112427
5946.51313110,0.00110978
5948.44193848,0.00103823
5950.37074585,0.00106769
5952.29955322,0.00105861
5954.22836060,0.00101575
5956.15716797,0.00111261
5958.08597534,0.00109869
5960.01478271,0.00107640
5961.94359009,0.00106815
5963.87239746,0.00107373
5965.80120483,0.00105259
5967.73001221,0.00100009
5969.65881958,0.00104944
5971.58762695,0.00094441
5973.51643433,0.00103782
5975.44524170,0.00106173
5977.37404907,0.00093167
5979.30285645,0.00107959
5981.23166382,0.00099700
5983.16047119,0.00102543
5985.08927856,0.00108859
5987.01808594,0.00098425
5988.94689331,0.00102682
5990.87570068,0.00098824
5992.80450806,0.00105012
5994.73331543,0.00102452
5996.66212280,0.00096403
5998.59093018,0.00106208
6000.51973755,0.00100439
