399.26312622,0.00010388
401.19193359,0.00026115
403.12074097,0.00029645
405.04954834,0.00011336
406.97835571,0.00034921
408.90716309,0.00029687
410.83597046,-0.00004821
412.76477783,0.00015756
414.69358521,0.00015672
416.62239258,0.00005429
418.55119995,-0.00001554
420.48000732,0.00026094
422.40881470,0.00018374
424.33762207,0.00007937
426.26642944,0.00046791
428.19523682,0.00008164
430.12404419,0.00016423
432.05285156,0.00030969
433.98165894,0.00013942
435.91046631,0.00017137
437.83927368,0.00000653
439.76808105,0.00028775
441.69688843,0.00016001
443.62569580,0.00012899
445.55450317,0.00009137
447.48331055,-0.00017519
449.41211792,0.00007355
451.34092529,0.00009342
453.26973267,0.00020185
455.19854004,0.00026410
457.12734741,0.00036371
459.05615479,0.00022095
460.98496216,0.00016882
462.91376953,0.00023426
464.84257690,-0.00023223
466.77138428,0.00018780
468.70019165,0.00033706
470.62899902,0.00007552
472.55780640,0.00014905
474.48661377,-0.00000219
476.41542114,0.00032893
478.34422852,0.00023164
480.27303589,0.00009160
482.20184326,0.00013307
484.13065063,0.00002216
486.05945801,0.00018794
487.98826538,0.00016843
489.91707275,0.00037778
491.84588013,0.00033444
493.77468750,-0.00000414
495.70349487,0.00004423
497.63230225,0.00005807
499.56110962,0.00001566
501.48991699,0.00002386
503.41872437,0.00010437
505.34753174,0.00014513
507.27633911,0.00003154
509.20514648,-0.00005375
511.13395386,-0.00013226
513.06276123,-0.00005998
514.99156860,0.00029506
516.92037598,0.00015601
518.84918335,-0.00001851
520.77799072,0.00023890
522.70679810,0.00019294
524.63560547,0.00013681
526.56441284,0.00007921
528.49322021,0.00011569
530.42202759,0.00017001
532.35083496,0.00012364
534.27964233,0.00011087
536.20844971,0.00005135
538.13725708,0.00009882
540.06606445,-0.00010534
541.99487183,0.00004464
543.92367920,0.00007761
545.85248657,0.00001543
547.78129395,0.00024902
549.71010132,0.00011974
551.63890869,0.00025359
553.56771606,0.00034927
555.49652344,0.00005799
557.42533081,-0.00001540
559.35413818,0.00026019
561.28294556,0.00027385
563.21175293,-0.00007906
565.14056030,-0.00017301
567.06936768,-0.00003235
568.99817505,0.00030868
570.92698242,0.00012505
572.85578979,-0.00001867
574.78459717,0.00018347
576.71340454,0.00003561
578.64221191,0.00015623
580.57101929,0.00008091
582.49982666,-0.00001714
584.42863403,-0.00006582
586.35744141,-0.00005515
588.28624878,-0.00016888
590.21505615,0.00022529
592.14386353,0.00047472
594.07267090,0.00027402
596.00147827,0.00029364
597.93028564,0.00011744
599.85909302,0.00016378
601.78790039,0.00004196
603.71670776,-0.00005328
605.64551514,0.00010465
607.57432251,0.00010074
609.50312988,0.00021376
611.43193726,0.00018280
613.36074463,0.00011400
615.28955200,0.00008745
617.21835938,0.00014179
619.14716675,0.00008605
621.07597412,-0.00000492
623.00478149,0.00006526
624.93358887,0.00010963
626.86239624,0.00021802
628.79120361,0.00012895
630.72001099,0.00030512
632.64881836,0.00026736
634.57762573,0.00008154
636.50643311,0.00032440
638.43524048,0.00016322
640.36404785,0.00032307
642.29285522,0.00044634
644.22166260,0.00022223
646.15046997,0.00041594
648.07927734,0.00035435
650.00808472,0.00034738
651.93689209,0.00028121
653.86569946,0.00023092
655.79450684,0.00037231
657.72331421,0.00019479
659.65212158,0.00028775
661.58092896,0.00029049
663.50973633,0.00043545
665.43854370,0.00055011
667.36735107,0.00016395
669.29615845,0.00041416
671.22496582,0.00059916
673.15377319,0.00053024
675.08258057,0.00063637
677.01138794,0.00052879
678.94019531,0.00052515
680.86900269,0.00044001
682.79781006,0.00053302
684.72661743,0.00065905
686.65542480,0.00042802
688.58423218,0.00045892
690.51303955,0.00052870
692.44184692,0.00043063
694.37065430,0.00043579
696.29946167,0.00046225
698.22826904,0.00058909
700.15707642,0.00077020
702.08588379,0.00073686
704.01469116,0.00065312
705.94349854,0.00044416
707.87230591,0.00031493
709.80111328,0.00058223
711.72992065,0.00049752
713.65872803,0.00022200
715.58753540,0.00008922
717.51634277,0.00011717
719.44515015,0.00022195
721.37395752,0.00011065
723.30276489,0.00024906
725.23157227,0.00022520
727.16037964,0.00032860
729.08918701,0.00031842
731.01799438,0.00010298
732.94680176,0.00036862
734.87560913,0.00031817
736.80441650,0.00029463
738.73322388,0.00024842
740.66203125,0.00016765
742.59083862,0.00028771
744.51964600,0.00022315
746.44845337,0.00025698
748.37726074,0.00013494
750.30606812,0.00014127
752.23487549,0.00016509
754.16368286,0.00003124
756.09249023,0.00027049
758.02129761,0.00031786
759.95010498,0.00026718
761.87891235,0.00028776
763.80771973,0.00020399
765.73652710,0.00035179
767.66533447,0.00032931
769.59414185,0.00021196
771.52294922,0.00039762
773.45175659,0.00032024
775.38056396,0.00010080
777.30937134,0.00021396
779.23817871,0.00029758
781.16698608,0.00006426
783.09579346,0.00010587
785.02460083,0.00031865
786.95340820,0.00008896
788.88221558,0.00014858
790.81102295,0.00018894
792.73983032,-0.00005894
794.66863770,0.00011010
796.59744507,0.00022030
798.52625244,0.00020796
800.45505981,0.00020091
802.38386719,0.00019872
804.31267456,0.00015457
806.24148193,0.00026262
808.17028931,0.00041502
810.09909668,0.00017709
812.02790405,0.00034199
813.95671143,0.00029955
815.88551880,0.00008230
817.81432617,0.00027311
819.74313354,0.00030722
821.67194092,0.00048524
823.60074829,0.00024123
825.52955566,0.00005830
827.45836304,0.00028976
829.38717041,0.00032239
831.31597778,0.00033190
833.24478516,0.00017026
835.17359253,0.00031098
837.10239990,0.00049892
839.03120728,0.00042120
840.96001465,0.00034799
842.88882202,0.00036964
844.81762939,0.00042209
846.74643677,0.00021899
848.67524414,0.00014943
850.60405151,0.00020949
852.53285889,0.00019044
854.46166626,0.00021788
856.39047363,0.00044432
858.31928101,0.00036911
860.24808838,0.00022313
862.17689575,0.00039190
864.10570313,0.00024651
866.03451050,0.00027688
867.96331787,0.00012501
869.89212524,0.00017588
871.82093262,0.00053487
873.74973999,0.00026232
875.67854736,0.00029329
877.60735474,0.00034177
879.53616211,0.00030978
881.46496948,0.00041199
883.39377686,0.00036181
885.32258423,0.00031715
887.25139160,0.00036623
889.18019897,0.00046075
891.10900635,0.00040305
893.03781372,0.00048267
894.96662109,0.00024564
896.89542847,0.00027336
898.82423584,0.00055469
900.75304321,0.00037146
902.68185059,0.00041767
904.61065796,0.00038082
906.53946533,0.00040445
908.46827271,0.00037981
910.39708008,0.00037140
912.32588745,0.00033241
914.25469482,0.00025502
916.18350220,0.00064433
918.11230957,0.00058214
920.04111694,0.00057600
921.96992432,0.00063873
923.89873169,0.00050939
925.82753906,0.00045504
927.75634644,0.00052091
929.68515381,0.00074992
931.61396118,0.00038339
933.54276855,0.00048557
935.47157593,0.00058059
937.40038330,0.00043125
939.32919067,0.00068764
941.25799805,0.00051456
943.18680542,0.00064365
945.11561279,0.00063213
947.04442017,0.00061632
948.97322754,0.00067875
950.90203491,0.00053160
952.83084229,0.00082266
954.75964966,0.00060420
956.68845703,0.00055040
958.61726440,0.00074064
960.54607178,0.00060185
962.47487915,0.00070856
964.40368652,0.00064944
966.33249390,0.00064600
968.26130127,0.00074871
970.19010864,0.00072730
972.11891602,0.00073737
974.04772339,0.00077876
975.97653076,0.00079224
977.90533813,0.00080331
979.83414551,0.00090587
981.76295288,0.00080176
983.69176025,0.00072031
985.62056763,0.00093518
987.54937500,0.00112745
989.47818237,0.00115517
991.40698975,0.00097241
993.33579712,0.00090921
995.26460449,0.00121094
997.19341187,0.00130928
999.12221924,0.00116771
1001.05102661,0.00124100
1002.97983398,0.00147544
1004.90864136,0.00160357
1006.83744873,0.00143894
1008.76625610,0.00156458
1010.69506348,0.00177585
1012.62387085,0.00161412
1014.55267822,0.00182302
1016.48148560,0.00186215
1018.41029297,0.00172698
1020.33910034,0.00202497
1022.26790771,0.00209211
1024.19671509,0.00210068
1026.12552246,0.00227747
1028.05432983,0.00230281
1029.98313721,0.00222521
1031.91194458,0.00238266
1033.84075195,0.00262347
1035.76955933,0.00244779
1037.69836670,0.00234458
1039.62717407,0.00253372
1041.55598145,0.00251239
1043.48478882,0.00237469
1045.41359619,0.00238995
1047.34240356,0.00239311
1049.27121094,0.00238212
1051.20001831,0.00241168
1053.12882568,0.00242964
1055.05763306,0.00242538
1056.98644043,0.00224564
1058.91524780,0.00219795
1060.84405518,0.00221314
1062.77286255,0.00205818
1064.70166992,0.00194118
1066.63047729,0.00190237
1068.55928467,0.00205032
1070.48809204,0.00190608
1072.41689941,0.00179402
1074.34570679,0.00198425
1076.27451416,0.00178088
1078.20332153,0.00178016
1080.13212891,0.00190282
1082.06093628,0.00166510
1083.98974365,0.00148402
1085.91855103,0.00146432
1087.84735840,0.00154394
1089.77616577,0.00154475
1091.70497314,0.00151519
1093.63378052,0.00148352
1095.56258789,0.00149898
1097.49139526,0.00154572
1099.42020264,0.00148281
1101.34901001,0.00140239
1103.27781738,0.00129209
1105.20662476,0.00133574
1107.13543213,0.00141263
1109.06423950,0.00139943
1110.99304687,0.00140929
1112.92185425,0.00131543
1114.85066162,0.00127756
1116.77946899,0.00128507
1118.70827637,0.00128324
1120.63708374,0.00142106
1122.56589111,0.00153970
1124.49469849,0.00147440
1126.42350586,0.00143789
1128.35231323,0.00151584
1130.28112061,0.00156204
1132.20992798,0.00154621
1134.13873535,0.00157468
1136.06754272,0.00173568
1137.99635010,0.00174222
1139.92515747,0.00182218
1141.85396484,0.00173971
1143.78277222,0.00146650
1145.71157959,0.00181993
1147.64038696,0.00197338
1149.56919434,0.00198660
1151.49800171,0.00201263
1153.42680908,0.00189303
1155.35561646,0.00219980
1157.28442383,0.00222236
1159.21323120,0.00227593
1161.14203857,0.00241070
1163.07084595,0.00249858
1164.99965332,0.00248583
1166.92846069,0.00227989
1168.85726807,0.00253091
1170.78607544,0.00246661
1172.71488281,0.00265629
1174.64369019,0.00284452
1176.57249756,0.00266868
1178.50130493,0.00296952
1180.43011230,0.00292953
1182.35891968,0.00307609
1184.28772705,0.00322686
1186.21653442,0.00323022
1188.14534180,0.00342146
1190.07414917,0.00347632
1192.00295654,0.00370214
1193.93176392,0.00371834
1195.86057129,0.00386516
1197.78937866,0.00414052
1199.71818604,0.00431177
1201.64699341,0.00437960
1203.57580078,0.00445253
1205.50460815,0.00461195
1207.43341553,0.00462236
1209.36222290,0.00501433
1211.29103027,0.00503670
1213.21983765,0.00506700
1215.14864502,0.00541263
1217.07745239,0.00535119
1219.00625977,0.00549373
1220.93506714,0.00549449
1222.86387451,0.00553773
1224.79268188,0.00554084
1226.72148926,0.00558586
1228.65029663,0.00578256
1230.57910400,0.00556166
1232.50791138,0.00572262
1234.43671875,0.00580394
1236.36552612,0.00573349
1238.29433350,0.00581816
1240.22314087,0.00556757
1242.15194824,0.00546119
1244.08075562,0.00552926
1246.00956299,0.00571185
1247.93837036,0.00584073
1249.86717773,0.00568118
1251.79598511,0.00554968
1253.72479248,0.00552463
1255.65359985,0.00537641
1257.58240723,0.00529638
1259.51121460,0.00546794
1261.44002197,0.00548515
1263.36882935,0.00540409
1265.29763672,0.00528315
1267.22644409,0.00511955
1269.15525146,0.00514257
1271.08405884,0.00515948
1273.01286621,0.00502116
1274.94167358,0.00496096
1276.87048096,0.00494032
1278.79928833,0.00480857
1280.72809570,0.00479115
1282.65690308,0.00466829
1284.58571045,0.00460651
1286.51451782,0.00463016
1288.44332520,0.00442589
1290.37213257,0.00449450
1292.30093994,0.00442770
1294.22974731,0.00433956
1296.15855469,0.00448906
1298.08736206,0.00428525
1300.01616943,0.00433756
1301.94497681,0.00453521
1303.87378418,0.00450271
1305.80259155,0.00457263
1307.73139893,0.00462346
1309.66020630,0.00465596
1311.58901367,0.00462064
1313.51782104,0.00478394
1315.44662842,0.00498287
1317.37543579,0.00487727
1319.30424316,0.00514880
1321.23305054,0.00531713
1323.16185791,0.00513509
1325.09066528,0.00543875
1327.01947266,0.00567219
1328.94828003,0.00554921
1330.87708740,0.00551300
1332.80589478,0.00577881
1334.73470215,0.00598076
1336.66350952,0.00588075
1338.59231689,0.00598300
1340.52112427,0.00593162
1342.44993164,0.00606807
1344.37873901,0.00633283
1346.30754639,0.00618607
1348.23635376,0.00624517
1350.16516113,0.00610190
1352.09396851,0.00606053
1354.02277588,0.00613494
1355.95158325,0.00594258
1357.88039062,0.00600548
1359.80919800,0.00591731
1361.73800537,0.00570157
1363.66681274,0.00555586
1365.59562012,0.00571608
1367.52442749,0.00580307
1369.45323486,0.00572218
1371.38204224,0.00585989
1373.31084961,0.00559459
1375.23965698,0.00563199
1377.16846436,0.00576089
1379.09727173,0.00564055
1381.02607910,0.00577211
1382.95488647,0.00568796
1384.88369385,0.00570236
1386.81250122,0.00556904
1388.74130859,0.00549917
1390.67011597,0.00593066
1392.59892334,0.00585591
1394.52773071,0.00545981
1396.45653809,0.00574631
1398.38534546,0.00582770
1400.31415283,0.00566064
1402.24296021,0.00609925
1404.17176758,0.00580683
1406.10057495,0.00575447
1408.02938232,0.00610237
1409.95818970,0.00579353
1411.88699707,0.00586313
1413.81580444,0.00571004
1415.74461182,0.00585022
1417.67341919,0.00547330
1419.60222656,0.00494239
1421.53103394,0.00559820
1423.45984131,0.00528655
1425.38864868,0.00525351
1427.31745605,0.00543914
1429.24626343,0.00497939
1431.17507080,0.00505341
1433.10387817,0.00510455
1435.03268555,0.00473396
1436.96149292,0.00414261
1438.89030029,0.00457429
1440.81910767,0.00468023
1442.74791504,0.00440095
1444.67672241,0.00481752
1446.60552979,0.00436158
1448.53433716,0.00443514
1450.46314453,0.00470200
1452.39195190,0.00451548
1454.32075928,0.00478574
1456.24956665,0.00435157
1458.17837402,0.00422359
1460.10718140,0.00511552
1462.03598877,0.00560041
1463.96479614,0.00538823
1465.89360352,0.00550044
1467.82241089,0.00625427
1469.75121826,0.00640347
1471.68002563,0.00587180
1473.60883301,0.00602151
1475.53764038,0.00666143
1477.46644775,0.00725640
1479.39525513,0.00764522
1481.32406250,0.00771908
1483.25286987,0.00822697
1485.18167725,0.00845419
1487.11048462,0.00835640
1489.03929199,0.00810483
1490.96809937,0.00802773
1492.89690674,0.00937230
1494.82571411,0.00911842
1496.75452148,0.00813408
1498.68332886,0.00913955
1500.61213623,0.00953076
1502.54094360,0.01029524
1504.46975098,0.00946369
1506.39855835,0.00688146
1508.32736572,0.00857043
1510.25617310,0.00988120
1512.18498047,0.00967052
1514.11378784,0.01051592
1516.04259521,0.00921982
1517.97140259,0.00959444
1519.90020996,0.00947768
1521.82901733,0.00818577
1523.75782471,0.00990928
1525.68663208,0.00984262
1527.61543945,0.00977478
1529.54424683,0.01079883
1531.47305420,0.01034112
1533.40186157,0.00951772
1535.33066895,0.01025154
1537.25947632,0.01083022
1539.18828369,0.00781028
1541.11709106,0.00818166
1543.04589844,0.00969595
1544.97470581,0.00930545
1546.90351318,0.01093918
1548.83232056,0.01035399
1550.76112793,0.01065910
1552.68993530,0.01045400
1554.61874268,0.00953176
1556.54755005,0.01011607
1558.47635742,0.00726185
1560.40516479,0.00809013
1562.33397217,0.01122548
1564.26277954,0.01052742
1566.19158691,0.01074540
1568.12039429,0.01057960
1570.04920166,0.00961117
1571.97800903,0.01092064
1573.90681641,0.01091144
1575.83562378,0.00870589
1577.76443115,0.00995653
1579.69323853,0.01169838
1581.62204590,0.01090314
1583.55085327,0.01084977
1585.47966064,0.01101108
1587.40846802,0.01097036
1589.33727539,0.01083896
1591.26608276,0.01082949
1593.19489014,0.01096013
1595.12369751,0.01092106
1597.05250488,0.01082861
1598.98131226,0.01086087
1600.91011963,0.01090248
1602.83892700,0.01072920
1604.76773437,0.01099291
1606.69654175,0.01064755
1608.62534912,0.01064738
1610.55415649,0.01072130
1612.48296387,0.01079643
1614.41177124,0.01083693
1616.34057861,0.00890994
1618.26938599,0.00990171
1620.19819336,0.01143059
1622.12700073,0.01002123
1624.05580811,0.01017126
1625.98461548,0.01071157
1627.91342285,0.01052372
1629.84223022,0.01053762
1631.77103760,0.01132028
1633.69984497,0.01041675
1635.62865234,0.00857971
1637.55745972,0.00998473
1639.48626709,0.01112950
1641.41507446,0.01093332
1643.34388184,0.01119722
1645.27268921,0.00991485
1647.20149658,0.00874837
1649.13030396,0.01100831
1651.05911133,0.01037017
1652.98791870,0.00677484
1654.91672607,0.00910741
1656.84553345,0.01139186
1658.77434082,0.01081738
1660.70314819,0.01107069
1662.63195557,0.01006180
1664.56076294,0.01064624
1666.48957031,0.01159556
1668.41837769,0.00979822
1670.34718506,0.00957470
1672.27599243,0.01097635
1674.20479980,0.00999891
1676.13360718,0.00994012
1678.06241455,0.01125605
1679.99122192,0.01072752
1681.92002930,0.01058665
1683.84883667,0.00858521
1685.77764404,0.00870993
1687.70645142,0.01154932
1689.63525879,0.01003199
1691.56406616,0.01118741
1693.49287354,0.01118246
1695.42168091,0.00820575
1697.35048828,0.01011955
1699.27929565,0.00887589
1701.20810303,0.00809523
1703.13691040,0.01081172
1705.06571777,0.00978937
1706.99452515,0.01004774
1708.92333252,0.01092304
1710.85213989,0.01043025
1712.78094727,0.01058706
1714.70975464,0.00978636
1716.63856201,0.00872759
1718.56736938,0.00853419
1720.49617676,0.01036810
1722.42498413,0.01072655
1724.35379150,0.00985668
1726.28259888,0.01081670
1728.21140625,0.00991753
1730.14021362,0.01011384
1732.06902100,0.00973117
1733.99782837,0.00734548
1735.92663574,0.00936384
1737.85544312,0.01009921
1739.78425049,0.00904709
1741.71305786,0.00997962
1743.64186523,0.00981112
1745.57067261,0.00976237
1747.49947998,0.00988524
1749.42828735,0.00958025
1751.35709473,0.00917428
1753.28590210,0.01001425
1755.21470947,0.01057897
1757.14351685,0.00970337
1759.07232422,0.01063686
1761.00113159,0.00990524
1762.92993896,0.00953173
1764.85874634,0.01091413
1766.78755371,0.00981677
1768.71636108,0.01007379
1770.64516846,0.00990185
1772.57397583,0.00884600
1774.50278320,0.00984824
1776.43159058,0.01041954
1778.36039795,0.01045874
1780.28920532,0.01007651
1782.21801270,0.01021585
1784.14682007,0.01012358
1786.07562744,0.00965611
1788.00443481,0.01060319
1789.93324219,0.01019261
1791.86204956,0.00900553
1793.79085693,0.00964364
1795.71966431,0.01030744
1797.64847168,0.01020721
1799.57727905,0.01004896
1801.50608643,0.00982089
1803.43489380,0.01016434
1805.36370117,0.01041382
1807.29250854,0.01025896
1809.22131592,0.01027537
1811.15012329,0.00996189
1813.07893066,0.01021826
1815.00773804,0.01036706
1816.93654541,0.01008558
1818.86535278,0.01011817
1820.79416016,0.01031571
1822.72296753,0.01036501
1824.65177490,0.00962778
1826.58058228,0.01004711
1828.50938965,0.01005536
1830.43819702,0.00934362
1832.36700439,0.01017693
1834.29581177,0.01025247
1836.22461914,0.01012652
1838.15342651,0.01001153
1840.08223389,0.01013125
1842.01104126,0.01017594
1843.93984863,0.00897536
1845.86865601,0.00939031
1847.79746338,0.01004289
1849.72627075,0.00995881
1851.65507812,0.01016008
1853.58388550,0.00994687
1855.51269287,0.01003570
1857.44150024,0.00997779
1859.37030762,0.00986800
1861.29911499,0.00987730
1863.22792236,0.00987550
1865.15672974,0.00997735
1867.08553711,0.00958471
1869.01434448,0.00921392
1870.94315186,0.00946460
1872.87195923,0.00988546
1874.80076660,0.00981556
1876.72957397,0.00982941
1878.65838135,0.00993766
1880.58718872,0.00973714
1882.51599609,0.00971320
1884.44480347,0.00967092
1886.37361084,0.00966334
1888.30241821,0.00945761
1890.23122559,0.00936062
1892.16003296,0.00964136
1894.08884033,0.00950051
1896.01764771,0.00955620
1897.94645508,0.00962529
1899.87526245,0.00953044
1901.80406982,0.00966699
1903.73287720,0.00951939
1905.66168457,0.00961771
1907.59049194,0.00955545
1909.51929932,0.00931634
1911.44810669,0.00938882
1913.37691406,0.00935775
1915.30572144,0.00946182
1917.23452881,0.00901134
1919.16333618,0.00893613
1921.09214355,0.00931254
1923.02095093,0.00898261
1924.94975830,0.00917436
1926.87856567,0.00932357
1928.80737305,0.00933114
1930.73618042,0.00940087
1932.66498779,0.00917699
1934.59379517,0.00921974
1936.52260254,0.00925113
1938.45140991,0.00940262
1940.38021729,0.00914888
1942.30902466,0.00891924
1944.23783203,0.00911119
1946.16663940,0.00904767
1948.09544678,0.00912869
1950.02425415,0.00911082
1951.95306152,0.00912905
1953.88186890,0.00906395
1955.81067627,0.00898488
1957.73948364,0.00906040
1959.66829102,0.00897262
1961.59709839,0.00914451
1963.52590576,0.00908386
1965.45471313,0.00886151
1967.38352051,0.00894582
1969.31232788,0.00907207
1971.24113525,0.00899666
1973.16994263,0.00891602
1975.09875000,0.00898859
1977.02755737,0.00890632
1978.95636475,0.00896736
1980.88517212,0.00898097
1982.81397949,0.00892127
1984.74278687,0.00886546
1986.67159424,0.00875436
1988.60040161,0.00883452
1990.52920898,0.00871740
1992.45801636,0.00862636
1994.38682373,0.00869106
1996.31563110,0.00872883
1998.24443848,0.00875779
2000.17324585,0.00873071
2002.10205322,0.00863846
2004.03086060,0.00849897
2005.95966797,0.00844291
2007.88847534,0.00843414
2009.81728271,0.00859769
2011.74609009,0.00855311
2013.67489746,0.00848283
2015.60370483,0.00860106
2017.53251221,0.00846621
2019.46131958,0.00841117
2021.39012695,0.00835782
2023.31893433,0.00841102
2025.24774170,0.00841768
2027.17654907,0.00821040
2029.10535645,0.00827996
2031.03416382,0.00833303
2032.96297119,0.00822303
2034.89177856,0.00819252
2036.82058594,0.00830255
2038.74939331,0.00820881
2040.67820068,0.00806899
2042.60700806,0.00815273
2044.53581543,0.00816782
2046.46462280,0.00815487
2048.39343018,0.00815869
2050.32223755,0.00822703
2052.25104492,0.00819589
2054.17985229,0.00812206
2056.10865967,0.00807458
2058.03746704,0.00798923
2059.96627441,0.00797798
2061.89508179,0.00793899
2063.82388916,0.00791599
2065.75269653,0.00785349
2067.68150391,0.00796642
2069.61031128,0.00802335
2071.53911865,0.00784751
2073.46792603,0.00787686
2075.39673340,0.00786889
2077.32554077,0.00779727
2079.25434814,0.00782044
2081.18315552,0.00785205
2083.11196289,0.00775078
2085.04077026,0.00778110
2086.96957764,0.00776530
2088.89838501,0.00754379
2090.82719238,0.00773952
2092.75599976,0.00778039
2094.68480713,0.00764305
2096.61361450,0.00761891
2098.54242187,0.00754343
2100.47122925,0.00766472
2102.40003662,0.00763062
2104.32884399,0.00755171
2106.25765137,0.00754885
2108.18645874,0.00760545
2110.11526611,0.00765243
2112.04407349,0.00751069
2113.97288086,0.00745172
2115.90168823,0.00737577
2117.83049561,0.00739499
2119.75930298,0.00748447
2121.68811035,0.00747492
2123.61691772,0.00749051
2125.54572510,0.00752466
2127.47453247,0.00742463
2129.40333984,0.00720472
2131.33214722,0.00730714
2133.26095459,0.00743491
2135.18976196,0.00733074
2137.11856934,0.00726473
2139.04737671,0.00722393
2140.97618408,0.00728213
2142.90499146,0.00735295
2144.83379883,0.00733564
2146.76260620,0.00726184
2148.69141357,0.00721405
2150.62022095,0.00721455
2152.54902832,0.00720589
2154.47783569,0.00716308
2156.40664307,0.00718792
2158.33545044,0.00723155
2160.26425781,0.00711655
2162.19306519,0.00716312
2164.12187256,0.00723655
2166.05067993,0.00715846
2167.97948730,0.00705961
2169.90829468,0.00702306
2171.83710205,0.00716986
2173.76590942,0.00705384
2175.69471680,0.00698293
2177.62352417,0.00707260
2179.55233154,0.00697240
2181.48113892,0.00695521
2183.40994629,0.00691007
2185.33875366,0.00701064
2187.26756104,0.00705981
2189.19636841,0.00699677
2191.12517578,0.00697891
2193.05398315,0.00678476
2194.98279053,0.00684830
2196.91159790,0.00689451
2198.84040527,0.00682011
2200.76921265,0.00675600
2202.69802002,0.00668938
2204.62682739,0.00683055
2206.55563477,0.00674777
2208.48444214,0.00674330
2210.41324951,0.00679761
2212.34205688,0.00675323
2214.27086426,0.00678561
2216.19967163,0.00671064
2218.12847900,0.00689060
2220.05728638,0.00681478
2221.98609375,0.00663024
2223.91490112,0.00682523
2225.84370850,0.00669090
2227.77251587,0.00661765
2229.70132324,0.00677420
2231.63013062,0.00671089
2233.55893799,0.00662232
2235.48774536,0.00665150
2237.41655273,0.00665539
2239.34536011,0.00651952
2241.27416748,0.00644634
2243.20297485,0.00653835
2245.13178223,0.00648943
2247.06058960,0.00640676
2248.98939697,0.00661405
2250.91820435,0.00655391
2252.84701172,0.00636342
2254.77581909,0.00644317
2256.70462646,0.00637197
2258.63343384,0.00639815
2260.56224121,0.00640571
2262.49104858,0.00635668
2264.41985596,0.00645049
2266.34866333,0.00636776
2268.27747070,0.00631617
2270.20627808,0.00629364
2272.13508545,0.00634234
2274.06389282,0.00637498
2275.99270020,0.00626787
2277.92150757,0.00631327
2279.85031494,0.00624544
2281.77912231,0.00623682
2283.70792969,0.00628018
2285.63673706,0.00615827
2287.56554443,0.00622538
2289.49435181,0.00624636
2291.42315918,0.00624073
2293.35196655,0.00625356
2295.28077393,0.00613179
2297.20958130,0.00611796
2299.13838867,0.00612303
2301.06719604,0.00610007
2302.99600342,0.00606062
2304.92481079,0.00609561
2306.85361816,0.00605389
2308.78242554,0.00584148
2310.71123291,0.00591929
2312.64004028,0.00593954
2314.56884766,0.00576414
2316.49765503,0.00572942
2318.42646240,0.00567220
2320.35526978,0.00561853
2322.28407715,0.00564613
2324.21288452,0.00558292
2326.14169189,0.00540990
2328.07049927,0.00537684
2329.99930664,0.00524653
2331.92811401,0.00521340
2333.85692139,0.00531410
2335.78572876,0.00510732
2337.71453613,0.00520433
2339.64334351,0.00528559
2341.57215088,0.00516439
2343.50095825,0.00522322
2345.42976562,0.00525463
2347.35857300,0.00556030
2349.28738037,0.00572414
2351.21618774,0.00547352
2353.14499512,0.00519290
2355.07380249,0.00515592
2357.00260986,0.00513498
2358.93141724,0.00483328
2360.86022461,0.00488968
2362.78903198,0.00500875
2364.71783936,0.00483358
2366.64664673,0.00485650
2368.57545410,0.00501155
2370.50426147,0.00503739
2372.43306885,0.00511496
2374.36187622,0.00527913
2376.29068359,0.00530811
2378.21949097,0.00548360
2380.14829834,0.00555798
2382.07710571,0.00554020
2384.00591309,0.00559705
2385.93472046,0.00543112
2387.86352783,0.00550154
2389.79233521,0.00561672
2391.72114258,0.00552434
2393.64994995,0.00548958
2395.57875732,0.00554775
2397.50756470,0.00566038
2399.43637207,0.00557705
2401.36517944,0.00546285
2403.29398682,0.00554433
2405.22279419,0.00560152
2407.15160156,0.00550856
2409.08040894,0.00553397
2411.00921631,0.00553752
2412.93802368,0.00548028
2414.86683105,0.00550538
2416.79563843,0.00543311
2418.72444580,0.00545676
2420.65325317,0.00542364
2422.58206055,0.00542222
2424.51086792,0.00543400
2426.43967529,0.00532906
2428.36848267,0.00534969
2430.29729004,0.00529686
2432.22609741,0.00537507
2434.15490479,0.00540222
2436.08371216,0.00538829
2438.01251953,0.00531904
2439.94132690,0.00514264
2441.87013428,0.00538080
2443.79894165,0.00532422
2445.72774902,0.00516340
2447.65655640,0.00522941
2449.58536377,0.00518261
2451.51417114,0.00525419
2453.44297852,0.00519974
2455.37178589,0.00525956
2457.30059326,0.00523310
2459.22940063,0.00515719
2461.15820801,0.00523532
2463.08701538,0.00504696
2465.01582275,0.00515145
2466.94463013,0.00513863
2468.87343750,0.00497140
2470.80224487,0.00512295
2472.73105225,0.00502180
2474.65985962,0.00513899
2476.58866699,0.00525229
2478.51747437,0.00507115
2480.44628174,0.00511132
2482.37508911,0.00504852
2484.30389648,0.00500554
2486.23270386,0.00501642
2488.16151123,0.00501070
2490.09031860,0.00505958
2492.01912598,0.00502707
2493.94793335,0.00501975
2495.87674072,0.00498350
2497.80554810,0.00503142
2499.73435547,0.00498200
2501.66316284,0.00489104
2503.59197021,0.00491983
2505.52077759,0.00487129
2507.44958496,0.00491358
2509.37839233,0.00486504
2511.30719971,0.00490201
2513.23600708,0.00495291
2515.16481445,0.00489673
2517.09362183,0.00490496
2519.02242920,0.00475653
2520.95123657,0.00482683
2522.88004395,0.00479179
2524.80885132,0.00473437
2526.73765869,0.00486566
2528.66646606,0.00471424
2530.59527344,0.00476558
2532.52408081,0.00471372
2534.45288818,0.00467692
2536.38169556,0.00495004
2538.31050293,0.00481976
2540.23931030,0.00464604
2542.16811768,0.00468081
2544.09692505,0.00474007
2546.02573242,0.00476866
2547.95453979,0.00466832
2549.88334717,0.00467864
2551.81215454,0.00471205
2553.74096191,0.00461797
2555.66976929,0.00461232
2557.59857666,0.00467516
2559.52738403,0.00467826
2561.45619141,0.00463857
2563.38499878,0.00464762
2565.31380615,0.00455068
2567.24261353,0.00439614
2569.17142090,0.00451238
2571.10022827,0.00452163
2573.02903564,0.00455247
2574.95784302,0.00467398
2576.88665039,0.00452370
2578.81545776,0.00455187
2580.74426514,0.00454143
2582.67307251,0.00448275
2584.60187988,0.00458979
2586.53068726,0.00456312
2588.45949463,0.00452798
2590.38830200,0.00447043
2592.31710937,0.00446805
2594.24591675,0.00450939
2596.17472412,0.00452358
2598.10353149,0.00441983
2600.03233887,0.00434792
2601.96114624,0.00445225
2603.88995361,0.00435363
2605.81876099,0.00431594
2607.74756836,0.00432587
2609.67637573,0.00430400
2611.60518311,0.00432945
2613.53399048,0.00421466
2615.46279785,0.00425751
2617.39160522,0.00434668
2619.32041260,0.00437212
2621.24921997,0.00436590
2623.17802734,0.00427140
2625.10683472,0.00425629
2627.03564209,0.00430295
2628.96444946,0.00430431
2630.89325684,0.00422360
2632.82206421,0.00421206
2634.75087158,0.00417599
2636.67967895,0.00412229
2638.60848633,0.00419608
2640.53729370,0.00420611
2642.46610107,0.00420141
2644.39490845,0.00421058
2646.32371582,0.00421370
2648.25252319,0.00429051
2650.18133057,0.00422152
2652.11013794,0.00408542
2654.03894531,0.00419651
2655.96775269,0.00423174
2657.89656006,0.00416700
2659.82536743,0.00422462
2661.75417480,0.00414157
2663.68298218,0.00410721
2665.61178955,0.00413549
2667.54059692,0.00406654
2669.46940430,0.00414355
2671.39821167,0.00411737
2673.32701904,0.00402593
2675.25582642,0.00411995
2677.18463379,0.00408015
2679.11344116,0.00403055
2681.04224854,0.00402080
2682.97105591,0.00395232
2684.89986328,0.00400636
2686.82867065,0.00399583
2688.75747803,0.00399250
2690.68628540,0.00395031
2692.61509277,0.00393864
2694.54390015,0.00399585
2696.47270752,0.00386941
2698.40151489,0.00401230
2700.33032227,0.00400366
2702.25912964,0.00384113
2704.18793701,0.00395623
2706.11674438,0.00385766
2708.04555176,0.00386813
2709.97435913,0.00387540
2711.90316650,0.00378793
2713.83197388,0.00388648
2715.76078125,0.00392006
2717.68958862,0.00389113
2719.61839600,0.00383486
2721.54720337,0.00381535
2723.47601074,0.00380757
2725.40481812,0.00385005
2727.33362549,0.00379185
2729.26243286,0.00373197
2731.19124023,0.00379438
2733.12004761,0.00374413
2735.04885498,0.00383897
2736.97766235,0.00383565
2738.90646973,0.00376954
2740.83527710,0.00383618
2742.76408447,0.00377252
2744.69289185,0.00380888
2746.62169922,0.00383241
2748.55050659,0.00371946
2750.47931396,0.00361387
2752.40812134,0.00359072
2754.33692871,0.00367211
2756.26573608,0.00368336
2758.19454346,0.00364990
2760.12335083,0.00368131
2762.05215820,0.00367058
2763.98096558,0.00357173
2765.90977295,0.00352467
2767.83858032,0.00364005
2769.76738770,0.00367985
2771.69619507,0.00351063
2773.62500244,0.00356191
2775.55380981,0.00358877
2777.48261719,0.00349404
2779.41142456,0.00356682
2781.34023193,0.00357518
2783.26903931,0.00362027
2785.19784668,0.00347443
2787.12665405,0.00346078
2789.05546143,0.00360547
2790.98426880,0.00343775
2792.91307617,0.00347024
2794.84188354,0.00344219
2796.77069092,0.00342165
2798.69949829,0.00350608
2800.62830566,0.00346220
2802.55711304,0.00344275
2804.48592041,0.00333367
2806.41472778,0.00345475
2808.34353516,0.00357021
2810.27234253,0.00345441
2812.20114990,0.00343206
2814.12995728,0.00346656
2816.05876465,0.00334703
2817.98757202,0.00333803
2819.91637939,0.00349490
2821.84518677,0.00338914
2823.77399414,0.00343959
2825.70280151,0.00335018
2827.63160889,0.00320923
2829.56041626,0.00333527
2831.48922363,0.00315397
2833.41803101,0.00321861
2835.34683838,0.00328104
2837.27564575,0.00322232
2839.20445312,0.00336289
2841.13326050,0.00326008
2843.06206787,0.00321864
2844.99087524,0.00313775
2846.91968262,0.00303010
2848.84848999,0.00320699
2850.77729736,0.00321572
2852.70610474,0.00309038
2854.63491211,0.00317111
2856.56371948,0.00319303
2858.49252686,0.00313977
2860.42133423,0.00314099
2862.35014160,0.00315523
2864.27894897,0.00327378
2866.20775635,0.00323577
2868.13656372,0.00311364
2870.06537109,0.00312050
2871.99417847,0.00313830
2873.92298584,0.00308249
2875.85179321,0.00299895
2877.78060059,0.00309334
2879.70940796,0.00313601
2881.63821533,0.00303422
2883.56702270,0.00298814
2885.49583008,0.00304863
2887.42463745,0.00304195
2889.35344482,0.00300768
2891.28225220,0.00305548
2893.21105957,0.00297135
2895.13986694,0.00302018
2897.06867432,0.00305078
2898.99748169,0.00301767
2900.92628906,0.00307674
2902.85509644,0.00295318
2904.78390381,0.00295642
2906.71271118,0.00295347
2908.64151855,0.00291372
2910.57032593,0.00301108
2912.49913330,0.00293727
2914.42794067,0.00292714
2916.35674805,0.00302498
2918.28555542,0.00301597
2920.21436279,0.00299645
2922.14317017,0.00284338
2924.07197754,0.00276353
2926.00078491,0.00296304
2927.92959229,0.00293234
2929.85839966,0.00284099
2931.78720703,0.00290397
2933.71601440,0.00291933
2935.64482178,0.00291725
2937.57362915,0.00285054
2939.50243652,0.00289281
2941.43124390,0.00285839
2943.36005127,0.00283378
2945.28885864,0.00286574
2947.21766602,0.00279689
2949.14647339,0.00284435
2951.07528076,0.00280902
2953.00408813,0.00282432
2954.93289551,0.00280312
2956.86170288,0.00281538
2958.79051025,0.00287447
2960.71931763,0.00277448
2962.64812500,0.00286724
2964.57693237,0.00278241
2966.50573975,0.00267685
2968.43454712,0.00272996
2970.36335449,0.00270393
2972.29216187,0.00273921
2974.22096924,0.00272695
2976.14977661,0.00270354
2978.07858398,0.00272803
2980.00739136,0.00279747
2981.93619873,0.00268457
2983.86500610,0.00271409
2985.79381348,0.00279488
2987.72262085,0.00263992
2989.65142822,0.00270876
2991.58023560,0.00266837
2993.50904297,0.00264827
2995.43785034,0.00262303
2997.36665771,0.00258048
2999.29546509,0.00266818
3001.22427246,0.00253067
3003.15307983,0.00265293
3005.08188721,0.00266760
3007.01069458,0.00249066
3008.93950195,0.00262641
3010.86830933,0.00262039
3012.79711670,0.00251161
3014.72592407,0.00255236
3016.65473145,0.00262013
3018.58353882,0.00260081
3020.51234619,0.00257929
3022.44115356,0.00255881
3024.36996094,0.00261355
3026.29876831,0.00264949
3028.22757568,0.00262616
3030.15638306,0.00266144
3032.08519043,0.00251852
3034.01399780,0.00246364
3035.94280518,0.00255147
3037.87161255,0.00262221
3039.80041992,0.00259680
3041.72922729,0.00244406
3043.65803467,0.00246335
3045.58684204,0.00242729
3047.51564941,0.00245568
3049.44445679,0.00255828
3051.37326416,0.00243752
3053.30207153,0.00244622
3055.23087891,0.00251950
3057.15968628,0.00251058
3059.08849365,0.00253368
3061.01730103,0.00249383
3062.94610840,0.00242907
3064.87491577,0.00237580
3066.80372314,0.00237368
3068.73253052,0.00246232
3070.66133789,0.00241578
3072.59014526,0.00236996
3074.51895264,0.00241322
3076.44776001,0.00235081
3078.37656738,0.00232399
3080.30537476,0.00234580
3082.23418213,0.00238392
3084.16298950,0.00234420
3086.09179687,0.00238231
3088.02060425,0.00249064
3089.94941162,0.00236264
3091.87821899,0.00234079
3093.80702637,0.00238881
3095.73583374,0.00237345
3097.66464111,0.00235399
3099.59344849,0.00231359
3101.52225586,0.00235493
3103.45106323,0.00234406
3105.37987061,0.00234996
3107.30867798,0.00238213
3109.23748535,0.00237183
3111.16629272,0.00226568
3113.09510010,0.00221805
3115.02390747,0.00239074
3116.95271484,0.00240464
3118.88152222,0.00225764
3120.81032959,0.00221249
3122.73913696,0.00224503
3124.66794434,0.00224914
3126.59675171,0.00229112
3128.52555908,0.00228174
3130.45436645,0.00222827
3132.38317383,0.00228833
3134.31198120,0.00224995
3136.24078857,0.00224030
3138.16959595,0.00225984
3140.09840332,0.00224209
3142.02721069,0.00226329
3143.95601807,0.00223957
3145.88482544,0.00224542
3147.81363281,0.00216922
3149.74244019,0.00210536
3151.67124756,0.00217435
3153.60005493,0.00220951
3155.52886230,0.00214522
3157.45766968,0.00223870
3159.38647705,0.00235444
3161.31528442,0.00220772
3163.24409180,0.00217857
3165.17289917,0.00212279
3167.10170654,0.00211459
3169.03051392,0.00216701
3170.95932129,0.00205863
3172.88812866,0.00219248
3174.81693604,0.00224158
3176.74574341,0.00211023
3178.67455078,0.00209054
3180.60335815,0.00215318
3182.53216553,0.00213090
3184.46097290,0.00207917
3186.38978027,0.00215600
3188.31858765,0.00202713
3190.24739502,0.00207536
3192.17620239,0.00215921
3194.10500977,0.00207333
3196.03381714,0.00220488
3197.96262451,0.00204292
3199.89143188,0.00199841
3201.82023926,0.00213072
3203.74904663,0.00200296
3205.67785400,0.00205995
3207.60666138,0.00202164
3209.53546875,0.00199949
3211.46427612,0.00215321
3213.39308350,0.00210422
3215.32189087,0.00207030
3217.25069824,0.00211429
3219.17950562,0.00215954
3221.10831299,0.00211311
3223.03712036,0.00202228
3224.96592773,0.00207674
3226.89473511,0.00209377
3228.82354248,0.00209388
3230.75234985,0.00211244
3232.68115723,0.00206285
3234.60996460,0.00202638
3236.53877197,0.00206555
3238.46757935,0.00206697
3240.39638672,0.00200078
3242.32519409,0.00209876
3244.25400146,0.00209330
3246.18280884,0.00201278
3248.11161621,0.00204079
3250.04042358,0.00198902
3251.96923096,0.00209583
3253.89803833,0.00210084
3255.82684570,0.00205795
3257.75565308,0.00211503
3259.68446045,0.00200603
3261.61326782,0.00208023
3263.54207520,0.00210204
3265.47088257,0.00202792
3267.39968994,0.00208456
3269.32849731,0.00208466
3271.25730469,0.00214345
3273.18611206,0.00214506
3275.11491943,0.00206341
3277.04372681,0.00205499
3278.97253418,0.00209077
3280.90134155,0.00209625
3282.83014893,0.00211947
3284.75895630,0.00212617
3286.68776367,0.00207060
3288.61657104,0.00209835
3290.54537842,0.00210400
3292.47418579,0.00208878
3294.40299316,0.00209136
3296.33180054,0.00212246
3298.26060791,0.00211893
3300.18941528,0.00206629
3302.11822266,0.00208987
3304.04703003,0.00201983
3305.97583740,0.00207970
3307.90464478,0.00212965
3309.83345215,0.00203529
3311.76225952,0.00210734
3313.69106689,0.00207132
3315.61987427,0.00206414
3317.54868164,0.00208719
3319.47748901,0.00208193
3321.40629639,0.00217184
3323.33510376,0.00209615
3325.26391113,0.00206326
3327.19271851,0.00210552
3329.12152588,0.00211650
3331.05033325,0.00213940
3332.97914062,0.00217092
3334.90794800,0.00217331
3336.83675537,0.00211422
3338.76556274,0.00218066
3340.69437012,0.00210606
3342.62317749,0.00204224
3344.55198486,0.00214783
3346.48079224,0.00207618
3348.40959961,0.00211667
3350.33840698,0.00211965
3352.26721436,0.00204915
3354.19602173,0.00217127
3356.12482910,0.00210822
3358.05363647,0.00201196
3359.98244385,0.00213795
3361.91125122,0.00213284
3363.84005859,0.00204146
3365.76886597,0.00212402
3367.69767334,0.00212983
3369.62648071,0.00209644
3371.55528809,0.00210748
3373.48409546,0.00206839
3375.41290283,0.00211543
3377.34171020,0.00207682
3379.27051758,0.00208609
3381.19932495,0.00213366
3383.12813232,0.00209120
3385.05693970,0.00212339
3386.98574707,0.00209666
3388.91455444,0.00220828
3390.84336182,0.00224046
3392.77216919,0.00211847
3394.70097656,0.00213894
3396.62978394,0.00207607
3398.55859131,0.00205232
3400.48739868,0.00208401
3402.41620605,0.00213700
3404.34501343,0.00213352
3406.27382080,0.00211339
3408.20262817,0.00217229
3410.13143555,0.00206003
3412.06024292,0.00209360
3413.98905029,0.00214185
3415.91785767,0.00205442
3417.84666504,0.00208485
3419.77547241,0.00201859
3421.70427979,0.00201799
3423.63308716,0.00204971
3425.56189453,0.00199717
3427.49070190,0.00203642
3429.41950928,0.00204344
3431.34831665,0.00209427
3433.27712402,0.00219332
3435.20593140,0.00215870
3437.13473877,0.00212726
3439.06354614,0.00207291
3440.99235352,0.00196888
3442.92116089,0.00200953
3444.84996826,0.00204410
3446.77877563,0.00202189
3448.70758301,0.00201837
3450.63639038,0.00203543
3452.56519775,0.00208899
3454.49400513,0.00203687
3456.42281250,0.00200113
3458.35161987,0.00202989
3460.28042725,0.00203900
3462.20923462,0.00205920
3464.13804199,0.00198576
3466.06684937,0.00194031
3467.99565674,0.00198372
3469.92446411,0.00197014
3471.85327148,0.00194661
3473.78207886,0.00190783
3475.71088623,0.00196206
3477.63969360,0.00206544
3479.56850098,0.00192007
3481.49730835,0.00190319
3483.42611572,0.00204674
3485.35492310,0.00198155
3487.28373047,0.00195959
3489.21253784,0.00197045
3491.14134521,0.00198933
3493.07015259,0.00202710
3494.99895996,0.00197573
3496.92776733,0.00191803
3498.85657471,0.00191471
3500.78538208,0.00198863
3502.71418945,0.00199897
3504.64299683,0.00196326
3506.57180420,0.00191295
3508.50061157,0.00192529
3510.42941895,0.00197743
3512.35822632,0.00194658
3514.28703369,0.00196540
3516.21584106,0.00198438
3518.14464844,0.00199759
3520.07345581,0.00194144
3522.00226318,0.00194645
3523.93107056,0.00196269
3525.85987793,0.00183149
3527.78868530,0.00185072
3529.71749268,0.00188255
3531.64630005,0.00190747
3533.57510742,0.00189064
3535.50391479,0.00180240
3537.43272217,0.00181781
3539.36152954,0.00189462
3541.29033691,0.00192037
3543.21914429,0.00181667
3545.14795166,0.00183843
3547.07675903,0.00185498
3549.00556641,0.00193733
3550.93437378,0.00200468
3552.86318115,0.00185397
3554.79198853,0.00188558
3556.72079590,0.00190036
3558.64960327,0.00190612
3560.57841064,0.00185330
3562.50721802,0.00182765
3564.43602539,0.00188456
3566.36483276,0.00164513
3568.29364014,0.00168476
3570.22244751,0.00194486
3572.15125488,0.00187525
3574.08006226,0.00183078
3576.00886963,0.00194929
3577.93767700,0.00181039
3579.86648437,0.00175163
3581.79529175,0.00189974
3583.72409912,0.00182098
3585.65290649,0.00176592
3587.58171387,0.00159869
3589.51052124,0.00165565
3591.43932861,0.00187602
3593.36813599,0.00175040
3595.29694336,0.00170811
3597.22575073,0.00174441
3599.15455811,0.00184681
3601.08336548,0.00174418
3603.01217285,0.00165412
3604.94098022,0.00182815
3606.86978760,0.00178653
3608.79859497,0.00161138
3610.72740234,0.00153159
3612.65620972,0.00165216
3614.58501709,0.00168962
3616.51382446,0.00172321
3618.44263184,0.00164004
3620.37143921,0.00159423
3622.30024658,0.00179893
3624.22905395,0.00176700
3626.15786133,0.00176017
3628.08666870,0.00142782
3630.01547607,0.00130463
3631.94428345,0.00169353
3633.87309082,0.00165878
3635.80189819,0.00163503
3637.73070557,0.00171661
3639.65951294,0.00175639
3641.58832031,0.00167407
3643.51712769,0.00166962
3645.44593506,0.00165586
3647.37474243,0.00141879
3649.30354980,0.00135891
3651.23235718,0.00136183
3653.16116455,0.00164869
3655.08997192,0.00161001
3657.01877930,0.00140759
3658.94758667,0.00169185
3660.87639404,0.00173153
3662.80520142,0.00166981
3664.73400879,0.00157265
3666.66281616,0.00167851
3668.59162354,0.00160604
3670.52043091,0.00126588
3672.44923828,0.00149868
3674.37804565,0.00139976
3676.30685303,0.00123526
3678.23566040,0.00152598
3680.16446777,0.00156165
3682.09327515,0.00155271
3684.02208252,0.00162939
3685.95088989,0.00161405
3687.87969727,0.00135147
3689.80850464,0.00123408
3691.73731201,0.00146661
3693.66611938,0.00152180
3695.59492676,0.00152697
3697.52373413,0.00153303
3699.45254150,0.00141953
3701.38134888,0.00135225
3703.31015625,0.00142692
3705.23896362,0.00154633
3707.16777100,0.00147431
3709.09657837,0.00140439
3711.02538574,0.00125174
3712.95419312,0.00119297
3714.88300049,0.00141496
3716.81180786,0.00144527
3718.74061523,0.00146432
3720.66942261,0.00138817
3722.59822998,0.00139505
3724.52703735,0.00143171
3726.45584473,0.00130172
3728.38465210,0.00152973
3730.31345947,0.00143914
3732.24226685,0.00125541
3734.17107422,0.00126609
3736.09988159,0.00111065
3738.02868896,0.00122824
3739.95749634,0.00140108
3741.88630371,0.00145872
3743.81511108,0.00116120
3745.74391846,0.00106935
3747.67272583,0.00133320
3749.60153320,0.00115526
3751.53034058,0.00107770
3753.45914795,0.00117529
3755.38795532,0.00133205
3757.31676270,0.00144173
3759.24557007,0.00129849
3761.17437744,0.00130435
3763.10318481,0.00134295
3765.03199219,0.00128459
3766.96079956,0.00131290
3768.88960693,0.00125989
3770.81841431,0.00120016
3772.74722168,0.00140226
3774.67602905,0.00139622
3776.60483643,0.00132191
3778.53364380,0.00135879
3780.46245117,0.00129504
3782.39125854,0.00137659
3784.32006592,0.00131107
3786.24887329,0.00126576
3788.17768066,0.00135113
3790.10648804,0.00132451
3792.03529541,0.00131405
3793.96410278,0.00132243
3795.89291016,0.00120978
3797.82171753,0.00121781
3799.75052490,0.00130926
3801.67933228,0.00094649
3803.60813965,0.00113216
3805.53694702,0.00129881
3807.46575439,0.00101182
3809.39456177,0.00131583
3811.32336914,0.00125546
3813.25217651,0.00125447
3815.18098389,0.00114653
3817.10979126,0.00101113
3819.03859863,0.00131533
3820.96740601,0.00101607
3822.89621338,0.00117846
3824.82502075,0.00133544
3826.75382812,0.00113231
3828.68263550,0.00124907
3830.61144287,0.00115234
3832.54025024,0.00116357
3834.46905762,0.00117735
3836.39786499,0.00112866
3838.32667236,0.00097221
3840.25547974,0.00104006
3842.18428711,0.00124567
3844.11309448,0.00113028
3846.04190186,0.00122280
3847.97070923,0.00124056
3849.89951660,0.00118118
3851.82832397,0.00101787
3853.75713135,0.00078836
3855.68593872,0.00099876
3857.61474609,0.00119825
3859.54355347,0.00111411
3861.47236084,0.00114112
3863.40116821,0.00115332
3865.32997559,0.00101854
3867.25878296,0.00118446
3869.18759033,0.00107067
3871.11639770,0.00096521
3873.04520508,0.00113171
3874.97401245,0.00094428
3876.90281982,0.00118593
3878.83162720,0.00117577
3880.76043457,0.00096119
3882.68924194,0.00121449
3884.61804932,0.00101957
3886.54685669,0.00100092
3888.47566406,0.00117463
3890.40447144,0.00104453
3892.33327881,0.00103770
3894.26208618,0.00110383
3896.19089355,0.00113081
3898.11970093,0.00106368
3900.04850830,0.00098605
3901.97731567,0.00092992
3903.90612305,0.00092008
3905.83493042,0.00098971
3907.76373779,0.00103838
3909.69254517,0.00107866
3911.62135254,0.00107967
3913.55015991,0.00108846
3915.47896728,0.00113073
3917.40777466,0.00107868
3919.33658203,0.00108301
3921.26538940,0.00114057
3923.19419678,0.00104324
3925.12300415,0.00103168
3927.05181152,0.00106172
3928.98061890,0.00099354
3930.90942627,0.00098370
3932.83823364,0.00103328
3934.76704102,0.00112401
3936.69584839,0.00108130
3938.62465576,0.00100391
3940.55346313,0.00104316
3942.48227051,0.00102374
3944.41107788,0.00102586
3946.33988525,0.00109661
3948.26869263,0.00104431
3950.19750000,0.00095778
3952.12630737,0.00103659
3954.05511475,0.00108755
3955.98392212,0.00103128
3957.91272949,0.00097139
3959.84153687,0.00097608
3961.77034424,0.00102992
3963.69915161,0.00101345
3965.62795898,0.00104166
3967.55676636,0.00107693
3969.48557373,0.00108216
3971.41438110,0.00104710
3973.34318848,0.00096629
3975.27199585,0.00099424
3977.20080322,0.00096049
3979.12961060,0.00092650
3981.05841797,0.00099119
3982.98722534,0.00103229
3984.91603271,0.00107962
3986.84484009,0.00099968
3988.77364746,0.00091557
3990.70245483,0.00100558
3992.63126221,0.00100813
3994.56006958,0.00091907
3996.48887695,0.00097975
3998.41768433,0.00102085
4000.34649170,0.00094217
4002.27529907,0.00094034
4004.20410645,0.00096867
4006.13291382,0.00098754
4008.06172119,0.00097782
4009.99052856,0.00093075
4011.91933594,0.00095926
4013.84814331,0.00098348
4015.77695068,0.00098624
4017.70575806,0.00093562
4019.63456543,0.00085902
4021.56337280,0.00093584
4023.49218018,0.00092598
4025.42098755,0.00086944
4027.34979492,0.00101540
4029.27860229,0.00102488
4031.20740967,0.00087643
4033.13621704,0.00086417
4035.06502441,0.00091887
4036.99383179,0.00099561
4038.92263916,0.00101637
4040.85144653,0.00092850
4042.78025391,0.00097654
4044.70906128,0.00098257
4046.63786865,0.00093850
4048.56667603,0.00100997
4050.49548340,0.00085044
4052.42429077,0.00084797
4054.35309814,0.00098068
4056.28190552,0.00091502
4058.21071289,0.00096063
4060.13952026,0.00089513
4062.06832764,0.00087673
4063.99713501,0.00084973
4065.92594238,0.00081190
4067.85474976,0.00098137
4069.78355713,0.00089444
4071.71236450,0.00089217
4073.64117187,0.00093889
4075.56997925,0.00082180
4077.49878662,0.00086129
4079.42759399,0.00086192
4081.35640137,0.00085438
4083.28520874,0.00088753
4085.21401611,0.00088051
4087.14282349,0.00084890
4089.07163086,0.00086742
4091.00043823,0.00086223
4092.92924561,0.00083863
4094.85805298,0.00089176
4096.78686035,0.00088356
4098.71566772,0.00089454
4100.64447510,0.00084707
4102.57328247,0.00080999
4104.50208984,0.00082465
4106.43089722,0.00084734
4108.35970459,0.00092805
4110.28851196,0.00084285
4112.21731934,0.00079149
4114.14612671,0.00080296
4116.07493408,0.00083339
4118.00374145,0.00084351
4119.93254883,0.00080385
4121.86135620,0.00086039
4123.79016357,0.00078279
4125.71897095,0.00078517
4127.64777832,0.00082679
4129.57658569,0.00083578
4131.50539307,0.00088938
4133.43420044,0.00076114
4135.36300781,0.00078853
4137.29181519,0.00084929
4139.22062256,0.00076792
4141.14942993,0.00078416
4143.07823730,0.00081127
4145.00704468,0.00076766
4146.93585205,0.00076798
4148.86465942,0.00081197
4150.79346680,0.00080800
4152.72227417,0.00083453
4154.65108154,0.00074022
4156.57988892,0.00075540
4158.50869629,0.00081995
4160.43750366,0.00070533
4162.36631103,0.00079597
4164.29511841,0.00081448
4166.22392578,0.00079313
4168.15273315,0.00077240
4170.08154053,0.00071338
4172.01034790,0.00081146
4173.93915527,0.00074518
4175.86796265,0.00071838
4177.79677002,0.00072580
4179.72557739,0.00073170
4181.65438477,0.00077199
4183.58319214,0.00072791
4185.51199951,0.00080314
4187.44080688,0.00077218
4189.36961426,0.00076560
4191.29842163,0.00078780
4193.22722900,0.00073285
4195.15603638,0.00072963
4197.08484375,0.00065065
4199.01365112,0.00071414
4200.94245850,0.00072716
4202.87126587,0.00066737
4204.80007324,0.00076107
4206.72888062,0.00076564
4208.65768799,0.00070814
4210.58649536,0.00073644
4212.51530273,0.00079340
4214.44411011,0.00069417
4216.37291748,0.00070946
4218.30172485,0.00081219
4220.23053223,0.00068613
4222.15933960,0.00071364
4224.08814697,0.00080421
4226.01695435,0.00072678
4227.94576172,0.00069560
4229.87456909,0.00071228
4231.80337646,0.00074108
4233.73218384,0.00072576
4235.66099121,0.00069874
4237.58979858,0.00071063
4239.51860596,0.00068128
4241.44741333,0.00068467
4243.37622070,0.00073320
4245.30502808,0.00072026
4247.23383545,0.00066572
4249.16264282,0.00068462
4251.09145020,0.00074931
4253.02025757,0.00067441
4254.94906494,0.00066191
4256.87787231,0.00072149
4258.80667969,0.00063695
4260.73548706,0.00067363
4262.66429443,0.00069137
4264.59310181,0.00060973
4266.52190918,0.00062680
4268.45071655,0.00063966
4270.37952393,0.00064519
4272.30833130,0.00058889
4274.23713867,0.00060903
4276.16594604,0.00065750
4278.09475342,0.00060366
4280.02356079,0.00059031
4281.95236816,0.00065485
4283.88117554,0.00074395
4285.80998291,0.00057266
4287.73879028,0.00053071
4289.66759766,0.00072450
4291.59640503,0.00066071
4293.52521240,0.00061634
4295.45401978,0.00062487
4297.38282715,0.00061349
4299.31163452,0.00062636
4301.24044189,0.00069375
4303.16924927,0.00075019
4305.09805664,0.00063676
4307.02686401,0.00062306
4308.95567139,0.00061116
4310.88447876,0.00063527
4312.81328613,0.00068661
4314.74209351,0.00060423
4316.67090088,0.00064440
4318.59970825,0.00062877
4320.52851562,0.00062231
4322.45732300,0.00066349
4324.38613037,0.00062138
4326.31493774,0.00061117
4328.24374512,0.00058146
4330.17255249,0.00066976
4332.10135986,0.00065757
4334.03016724,0.00057154
4335.95897461,0.00060299
4337.88778198,0.00052944
4339.81658936,0.00057074
4341.74539673,0.00058137
4343.67420410,0.00051269
4345.60301147,0.00059118
4347.53181885,0.00059234
4349.46062622,0.00058858
4351.38943359,0.00062083
4353.31824097,0.00065120
4355.24704834,0.00065785
4357.17585571,0.00060559
4359.10466309,0.00059088
4361.03347046,0.00060367
4362.96227783,0.00066525
4364.89108520,0.00062234
4366.81989258,0.00058779
4368.74869995,0.00065185
4370.67750732,0.00053490
4372.60631470,0.00048930
4374.53512207,0.00059371
4376.46392944,0.00062094
4378.39273682,0.00058988
4380.32154419,0.00053814
4382.25035156,0.00057566
4384.17915894,0.00062449
4386.10796631,0.00056869
4388.03677368,0.00052601
4389.96558105,0.00052801
4391.89438843,0.00052806
4393.82319580,0.00058906
4395.75200317,0.00066653
4397.68081055,0.00065675
4399.60961792,0.00057144
4401.53842529,0.00054032
4403.46723267,0.00062078
4405.39604004,0.00062534
4407.32484741,0.00059075
4409.25365478,0.00055546
4411.18246216,0.00049181
4413.11126953,0.00048467
4415.04007690,0.00052519
4416.96888428,0.00058278
4418.89769165,0.00051355
4420.82649902,0.00050500
4422.75530640,0.00057567
4424.68411377,0.00052487
4426.61292114,0.00056308
4428.54172852,0.00058337
4430.47053589,0.00051068
4432.39934326,0.00052230
4434.32815063,0.00059123
4436.25695801,0.00057841
4438.18576538,0.00053307
4440.11457275,0.00057030
4442.04338013,0.00056559
4443.97218750,0.00053574
4445.90099487,0.00052354
4447.82980225,0.00051886
4449.75860962,0.00052511
4451.68741699,0.00054971
4453.61622437,0.00056534
4455.54503174,0.00050835
4457.47383911,0.00054058
4459.40264648,0.00060255
4461.33145386,0.00052525
4463.26026123,0.00047927
4465.18906860,0.00053862
4467.11787598,0.00055045
4469.04668335,0.00057197
4470.97549072,0.00055705
4472.90429810,0.00046006
4474.83310547,0.00048207
4476.76191284,0.00050814
4478.69072021,0.00053428
4480.61952759,0.00051431
4482.54833496,0.00048675
4484.47714233,0.00055193
4486.40594971,0.00052149
4488.33475708,0.00055848
4490.26356445,0.00057500
4492.19237183,0.00050576
4494.12117920,0.00048936
4496.04998657,0.00051421
4497.97879395,0.00050405
4499.90760132,0.00046855
4501.83640869,0.00054220
4503.76521606,0.00049514
4505.69402344,0.00048513
4507.62283081,0.00051143
4509.55163818,0.00052394
4511.48044556,0.00053730
4513.40925293,0.00040884
4515.33806030,0.00052343
4517.26686768,0.00051055
4519.19567505,0.00046508
4521.12448242,0.00054458
4523.05328979,0.00046379
4524.98209717,0.00054618
4526.91090454,0.00047031
4528.83971191,0.00043860
4530.76851929,0.00049935
4532.69732666,0.00045342
4534.62613403,0.00050050
4536.55494141,0.00045322
4538.48374878,0.00045825
4540.41255615,0.00045470
4542.34136353,0.00049625
4544.27017090,0.00048182
4546.19897827,0.00041851
4548.12778564,0.00048514
4550.05659302,0.00039367
4551.98540039,0.00041629
4553.91420776,0.00046062
4555.84301514,0.00044337
4557.77182251,0.00048712
4559.70062988,0.00043882
4561.62943726,0.00045118
4563.55824463,0.00048362
4565.48705200,0.00049593
4567.41585937,0.00051077
4569.34466675,0.00048507
4571.27347412,0.00042413
4573.20228149,0.00043996
4575.13108887,0.00042839
4577.05989624,0.00038482
4578.98870361,0.00044082
4580.91751099,0.00038075
4582.84631836,0.00039217
4584.77512573,0.00045771
4586.70393311,0.00042685
4588.63274048,0.00040590
4590.56154785,0.00038680
4592.49035522,0.00040554
4594.41916260,0.00039953
4596.34796997,0.00045544
4598.27677734,0.00043346
4600.20558472,0.00041226
4602.13439209,0.00047809
4604.06319946,0.00043451
4605.99200684,0.00049416
4607.92081421,0.00045834
4609.84962158,0.00038197
4611.77842895,0.00043642
4613.70723633,0.00038467
4615.63604370,0.00041892
4617.56485107,0.00046608
4619.49365845,0.00037924
4621.42246582,0.00037588
4623.35127319,0.00043464
4625.28008057,0.00042326
4627.20888794,0.00045246
4629.13769531,0.00048310
4631.06650269,0.00039466
4632.99531006,0.00039619
4634.92411743,0.00040387
4636.85292480,0.00038351
4638.78173218,0.00048941
4640.71053955,0.00045883
4642.63934692,0.00041670
4644.56815430,0.00042404
4646.49696167,0.00033324
4648.42576904,0.00039160
4650.35457642,0.00039659
4652.28338379,0.00029331
4654.21219116,0.00030306
4656.14099853,0.00038137
4658.06980591,0.00040264
4659.99861328,0.00035475
4661.92742065,0.00042737
4663.85622803,0.00038442
4665.78503540,0.00037016
4667.71384277,0.00042670
4669.64265015,0.00036483
4671.57145752,0.00043317
4673.50026489,0.00036018
4675.42907227,0.00039337
4677.35787964,0.00044823
4679.28668701,0.00034287
4681.21549438,0.00043980
4683.14430176,0.00036156
4685.07310913,0.00038971
4687.00191650,0.00046972
4688.93072388,0.00033567
4690.85953125,0.00035862
4692.78833862,0.00043260
4694.71714600,0.00045506
4696.64595337,0.00033083
4698.57476074,0.00030704
4700.50356812,0.00039362
4702.43237549,0.00039430
4704.36118286,0.00038523
4706.28999023,0.00032192
4708.21879761,0.00038819
4710.14760498,0.00041553
4712.07641235,0.00031566
4714.00521973,0.00029365
4715.93402710,0.00036113
4717.86283447,0.00040730
4719.79164185,0.00036210
4721.72044922,0.00037979
4723.64925659,0.00038672
4725.57806396,0.00042296
4727.50687134,0.00042047
4729.43567871,0.00032749
4731.36448608,0.00033999
4733.29329346,0.00035873
4735.22210083,0.00043195
4737.15090820,0.00040334
4739.07971558,0.00033216
4741.00852295,0.00037938
4742.93733032,0.00035718
4744.86613770,0.00038743
4746.79494507,0.00033302
4748.72375244,0.00034322
4750.65255981,0.00039709
4752.58136719,0.00028948
4754.51017456,0.00043287
4756.43898193,0.00042003
4758.36778931,0.00025761
4760.29659668,0.00031059
4762.22540405,0.00032054
4764.15421143,0.00039960
4766.08301880,0.00036105
4768.01182617,0.00036345
4769.94063354,0.00041273
4771.86944092,0.00029574
4773.79824829,0.00038210
4775.72705566,0.00039869
4777.65586304,0.00041226
4779.58467041,0.00041598
4781.51347778,0.00026705
4783.44228516,0.00031046
4785.37109253,0.00034766
4787.29989990,0.00038615
4789.22870728,0.00038876
4791.15751465,0.00035683
4793.08632202,0.00036113
4795.01512939,0.00033797
4796.94393677,0.00038783
4798.87274414,0.00032163
4800.80155151,0.00031142
4802.73035889,0.00034687
4804.65916626,0.00030666
4806.58797363,0.00033186
4808.51678101,0.00029887
4810.44558838,0.00029271
4812.37439575,0.00032792
4814.30320312,0.00034724
4816.23201050,0.00033685
4818.16081787,0.00033483
4820.08962524,0.00036023
4822.01843262,0.00031329
4823.94723999,0.00027622
4825.87604736,0.00035892
4827.80485474,0.00041733
4829.73366211,0.00031549
4831.66246948,0.00034497
4833.59127686,0.00037101
4835.52008423,0.00028006
4837.44889160,0.00033853
4839.37769897,0.00034045
4841.30650635,0.00029589
4843.23531372,0.00026177
4845.16412109,0.00027074
4847.09292847,0.00033027
4849.02173584,0.00026795
4850.95054321,0.00024645
4852.87935059,0.00032836
4854.80815796,0.00034982
4856.73696533,0.00028684
4858.66577270,0.00029688
4860.59458008,0.00031102
4862.52338745,0.00030229
4864.45219482,0.00033142
4866.38100220,0.00026708
4868.30980957,0.00028028
4870.23861694,0.00036684
4872.16742432,0.00032117
4874.09623169,0.00027276
4876.02503906,0.00030174
4877.95384644,0.00027331
4879.88265381,0.00028562
4881.81146118,0.00035751
4883.74026855,0.00034442
4885.66907593,0.00035372
4887.59788330,0.00030691
4889.52669067,0.00026380
4891.45549805,0.00023616
4893.38430542,0.00021444
4895.31311279,0.00028606
4897.24192017,0.00020264
4899.17072754,0.00023744
4901.09953491,0.00037007
4903.02834228,0.00029102
4904.95714966,0.00027642
4906.88595703,0.00028446
4908.81476440,0.00025991
4910.74357178,0.00031768
4912.67237915,0.00030434
4914.60118652,0.00025724
4916.52999390,0.00035013
4918.45880127,0.00035762
4920.38760864,0.00030527
4922.31641602,0.00030656
4924.24522339,0.00030248
4926.17403076,0.00033216
4928.10283813,0.00023944
4930.03164551,0.00027126
4931.96045288,0.00027621
4933.88926025,0.00017332
4935.81806763,0.00030603
4937.74687500,0.00026767
4939.67568237,0.00022858
4941.60448975,0.00029342
4943.53329712,0.00024914
4945.46210449,0.00024469
4947.39091187,0.00019912
4949.31971924,0.00024550
4951.24852661,0.00030065
4953.17733398,0.00022544
4955.10614136,0.00022222
4957.03494873,0.00024414
4958.96375610,0.00020103
4960.89256348,0.00026532
4962.82137085,0.00029322
4964.75017822,0.00023524
4966.67898560,0.00033138
4968.60779297,0.00029984
4970.53660034,0.00023600
4972.46540771,0.00028489
4974.39421509,0.00026592
4976.32302246,0.00023202
4978.25182983,0.00024046
4980.18063721,0.00034511
4982.10944458,0.00028936
4984.03825195,0.00021821
4985.96705933,0.00029716
4987.89586670,0.00032392
4989.82467407,0.00032799
4991.75348145,0.00029668
4993.68228882,0.00035115
4995.61109619,0.00032629
4997.53990356,0.00022526
4999.46871094,0.00025057
5001.39751831,0.00023100
5003.32632568,0.00020024
5005.25513306,0.00023385
5007.18394043,0.00026164
5009.11274780,0.00021909
5011.04155518,0.00022612
5012.97036255,0.00020880
5014.89916992,0.00020020
5016.82797729,0.00028962
5018.75678467,0.00026556
5020.68559204,0.00026930
5022.61439941,0.00025257
5024.54320679,0.00019966
5026.47201416,0.00020180
5028.40082153,0.00023219
5030.32962891,0.00026172
5032.25843628,0.00023461
5034.18724365,0.00031920
5036.11605103,0.00023813
5038.04485840,0.00017086
5039.97366577,0.00029987
5041.90247314,0.00022520
5043.83128052,0.00021642
5045.76008789,0.00022182
5047.68889526,0.00020001
5049.61770264,0.00029326
5051.54651001,0.00029162
5053.47531738,0.00025478
5055.40412476,0.00020857
5057.33293213,0.00023531
5059.26173950,0.00024908
5061.19054687,0.00016295
5063.11935425,0.00023775
5065.04816162,0.00031302
5066.97696899,0.00025888
5068.90577637,0.00025719
5070.83458374,0.00027439
5072.76339111,0.00028135
5074.69219849,0.00023932
5076.62100586,0.00017993
5078.54981323,0.00025697
5080.47862061,0.00032192
5082.40742798,0.00024900
5084.33623535,0.00020279
5086.26504272,0.00023452
5088.19385010,0.00020717
5090.12265747,0.00019742
5092.05146484,0.00022381
5093.98027222,0.00020648
5095.90907959,0.00020535
5097.83788696,0.00013467
5099.76669434,0.00019325
5101.69550171,0.00026921
5103.62430908,0.00018539
5105.55311645,0.00023156
5107.48192383,0.00023712
5109.41073120,0.00026582
5111.33953857,0.00028227
5113.26834595,0.00019089
5115.19715332,0.00023563
5117.12596069,0.00022253
5119.05476807,0.00017179
5120.98357544,0.00020427
5122.91238281,0.00026333
5124.84119019,0.00025509
5126.76999756,0.00015868
5128.69880493,0.00015854
5130.62761230,0.00023039
5132.55641968,0.00022164
5134.48522705,0.00018658
5136.41403442,0.00022223
5138.34284180,0.00019359
5140.27164917,0.00020683
5142.20045654,0.00022148
5144.12926392,0.00013579
5146.05807129,0.00020864
5147.98687866,0.00024699
5149.91568603,0.00019609
5151.84449341,0.00021741
5153.77330078,0.00019686
5155.70210815,0.00016360
5157.63091553,0.00022403
5159.55972290,0.00025757
5161.48853027,0.00020323
5163.41733765,0.00018430
5165.34614502,0.00016567
5167.27495239,0.00019576
5169.20375977,0.00022678
5171.13256714,0.00019142
5173.06137451,0.00015648
5174.99018188,0.00016711
5176.91898926,0.00018941
5178.84779663,0.00016402
5180.77660400,0.00023801
5182.70541138,0.00019330
5184.63421875,0.00015765
5186.56302612,0.00021656
5188.49183350,0.00012729
5190.42064087,0.00019544
5192.34944824,0.00020436
5194.27825562,0.00019404
5196.20706299,0.00027517
5198.13587036,0.00020309
5200.06467773,0.00021287
5201.99348511,0.00026002
5203.92229248,0.00026246
5205.85109985,0.00018881
5207.77990723,0.00013283
5209.70871460,0.00019968
5211.63752197,0.00025468
5213.56632935,0.00021084
5215.49513672,0.00013044
5217.42394409,0.00015046
5219.35275146,0.00016311
5221.28155884,0.00023489
5223.21036621,0.00023294
5225.13917358,0.00018221
5227.06798096,0.00021074
5228.99678833,0.00016734
5230.92559570,0.00025892
5232.85440308,0.00020981
5234.78321045,0.00011623
5236.71201782,0.00020971
5238.64082520,0.00020856
5240.56963257,0.00024759
5242.49843994,0.00020933
5244.42724731,0.00014692
5246.35605469,0.00019840
5248.28486206,0.00017215
5250.21366943,0.00011684
5252.14247681,0.00015864
5254.07128418,0.00018307
5256.00009155,0.00015809
5257.92889893,0.00024314
5259.85770630,0.00019824
5261.78651367,0.00008878
5263.71532104,0.00015583
5265.64412842,0.00017416
5267.57293579,0.00015049
5269.50174316,0.00017329
5271.43055054,0.00019442
5273.35935791,0.00019256
5275.28816528,0.00016478
5277.21697266,0.00017388
5279.14578003,0.00016959
5281.07458740,0.00011693
5283.00339478,0.00018019
5284.93220215,0.00020784
5286.86100952,0.00017877
5288.78981689,0.00023529
5290.71862427,0.00016940
5292.64743164,0.00018007
5294.57623901,0.00024400
5296.50504639,0.00017790
5298.43385376,0.00017565
5300.36266113,0.00019051
5302.29146851,0.00020527
5304.22027588,0.00016994
5306.14908325,0.00015643
5308.07789062,0.00018848
5310.00669800,0.00016794
5311.93550537,0.00020132
5313.86431274,0.00019692
5315.79312012,0.00013114
5317.72192749,0.00009081
5319.65073486,0.00009527
5321.57954224,0.00014033
5323.50834961,0.00014624
5325.43715698,0.00013821
5327.36596436,0.00021382
5329.29477173,0.00022667
5331.22357910,0.00015494
5333.15238647,0.00019265
5335.08119385,0.00018329
5337.01000122,0.00013742
5338.93880859,0.00019028
5340.86761597,0.00017105
5342.79642334,0.00011598
5344.72523071,0.00015151
5346.65403809,0.00010699
5348.58284546,0.00004370
5350.51165283,0.00013228
5352.44046020,0.00016006
5354.36926758,0.00017403
5356.29807495,0.00020663
5358.22688232,0.00021486
5360.15568970,0.00021259
5362.08449707,0.00008929
5364.01330444,0.00008648
5365.94211182,0.00015809
5367.87091919,0.00014905
5369.79972656,0.00013551
5371.72853394,0.00013260
5373.65734131,0.00018398
5375.58614868,0.00017255
5377.51495605,0.00016182
5379.44376343,0.00015525
5381.37257080,0.00011143
5383.30137817,0.00014903
5385.23018555,0.00018079
5387.15899292,0.00016335
5389.08780029,0.00019193
5391.01660767,0.00017974
5392.94541504,0.00006200
5394.87422241,0.00009541
5396.80302978,0.00018413
5398.73183716,0.00018575
5400.66064453,0.00021848
5402.58945190,0.00018387
5404.51825928,0.00013984
5406.44706665,0.00012527
5408.37587402,0.00012763
5410.30468140,0.00013581
5412.23348877,0.00006865
5414.16229614,0.00007556
5416.09110352,0.00013447
5418.01991089,0.00008938
5419.94871826,0.00011177
5421.87752563,0.00015884
5423.80633301,0.00014676
5425.73514038,0.00018282
5427.66394775,0.00013901
5429.59275513,0.00016612
5431.52156250,0.00017841
5433.45036987,0.00011347
5435.37917725,0.00015578
5437.30798462,0.00009961
5439.23679199,0.00014387
5441.16559936,0.00013903
5443.09440674,0.00013158
5445.02321411,0.00022676
5446.95202148,0.00014073
5448.88082886,0.00021825
5450.80963623,0.00015052
5452.73844360,0.00009275
5454.66725098,0.00021883
5456.59605835,0.00013469
5458.52486572,0.00013809
5460.45367310,0.00011897
5462.38248047,0.00013728
5464.31128784,0.00016090
5466.24009521,0.00013013
5468.16890259,0.00013572
5470.09770996,0.00007273
5472.02651733,0.00012634
5473.95532471,0.00015682
5475.88413208,0.00014094
5477.81293945,0.00008481
5479.74174683,0.00012200
5481.67055420,0.00016940
5483.59936157,0.00008145
5485.52816895,0.00013819
5487.45697632,0.00011326
5489.38578369,0.00011919
5491.31459106,0.00012836
5493.24339844,0.00010081
5495.17220581,0.00019502
5497.10101318,0.00016824
5499.02982056,0.00009955
5500.95862793,0.00009847
5502.88743530,0.00022659
5504.81624268,0.00017117
5506.74505005,0.00008147
5508.67385742,0.00014611
5510.60266479,0.00007736
5512.53147217,0.00018277
5514.46027954,0.00017918
5516.38908691,0.00011225
5518.31789429,0.00014893
5520.24670166,0.00003393
5522.17550903,0.00013231
5524.10431641,0.00017822
5526.03312378,0.00012219
5527.96193115,0.00018327
5529.89073853,0.00013946
5531.81954590,0.00013321
5533.74835327,0.00013794
5535.67716064,0.00012981
5537.60596802,0.00014737
5539.53477539,0.00013342
5541.46358276,0.00012065
5543.39239014,0.00010462
5545.32119751,0.00014689
5547.25000488,0.00012250
5549.17881226,0.00009843
5551.10761963,0.00018808
5553.03642700,0.00013497
5554.96523437,0.00005661
5556.89404175,0.00008926
5558.82284912,0.00013736
5560.75165649,0.00013946
5562.68046387,0.00010276
5564.60927124,0.00012174
5566.53807861,0.00011032
5568.46688599,0.00011462
5570.39569336,0.00008740
5572.32450073,0.00010037
5574.25330811,0.00017229
5576.18211548,0.00006983
5578.11092285,0.00009796
5580.03973022,0.00017083
5581.96853760,0.00015129
5583.89734497,0.00012740
5585.82615234,0.00007403
5587.75495972,0.00011916
5589.68376709,0.00007403
5591.61257446,0.00011321
5593.54138184,0.00020879
5595.47018921,0.00013240
5597.39899658,0.00010179
5599.32780395,0.00009399
5601.25661133,0.00008530
5603.18541870,0.00006939
5605.11422607,0.00006142
5607.04303345,0.00003826
5608.97184082,0.00010119
5610.90064819,0.00017546
5612.82945557,0.00006735
5614.75826294,0.00010220
5616.68707031,0.00016631
5618.61587769,0.00013451
5620.54468506,0.00013285
5622.47349243,0.00007325
5624.40229980,0.00005565
5626.33110718,0.00005266
5628.25991455,0.00008930
5630.18872192,0.00012915
5632.11752930,0.00007337
5634.04633667,0.00010529
5635.97514404,0.00012096
5637.90395142,0.00003678
5639.83275879,0.00009971
5641.76156616,0.00017368
5643.69037353,0.00007771
5645.61918091,0.00007041
5647.54798828,0.00009403
5649.47679565,0.00006072
5651.40560303,0.00010744
5653.33441040,0.00012331
5655.26321777,0.00019116
5657.19202515,0.00020948
5659.12083252,0.00008027
5661.04963989,0.00009587
5662.97844727,0.00010803
5664.90725464,0.00009374
5666.83606201,0.00014936
5668.76486938,0.00010373
5670.69367676,0.00008954
5672.62248413,0.00009126
5674.55129150,0.00008919
5676.48009888,0.00017318
5678.40890625,0.00016935
5680.33771362,0.00010015
5682.26652100,0.00005506
5684.19532837,0.00008197
5686.12413574,0.00013909
5688.05294311,0.00010390
5689.98175049,0.00009644
5691.91055786,0.00010875
5693.83936523,0.00009203
5695.76817261,0.00012024
5697.69697998,0.00012815
5699.62578735,0.00009565
5701.55459473,0.00009471
5703.48340210,0.00008721
5705.41220947,0.00003792
5707.34101685,0.00007908
5709.26982422,0.00015687
5711.19863159,0.00010728
5713.12743896,0.00006677
5715.05624634,0.00009656
5716.98505371,0.00008247
5718.91386108,0.00009836
5720.84266846,0.00013513
5722.77147583,0.00010392
5724.70028320,0.00011798
5726.62909058,0.00014534
5728.55789795,0.00011216
5730.48670532,0.00010185
5732.41551270,0.00012361
5734.34432007,0.00010809
5736.27312744,0.00011497
5738.20193481,0.00012620
5740.13074219,0.00003220
5742.05954956,0.00007747
5743.98835693,0.00013698
5745.91716431,0.00007900
5747.84597168,0.00011619
5749.77477905,0.00009531
5751.70358643,0.00011920
5753.63239380,0.00010152
5755.56120117,0.00001837
5757.49000854,0.00009838
5759.41881592,0.00005544
5761.34762329,0.00002371
5763.27643066,0.00008170
5765.20523804,0.00003275
5767.13404541,0.00007759
5769.06285278,0.00015791
5770.99166016,0.00012285
5772.92046753,0.00010560
5774.84927490,0.00015976
5776.77808228,0.00012862
5778.70688965,0.00007033
5780.63569702,0.00011287
5782.56450439,0.00011190
5784.49331177,0.00011192
5786.42211914,0.00006188
5788.35092651,-0.00000835
5790.27973389,0.00011068
5792.20854126,0.00010530
5794.13734863,0.00007226
5796.06615601,0.00016060
5797.99496338,0.00008801
5799.92377075,0.00005945
5801.85257812,0.00007123
5803.78138550,0.00009866
5805.71019287,0.00014573
5807.63900024,0.00006836
5809.56780762,0.00006948
5811.49661499,0.00006206
5813.42542236,0.00005251
5815.35422974,0.00011485
5817.28303711,0.00009937
5819.21184448,0.00007514
5821.14065186,0.00007256
5823.06945923,0.00006655
5824.99826660,0.00007085
5826.92707397,0.00011090
5828.85588135,0.00009241
5830.78468872,0.00009183
5832.71349609,0.00011757
5834.64230347,0.00003463
5836.57111084,0.00006538
5838.49991821,0.00008042
5840.42872559,0.00001955
5842.35753296,0.00008140
5844.28634033,0.00011584
5846.21514770,0.00009065
5848.14395508,0.00006461
5850.07276245,0.00010940
5852.00156982,0.00015671
5853.93037720,0.00011565
5855.85918457,0.00008647
5857.78799194,0.00007962
5859.71679932,0.00009198
5861.64560669,0.00007279
5863.57441406,0.00006187
5865.50322144,0.00008132
5867.43202881,0.00004760
5869.36083618,0.00005520
5871.28964355,0.00007383
5873.21845093,0.00006638
5875.14725830,0.00014302
5877.07606567,0.00015570
5879.00487305,0.00009086
5880.93368042,0.00010718
5882.86248779,0.00006924
5884.79129517,0.00004082
5886.72010254,0.00011216
5888.64890991,0.00011445
5890.57771728,0.00008435
5892.50652466,0.00008966
5894.43533203,0.00011067
5896.36413940,0.00008899
5898.29294678,0.00005033
5900.22175415,0.00004809
5902.15056152,0.00005252
5904.07936890,0.00011788
5906.00817627,0.00009507
5907.93698364,0.00001748
5909.86579102,0.00005962
5911.79459839,0.00003200
5913.72340576,0.00001164
5915.65221313,0.00005622
5917.58102051,0.00007172
5919.50982788,0.00010395
5921.43863525,0.00007682
5923.36744263,0.00007113
5925.29625000,0.00008230
5927.22505737,0.00007364
5929.15386475,0.00013618
5931.08267212,0.00010538
5933.01147949,0.00002951
5934.94028686,0.00009591
5936.86909424,0.00014803
5938.79790161,0.00007735
5940.72670898,0.00008923
5942.65551636,0.00016573
5944.58432373,0.00012085
5946.51313110,0.00007627
5948.44193848,0.00006685
5950.37074585,0.00005320
5952.29955322,0.00005898
5954.22836060,0.00008985
5956.15716797,0.00007288
5958.08597534,-0.00001174
5960.01478271,0.00001084
5961.94359009,0.00012076
5963.87239746,0.00011950
5965.80120483,0.00002823
5967.73001221,0.00006968
5969.65881958,0.00013248
5971.58762695,0.00011738
5973.51643433,0.00008370
5975.44524170,0.00003987
5977.37404907,0.00009842
5979.30285645,0.00003694
5981.23166382,-0.00003266
5983.16047119,0.00004197
5985.08927856,0.00004434
5987.01808594,0.00009826
5988.94689331,0.00007597
5990.87570068,0.00002072
5992.80450806,0.00008253
5994.73331543,0.00012300
5996.66212280,0.00012220
5998.59093018,0.00003197
6000.51973755,0.00001961
