399.26312622,0.00088736
401.19193359,0.00087742
403.12074097,0.00061877
405.04954834,0.00080965
406.97835571,0.00053910
408.90716309,0.00047628
410.83597046,0.00113593
412.76477783,0.00118897
414.69358521,0.00123217
416.62239258,0.00068665
418.55119995,0.00046639
420.48000732,0.00109555
422.40881470,0.00128324
424.33762207,0.00115496
426.26642944,0.00119874
428.19523682,0.00203887
430.12404419,0.00187775
432.05285156,0.00110096
433.98165894,0.00123911
435.91046631,0.00111371
437.83927368,0.00112731
439.76808105,0.00127262
441.69688843,0.00107843
443.62569580,0.00105158
445.55450317,0.00103946
447.48331055,0.00069598
449.41211792,0.00093451
451.34092529,0.00130104
453.26973267,0.00110417
455.19854004,0.00110686
457.12734741,0.00065180
459.05615479,0.00067509
460.98496216,0.00092815
462.91376953,0.00072367
464.84257690,0.00090064
466.77138428,0.00063667
468.70019165,0.00054701
470.62899902,0.00065021
472.55780640,0.00066228
474.48661377,0.00061859
476.41542114,0.00052125
478.34422852,0.00027882
480.27303589,0.00013665
482.20184326,0.00066009
484.13065063,-0.00000806
486.05945801,0.00007997
487.98826538,0.00040789
489.91707275,-0.00020692
491.84588013,0.00047037
493.77468750,0.00013422
495.70349487,-0.00013272
497.63230225,0.00048431
499.56110962,0.00064593
501.48991699,0.00017641
503.41872437,-0.00017954
505.34753174,0.00033362
507.27633911,0.00041384
509.20514648,0.00029115
511.13395386,0.00022292
513.06276123,0.00017285
514.99156860,-0.00001731
516.92037598,0.00015118
518.84918335,0.00037855
520.77799072,0.00046151
522.70679810,0.00053166
524.63560547,0.00037545
526.56441284,0.00023960
528.49322021,-0.00035870
530.42202759,0.00023629
532.35083496,0.00055672
534.27964233,0.00011043
536.20844971,0.00035282
538.13725708,0.00012941
540.06606445,0.00023566
541.99487183,0.00007332
543.92367920,0.00011374
545.85248657,0.00045392
547.78129395,0.00038009
549.71010132,0.00036995
551.63890869,0.00033055
553.56771606,0.00056197
555.49652344,0.00026139
557.42533081,0.00046707
559.35413818,0.00055243
561.28294556,0.00014487
563.21175293,0.00043810
565.14056030,0.00000745
567.06936768,0.00002789
568.99817505,0.00028278
570.92698242,0.00014666
572.85578979,0.00048201
574.78459717,0.00026836
576.71340454,0.00013269
578.64221191,0.00031827
580.57101929,0.00031372
582.49982666,-0.00010673
584.42863403,-0.00044783
586.35744141,0.00029661
588.28624878,0.00057790
590.21505615,0.00013652
592.14386353,0.00010776
594.07267090,0.00037529
596.00147827,0.00056309
597.93028564,0.00024383
599.85909302,-0.00010790
601.78790039,0.00022766
603.71670776,0.00033747
605.64551514,0.00033188
607.57432251,0.00038004
609.50312988,0.00022765
611.43193726,0.00020409
613.36074463,0.00028703
615.28955200,0.00043784
617.21835938,-0.00000656
619.14716675,-0.00006063
621.07597412,-0.00004419
623.00478149,-0.00010938
624.93358887,-0.00021486
626.86239624,-0.00006474
628.79120361,-0.00004371
630.72001099,-0.00017722
632.64881836,0.00071177
634.57762573,0.00102513
636.50643311,0.00098052
638.43524048,0.00120372
640.36404785,0.00084819
642.29285522,0.00114423
644.22166260,0.00135928
646.15046997,0.00123915
648.07927734,0.00153116
650.00808472,0.00167921
651.93689209,0.00164082
653.86569946,0.00134856
655.79450684,0.00171939
657.72331421,0.00198881
659.65212158,0.00158998
661.58092896,0.00195238
663.50973633,0.00208505
665.43854370,0.00197994
667.36735107,0.00221253
669.29615845,0.00210051
671.22496582,0.00220029
673.15377319,0.00244364
675.08258057,0.00237092
677.01138794,0.00233906
678.94019531,0.00247758
680.86900269,0.00267020
682.79781006,0.00279025
684.72661743,0.00270955
686.65542480,0.00256886
688.58423218,0.00240813
690.51303955,0.00255627
692.44184692,0.00296642
694.37065430,0.00303331
696.29946167,0.00347159
698.22826904,0.00384070
700.15707642,0.00383404
702.08588379,0.00408267
704.01469116,0.00363695
705.94349854,0.00311944
707.87230591,0.00274197
709.80111328,0.00200689
711.72992065,0.00160195
713.65872803,0.00106934
715.58753540,0.00047041
717.51634277,0.00041393
719.44515015,0.00053453
721.37395752,0.00019664
723.30276489,-0.00011667
725.23157227,-0.00017268
727.16037964,-0.00020131
729.08918701,0.00012018
731.01799438,0.00007296
732.94680176,0.00009437
734.87560913,0.00046263
736.80441650,0.00040957
738.73322388,0.00013023
740.66203125,0.00007889
742.59083862,0.00027530
744.51964600,0.00034307
746.44845337,0.00035514
748.37726074,0.00011562
750.30606812,0.00016733
752.23487549,0.00039794
754.16368286,0.00032162
756.09249023,0.00060443
758.02129761,0.00029060
759.95010498,0.00017730
761.87891235,0.00049548
763.80771973,0.00010518
765.73652710,0.00009081
767.66533447,0.00018233
769.59414185,0.00054624
771.52294922,0.00059670
773.45175659,0.00006852
775.38056396,0.00028537
777.30937134,0.00030282
779.23817871,0.00023442
781.16698608,0.00029586
783.09579346,0.00025909
785.02460083,0.00030155
786.95340820,0.00036882
788.88221558,0.00059289
790.81102295,0.00033195
792.73983032,0.00022425
794.66863770,0.00005099
796.59744507,0.00009189
798.52625244,0.00044786
800.45505981,0.00035605
802.38386719,0.00031483
804.31267456,0.00032245
806.24148193,0.00044974
808.17028931,0.00051686
810.09909668,0.00040592
812.02790405,0.00035896
813.95671143,0.00047999
815.88551880,0.00028742
817.81432617,0.00029510
819.74313354,0.00057955
821.67194092,0.00043834
823.60074829,0.00040649
825.52955566,0.00009281
827.45836304,0.00024991
829.38717041,0.00079807
831.31597778,0.00058640
833.24478516,0.00075209
835.17359253,0.00087210
837.10239990,0.00075329
839.03120728,0.00084805
840.96001465,0.00064486
842.88882202,0.00066484
844.81762939,0.00078065
846.74643677,0.00068716
848.67524414,0.00057195
850.60405151,0.00034908
852.53285889,0.00055062
854.46166626,0.00068710
856.39047363,0.00034158
858.31928101,0.00032969
860.24808838,0.00036256
862.17689575,0.00049679
864.10570313,0.00041986
866.03451050,0.00021355
867.96331787,0.00047777
869.89212524,0.00030112
871.82093262,0.00044754
873.74973999,0.00052507
875.67854736,0.00063711
877.60735474,0.00068219
879.53616211,0.00014206
881.46496948,0.00043811
883.39377686,0.00038356
885.32258423,0.00036534
887.25139160,0.00033332
889.18019897,0.00024984
891.10900635,0.00069942
893.03781372,0.00032802
894.96662109,0.00055752
896.89542847,0.00062908
898.82423584,0.00029601
900.75304321,0.00045438
902.68185059,0.00053170
904.61065796,0.00074636
906.53946533,0.00031511
908.46827271,0.00031417
910.39708008,0.00041844
912.32588745,0.00048143
914.25469482,0.00055065
916.18350220,0.00036709
918.11230957,0.00071090
920.04111694,0.00062945
921.96992432,0.00077403
923.89873169,0.00075229
925.82753906,0.00075467
927.75634644,0.00110701
929.68515381,0.00100992
931.61396118,0.00109278
933.54276855,0.00105612
935.47157593,0.00106549
937.40038330,0.00097760
939.32919067,0.00110920
941.25799805,0.00126443
943.18680542,0.00112780
945.11561279,0.00121263
947.04442017,0.00093008
948.97322754,0.00103527
950.90203491,0.00120635
952.83084229,0.00131743
954.75964966,0.00148211
956.68845703,0.00126754
958.61726440,0.00131115
960.54607178,0.00123582
962.47487915,0.00115000
964.40368652,0.00111796
966.33249390,0.00141109
968.26130127,0.00156488
970.19010864,0.00131495
972.11891602,0.00133116
974.04772339,0.00130716
975.97653076,0.00171656
977.90533813,0.00182927
979.83414551,0.00188563
981.76295288,0.00216512
983.69176025,0.00219348
985.62056763,0.00261400
987.54937500,0.00268451
989.47818237,0.00288447
991.40698975,0.00318659
993.33579712,0.00348593
995.26460449,0.00398967
997.19341187,0.00414927
999.12221924,0.00464726
1001.05102661,0.00495025
1002.97983398,0.00526117
1004.90864136,0.00574129
1006.83744873,0.00598350
1008.76625610,0.00642992
1010.69506348,0.00673696
1012.62387085,0.00699151
1014.55267822,0.00734423
1016.48148560,0.00782472
1018.41029297,0.00818569
1020.33910034,0.00849349
1022.26790771,0.00881662
1024.19671509,0.00913114
1026.12552246,0.00958679
1028.05432983,0.00976855
1029.98313721,0.01018865
1031.91194458,0.01039600
1033.84075195,0.01043370
1035.76955933,0.01086811
1037.69836670,0.01073280
1039.62717407,0.01063952
1041.55598145,0.01079495
1043.48478882,0.01070683
1045.41359619,0.01060891
1047.34240356,0.01026869
1049.27121094,0.01002455
1051.20001831,0.01014161
1053.12882568,0.01006426
1055.05763306,0.00984280
1056.98644043,0.00953809
1058.91524780,0.00912193
1060.84405518,0.00907688
1062.77286255,0.00878642
1064.70166992,0.00832203
1066.63047729,0.00821677
1068.55928467,0.00778111
1070.48809204,0.00728029
1072.41689941,0.00711890
1074.34570679,0.00693047
1076.27451416,0.00647863
1078.20332153,0.00611050
1080.13212891,0.00579803
1082.06093628,0.00551625
1083.98974365,0.00546536
1085.91855103,0.00514273
1087.84735840,0.00489041
1089.77616577,0.00458164
1091.70497314,0.00420164
1093.63378052,0.00434606
1095.56258789,0.00419906
1097.49139526,0.00389092
1099.42020264,0.00390543
1101.34901001,0.00378147
1103.27781738,0.00364539
1105.20662476,0.00353082
1107.13543213,0.00345560
1109.06423950,0.00364195
1110.99304687,0.00351790
1112.92185425,0.00330393
1114.85066162,0.00344572
1116.77946899,0.00335460
1118.70827637,0.00336924
1120.63708374,0.00363942
1122.56589111,0.00372624
1124.49469849,0.00364361
1126.42350586,0.00361139
1128.35231323,0.00379155
1130.28112061,0.00388924
1132.20992798,0.00385002
1134.13873535,0.00391217
1136.06754272,0.00414098
1137.99635010,0.00437905
1139.92515747,0.00469418
1141.85396484,0.00483561
1143.78277222,0.00511867
1145.71157959,0.00563388
1147.64038696,0.00561077
1149.56919434,0.00607268
1151.49800171,0.00654151
1153.42680908,0.00662466
1155.35561646,0.00703931
1157.28442383,0.00711761
1159.21323120,0.00749676
1161.14203857,0.00782628
1163.07084595,0.00806666
1164.99965332,0.00857451
1166.92846069,0.00876977
1168.85726807,0.00897676
1170.78607544,0.00916996
1172.71488281,0.00976076
1174.64369019,0.01010751
1176.57249756,0.01017763
1178.50130493,0.01062747
1180.43011230,0.01102947
1182.35891968,0.01174959
1184.28772705,0.01219095
1186.21653442,0.01250412
1188.14534180,0.01319345
1190.07414917,0.01380109
1192.00295654,0.01443027
1193.93176392,0.01502256
1195.86057129,0.01566622
1197.78937866,0.01625594
1199.71818604,0.01689478
1201.64699341,0.01772282
1203.57580078,0.01855301
1205.50460815,0.01934417
1207.43341553,0.01992055
1209.36222290,0.02053541
1211.29103027,0.02129871
1213.21983765,0.02180986
1215.14864502,0.02220105
1217.07745239,0.02263966
1219.00625977,0.02300744
1220.93506714,0.02350423
1222.86387451,0.02376325
1224.79268188,0.02384028
1226.72148926,0.02408147
1228.65029663,0.02416086
1230.57910400,0.02437352
1232.50791138,0.02454272
1234.43671875,0.02439598
1236.36552612,0.02425120
1238.29433350,0.02427904
1240.22314087,0.02419190
1242.15194824,0.02394696
1244.08075562,0.02388055
1246.00956299,0.02361554
1247.93837036,0.02371787
1249.86717773,0.02378308
1251.79598511,0.02316444
1253.72479248,0.02297030
1255.65359985,0.02277032
1257.58240723,0.02254556
1259.51121460,0.02228836
1261.44002197,0.02172168
1263.36882935,0.02167204
1265.29763672,0.02140068
1267.22644409,0.02096413
1269.15525146,0.02081818
1271.08405884,0.02027074
1273.01286621,0.01986638
1274.94167358,0.01955342
1276.87048096,0.01912415
1278.79928833,0.01891557
1280.72809570,0.01852527
1282.65690308,0.01813722
1284.58571045,0.01778288
1286.51451782,0.01745914
1288.44332520,0.01731059
1290.37213257,0.01718472
1292.30093994,0.01703437
1294.22974731,0.01666762
1296.15855469,0.01656897
1298.08736206,0.01658539
1300.01616943,0.01668144
1301.94497681,0.01691550
1303.87378418,0.01676740
1305.80259155,0.01699519
1307.73139893,0.01732209
1309.66020630,0.01752517
1311.58901367,0.01775996
1313.51782104,0.01792972
1315.44662842,0.01858881
1317.37543579,0.01889174
1319.30424316,0.01915389
1321.23305054,0.02003936
1323.16185791,0.02064178
1325.09066528,0.02113741
1327.01947266,0.02185479
1328.94828003,0.02237208
1330.87708740,0.02283388
1332.80589478,0.02340040
1334.73470215,0.02377881
1336.66350952,0.02398446
1338.59231689,0.02359313
1340.52112427,0.02390860
1342.44993164,0.02507099
1344.37873901,0.02509108
1346.30754639,0.02509540
1348.23635376,0.02494974
1350.16516113,0.02491824
1352.09396851,0.02511166
1354.02277588,0.02425901
1355.95158325,0.02410316
1357.88039062,0.02414453
1359.80919800,0.02379708
1361.73800537,0.02250108
1363.66681274,0.02207030
1365.59562012,0.02364185
1367.52442749,0.02262903
1369.45323486,0.02252432
1371.38204224,0.02322550
1373.31084961,0.02176031
1375.23965698,0.02208846
1377.16846436,0.02225408
1379.09727173,0.02238668
1381.02607910,0.02269265
1382.95488647,0.02245642
1384.88369385,0.02244125
1386.81250122,0.02092823
1388.74130859,0.02150294
1390.67011597,0.02367294
1392.59892334,0.02267442
1394.52773071,0.02119133
1396.45653809,0.02237989
1398.38534546,0.02209318
1400.31415283,0.02208264
1402.24296021,0.02425001
1404.17176758,0.02262749
1406.10057495,0.02262928
1408.02938232,0.02367834
1409.95818970,0.02291454
1411.88699707,0.02333840
1413.81580444,0.02252479
1415.74461182,0.02316587
1417.67341919,0.02010024
1419.60222656,0.01777578
1421.53103394,0.02123229
1423.45984131,0.02030431
1425.38864868,0.01984436
1427.31745605,0.02025725
1429.24626343,0.01865459
1431.17507080,0.01812923
1433.10387817,0.01842735
1435.03268555,0.01677769
1436.96149292,0.01385427
1438.89030029,0.01614752
1440.81910767,0.01667089
1442.74791504,0.01537999
1444.67672241,0.01645422
1446.60552979,0.01480183
1448.53433716,0.01493468
1450.46314453,0.01570839
1452.39195190,0.01582526
1454.32075928,0.01609551
1456.24956665,0.01301467
1458.17837402,0.01359450
1460.10718140,0.01871674
1462.03598877,0.02016745
1463.96479614,0.01962122
1465.89360352,0.02032968
1467.82241089,0.02360329
1469.75121826,0.02519301
1471.68002563,0.02169211
1473.60883301,0.02312404
1475.53764038,0.02659492
1477.46644775,0.02850524
1479.39525513,0.03178187
1481.32406250,0.03198788
1483.25286987,0.03402352
1485.18167725,0.03495292
1487.11048462,0.03384817
1489.03929199,0.03341456
1490.96809937,0.03353585
1492.89690674,0.04010183
1494.82571411,0.03862779
1496.75452148,0.03372910
1498.68332886,0.03898520
1500.61213623,0.04031016
1502.54094360,0.04357535
1504.46975098,0.04031872
1506.39855835,0.02740635
1508.32736572,0.03516303
1510.25617310,0.04218263
1512.18498047,0.04060758
1514.11378784,0.04458788
1516.04259521,0.03928467
1517.97140259,0.04125736
1519.90020996,0.03955964
1521.82901733,0.03310066
1523.75782471,0.04221906
1525.68663208,0.04131982
1527.61543945,0.04114951
1529.54424683,0.04649412
1531.47305420,0.04421806
1533.40186157,0.03968579
1535.33066895,0.04261614
1537.25947632,0.04613364
1539.18828369,0.03084030
1541.11709106,0.03257125
1543.04589844,0.04042369
1544.97470581,0.03849038
1546.90351318,0.04706826
1548.83232056,0.04332033
1550.76112793,0.04485833
1552.68993530,0.04440841
1554.61874268,0.03960784
1556.54755005,0.04283738
1558.47635742,0.02778752
1560.40516479,0.03108397
1562.33397217,0.04731719
1564.26277954,0.04398961
1566.19158691,0.04551247
1568.12039429,0.04470848
1570.04920166,0.03883371
1571.97800903,0.04624967
1573.90681641,0.04658716
1575.83562378,0.03551360
1577.76443115,0.04126266
1579.69323853,0.04737101
1581.62204590,0.04511262
1583.55085327,0.04641593
1585.47966064,0.04564132
1587.40846802,0.04601603
1589.33727539,0.04540370
1591.26608276,0.04536343
1593.19489014,0.04549494
1595.12369751,0.04497696
1597.05250488,0.04547020
1598.98131226,0.04517033
1600.91011963,0.04548089
1602.83892700,0.04429997
1604.76773437,0.04546395
1606.69654175,0.04470473
1608.62534912,0.04453102
1610.55415649,0.04456563
1612.48296387,0.04489936
1614.41177124,0.04557939
1616.34057861,0.03593641
1618.26938599,0.03989759
1620.19819336,0.04757920
1622.12700073,0.04113149
1624.05580811,0.04149705
1625.98461548,0.04416594
1627.91342285,0.04372947
1629.84223022,0.04368230
1631.77103760,0.04745156
1633.69984497,0.04274867
1635.62865234,0.03399630
1637.55745972,0.04100900
1639.48626709,0.04608785
1641.41507446,0.04497531
1643.34388184,0.04632173
1645.27268921,0.04091026
1647.20149658,0.03480385
1649.13030396,0.04533512
1651.05911133,0.04259222
1652.98791870,0.02496913
1654.91672607,0.03670390
1656.84553345,0.04767991
1658.77434082,0.04542589
1660.70314819,0.04663120
1662.63195557,0.04164231
1664.56076294,0.04453517
1666.48957031,0.04819994
1668.41837769,0.04083588
1670.34718506,0.03954076
1672.27599243,0.04594655
1674.20479980,0.04151855
1676.13360718,0.03960779
1678.06241455,0.04682647
1679.99122192,0.04475950
1681.92002930,0.04386084
1683.84883667,0.03410709
1685.77764404,0.03434369
1687.70645142,0.04931901
1689.63525879,0.04165991
1691.56406616,0.04687967
1693.49287354,0.04735138
1695.42168091,0.03288431
1697.35048828,0.04239989
1699.27929565,0.03568725
1701.20810303,0.03170622
1703.13691040,0.04605667
1705.06571777,0.04126691
1706.99452515,0.04193796
1708.92333252,0.04624287
1710.85213989,0.04410218
1712.78094727,0.04508543
1714.70975464,0.04098643
1716.63856201,0.03618705
1718.56736938,0.03562304
1720.49617676,0.04357877
1722.42498413,0.04562506
1724.35379150,0.04176101
1726.28259888,0.04633629
1728.21140625,0.04221744
1730.14021362,0.04250258
1732.06902100,0.04120430
1733.99782837,0.02976293
1735.92663574,0.03919601
1737.85544312,0.04386691
1739.78425049,0.03816774
1741.71305786,0.04223892
1743.64186523,0.04277243
1745.57067261,0.04285464
1747.49947998,0.04308453
1749.42828735,0.04076529
1751.35709473,0.03868216
1753.28590210,0.04390312
1755.21470947,0.04610181
1757.14351685,0.04128715
1759.07232422,0.04645658
1761.00113159,0.04294384
1762.92993896,0.04144480
1764.85874634,0.04867066
1766.78755371,0.04281077
1768.71636108,0.04324556
1770.64516846,0.04273579
1772.57397583,0.03790329
1774.50278320,0.04328592
1776.43159058,0.04614837
1778.36039795,0.04541329
1780.28920532,0.04450966
1782.21801270,0.04512571
1784.14682007,0.04490493
1786.07562744,0.04386226
1788.00443481,0.04690354
1789.93324219,0.04524876
1791.86204956,0.03996954
1793.79085693,0.04222153
1795.71966431,0.04597973
1797.64847168,0.04506011
1799.57727905,0.04415080
1801.50608643,0.04330959
1803.43489380,0.04505064
1805.36370117,0.04631235
1807.29250854,0.04544154
1809.22131592,0.04555588
1811.15012329,0.04417517
1813.07893066,0.04590186
1815.00773804,0.04630374
1816.93654541,0.04558832
1818.86535278,0.04595023
1820.79416016,0.04586200
1822.72296753,0.04650429
1824.65177490,0.04274407
1826.58058228,0.04470883
1828.50938965,0.04462843
1830.43819702,0.04140022
1832.36700439,0.04604093
1834.29581177,0.04558819
1836.22461914,0.04555231
1838.15342651,0.04528293
1840.08223389,0.04569396
1842.01104126,0.04565337
1843.93984863,0.03937095
1845.86865601,0.04287127
1847.79746338,0.04555685
1849.72627075,0.04432441
1851.65507812,0.04609133
1853.58388550,0.04497010
1855.51269287,0.04545933
1857.44150024,0.04501581
1859.37030762,0.04478988
1861.29911499,0.04515452
1863.22792236,0.04460773
1865.15672974,0.04512553
1867.08553711,0.04304246
1869.01434448,0.04109233
1870.94315186,0.04311424
1872.87195923,0.04505886
1874.80076660,0.04421227
1876.72957397,0.04447227
1878.65838135,0.04441252
1880.58718872,0.04400619
1882.51599609,0.04440917
1884.44480347,0.04354792
1886.37361084,0.04434403
1888.30241821,0.04311914
1890.23122559,0.04206795
1892.16003296,0.04409451
1894.08884033,0.04324265
1896.01764771,0.04297742
1897.94645508,0.04358199
1899.87526245,0.04328764
1901.80406982,0.04339860
1903.73287720,0.04310339
1905.66168457,0.04341437
1907.59049194,0.04279551
1909.51929932,0.04238672
1911.44810669,0.04266594
1913.37691406,0.04285142
1915.30572144,0.04341240
1917.23452881,0.04089603
1919.16333618,0.04096804
1921.09214355,0.04297680
1923.02095093,0.04120903
1924.94975830,0.04225069
1926.87856567,0.04275492
1928.80737305,0.04201328
1930.73618042,0.04271282
1932.66498779,0.04201290
1934.59379517,0.04239173
1936.52260254,0.04199402
1938.45140991,0.04219359
1940.38021729,0.04206710
1942.30902466,0.04039822
1944.23783203,0.04144562
1946.16663940,0.04185898
1948.09544678,0.04171357
1950.02425415,0.04184810
1951.95306152,0.04170912
1953.88186890,0.04179471
1955.81067627,0.04135104
1957.73948364,0.04161360
1959.66829102,0.04159491
1961.59709839,0.04140928
1963.52590576,0.04156925
1965.45471313,0.04113468
1967.38352051,0.04061395
1969.31232788,0.04108901
1971.24113525,0.04142281
1973.16994263,0.04103936
1975.09875000,0.04115088
1977.02755737,0.04084405
1978.95636475,0.04091310
1980.88517212,0.04089247
1982.81397949,0.04066022
1984.74278687,0.04084496
1986.67159424,0.04041591
1988.60040161,0.04052582
1990.52920898,0.03988943
1992.45801636,0.03936016
1994.38682373,0.04015084
1996.31563110,0.04012386
1998.24443848,0.03996708
2000.17324585,0.03998040
2002.10205322,0.03977289
2004.03086060,0.03961292
2005.95966797,0.03956583
2007.88847534,0.03950100
2009.81728271,0.03934081
2011.74609009,0.03926636
2013.67489746,0.03922489
2015.60370483,0.03878491
2017.53251221,0.03846443
2019.46131958,0.03886395
2021.39012695,0.03878886
2023.31893433,0.03853624
2025.24774170,0.03845748
2027.17654907,0.03833037
2029.10535645,0.03836036
2031.03416382,0.03823958
2032.96297119,0.03818425
2034.89177856,0.03794945
2036.82058594,0.03786395
2038.74939331,0.03779271
2040.67820068,0.03747293
2042.60700806,0.03742557
2044.53581543,0.03743462
2046.46462280,0.03740124
2048.39343018,0.03726181
2050.32223755,0.03719532
2052.25104492,0.03705152
2054.17985229,0.03696002
2056.10865967,0.03692711
2058.03746704,0.03663430
2059.96627441,0.03653036
2061.89508179,0.03661024
2063.82388916,0.03641474
2065.75269653,0.03607030
2067.68150391,0.03615591
2069.61031128,0.03606334
2071.53911865,0.03598212
2073.46792603,0.03609471
2075.39673340,0.03584932
2077.32554077,0.03583989
2079.25434814,0.03570551
2081.18315552,0.03558029
2083.11196289,0.03563041
2085.04077026,0.03555378
2086.96957764,0.03546602
2088.89838501,0.03532064
2090.82719238,0.03523862
2092.75599976,0.03508503
2094.68480713,0.03507220
2096.61361450,0.03496891
2098.54242187,0.03481884
2100.47122925,0.03471678
2102.40003662,0.03473983
2104.32884399,0.03486349
2106.25765137,0.03457697
2108.18645874,0.03460249
2110.11526611,0.03459406
2112.04407349,0.03438707
2113.97288086,0.03433907
2115.90168823,0.03420738
2117.83049561,0.03426116
2119.75930298,0.03425846
2121.68811035,0.03422416
2123.61691772,0.03411170
2125.54572510,0.03399733
2127.47453247,0.03394350
2129.40333984,0.03387130
2131.33214722,0.03382824
2133.26095459,0.03377955
2135.18976196,0.03380228
2137.11856934,0.03363394
2139.04737671,0.03360792
2140.97618408,0.03352404
2142.90499146,0.03336883
2144.83379883,0.03348897
2146.76260620,0.03351753
2148.69141357,0.03344031
2150.62022095,0.03327221
2152.54902832,0.03328280
2154.47783569,0.03323194
2156.40664307,0.03317002
2158.33545044,0.03324655
2160.26425781,0.03318626
2162.19306519,0.03311080
2164.12187256,0.03300875
2166.05067993,0.03309793
2167.97948730,0.03299539
2169.90829468,0.03281011
2171.83710205,0.03287395
2173.76590942,0.03282864
2175.69471680,0.03281617
2177.62352417,0.03277555
2179.55233154,0.03269457
2181.48113892,0.03274812
2183.40994629,0.03267084
2185.33875366,0.03250305
2187.26756104,0.03265069
2189.19636841,0.03248917
2191.12517578,0.03232489
2193.05398315,0.03256080
2194.98279053,0.03240050
2196.91159790,0.03236673
2198.84040527,0.03233087
2200.76921265,0.03221726
2202.69802002,0.03234693
2204.62682739,0.03223643
2206.55563477,0.03201798
2208.48444214,0.03203715
2210.41324951,0.03212056
2212.34205688,0.03194350
2214.27086426,0.03197447
2216.19967163,0.03202734
2218.12847900,0.03201962
2220.05728638,0.03193786
2221.98609375,0.03176629
2223.91490112,0.03189866
2225.84370850,0.03170544
2227.77251587,0.03178963
2229.70132324,0.03189723
2231.63013062,0.03161323
2233.55893799,0.03160565
2235.48774536,0.03156172
2237.41655273,0.03161157
2239.34536011,0.03152858
2241.27416748,0.03157608
2243.20297485,0.03154614
2245.13178223,0.03126925
2247.06058960,0.03134311
2248.98939697,0.03136821
2250.91820435,0.03134631
2252.84701172,0.03120044
2254.77581909,0.03109764
2256.70462646,0.03111210
2258.63343384,0.03112571
2260.56224121,0.03104775
2262.49104858,0.03095123
2264.41985596,0.03108951
2266.34866333,0.03100523
2268.27747070,0.03092739
2270.20627808,0.03080925
2272.13508545,0.03074120
2274.06389282,0.03082727
2275.99270020,0.03081283
2277.92150757,0.03090234
2279.85031494,0.03084553
2281.77912231,0.03072429
2283.70792969,0.03057933
2285.63673706,0.03066859
2287.56554443,0.03060591
2289.49435181,0.03030662
2291.42315918,0.03042920
2293.35196655,0.03032011
2295.28077393,0.03017601
2297.20958130,0.03018453
2299.13838867,0.03005890
2301.06719604,0.02995057
2302.99600342,0.02990724
2304.92481079,0.02977550
2306.85361816,0.02950892
2308.78242554,0.02947845
2310.71123291,0.02930670
2312.64004028,0.02890681
2314.56884766,0.02856152
2316.49765503,0.02835359
2318.42646240,0.02809140
2320.35526978,0.02761345
2322.28407715,0.02729197
2324.21288452,0.02703137
2326.14169189,0.02676195
2328.07049927,0.02641351
2329.99930664,0.02617672
2331.92811401,0.02609360
2333.85692139,0.02594835
2335.78572876,0.02581517
2337.71453613,0.02575428
2339.64334351,0.02586304
2341.57215088,0.02594183
2343.50095825,0.02619990
2345.42976562,0.02657105
2347.35857300,0.02750638
2349.28738037,0.02836541
2351.21618774,0.02749301
2353.14499512,0.02628293
2355.07380249,0.02543831
2357.00260986,0.02466697
2358.93141724,0.02427419
2360.86022461,0.02402431
2362.78903198,0.02393489
2364.71783936,0.02409299
2366.64664673,0.02443228
2368.57545410,0.02470402
2370.50426147,0.02530291
2372.43306885,0.02594701
2374.36187622,0.02655475
2376.29068359,0.02733209
2378.21949097,0.02762502
2380.14829834,0.02799284
2382.07710571,0.02841626
2384.00591309,0.02859767
2385.93472046,0.02871601
2387.86352783,0.02873565
2389.79233521,0.02871301
2391.72114258,0.02860634
2393.64994995,0.02860529
2395.57875732,0.02847911
2397.50756470,0.02851809
2399.43637207,0.02858596
2401.36517944,0.02843591
2403.29398682,0.02847068
2405.22279419,0.02832991
2407.15160156,0.02824487
2409.08040894,0.02825483
2411.00921631,0.02826734
2412.93802368,0.02829186
2414.86683105,0.02815477
2416.79563843,0.02813514
2418.72444580,0.02812754
2420.65325317,0.02816593
2422.58206055,0.02802926
2424.51086792,0.02788570
2426.43967529,0.02800406
2428.36848267,0.02787222
2430.29729004,0.02784596
2432.22609741,0.02794901
2434.15490479,0.02791950
2436.08371216,0.02786534
2438.01251953,0.02774447
2439.94132690,0.02774109
2441.87013428,0.02765293
2443.79894165,0.02764237
2445.72774902,0.02774972
2447.65655640,0.02753972
2449.58536377,0.02742022
2451.51417114,0.02742575
2453.44297852,0.02735790
2455.37178589,0.02739011
2457.30059326,0.02741830
2459.22940063,0.02737205
2461.15820801,0.02728370
2463.08701538,0.02724787
2465.01582275,0.02725037
2466.94463013,0.02723299
2468.87343750,0.02718138
2470.80224487,0.02712630
2472.73105225,0.02706439
2474.65985962,0.02703462
2476.58866699,0.02707140
2478.51747437,0.02697476
2480.44628174,0.02692174
2482.37508911,0.02691898
2484.30389648,0.02690584
2486.23270386,0.02685921
2488.16151123,0.02670376
2490.09031860,0.02676255
2492.01912598,0.02669959
2493.94793335,0.02657867
2495.87674072,0.02664777
2497.80554810,0.02659657
2499.73435547,0.02656478
2501.66316284,0.02655315
2503.59197021,0.02656237
2505.52077759,0.02645859
2507.44958496,0.02635741
2509.37839233,0.02642067
2511.30719971,0.02637513
2513.23600708,0.02631257
2515.16481445,0.02621541
2517.09362183,0.02619709
2519.02242920,0.02624355
2520.95123657,0.02615796
2522.88004395,0.02611782
2524.80885132,0.02604835
2526.73765869,0.02604044
2528.66646606,0.02608483
2530.59527344,0.02589765
2532.52408081,0.02593246
2534.45288818,0.02593818
2536.38169556,0.02564947
2538.31050293,0.02579529
2540.23931030,0.02576552
2542.16811768,0.02566085
2544.09692505,0.02580236
2546.02573242,0.02556596
2547.95453979,0.02560043
2549.88334717,0.02560454
2551.81215454,0.02542449
2553.74096191,0.02551429
2555.66976929,0.02544557
2557.59857666,0.02533175
2559.52738403,0.02532922
2561.45619141,0.02537904
2563.38499878,0.02532352
2565.31380615,0.02535812
2567.24261353,0.02528858
2569.17142090,0.02509552
2571.10022827,0.02521334
2573.02903564,0.02517070
2574.95784302,0.02511352
2576.88665039,0.02502465
2578.81545776,0.02491725
2580.74426514,0.02501576
2582.67307251,0.02490058
2584.60187988,0.02483667
2586.53068726,0.02485814
2588.45949463,0.02476832
2590.38830200,0.02470386
2592.31710937,0.02474332
2594.24591675,0.02478249
2596.17472412,0.02464761
2598.10353149,0.02452104
2600.03233887,0.02456282
2601.96114624,0.02455810
2603.88995361,0.02444141
2605.81876099,0.02444966
2607.74756836,0.02436003
2609.67637573,0.02428146
2611.60518311,0.02432473
2613.53399048,0.02420602
2615.46279785,0.02414777
2617.39160522,0.02414442
2619.32041260,0.02411185
2621.24921997,0.02407929
2623.17802734,0.02410591
2625.10683472,0.02409328
2627.03564209,0.02399439
2628.96444946,0.02393392
2630.89325684,0.02380034
2632.82206421,0.02376181
2634.75087158,0.02379100
2636.67967895,0.02379341
2638.60848633,0.02370299
2640.53729370,0.02355849
2642.46610107,0.02356628
2644.39490845,0.02358807
2646.32371582,0.02352930
2648.25252319,0.02339491
2650.18133057,0.02342286
2652.11013794,0.02344508
2654.03894531,0.02333577
2655.96775269,0.02326144
2657.89656006,0.02316256
2659.82536743,0.02321909
2661.75417480,0.02324673
2663.68298218,0.02313959
2665.61178955,0.02305385
2667.54059692,0.02300273
2669.46940430,0.02296327
2671.39821167,0.02303727
2673.32701904,0.02303338
2675.25582642,0.02283507
2677.18463379,0.02283869
2679.11344116,0.02269229
2681.04224854,0.02262913
2682.97105591,0.02271700
2684.89986328,0.02255883
2686.82867065,0.02251530
2688.75747803,0.02239905
2690.68628540,0.02239861
2692.61509277,0.02244025
2694.54390015,0.02239875
2696.47270752,0.02240531
2698.40151489,0.02230597
2700.33032227,0.02232544
2702.25912964,0.02218357
2704.18793701,0.02202586
2706.11674438,0.02200578
2708.04555176,0.02202982
2709.97435913,0.02199036
2711.90316650,0.02178214
2713.83197388,0.02186012
2715.76078125,0.02190363
2717.68958862,0.02181298
2719.61839600,0.02172230
2721.54720337,0.02162049
2723.47601074,0.02155370
2725.40481812,0.02143588
2727.33362549,0.02152548
2729.26243286,0.02143868
2731.19124023,0.02130695
2733.12004761,0.02137746
2735.04885498,0.02127155
2736.97766235,0.02123222
2738.90646973,0.02115589
2740.83527710,0.02100076
2742.76408447,0.02099518
2744.69289185,0.02095594
2746.62169922,0.02086819
2748.55050659,0.02087230
2750.47931396,0.02091636
2752.40812134,0.02087111
2754.33692871,0.02075600
2756.26573608,0.02069365
2758.19454346,0.02069282
2760.12335083,0.02064830
2762.05215820,0.02049027
2763.98096558,0.02036624
2765.90977295,0.02043369
2767.83858032,0.02037730
2769.76738770,0.02019569
2771.69619507,0.02011636
2773.62500244,0.02007883
2775.55380981,0.02010496
2777.48261719,0.02007114
2779.41142456,0.02004363
2781.34023193,0.01993039
2783.26903931,0.01981761
2785.19784668,0.01984382
2787.12665405,0.01970655
2789.05546143,0.01971200
2790.98426880,0.01970680
2792.91307617,0.01953142
2794.84188354,0.01949516
2796.77069092,0.01939281
2798.69949829,0.01928887
2800.62830566,0.01928272
2802.55711304,0.01929665
2804.48592041,0.01927311
2806.41472778,0.01919793
2808.34353516,0.01909111
2810.27234253,0.01902113
2812.20114990,0.01898198
2814.12995728,0.01884500
2816.05876465,0.01876928
2817.98757202,0.01871429
2819.91637939,0.01868012
2821.84518677,0.01862516
2823.77399414,0.01848353
2825.70280151,0.01846846
2827.63160889,0.01837017
2829.56041626,0.01831514
2831.48922363,0.01837636
2833.41803101,0.01825821
2835.34683838,0.01818352
2837.27564575,0.01810470
2839.20445312,0.01789815
2841.13326050,0.01779633
2843.06206787,0.01772807
2844.99087524,0.01757800
2846.91968262,0.01747634
2848.84848999,0.01741649
2850.77729736,0.01737805
2852.70610474,0.01739925
2854.63491211,0.01743329
2856.56371948,0.01740334
2858.49252686,0.01725608
2860.42133423,0.01719216
2862.35014160,0.01723294
2864.27894897,0.01719496
2866.20775635,0.01707464
2868.13656372,0.01691964
2870.06537109,0.01689544
2871.99417847,0.01683392
2873.92298584,0.01669978
2875.85179321,0.01673388
2877.78060059,0.01664163
2879.70940796,0.01651442
2881.63821533,0.01656557
2883.56702270,0.01655349
2885.49583008,0.01645336
2887.42463745,0.01628480
2889.35344482,0.01622869
2891.28225220,0.01621110
2893.21105957,0.01599522
2895.13986694,0.01587868
2897.06867432,0.01589579
2898.99748169,0.01586911
2900.92628906,0.01585225
2902.85509644,0.01578420
2904.78390381,0.01569270
2906.71271118,0.01572103
2908.64151855,0.01561714
2910.57032593,0.01542755
2912.49913330,0.01542984
2914.42794067,0.01526273
2916.35674805,0.01514542
2918.28555542,0.01521573
2920.21436279,0.01507425
2922.14317017,0.01503446
2924.07197754,0.01505152
2926.00078491,0.01500927
2927.92959229,0.01499748
2929.85839966,0.01492466
2931.78720703,0.01498276
2933.71601440,0.01495554
2935.64482178,0.01483490
2937.57362915,0.01482942
2939.50243652,0.01470340
2941.43124390,0.01463907
2943.36005127,0.01467855
2945.28885864,0.01456343
2947.21766602,0.01447949
2949.14647339,0.01445134
2951.07528076,0.01430894
2953.00408813,0.01423379
2954.93289551,0.01426924
2956.86170288,0.01413352
2958.79051025,0.01398673
2960.71931763,0.01398632
2962.64812500,0.01391156
2964.57693237,0.01392896
2966.50573975,0.01387358
2968.43454712,0.01363922
2970.36335449,0.01373226
2972.29216187,0.01381710
2974.22096924,0.01361943
2976.14977661,0.01353295
2978.07858398,0.01352623
2980.00739136,0.01348573
2981.93619873,0.01349749
2983.86500610,0.01345771
2985.79381348,0.01336273
2987.72262085,0.01336353
2989.65142822,0.01322816
2991.58023560,0.01311080
2993.50904297,0.01312284
2995.43785034,0.01299676
2997.36665771,0.01299542
2999.29546509,0.01293561
3001.22427246,0.01274409
3003.15307983,0.01273870
3005.08188721,0.01271439
3007.01069458,0.01260184
3008.93950195,0.01252599
3010.86830933,0.01247700
3012.79711670,0.01238503
3014.72592407,0.01239161
3016.65473145,0.01234741
3018.58353882,0.01216129
3020.51234619,0.01213961
3022.44115356,0.01210408
3024.36996094,0.01203888
3026.29876831,0.01203176
3028.22757568,0.01199315
3030.15638306,0.01190598
3032.08519043,0.01175844
3034.01399780,0.01168671
3035.94280518,0.01165946
3037.87161255,0.01167873
3039.80041992,0.01167669
3041.72922729,0.01159690
3043.65803467,0.01151680
3045.58684204,0.01143607
3047.51564941,0.01139810
3049.44445679,0.01126737
3051.37326416,0.01125349
3053.30207153,0.01128586
3055.23087891,0.01106823
3057.15968628,0.01105557
3059.08849365,0.01106041
3061.01730103,0.01094507
3062.94610840,0.01097120
3064.87491577,0.01079781
3066.80372314,0.01069952
3068.73253052,0.01078957
3070.66133789,0.01072328
3072.59014526,0.01068081
3074.51895264,0.01064949
3076.44776001,0.01061717
3078.37656738,0.01058489
3080.30537476,0.01049711
3082.23418213,0.01045417
3084.16298950,0.01042344
3086.09179687,0.01034740
3088.02060425,0.01027145
3089.94941162,0.01032454
3091.87821899,0.01031592
3093.80702637,0.01018823
3095.73583374,0.01017194
3097.66464111,0.01017576
3099.59344849,0.01012296
3101.52225586,0.01006963
3103.45106323,0.01000885
3105.37987061,0.00991981
3107.30867798,0.00991048
3109.23748535,0.00985070
3111.16629272,0.00973732
3113.09510010,0.00972491
3115.02390747,0.00969434
3116.95271484,0.00969899
3118.88152222,0.00963561
3120.81032959,0.00961315
3122.73913696,0.00963052
3124.66794434,0.00956913
3126.59675171,0.00955369
3128.52555908,0.00949803
3130.45436645,0.00950140
3132.38317383,0.00939810
3134.31198120,0.00938764
3136.24078857,0.00941102
3138.16959595,0.00926318
3140.09840332,0.00927633
3142.02721069,0.00924508
3143.95601807,0.00930096
3145.88482544,0.00919250
3147.81363281,0.00911956
3149.74244019,0.00921145
3151.67124756,0.00907321
3153.60005493,0.00916874
3155.52886230,0.00907855
3157.45766968,0.00901092
3159.38647705,0.00902536
3161.31528442,0.00890397
3163.24409180,0.00897547
3165.17289917,0.00889264
3167.10170654,0.00896739
3169.03051392,0.00896119
3170.95932129,0.00888800
3172.88812866,0.00882904
3174.81693604,0.00873709
3176.74574341,0.00887951
3178.67455078,0.00870476
3180.60335815,0.00872980
3182.53216553,0.00878696
3184.46097290,0.00863878
3186.38978027,0.00875602
3188.31858765,0.00872290
3190.24739502,0.00867960
3192.17620239,0.00876468
3194.10500977,0.00877226
3196.03381714,0.00857097
3197.96262451,0.00860502
3199.89143188,0.00872023
3201.82023926,0.00862457
3203.74904663,0.00865523
3205.67785400,0.00859771
3207.60666138,0.00862042
3209.53546875,0.00857072
3211.46427612,0.00858250
3213.39308350,0.00866933
3215.32189087,0.00860065
3217.25069824,0.00860947
3219.17950562,0.00846990
3221.10831299,0.00851352
3223.03712036,0.00850566
3224.96592773,0.00853571
3226.89473511,0.00864400
3228.82354248,0.00840608
3230.75234985,0.00846850
3232.68115723,0.00852100
3234.60996460,0.00843796
3236.53877197,0.00844025
3238.46757935,0.00848975
3240.39638672,0.00855566
3242.32519409,0.00844028
3244.25400146,0.00843121
3246.18280884,0.00845719
3248.11161621,0.00848297
3250.04042358,0.00849980
3251.96923096,0.00854467
3253.89803833,0.00848744
3255.82684570,0.00844156
3257.75565308,0.00859838
3259.68446045,0.00840693
3261.61326782,0.00840468
3263.54207520,0.00854857
3265.47088257,0.00850395
3267.39968994,0.00854487
3269.32849731,0.00842671
3271.25730469,0.00853592
3273.18611206,0.00852193
3275.11491943,0.00835099
3277.04372681,0.00852470
3278.97253418,0.00852305
3280.90134155,0.00852375
3282.83014893,0.00858948
3284.75895630,0.00852520
3286.68776367,0.00853188
3288.61657104,0.00851048
3290.54537842,0.00852520
3292.47418579,0.00853890
3294.40299316,0.00856731
3296.33180054,0.00859688
3298.26060791,0.00844020
3300.18941528,0.00853790
3302.11822266,0.00861924
3304.04703003,0.00840391
3305.97583740,0.00852706
3307.90464478,0.00863703
3309.83345215,0.00854051
3311.76225952,0.00854572
3313.69106689,0.00851879
3315.61987427,0.00857128
3317.54868164,0.00861459
3319.47748901,0.00854462
3321.40629639,0.00856014
3323.33510376,0.00850911
3325.26391113,0.00847122
3327.19271851,0.00863102
3329.12152588,0.00863045
3331.05033325,0.00858222
3332.97914062,0.00857787
3334.90794800,0.00852234
3336.83675537,0.00854237
3338.76556274,0.00849040
3340.69437012,0.00854136
3342.62317749,0.00858062
3344.55198486,0.00856734
3346.48079224,0.00865005
3348.40959961,0.00861540
3350.33840698,0.00863265
3352.26721436,0.00865328
3354.19602173,0.00861508
3356.12482910,0.00856448
3358.05363647,0.00859334
3359.98244385,0.00868839
3361.91125122,0.00865325
3363.84005859,0.00865416
3365.76886597,0.00868685
3367.69767334,0.00868120
3369.62648071,0.00865116
3371.55528809,0.00870167
3373.48409546,0.00873189
3375.41290283,0.00873710
3377.34171020,0.00872811
3379.27051758,0.00862918
3381.19932495,0.00880525
3383.12813232,0.00882304
3385.05693970,0.00867237
3386.98574707,0.00870822
3388.91455444,0.00866815
3390.84336182,0.00870456
3392.77216919,0.00868619
3394.70097656,0.00864944
3396.62978394,0.00873886
3398.55859131,0.00880142
3400.48739868,0.00875964
3402.41620605,0.00871261
3404.34501343,0.00881038
3406.27382080,0.00883880
3408.20262817,0.00878254
3410.13143555,0.00882345
3412.06024292,0.00887934
3413.98905029,0.00881470
3415.91785767,0.00887589
3417.84666504,0.00891961
3419.77547241,0.00880768
3421.70427979,0.00881308
3423.63308716,0.00888145
3425.56189453,0.00897442
3427.49070190,0.00885652
3429.41950928,0.00887443
3431.34831665,0.00900647
3433.27712402,0.00893738
3435.20593140,0.00899242
3437.13473877,0.00899091
3439.06354614,0.00903659
3440.99235352,0.00890985
3442.92116089,0.00883551
3444.84996826,0.00894263
3446.77877563,0.00875380
3448.70758301,0.00889698
3450.63639038,0.00903285
3452.56519775,0.00893232
3454.49400513,0.00897343
3456.42281250,0.00897438
3458.35161987,0.00905022
3460.28042725,0.00901113
3462.20923462,0.00893618
3464.13804199,0.00899919
3466.06684937,0.00895648
3467.99565674,0.00899781
3469.92446411,0.00911533
3471.85327148,0.00902745
3473.78207886,0.00897850
3475.71088623,0.00899946
3477.63969360,0.00903546
3479.56850098,0.00902382
3481.49730835,0.00891943
3483.42611572,0.00901059
3485.35492310,0.00904851
3487.28373047,0.00903846
3489.21253784,0.00904682
3491.14134521,0.00908726
3493.07015259,0.00916076
3494.99895996,0.00902727
3496.92776733,0.00904088
3498.85657471,0.00913142
3500.78538208,0.00910058
3502.71418945,0.00891964
3504.64299683,0.00901636
3506.57180420,0.00930577
3508.50061157,0.00903034
3510.42941895,0.00895187
3512.35822632,0.00919461
3514.28703369,0.00927826
3516.21584106,0.00927648
3518.14464844,0.00923790
3520.07345581,0.00921728
3522.00226318,0.00911176
3523.93107056,0.00910638
3525.85987793,0.00907273
3527.78868530,0.00901707
3529.71749268,0.00910447
3531.64630005,0.00927759
3533.57510742,0.00935327
3535.50391479,0.00923745
3537.43272217,0.00924710
3539.36152954,0.00931759
3541.29033691,0.00934422
3543.21914429,0.00932609
3545.14795166,0.00906560
3547.07675903,0.00886475
3549.00556641,0.00927132
3550.93437378,0.00937699
3552.86318115,0.00907003
3554.79198853,0.00926436
3556.72079590,0.00937458
3558.64960327,0.00938891
3560.57841064,0.00923358
3562.50721802,0.00922350
3564.43602539,0.00930018
3566.36483276,0.00849539
3568.29364014,0.00830039
3570.22244751,0.00923803
3572.15125488,0.00959281
3574.08006226,0.00933199
3576.00886963,0.00940477
3577.93767700,0.00930046
3579.86648437,0.00929121
3581.79529175,0.00945530
3583.72409912,0.00933893
3585.65290649,0.00914605
3587.58171387,0.00830027
3589.51052124,0.00862570
3591.43932861,0.00955354
3593.36813599,0.00920612
3595.29694336,0.00901280
3597.22575073,0.00912858
3599.15455811,0.00939528
3601.08336548,0.00927394
3603.01217285,0.00938964
3604.94098022,0.00975610
3606.86978760,0.00923065
3608.79859497,0.00860612
3610.72740234,0.00882836
3612.65620972,0.00896980
3614.58501709,0.00870205
3616.51382446,0.00955396
3618.44263184,0.00869594
3620.37143921,0.00828693
3622.30024658,0.00960184
3624.22905395,0.00936373
3626.15786133,0.01001239
3628.08666870,0.00817540
3630.01547607,0.00726782
3631.94428345,0.00967340
3633.87309082,0.00936232
3635.80189819,0.00959524
3637.73070557,0.00986273
3639.65951294,0.00963076
3641.58832031,0.00965364
3643.51712769,0.00964033
3645.44593506,0.00981977
3647.37474243,0.00859765
3649.30354980,0.00778233
3651.23235718,0.00784995
3653.16116455,0.00975822
3655.08997192,0.00966111
3657.01877930,0.00851975
3658.94758667,0.01012219
3660.87639404,0.00989812
3662.80520142,0.01017768
3664.73400879,0.00999116
3666.66281616,0.00997491
3668.59162354,0.00977184
3670.52043091,0.00757476
3672.44923828,0.00967719
3674.37804565,0.00919451
3676.30685303,0.00730858
3678.23566040,0.00953281
3680.16446777,0.00986344
3682.09327515,0.01002882
3684.02208252,0.01026021
3685.95088989,0.01018921
3687.87969727,0.00915576
3689.80850464,0.00815849
3691.73731201,0.00956704
3693.66611938,0.01001097
3695.59492676,0.01026977
3697.52373413,0.01027819
3699.45254150,0.01019140
3701.38134888,0.00982969
3703.31015625,0.00944105
3705.23896362,0.01059414
3707.16777100,0.01001016
3709.09657837,0.00970690
3711.02538574,0.00895132
3712.95419312,0.00835580
3714.88300049,0.01023118
3716.81180786,0.01008435
3718.74061523,0.01011069
3720.66942261,0.00988436
3722.59822998,0.00944490
3724.52703735,0.00977502
3726.45584473,0.00908269
3728.38465210,0.00998616
3730.31345947,0.00981905
3732.24226685,0.00892732
3734.17107422,0.00861331
3736.09988159,0.00809060
3738.02868896,0.00870643
3739.95749634,0.00956183
3741.88630371,0.01001579
3743.81511108,0.00741029
3745.74391846,0.00693201
3747.67272583,0.00950818
3749.60153320,0.00800539
3751.53034058,0.00728004
3753.45914795,0.00854600
3755.38795532,0.00919316
3757.31676270,0.00963907
3759.24557007,0.00875321
3761.17437744,0.00918736
3763.10318481,0.00998273
3765.03199219,0.00913429
3766.96079956,0.00943336
3768.88960693,0.00917291
3770.81841431,0.00860171
3772.74722168,0.00960320
3774.67602905,0.00955433
3776.60483643,0.00960905
3778.53364380,0.00926977
3780.46245117,0.00881726
3782.39125854,0.00962019
3784.32006592,0.00932804
3786.24887329,0.00918353
3788.17768066,0.00935956
3790.10648804,0.00939970
3792.03529541,0.00931867
3793.96410278,0.00944659
3795.89291016,0.00880606
3797.82171753,0.00863624
3799.75052490,0.00933309
3801.67933228,0.00700661
3803.60813965,0.00832157
3805.53694702,0.00928302
3807.46575439,0.00726007
3809.39456177,0.00918149
3811.32336914,0.00896888
3813.25217651,0.00927626
3815.18098389,0.00828183
3817.10979126,0.00709473
3819.03859863,0.00942770
3820.96740601,0.00723741
3822.89621338,0.00758823
3824.82502075,0.00930218
3826.75382812,0.00826618
3828.68263550,0.00897397
3830.61144287,0.00857815
3832.54025024,0.00821113
3834.46905762,0.00844685
3836.39786499,0.00791537
3838.32667236,0.00702898
3840.25547974,0.00769386
3842.18428711,0.00832031
3844.11309448,0.00790044
3846.04190186,0.00866529
3847.97070923,0.00858497
3849.89951660,0.00857290
3851.82832397,0.00754327
3853.75713135,0.00541391
3855.68593872,0.00656735
3857.61474609,0.00859904
3859.54355347,0.00833262
3861.47236084,0.00816962
3863.40116821,0.00806252
3865.32997559,0.00726679
3867.25878296,0.00827147
3869.18759033,0.00749394
3871.11639770,0.00684370
3873.04520508,0.00841998
3874.97401245,0.00749475
3876.90281982,0.00833249
3878.83162720,0.00854380
3880.76043457,0.00689403
3882.68924194,0.00829625
3884.61804932,0.00776819
3886.54685669,0.00689705
3888.47566406,0.00836008
3890.40447144,0.00787598
3892.33327881,0.00721045
3894.26208618,0.00803639
3896.19089355,0.00825017
3898.11970093,0.00776307
3900.04850830,0.00716437
3901.97731567,0.00707260
3903.90612305,0.00705998
3905.83493042,0.00710348
3907.76373779,0.00796674
3909.69254517,0.00807653
3911.62135254,0.00790947
3913.55015991,0.00809219
3915.47896728,0.00782422
3917.40777466,0.00752878
3919.33658203,0.00739669
3921.26538940,0.00774894
3923.19419678,0.00778849
3925.12300415,0.00754997
3927.05181152,0.00770772
3928.98061890,0.00781661
3930.90942627,0.00758027
3932.83823364,0.00739743
3934.76704102,0.00771403
3936.69584839,0.00763520
3938.62465576,0.00762065
3940.55346313,0.00774182
3942.48227051,0.00736878
3944.41107788,0.00747061
3946.33988525,0.00767477
3948.26869263,0.00740300
3950.19750000,0.00729952
3952.12630737,0.00746449
3954.05511475,0.00754221
3955.98392212,0.00750741
3957.91272949,0.00740357
3959.84153687,0.00748958
3961.77034424,0.00738315
3963.69915161,0.00727879
3965.62795898,0.00752018
3967.55676636,0.00730087
3969.48557373,0.00732422
3971.41438110,0.00740507
3973.34318848,0.00726971
3975.27199585,0.00736825
3977.20080322,0.00721961
3979.12961060,0.00719777
3981.05841797,0.00726931
3982.98722534,0.00732374
3984.91603271,0.00724720
3986.84484009,0.00720624
3988.77364746,0.00722350
3990.70245483,0.00712287
3992.63126221,0.00721502
3994.56006958,0.00709452
3996.48887695,0.00709642
3998.41768433,0.00710429
4000.34649170,0.00707347
4002.27529907,0.00711380
4004.20410645,0.00699069
4006.13291382,0.00709101
4008.06172119,0.00694650
4009.99052856,0.00688662
4011.91933594,0.00702774
4013.84814331,0.00695425
4015.77695068,0.00691677
4017.70575806,0.00695106
4019.63456543,0.00699404
4021.56337280,0.00689008
4023.49218018,0.00686735
4025.42098755,0.00685311
4027.34979492,0.00686419
4029.27860229,0.00685030
4031.20740967,0.00677863
4033.13621704,0.00682340
4035.06502441,0.00679361
4036.99383179,0.00678248
4038.92263916,0.00673616
4040.85144653,0.00675537
4042.78025391,0.00672990
4044.70906128,0.00669415
4046.63786865,0.00667502
4048.56667603,0.00658686
4050.49548340,0.00667488
4052.42429077,0.00659304
4054.35309814,0.00655336
4056.28190552,0.00661307
4058.21071289,0.00660449
4060.13952026,0.00659130
4062.06832764,0.00652805
4063.99713501,0.00653613
4065.92594238,0.00648070
4067.85474976,0.00649808
4069.78355713,0.00646968
4071.71236450,0.00645194
4073.64117187,0.00648075
4075.56997925,0.00640849
4077.49878662,0.00642270
4079.42759399,0.00640978
4081.35640137,0.00640868
4083.28520874,0.00636360
4085.21401611,0.00635433
4087.14282349,0.00637721
4089.07163086,0.00632527
4091.00043823,0.00628398
4092.92924561,0.00627485
4094.85805298,0.00631105
4096.78686035,0.00626633
4098.71566772,0.00625820
4100.64447510,0.00623683
4102.57328247,0.00624889
4104.50208984,0.00622617
4106.43089722,0.00617271
4108.35970459,0.00621250
4110.28851196,0.00612650
4112.21731934,0.00610586
4114.14612671,0.00610615
4116.07493408,0.00615618
4118.00374145,0.00613004
4119.93254883,0.00603974
4121.86135620,0.00607453
4123.79016357,0.00602795
4125.71897095,0.00606475
4127.64777832,0.00597564
4129.57658569,0.00591944
4131.50539307,0.00599426
4133.43420044,0.00598464
4135.36300781,0.00597710
4137.29181519,0.00590550
4139.22062256,0.00593079
4141.14942993,0.00590133
4143.07823730,0.00588087
4145.00704468,0.00592570
4146.93585205,0.00587205
4148.86465942,0.00582038
4150.79346680,0.00580990
4152.72227417,0.00582537
4154.65108154,0.00582190
4156.57988892,0.00579800
4158.50869629,0.00572035
4160.43750366,0.00577226
4162.36631103,0.00580811
4164.29511841,0.00581436
4166.22392578,0.00575844
4168.15273315,0.00565230
4170.08154053,0.00572699
4172.01034790,0.00562150
4173.93915527,0.00565703
4175.86796265,0.00564768
4177.79677002,0.00555665
4179.72557739,0.00566636
4181.65438477,0.00556233
4183.58319214,0.00556382
4185.51199951,0.00553747
4187.44080688,0.00557061
4189.36961426,0.00561429
4191.29842163,0.00552752
4193.22722900,0.00559175
4195.15603638,0.00546091
4197.08484375,0.00540875
4199.01365112,0.00551128
4200.94245850,0.00548509
4202.87126587,0.00539095
4204.80007324,0.00540478
4206.72888062,0.00538538
4208.65768799,0.00532625
4210.58649536,0.00538732
4212.51530273,0.00533359
4214.44411011,0.00543442
4216.37291748,0.00539324
4218.30172485,0.00526376
4220.23053223,0.00538138
4222.15933960,0.00536602
4224.08814697,0.00535324
4226.01695435,0.00529236
4227.94576172,0.00522263
4229.87456909,0.00516667
4231.80337646,0.00517486
4233.73218384,0.00524561
4235.66099121,0.00516888
4237.58979858,0.00513655
4239.51860596,0.00515295
4241.44741333,0.00515832
4243.37622070,0.00509799
4245.30502808,0.00513121
4247.23383545,0.00517448
4249.16264282,0.00509668
4251.09145020,0.00507946
4253.02025757,0.00502022
4254.94906494,0.00499013
4256.87787231,0.00504581
4258.80667969,0.00504648
4260.73548706,0.00495794
4262.66429443,0.00499603
4264.59310181,0.00499363
4266.52190918,0.00493454
4268.45071655,0.00499070
4270.37952393,0.00495446
4272.30833130,0.00499251
4274.23713867,0.00497471
4276.16594604,0.00499458
4278.09475342,0.00501013
4280.02356079,0.00488666
4281.95236816,0.00494850
4283.88117554,0.00486453
4285.80998291,0.00478134
4287.73879028,0.00486741
4289.66759766,0.00487111
4291.59640503,0.00482461
4293.52521240,0.00481286
4295.45401978,0.00483370
4297.38282715,0.00481189
4299.31163452,0.00485153
4301.24044189,0.00480024
4303.16924927,0.00473332
4305.09805664,0.00473719
4307.02686401,0.00465176
4308.95567139,0.00464806
4310.88447876,0.00469726
4312.81328613,0.00464856
4314.74209351,0.00468708
4316.67090088,0.00473324
4318.59970825,0.00459599
4320.52851562,0.00461721
4322.45732300,0.00459502
4324.38613037,0.00451890
4326.31493774,0.00458875
4328.24374512,0.00457741
4330.17255249,0.00464327
4332.10135986,0.00461060
4334.03016724,0.00461693
4335.95897461,0.00457026
4337.88778198,0.00442597
4339.81658936,0.00453735
4341.74539673,0.00449177
4343.67420410,0.00451950
4345.60301147,0.00455993
4347.53181885,0.00442466
4349.46062622,0.00446504
4351.38943359,0.00446413
4353.31824097,0.00440998
4355.24704834,0.00439284
4357.17585571,0.00438549
4359.10466309,0.00438051
4361.03347046,0.00434730
4362.96227783,0.00431606
4364.89108520,0.00437720
4366.81989258,0.00443480
4368.74869995,0.00435801
4370.67750732,0.00425483
4372.60631470,0.00422475
4374.53512207,0.00433085
4376.46392944,0.00432481
4378.39273682,0.00425033
4380.32154419,0.00429580
4382.25035156,0.00424463
4384.17915894,0.00416940
4386.10796631,0.00421695
4388.03677368,0.00424106
4389.96558105,0.00421065
4391.89438843,0.00423971
4393.82319580,0.00423487
4395.75200317,0.00419985
4397.68081055,0.00413172
4399.60961792,0.00411774
4401.53842529,0.00419392
4403.46723267,0.00415056
4405.39604004,0.00410306
4407.32484741,0.00407789
4409.25365478,0.00409950
4411.18246216,0.00408560
4413.11126953,0.00407573
4415.04007690,0.00407678
4416.96888428,0.00395351
4418.89769165,0.00399925
4420.82649902,0.00401484
4422.75530640,0.00404682
4424.68411377,0.00407789
4426.61292114,0.00391341
4428.54172852,0.00396412
4430.47053589,0.00403803
4432.39934326,0.00394301
4434.32815063,0.00391076
4436.25695801,0.00398747
4438.18576538,0.00395306
4440.11457275,0.00388761
4442.04338013,0.00392399
4443.97218750,0.00387526
4445.90099487,0.00384893
4447.82980225,0.00391473
4449.75860962,0.00391123
4451.68741699,0.00374462
4453.61622437,0.00379378
4455.54503174,0.00391055
4457.47383911,0.00378131
4459.40264648,0.00373964
4461.33145386,0.00377047
4463.26026123,0.00383279
4465.18906860,0.00376691
4467.11787598,0.00372339
4469.04668335,0.00380559
4470.97549072,0.00379772
4472.90429810,0.00374682
4474.83310547,0.00367569
4476.76191284,0.00375500
4478.69072021,0.00371493
4480.61952759,0.00365121
4482.54833496,0.00369756
4484.47714233,0.00365420
4486.40594971,0.00370022
4488.33475708,0.00369337
4490.26356445,0.00365241
4492.19237183,0.00361785
4494.12117920,0.00364842
4496.04998657,0.00363736
4497.97879395,0.00356096
4499.90760132,0.00367247
4501.83640869,0.00367350
4503.76521606,0.00355517
4505.69402344,0.00353016
4507.62283081,0.00359217
4509.55163818,0.00354909
4511.48044556,0.00348515
4513.40925293,0.00350837
4515.33806030,0.00347594
4517.26686768,0.00348189
4519.19567505,0.00342164
4521.12448242,0.00342659
4523.05328979,0.00344936
4524.98209717,0.00339254
4526.91090454,0.00341677
4528.83971191,0.00343602
4530.76851929,0.00348243
4532.69732666,0.00346982
4534.62613403,0.00341854
4536.55494141,0.00340284
4538.48374878,0.00339140
4540.41255615,0.00334062
4542.34136353,0.00339547
4544.27017090,0.00347452
4546.19897827,0.00336005
4548.12778564,0.00335388
4550.05659302,0.00333466
4551.98540039,0.00332925
4553.91420776,0.00337421
4555.84301514,0.00333886
4557.77182251,0.00334508
4559.70062988,0.00327190
4561.62943726,0.00326217
4563.55824463,0.00326278
4565.48705200,0.00326183
4567.41585937,0.00329196
4569.34466675,0.00324005
4571.27347412,0.00319650
4573.20228149,0.00318597
4575.13108887,0.00323920
4577.05989624,0.00319919
4578.98870361,0.00316688
4580.91751099,0.00316682
4582.84631836,0.00316618
4584.77512573,0.00320168
4586.70393311,0.00315156
4588.63274048,0.00314461
4590.56154785,0.00311371
4592.49035522,0.00311282
4594.41916260,0.00311802
4596.34796997,0.00305265
4598.27677734,0.00304117
4600.20558472,0.00307475
4602.13439209,0.00310299
4604.06319946,0.00304092
4605.99200684,0.00305472
4607.92081421,0.00308428
4609.84962158,0.00307377
4611.77842895,0.00308149
4613.70723633,0.00306341
4615.63604370,0.00303142
4617.56485107,0.00298244
4619.49365845,0.00299072
4621.42246582,0.00292141
4623.35127319,0.00295485
4625.28008057,0.00302485
4627.20888794,0.00296976
4629.13769531,0.00295940
4631.06650269,0.00288327
4632.99531006,0.00291402
4634.92411743,0.00289378
4636.85292480,0.00285508
4638.78173218,0.00295864
4640.71053955,0.00289293
4642.63934692,0.00286603
4644.56815430,0.00295320
4646.49696167,0.00293691
4648.42576904,0.00285440
4650.35457642,0.00287996
4652.28338379,0.00292682
4654.21219116,0.00289326
4656.14099853,0.00281928
4658.06980591,0.00278777
4659.99861328,0.00284894
4661.92742065,0.00279801
4663.85622803,0.00279658
4665.78503540,0.00279529
4667.71384277,0.00279815
4669.64265015,0.00287935
4671.57145752,0.00277298
4673.50026489,0.00280492
4675.42907227,0.00275609
4677.35787964,0.00261868
4679.28668701,0.00276245
4681.21549438,0.00269876
4683.14430176,0.00271343
4685.07310913,0.00287422
4687.00191650,0.00268902
4688.93072388,0.00268850
4690.85953125,0.00279399
4692.78833862,0.00266072
4694.71714600,0.00273267
4696.64595337,0.00272480
4698.57476074,0.00263789
4700.50356812,0.00275020
4702.43237549,0.00266755
4704.36118286,0.00264311
4706.28999023,0.00268534
4708.21879761,0.00260927
4710.14760498,0.00263957
4712.07641235,0.00262202
4714.00521973,0.00265715
4715.93402710,0.00268992
4717.86283447,0.00255003
4719.79164185,0.00254671
4721.72044922,0.00259209
4723.64925659,0.00253336
4725.57806396,0.00256247
4727.50687134,0.00257822
4729.43567871,0.00253413
4731.36448608,0.00253654
4733.29329346,0.00251787
4735.22210083,0.00253844
4737.15090820,0.00254034
4739.07971558,0.00248250
4741.00852295,0.00247688
4742.93733032,0.00248035
4744.86613770,0.00247800
4746.79494507,0.00245113
4748.72375244,0.00245567
4750.65255981,0.00250134
4752.58136719,0.00252546
4754.51017456,0.00251517
4756.43898193,0.00249241
4758.36778931,0.00254325
4760.29659668,0.00252004
4762.22540405,0.00246101
4764.15421143,0.00247681
4766.08301880,0.00242988
4768.01182617,0.00239109
4769.94063354,0.00238818
4771.86944092,0.00239529
4773.79824829,0.00240555
4775.72705566,0.00240132
4777.65586304,0.00233750
4779.58467041,0.00225017
4781.51347778,0.00232035
4783.44228516,0.00232994
4785.37109253,0.00230076
4787.29989990,0.00235878
4789.22870728,0.00228345
4791.15751465,0.00230737
4793.08632202,0.00237876
4795.01512939,0.00230926
4796.94393677,0.00231705
4798.87274414,0.00231111
4800.80155151,0.00228027
4802.73035889,0.00225963
4804.65916626,0.00223429
4806.58797363,0.00232863
4808.51678101,0.00228925
4810.44558838,0.00219565
4812.37439575,0.00231311
4814.30320312,0.00223653
4816.23201050,0.00216795
4818.16081787,0.00230599
4820.08962524,0.00224146
4822.01843262,0.00220653
4823.94723999,0.00220267
4825.87604736,0.00217875
4827.80485474,0.00224367
4829.73366211,0.00218599
4831.66246948,0.00215498
4833.59127686,0.00214107
4835.52008423,0.00216062
4837.44889160,0.00220826
4839.37769897,0.00213000
4841.30650635,0.00213643
4843.23531372,0.00214079
4845.16412109,0.00207805
4847.09292847,0.00208481
4849.02173584,0.00215090
4850.95054321,0.00216527
4852.87935059,0.00210908
4854.80815796,0.00213975
4856.73696533,0.00215004
4858.66577270,0.00212503
4860.59458008,0.00210489
4862.52338745,0.00209626
4864.45219482,0.00213666
4866.38100220,0.00206445
4868.30980957,0.00207037
4870.23861694,0.00209465
4872.16742432,0.00197784
4874.09623169,0.00203014
4876.02503906,0.00204363
4877.95384644,0.00203423
4879.88265381,0.00210211
4881.81146118,0.00196791
4883.74026855,0.00197062
4885.66907593,0.00205164
4887.59788330,0.00200198
4889.52669067,0.00203672
4891.45549805,0.00199265
4893.38430542,0.00195836
4895.31311279,0.00198217
4897.24192017,0.00188556
4899.17072754,0.00187816
4901.09953491,0.00195514
4903.02834228,0.00191777
4904.95714966,0.00191971
4906.88595703,0.00193153
4908.81476440,0.00194072
4910.74357178,0.00205291
4912.67237915,0.00196880
4914.60118652,0.00191839
4916.52999390,0.00198031
4918.45880127,0.00191111
4920.38760864,0.00190304
4922.31641602,0.00184372
4924.24522339,0.00186098
4926.17403076,0.00186432
4928.10283813,0.00181809
4930.03164551,0.00191316
4931.96045288,0.00183086
4933.88926025,0.00180423
4935.81806763,0.00186309
4937.74687500,0.00187860
4939.67568237,0.00189237
4941.60448975,0.00179245
4943.53329712,0.00182240
4945.46210449,0.00185965
4947.39091187,0.00182979
4949.31971924,0.00181960
4951.24852661,0.00172723
4953.17733398,0.00176925
4955.10614136,0.00185070
4957.03494873,0.00176870
4958.96375610,0.00176544
4960.89256348,0.00177077
4962.82137085,0.00175436
4964.75017822,0.00180524
4966.67898560,0.00174732
4968.60779297,0.00176970
4970.53660034,0.00175837
4972.46540771,0.00166843
4974.39421509,0.00169989
4976.32302246,0.00171726
4978.25182983,0.00181853
4980.18063721,0.00177178
4982.10944458,0.00164466
4984.03825195,0.00167143
4985.96705933,0.00168506
4987.89586670,0.00168560
4989.82467407,0.00165515
4991.75348145,0.00168425
4993.68228882,0.00166167
4995.61109619,0.00166451
4997.53990356,0.00166572
4999.46871094,0.00160213
5001.39751831,0.00167623
5003.32632568,0.00166696
5005.25513306,0.00166556
5007.18394043,0.00165633
5009.11274780,0.00162367
5011.04155518,0.00164814
5012.97036255,0.00161233
5014.89916992,0.00164556
5016.82797729,0.00167766
5018.75678467,0.00167522
5020.68559204,0.00158031
5022.61439941,0.00154791
5024.54320679,0.00157643
5026.47201416,0.00149222
5028.40082153,0.00154699
5030.32962891,0.00160428
5032.25843628,0.00162408
5034.18724365,0.00160328
5036.11605103,0.00154611
5038.04485840,0.00157252
5039.97366577,0.00150873
5041.90247314,0.00149775
5043.83128052,0.00152183
5045.76008789,0.00146056
5047.68889526,0.00150661
5049.61770264,0.00154426
5051.54651001,0.00151221
5053.47531738,0.00155344
5055.40412476,0.00149259
5057.33293213,0.00146007
5059.26173950,0.00154983
5061.19054687,0.00149009
5063.11935425,0.00148072
5065.04816162,0.00151213
5066.97696899,0.00150877
5068.90577637,0.00148080
5070.83458374,0.00140206
5072.76339111,0.00152191
5074.69219849,0.00158158
5076.62100586,0.00145114
5078.54981323,0.00144457
5080.47862061,0.00151145
5082.40742798,0.00144017
5084.33623535,0.00138667
5086.26504272,0.00145206
5088.19385010,0.00141632
5090.12265747,0.00143146
5092.05146484,0.00147496
5093.98027222,0.00140653
5095.90907959,0.00141093
5097.83788696,0.00141724
5099.76669434,0.00139985
5101.69550171,0.00141501
5103.62430908,0.00139387
5105.55311645,0.00138720
5107.48192383,0.00138454
5109.41073120,0.00136813
5111.33953857,0.00136874
5113.26834595,0.00133125
5115.19715332,0.00136236
5117.12596069,0.00141713
5119.05476807,0.00140732
5120.98357544,0.00136626
5122.91238281,0.00129670
5124.84119019,0.00134614
5126.76999756,0.00135342
5128.69880493,0.00131063
5130.62761230,0.00133557
5132.55641968,0.00132207
5134.48522705,0.00129516
5136.41403442,0.00127804
5138.34284180,0.00128752
5140.27164917,0.00126956
5142.20045654,0.00134585
5144.12926392,0.00131185
5146.05807129,0.00127024
5147.98687866,0.00138709
5149.91568603,0.00123299
5151.84449341,0.00128505
5153.77330078,0.00135800
5155.70210815,0.00121582
5157.63091553,0.00130202
5159.55972290,0.00125376
5161.48853027,0.00122529
5163.41733765,0.00129059
5165.34614502,0.00127880
5167.27495239,0.00131034
5169.20375977,0.00131679
5171.13256714,0.00125795
5173.06137451,0.00122101
5174.99018188,0.00123779
5176.91898926,0.00121649
5178.84779663,0.00124911
5180.77660400,0.00120158
5182.70541138,0.00123294
5184.63421875,0.00129350
5186.56302612,0.00117629
5188.49183350,0.00124693
5190.42064087,0.00123897
5192.34944824,0.00117793
5194.27825562,0.00122034
5196.20706299,0.00119395
5198.13587036,0.00116179
5200.06467773,0.00119214
5201.99348511,0.00124907
5203.92229248,0.00116322
5205.85109985,0.00118906
5207.77990723,0.00119525
5209.70871460,0.00113657
5211.63752197,0.00117061
5213.56632935,0.00114515
5215.49513672,0.00117318
5217.42394409,0.00114130
5219.35275146,0.00116479
5221.28155884,0.00116634
5223.21036621,0.00119274
5225.13917358,0.00123712
5227.06798096,0.00107727
5228.99678833,0.00114932
5230.92559570,0.00115167
5232.85440308,0.00109038
5234.78321045,0.00117518
5236.71201782,0.00114870
5238.64082520,0.00115421
5240.56963257,0.00112875
5242.49843994,0.00112009
5244.42724731,0.00108654
5246.35605469,0.00111363
5248.28486206,0.00112567
5250.21366943,0.00101342
5252.14247681,0.00107308
5254.07128418,0.00107890
5256.00009155,0.00110572
5257.92889893,0.00118387
5259.85770630,0.00112558
5261.78651367,0.00106213
5263.71532104,0.00102797
5265.64412842,0.00108774
5267.57293579,0.00110558
5269.50174316,0.00102742
5271.43055054,0.00098497
5273.35935791,0.00105435
5275.28816528,0.00108760
5277.21697266,0.00104145
5279.14578003,0.00109871
5281.07458740,0.00105871
5283.00339478,0.00099549
5284.93220215,0.00101922
5286.86100952,0.00101718
5288.78981689,0.00107973
5290.71862427,0.00106360
5292.64743164,0.00102634
5294.57623901,0.00102161
5296.50504639,0.00097948
5298.43385376,0.00109310
5300.36266113,0.00110493
5302.29146851,0.00096555
5304.22027588,0.00097774
5306.14908325,0.00096447
5308.07789062,0.00096483
5310.00669800,0.00101638
5311.93550537,0.00100442
5313.86431274,0.00098328
5315.79312012,0.00094192
5317.72192749,0.00102399
5319.65073486,0.00103627
5321.57954224,0.00092468
5323.50834961,0.00099139
5325.43715698,0.00097308
5327.36596436,0.00091007
5329.29477173,0.00096673
5331.22357910,0.00094553
5333.15238647,0.00098041
5335.08119385,0.00097667
5337.01000122,0.00086819
5338.93880859,0.00094318
5340.86761597,0.00098901
5342.79642334,0.00096421
5344.72523071,0.00100472
5346.65403809,0.00090698
5348.58284546,0.00089820
5350.51165283,0.00095886
5352.44046020,0.00090184
5354.36926758,0.00092397
5356.29807495,0.00091417
5358.22688232,0.00089724
5360.15568970,0.00093802
5362.08449707,0.00094696
5364.01330444,0.00096092
5365.94211182,0.00095985
5367.87091919,0.00092086
5369.79972656,0.00086728
5371.72853394,0.00089738
5373.65734131,0.00089881
5375.58614868,0.00088749
5377.51495605,0.00092134
5379.44376343,0.00085684
5381.37257080,0.00087703
5383.30137817,0.00089936
5385.23018555,0.00084963
5387.15899292,0.00085682
5389.08780029,0.00085700
5391.01660767,0.00087707
5392.94541504,0.00080584
5394.87422241,0.00079430
5396.80302978,0.00087975
5398.73183716,0.00087224
5400.66064453,0.00090246
5402.58945190,0.00084274
5404.51825928,0.00079489
5406.44706665,0.00085557
5408.37587402,0.00082254
5410.30468140,0.00083772
5412.23348877,0.00087688
5414.16229614,0.00086386
5416.09110352,0.00086748
5418.01991089,0.00086802
5419.94871826,0.00084760
5421.87752563,0.00086118
5423.80633301,0.00090324
5425.73514038,0.00087265
5427.66394775,0.00084644
5429.59275513,0.00080914
5431.52156250,0.00083112
5433.45036987,0.00085226
5435.37917725,0.00074682
5437.30798462,0.00081953
5439.23679199,0.00083403
5441.16559936,0.00073391
5443.09440674,0.00078671
5445.02321411,0.00079163
5446.95202148,0.00080306
5448.88082886,0.00078191
5450.80963623,0.00076492
5452.73844360,0.00083403
5454.66725098,0.00080266
5456.59605835,0.00076433
5458.52486572,0.00075605
5460.45367310,0.00074155
5462.38248047,0.00076351
5464.31128784,0.00080219
5466.24009521,0.00082354
5468.16890259,0.00083032
5470.09770996,0.00076802
5472.02651733,0.00077224
5473.95532471,0.00083862
5475.88413208,0.00066832
5477.81293945,0.00067267
5479.74174683,0.00079544
5481.67055420,0.00074891
5483.59936157,0.00083648
5485.52816895,0.00077059
5487.45697632,0.00071058
5489.38578369,0.00074430
5491.31459106,0.00066119
5493.24339844,0.00070668
5495.17220581,0.00069728
5497.10101318,0.00074007
5499.02982056,0.00078549
5500.95862793,0.00069953
5502.88743530,0.00075590
5504.81624268,0.00072772
5506.74505005,0.00070028
5508.67385742,0.00075466
5510.60266479,0.00071434
5512.53147217,0.00071454
5514.46027954,0.00070637
5516.38908691,0.00073996
5518.31789429,0.00073318
5520.24670166,0.00064791
5522.17550903,0.00074244
5524.10431641,0.00076081
5526.03312378,0.00072071
5527.96193115,0.00076980
5529.89073853,0.00068268
5531.81954590,0.00065473
5533.74835327,0.00069321
5535.67716064,0.00067833
5537.60596802,0.00067312
5539.53477539,0.00066816
5541.46358276,0.00069553
5543.39239014,0.00066869
5545.32119751,0.00069008
5547.25000488,0.00070332
5549.17881226,0.00066705
5551.10761963,0.00072350
5553.03642700,0.00067861
5554.96523437,0.00062518
5556.89404175,0.00062208
5558.82284912,0.00064670
5560.75165649,0.00069798
5562.68046387,0.00064705
5564.60927124,0.00069007
5566.53807861,0.00068368
5568.46688599,0.00059903
5570.39569336,0.00066498
5572.32450073,0.00067727
5574.25330811,0.00065549
5576.18211548,0.00067820
5578.11092285,0.00069607
5580.03973022,0.00066517
5581.96853760,0.00062446
5583.89734497,0.00066358
5585.82615234,0.00065628
5587.75495972,0.00067177
5589.68376709,0.00067200
5591.61257446,0.00063131
5593.54138184,0.00068131
5595.47018921,0.00063892
5597.39899658,0.00060558
5599.32780395,0.00062455
5601.25661133,0.00059961
5603.18541870,0.00059548
5605.11422607,0.00055693
5607.04303345,0.00057916
5608.97184082,0.00060757
5610.90064819,0.00061281
5612.82945557,0.00061724
5614.75826294,0.00057369
5616.68707031,0.00059697
5618.61587769,0.00061008
5620.54468506,0.00058078
5622.47349243,0.00058607
5624.40229980,0.00063886
5626.33110718,0.00063307
5628.25991455,0.00056816
5630.18872192,0.00055712
5632.11752930,0.00058125
5634.04633667,0.00062258
5635.97514404,0.00055769
5637.90395142,0.00055622
5639.83275879,0.00062467
5641.76156616,0.00058727
5643.69037353,0.00060337
5645.61918091,0.00063001
5647.54798828,0.00063945
5649.47679565,0.00061750
5651.40560303,0.00059995
5653.33441040,0.00057764
5655.26321777,0.00055097
5657.19202515,0.00055491
5659.12083252,0.00050553
5661.04963989,0.00054782
5662.97844727,0.00056321
5664.90725464,0.00057689
5666.83606201,0.00059600
5668.76486938,0.00050382
5670.69367676,0.00051240
5672.62248413,0.00053357
5674.55129150,0.00056550
5676.48009888,0.00057545
5678.40890625,0.00055230
5680.33771362,0.00056734
5682.26652100,0.00053762
5684.19532837,0.00051440
5686.12413574,0.00053203
5688.05294311,0.00059369
5689.98175049,0.00051590
5691.91055786,0.00049352
5693.83936523,0.00062483
5695.76817261,0.00056995
5697.69697998,0.00050144
5699.62578735,0.00052215
5701.55459473,0.00053006
5703.48340210,0.00055421
5705.41220947,0.00056556
5707.34101685,0.00053781
5709.26982422,0.00053809
5711.19863159,0.00051536
5713.12743896,0.00052038
5715.05624634,0.00052026
5716.98505371,0.00043186
5718.91386108,0.00052934
5720.84266846,0.00052680
5722.77147583,0.00048057
5724.70028320,0.00056359
5726.62909058,0.00051753
5728.55789795,0.00061361
5730.48670532,0.00060719
5732.41551270,0.00049363
5734.34432007,0.00051118
5736.27312744,0.00048950
5738.20193481,0.00047182
5740.13074219,0.00046298
5742.05954956,0.00052736
5743.98835693,0.00048898
5745.91716431,0.00046224
5747.84597168,0.00050528
5749.77477905,0.00041947
5751.70358643,0.00045453
5753.63239380,0.00045698
5755.56120117,0.00040127
5757.49000854,0.00046441
5759.41881592,0.00047407
5761.34762329,0.00045552
5763.27643066,0.00045150
5765.20523804,0.00044456
5767.13404541,0.00044462
5769.06285278,0.00043247
5770.99166016,0.00047495
5772.92046753,0.00047681
5774.84927490,0.00044593
5776.77808228,0.00048677
5778.70688965,0.00048206
5780.63569702,0.00049095
5782.56450439,0.00042296
5784.49331177,0.00038268
5786.42211914,0.00043516
5788.35092651,0.00041258
5790.27973389,0.00049521
5792.20854126,0.00043478
5794.13734863,0.00040439
5796.06615601,0.00051397
5797.99496338,0.00043808
5799.92377075,0.00041830
5801.85257812,0.00043539
5803.78138550,0.00048160
5805.71019287,0.00045002
5807.63900024,0.00039610
5809.56780762,0.00045208
5811.49661499,0.00041658
5813.42542236,0.00041238
5815.35422974,0.00039359
5817.28303711,0.00036216
5819.21184448,0.00038787
5821.14065186,0.00039317
5823.06945923,0.00039792
5824.99826660,0.00044525
5826.92707397,0.00043081
5828.85588135,0.00039869
5830.78468872,0.00045776
5832.71349609,0.00042061
5834.64230347,0.00038496
5836.57111084,0.00037682
5838.49991821,0.00044892
5840.42872559,0.00045664
5842.35753296,0.00034855
5844.28634033,0.00038369
5846.21514770,0.00035640
5848.14395508,0.00041396
5850.07276245,0.00041652
5852.00156982,0.00036920
5853.93037720,0.00038761
5855.85918457,0.00034764
5857.78799194,0.00043580
5859.71679932,0.00037834
5861.64560669,0.00038422
5863.57441406,0.00039359
5865.50322144,0.00031611
5867.43202881,0.00036138
5869.36083618,0.00032835
5871.28964355,0.00038618
5873.21845093,0.00041719
5875.14725830,0.00038955
5877.07606567,0.00033145
5879.00487305,0.00040477
5880.93368042,0.00046384
5882.86248779,0.00032586
5884.79129517,0.00037672
5886.72010254,0.00036653
5888.64890991,0.00036562
5890.57771728,0.00037208
5892.50652466,0.00038030
5894.43533203,0.00037704
5896.36413940,0.00031360
5898.29294678,0.00042410
5900.22175415,0.00035907
5902.15056152,0.00037709
5904.07936890,0.00037884
5906.00817627,0.00033832
5907.93698364,0.00039280
5909.86579102,0.00028957
5911.79459839,0.00041031
5913.72340576,0.00040421
5915.65221313,0.00034845
5917.58102051,0.00040261
5919.50982788,0.00036156
5921.43863525,0.00041263
5923.36744263,0.00039824
5925.29625000,0.00040106
5927.22505737,0.00035745
5929.15386475,0.00033888
5931.08267212,0.00035209
5933.01147949,0.00032846
5934.94028686,0.00038747
5936.86909424,0.00035016
5938.79790161,0.00029000
5940.72670898,0.00028942
5942.65551636,0.00034324
5944.58432373,0.00034623
5946.51313110,0.00033517
5948.44193848,0.00031317
5950.37074585,0.00030829
5952.29955322,0.00039406
5954.22836060,0.00032516
5956.15716797,0.00031348
5958.08597534,0.00034972
5960.01478271,0.00033320
5961.94359009,0.00033616
5963.87239746,0.00032919
5965.80120483,0.00041199
5967.73001221,0.00038409
5969.65881958,0.00029667
5971.58762695,0.00028287
5973.51643433,0.00031189
5975.44524170,0.00030772
5977.37404907,0.00027124
5979.30285645,0.00034133
5981.23166382,0.00034116
5983.16047119,0.00028515
5985.08927856,0.00027593
5987.01808594,0.00028752
5988.94689331,0.00030463
5990.87570068,0.00029342
5992.80450806,0.00033978
5994.73331543,0.00032358
5996.66212280,0.00024783
5998.59093018,0.00034982
6000.51973755,0.00037877
