399.26312622,0.00047107
401.19193359,0.00113065
403.12074097,0.00079342
405.04954834,0.00062112
406.97835571,0.00028576
408.90716309,0.00012311
410.83597046,0.00031683
412.76477783,-0.00021680
414.69358521,0.00063243
416.62239258,0.00080714
418.55119995,0.00020961
420.48000732,0.00095885
422.40881470,0.00096964
424.33762207,0.00069825
426.26642944,0.00060007
428.19523682,0.00088005
430.12404419,0.00103895
432.05285156,0.00073641
433.98165894,0.00085379
435.91046631,0.00070435
437.83927368,0.00095946
439.76808105,0.00079941
441.69688843,0.00060256
443.62569580,0.00099638
445.55450317,0.00026696
447.48331055,0.00017104
449.41211792,0.00037496
451.34092529,0.00028841
453.26973267,0.00074491
455.19854004,0.00055377
457.12734741,0.00056944
459.05615479,0.00055650
460.98496216,0.00024607
462.91376953,0.00031062
464.84257690,0.00010941
466.77138428,0.00041384
468.70019165,0.00054230
470.62899902,0.00008303
472.55780640,0.00036936
474.48661377,0.00036579
476.41542114,0.00005450
478.34422852,0.00033901
480.27303589,0.00029752
482.20184326,0.00011067
484.13065063,0.00012669
486.05945801,0.00022992
487.98826538,0.00032998
489.91707275,0.00022488
491.84588013,0.00034327
493.77468750,0.00035826
495.70349487,0.00009505
497.63230225,0.00003478
499.56110962,0.00021741
501.48991699,0.00031241
503.41872437,0.00026954
505.34753174,0.00030281
507.27633911,0.00038520
509.20514648,0.00037086
511.13395386,0.00040552
513.06276123,0.00046858
514.99156860,0.00035207
516.92037598,0.00024110
518.84918335,0.00012718
520.77799072,0.00007748
522.70679810,0.00005161
524.63560547,0.00022533
526.56441284,0.00014783
528.49322021,-0.00021270
530.42202759,0.00020911
532.35083496,0.00032820
534.27964233,0.00020060
536.20844971,0.00073351
538.13725708,0.00054618
540.06606445,-0.00007271
541.99487183,0.00010032
543.92367920,0.00022804
545.85248657,-0.00013687
547.78129395,-0.00009780
549.71010132,0.00028039
551.63890869,0.00020630
553.56771606,0.00001182
555.49652344,0.00039349
557.42533081,0.00019641
559.35413818,0.00018734
561.28294556,0.00052580
563.21175293,-0.00008581
565.14056030,-0.00004575
567.06936768,0.00009553
568.99817505,0.00029803
570.92698242,0.00016840
572.85578979,-0.00035885
574.78459717,0.00005974
576.71340454,-0.00000611
578.64221191,0.00022139
580.57101929,0.00019387
582.49982666,-0.00013454
584.42863403,0.00035614
586.35744141,0.00017290
588.28624878,-0.00008664
590.21505615,0.00022453
592.14386353,0.00004019
594.07267090,-0.00000948
596.00147827,0.00008487
597.93028564,-0.00014351
599.85909302,0.00004317
601.78790039,0.00024439
603.71670776,0.00012309
605.64551514,0.00001755
607.57432251,-0.00010060
609.50312988,0.00016783
611.43193726,0.00034975
613.36074463,0.00004055
615.28955200,0.00027473
617.21835938,0.00003856
619.14716675,-0.00008543
621.07597412,-0.00024182
623.00478149,0.00027432
624.93358887,0.00036529
626.86239624,-0.00011427
628.79120361,0.00017311
630.72001099,0.00025899
632.64881836,0.00064701
634.57762573,0.00070599
636.50643311,0.00064306
638.43524048,0.00060008
640.36404785,0.00077671
642.29285522,0.00097628
644.22166260,0.00069075
646.15046997,0.00123976
648.07927734,0.00110167
650.00808472,0.00099359
651.93689209,0.00122426
653.86569946,0.00112018
655.79450684,0.00168159
657.72331421,0.00121759
659.65212158,0.00098296
661.58092896,0.00156852
663.50973633,0.00144215
665.43854370,0.00150141
667.36735107,0.00175815
669.29615845,0.00171646
671.22496582,0.00177691
673.15377319,0.00197115
675.08258057,0.00183029
677.01138794,0.00185019
678.94019531,0.00214047
680.86900269,0.00203483
682.79781006,0.00176650
684.72661743,0.00180936
686.65542480,0.00174343
688.58423218,0.00163457
690.51303955,0.00210326
692.44184692,0.00231933
694.37065430,0.00220723
696.29946167,0.00258231
698.22826904,0.00289484
700.15707642,0.00277428
702.08588379,0.00295950
704.01469116,0.00294571
705.94349854,0.00245716
707.87230591,0.00220343
709.80111328,0.00189697
711.72992065,0.00156273
713.65872803,0.00064732
715.58753540,0.00033422
717.51634277,0.00080146
719.44515015,0.00019787
721.37395752,0.00024020
723.30276489,0.00041265
725.23157227,-0.00008262
727.16037964,0.00004176
729.08918701,0.00012179
731.01799438,0.00011658
732.94680176,0.00019609
734.87560913,0.00021619
736.80441650,0.00007192
738.73322388,-0.00000148
740.66203125,0.00023562
742.59083862,-0.00004690
744.51964600,-0.00024375
746.44845337,0.00004496
748.37726074,0.00002801
750.30606812,0.00040277
752.23487549,0.00015933
754.16368286,-0.00033281
756.09249023,0.00034969
758.02129761,0.00023815
759.95010498,0.00023935
761.87891235,0.00056996
763.80771973,0.00007127
765.73652710,0.00016720
767.66533447,0.00044999
769.59414185,0.00038291
771.52294922,0.00021183
773.45175659,0.00025202
775.38056396,0.00036423
777.30937134,0.00024764
779.23817871,0.00026961
781.16698608,0.00029799
783.09579346,0.00033907
785.02460083,0.00025324
786.95340820,0.00031487
788.88221558,0.00027827
790.81102295,0.00029513
792.73983032,0.00051793
794.66863770,0.00049203
796.59744507,0.00063741
798.52625244,0.00030030
800.45505981,0.00030306
802.38386719,0.00062512
804.31267456,0.00045376
806.24148193,0.00024667
808.17028931,-0.00001509
810.09909668,0.00026573
812.02790405,0.00019427
813.95671143,0.00028611
815.88551880,0.00040057
817.81432617,0.00006998
819.74313354,0.00036745
821.67194092,0.00024792
823.60074829,0.00026894
825.52955566,0.00032170
827.45836304,0.00054557
829.38717041,0.00081415
831.31597778,0.00046136
833.24478516,0.00087749
835.17359253,0.00089940
837.10239990,0.00067204
839.03120728,0.00073550
840.96001465,0.00084489
842.88882202,0.00096752
844.81762939,0.00072334
846.74643677,0.00072749
848.67524414,0.00048061
850.60405151,0.00067096
852.53285889,0.00082905
854.46166626,0.00050112
856.39047363,0.00050382
858.31928101,0.00042946
860.24808838,0.00053473
862.17689575,0.00037416
864.10570313,0.00029542
866.03451050,0.00028440
867.96331787,0.00011326
869.89212524,0.00009072
871.82093262,0.00029893
873.74973999,0.00058062
875.67854736,0.00021108
877.60735474,0.00021543
879.53616211,0.00040225
881.46496948,0.00043816
883.39377686,0.00035323
885.32258423,0.00023763
887.25139160,0.00049438
889.18019897,0.00044016
891.10900635,0.00062137
893.03781372,0.00039703
894.96662109,0.00002987
896.89542847,0.00019478
898.82423584,0.00014719
900.75304321,0.00041791
902.68185059,0.00051150
904.61065796,0.00028198
906.53946533,0.00026316
908.46827271,0.00042746
910.39708008,0.00044053
912.32588745,0.00036492
914.25469482,0.00067582
916.18350220,0.00060219
918.11230957,0.00043679
920.04111694,0.00057502
921.96992432,0.00068246
923.89873169,0.00093540
925.82753906,0.00090220
927.75634644,0.00079705
929.68515381,0.00081653
931.61396118,0.00070630
933.54276855,0.00073045
935.47157593,0.00100394
937.40038330,0.00120642
939.32919067,0.00114555
941.25799805,0.00127660
943.18680542,0.00145428
945.11561279,0.00136567
947.04442017,0.00112879
948.97322754,0.00094051
950.90203491,0.00099314
952.83084229,0.00107042
954.75964966,0.00117873
956.68845703,0.00112672
958.61726440,0.00118567
960.54607178,0.00134003
962.47487915,0.00106276
964.40368652,0.00109505
966.33249390,0.00111695
968.26130127,0.00107036
970.19010864,0.00130279
972.11891602,0.00121915
974.04772339,0.00138322
975.97653076,0.00158122
977.90533813,0.00159613
979.83414551,0.00184711
981.76295288,0.00202002
983.69176025,0.00203266
985.62056763,0.00217397
987.54937500,0.00259655
989.47818237,0.00284875
991.40698975,0.00306810
993.33579712,0.00345461
995.26460449,0.00390243
997.19341187,0.00404312
999.12221924,0.00402492
1001.05102661,0.00460188
1002.97983398,0.00494602
1004.90864136,0.00521577
1006.83744873,0.00557536
1008.76625610,0.00571842
1010.69506348,0.00624481
1012.62387085,0.00652745
1014.55267822,0.00673279
1016.48148560,0.00717100
1018.41029297,0.00751427
1020.33910034,0.00790688
1022.26790771,0.00829299
1024.19671509,0.00848404
1026.12552246,0.00868241
1028.05432983,0.00915909
1029.98313721,0.00922852
1031.91194458,0.00941508
1033.84075195,0.00995281
1035.76955933,0.00994775
1037.69836670,0.00996307
1039.62717407,0.01019975
1041.55598145,0.01016342
1043.48478882,0.00990959
1045.41359619,0.00990308
1047.34240356,0.00997211
1049.27121094,0.00985109
1051.20001831,0.00963889
1053.12882568,0.00958356
1055.05763306,0.00946250
1056.98644043,0.00886730
1058.91524780,0.00874351
1060.84405518,0.00861799
1062.77286255,0.00834454
1064.70166992,0.00824048
1066.63047729,0.00759929
1068.55928467,0.00742273
1070.48809204,0.00726294
1072.41689941,0.00668790
1074.34570679,0.00649654
1076.27451416,0.00620914
1078.20332153,0.00581331
1080.13212891,0.00568794
1082.06093628,0.00556523
1083.98974365,0.00517952
1085.91855103,0.00496493
1087.84735840,0.00481101
1089.77616577,0.00461358
1091.70497314,0.00429479
1093.63378052,0.00403413
1095.56258789,0.00411842
1097.49139526,0.00398098
1099.42020264,0.00388216
1101.34901001,0.00362444
1103.27781738,0.00362198
1105.20662476,0.00375207
1107.13543213,0.00338618
1109.06423950,0.00350129
1110.99304687,0.00352223
1112.92185425,0.00339580
1114.85066162,0.00334949
1116.77946899,0.00335987
1118.70827637,0.00354968
1120.63708374,0.00341942
1122.56589111,0.00339750
1124.49469849,0.00344887
1126.42350586,0.00351373
1128.35231323,0.00358311
1130.28112061,0.00380114
1132.20992798,0.00388842
1134.13873535,0.00377441
1136.06754272,0.00410568
1137.99635010,0.00426103
1139.92515747,0.00452431
1141.85396484,0.00477439
1143.78277222,0.00494129
1145.71157959,0.00546648
1147.64038696,0.00576207
1149.56919434,0.00587175
1151.49800171,0.00610611
1153.42680908,0.00664855
1155.35561646,0.00681970
1157.28442383,0.00711988
1159.21323120,0.00761081
1161.14203857,0.00751654
1163.07084595,0.00785610
1164.99965332,0.00817730
1166.92846069,0.00834548
1168.85726807,0.00879177
1170.78607544,0.00909292
1172.71488281,0.00932050
1174.64369019,0.00972274
1176.57249756,0.01022613
1178.50130493,0.01047255
1180.43011230,0.01085115
1182.35891968,0.01125076
1184.28772705,0.01178413
1186.21653442,0.01239782
1188.14534180,0.01288051
1190.07414917,0.01375555
1192.00295654,0.01429311
1193.93176392,0.01463698
1195.86057129,0.01535005
1197.78937866,0.01609734
1199.71818604,0.01684356
1201.64699341,0.01772033
1203.57580078,0.01849171
1205.50460815,0.01891086
1207.43341553,0.01961539
1209.36222290,0.02046242
1211.29103027,0.02107059
1213.21983765,0.02152956
1215.14864502,0.02201816
1217.07745239,0.02261099
1219.00625977,0.02291685
1220.93506714,0.02323373
1222.86387451,0.02357398
1224.79268188,0.02373224
1226.72148926,0.02393218
1228.65029663,0.02396481
1230.57910400,0.02395082
1232.50791138,0.02421538
1234.43671875,0.02416839
1236.36552612,0.02413747
1238.29433350,0.02450368
1240.22314087,0.02440869
1242.15194824,0.02429649
1244.08075562,0.02415524
1246.00956299,0.02400038
1247.93837036,0.02394911
1249.86717773,0.02371070
1251.79598511,0.02371152
1253.72479248,0.02325598
1255.65359985,0.02308324
1257.58240723,0.02312003
1259.51121460,0.02247919
1261.44002197,0.02213807
1263.36882935,0.02190258
1265.29763672,0.02168681
1267.22644409,0.02134480
1269.15525146,0.02105187
1271.08405884,0.02081864
1273.01286621,0.02039659
1274.94167358,0.02019386
1276.87048096,0.01990516
1278.79928833,0.01961436
1280.72809570,0.01916668
1282.65690308,0.01884604
1284.58571045,0.01852552
1286.51451782,0.01807453
1288.44332520,0.01785358
1290.37213257,0.01736204
1292.30093994,0.01727006
1294.22974731,0.01727388
1296.15855469,0.01710934
1298.08736206,0.01718414
1300.01616943,0.01720992
1301.94497681,0.01741639
1303.87378418,0.01744226
1305.80259155,0.01743313
1307.73139893,0.01769931
1309.66020630,0.01808568
1311.58901367,0.01845779
1313.51782104,0.01878227
1315.44662842,0.01924906
1317.37543579,0.01966861
1319.30424316,0.02010924
1321.23305054,0.02085227
1323.16185791,0.02156802
1325.09066528,0.02196310
1327.01947266,0.02270072
1328.94828003,0.02326248
1330.87708740,0.02375395
1332.80589478,0.02464796
1334.73470215,0.02486788
1336.66350952,0.02501605
1338.59231689,0.02462328
1340.52112427,0.02480611
1342.44993164,0.02619838
1344.37873901,0.02615690
1346.30754639,0.02630450
1348.23635376,0.02642902
1350.16516113,0.02605531
1352.09396851,0.02630529
1354.02277588,0.02581320
1355.95158325,0.02558007
1357.88039062,0.02532012
1359.80919800,0.02491610
1361.73800537,0.02384738
1363.66681274,0.02315742
1365.59562012,0.02492602
1367.52442749,0.02432483
1369.45323486,0.02372226
1371.38204224,0.02444270
1373.31084961,0.02277711
1375.23965698,0.02299182
1377.16846436,0.02393728
1379.09727173,0.02375343
1381.02607910,0.02381292
1382.95488647,0.02401496
1384.88369385,0.02393825
1386.81250122,0.02256372
1388.74130859,0.02305078
1390.67011597,0.02507177
1392.59892334,0.02443687
1394.52773071,0.02247590
1396.45653809,0.02357448
1398.38534546,0.02379070
1400.31415283,0.02344321
1402.24296021,0.02588345
1404.17176758,0.02423237
1406.10057495,0.02426311
1408.02938232,0.02561069
1409.95818970,0.02434425
1411.88699707,0.02519632
1413.81580444,0.02395409
1415.74461182,0.02443583
1417.67341919,0.02197853
1419.60222656,0.01890554
1421.53103394,0.02281289
1423.45984131,0.02202639
1425.38864868,0.02118818
1427.31745605,0.02189530
1429.24626343,0.01984603
1431.17507080,0.01933929
1433.10387817,0.01989392
1435.03268555,0.01814461
1436.96149292,0.01500932
1438.89030029,0.01744197
1440.81910767,0.01820429
1442.74791504,0.01655620
1444.67672241,0.01749589
1446.60552979,0.01597136
1448.53433716,0.01612358
1450.46314453,0.01670512
1452.39195190,0.01729775
1454.32075928,0.01789427
1456.24956665,0.01400623
1458.17837402,0.01461315
1460.10718140,0.02020479
1462.03598877,0.02183054
1463.96479614,0.02136270
1465.89360352,0.02189024
1467.82241089,0.02564013
1469.75121826,0.02772024
1471.68002563,0.02381889
1473.60883301,0.02490193
1475.53764038,0.02889214
1477.46644775,0.03153802
1479.39525513,0.03479681
1481.32406250,0.03504529
1483.25286987,0.03772099
1485.18167725,0.03879008
1487.11048462,0.03756052
1489.03929199,0.03698033
1490.96809937,0.03689546
1492.89690674,0.04437851
1494.82571411,0.04326268
1496.75452148,0.03760702
1498.68332886,0.04334176
1500.61213623,0.04493941
1502.54094360,0.04868001
1504.46975098,0.04590113
1506.39855835,0.03075797
1508.32736572,0.03847612
1510.25617310,0.04730885
1512.18498047,0.04555842
1514.11378784,0.04996882
1516.04259521,0.04410389
1517.97140259,0.04603925
1519.90020996,0.04471277
1521.82901733,0.03710634
1523.75782471,0.04725897
1525.68663208,0.04649896
1527.61543945,0.04589658
1529.54424683,0.05221248
1531.47305420,0.04982709
1533.40186157,0.04464722
1535.33066895,0.04775265
1537.25947632,0.05229633
1539.18828369,0.03506809
1541.11709106,0.03606147
1543.04589844,0.04552193
1544.97470581,0.04328313
1546.90351318,0.05317912
1548.83232056,0.04919057
1550.76112793,0.05049264
1552.68993530,0.05083922
1554.61874268,0.04483005
1556.54755005,0.04871849
1558.47635742,0.03214172
1560.40516479,0.03468072
1562.33397217,0.05377283
1564.26277954,0.05016611
1566.19158691,0.05183036
1568.12039429,0.05157697
1570.04920166,0.04415325
1571.97800903,0.05257218
1573.90681641,0.05369166
1575.83562378,0.04053725
1577.76443115,0.04661983
1579.69323853,0.05393249
1581.62204590,0.05147364
1583.55085327,0.05328586
1585.47966064,0.05245344
1587.40846802,0.05282599
1589.33727539,0.05238545
1591.26608276,0.05224026
1593.19489014,0.05242236
1595.12369751,0.05175236
1597.05250488,0.05251840
1598.98131226,0.05208213
1600.91011963,0.05232248
1602.83892700,0.05136378
1604.76773437,0.05239872
1606.69654175,0.05151848
1608.62534912,0.05121767
1610.55415649,0.05113862
1612.48296387,0.05162758
1614.41177124,0.05256977
1616.34057861,0.04155763
1618.26938599,0.04528925
1620.19819336,0.05452182
1622.12700073,0.04746686
1624.05580811,0.04720414
1625.98461548,0.05042168
1627.91342285,0.05002037
1629.84223022,0.04962426
1631.77103760,0.05388270
1633.69984497,0.04906294
1635.62865234,0.03886992
1637.55745972,0.04641650
1639.48626709,0.05250362
1641.41507446,0.05114964
1643.34388184,0.05277441
1645.27268921,0.04720203
1647.20149658,0.03980721
1649.13030396,0.05153180
1651.05911133,0.04954264
1652.98791870,0.02864217
1654.91672607,0.04120168
1656.84553345,0.05490705
1658.77434082,0.05249939
1660.70314819,0.05403367
1662.63195557,0.04817336
1664.56076294,0.05143090
1666.48957031,0.05646617
1668.41837769,0.04785441
1670.34718506,0.04601156
1672.27599243,0.05392867
1674.20479980,0.04912683
1676.13360718,0.04643037
1678.06241455,0.05521679
1679.99122192,0.05295733
1681.92002930,0.05217037
1683.84883667,0.04110673
1685.77764404,0.04027011
1687.70645142,0.05890229
1689.63525879,0.05003316
1691.56406616,0.05573300
1693.49287354,0.05771416
1695.42168091,0.03927632
1697.35048828,0.05071047
1699.27929565,0.04374108
1701.20810303,0.03775389
1703.13691040,0.05549388
1705.06571777,0.05006813
1706.99452515,0.05047064
1708.92333252,0.05626445
1710.85213989,0.05364967
1712.78094727,0.05474191
1714.70975464,0.04995942
1716.63856201,0.04397233
1718.56736938,0.04307463
1720.49617676,0.05280137
1722.42498413,0.05574011
1724.35379150,0.05089140
1726.28259888,0.05639176
1728.21140625,0.05159300
1730.14021362,0.05170935
1732.06902100,0.05073077
1733.99782837,0.03620978
1735.92663574,0.04695810
1737.85544312,0.05358808
1739.78425049,0.04632845
1741.71305786,0.05099864
1743.64186523,0.05181872
1745.57067261,0.05187938
1747.49947998,0.05233581
1749.42828735,0.04952163
1751.35709473,0.04698268
1753.28590210,0.05325086
1755.21470947,0.05636945
1757.14351685,0.05012381
1759.07232422,0.05639822
1761.00113159,0.05256572
1762.92993896,0.04989674
1764.85874634,0.05909013
1766.78755371,0.05203401
1768.71636108,0.05239285
1770.64516846,0.05228245
1772.57397583,0.04579013
1774.50278320,0.05227615
1776.43159058,0.05595627
1778.36039795,0.05511111
1780.28920532,0.05408021
1782.21801270,0.05475218
1784.14682007,0.05475368
1786.07562744,0.05322933
1788.00443481,0.05665331
1789.93324219,0.05499194
1791.86204956,0.04871460
1793.79085693,0.05104473
1795.71966431,0.05570076
1797.64847168,0.05498520
1799.57727905,0.05372037
1801.50608643,0.05257437
1803.43489380,0.05478751
1805.36370117,0.05649627
1807.29250854,0.05534084
1809.22131592,0.05547661
1811.15012329,0.05383611
1813.07893066,0.05571684
1815.00773804,0.05622518
1816.93654541,0.05544654
1818.86535278,0.05602246
1820.79416016,0.05580818
1822.72296753,0.05682236
1824.65177490,0.05226082
1826.58058228,0.05437429
1828.50938965,0.05465743
1830.43819702,0.05031155
1832.36700439,0.05596924
1834.29581177,0.05577086
1836.22461914,0.05562297
1838.15342651,0.05546948
1840.08223389,0.05566739
1842.01104126,0.05608191
1843.93984863,0.04838913
1845.86865601,0.05201713
1847.79746338,0.05564135
1849.72627075,0.05422661
1851.65507812,0.05655710
1853.58388550,0.05514408
1855.51269287,0.05585167
1857.44150024,0.05540265
1859.37030762,0.05487379
1861.29911499,0.05551759
1863.22792236,0.05461164
1865.15672974,0.05549042
1867.08553711,0.05304432
1869.01434448,0.05020701
1870.94315186,0.05293559
1872.87195923,0.05545494
1874.80076660,0.05458170
1876.72957397,0.05479719
1878.65838135,0.05458447
1880.58718872,0.05455822
1882.51599609,0.05501973
1884.44480347,0.05363887
1886.37361084,0.05484267
1888.30241821,0.05343255
1890.23122559,0.05191997
1892.16003296,0.05455084
1894.08884033,0.05362086
1896.01764771,0.05339391
1897.94645508,0.05420731
1899.87526245,0.05380275
1901.80406982,0.05406627
1903.73287720,0.05360528
1905.66168457,0.05400491
1907.59049194,0.05329881
1909.51929932,0.05281935
1911.44810669,0.05327598
1913.37691406,0.05332353
1915.30572144,0.05401099
1917.23452881,0.05106755
1919.16333618,0.05122209
1921.09214355,0.05369137
1923.02095093,0.05141882
1924.94975830,0.05272207
1926.87856567,0.05355236
1928.80737305,0.05276125
1930.73618042,0.05340128
1932.66498779,0.05259815
1934.59379517,0.05346328
1936.52260254,0.05286733
1938.45140991,0.05290311
1940.38021729,0.05308185
1942.30902466,0.05103865
1944.23783203,0.05200743
1946.16663940,0.05262603
1948.09544678,0.05264643
1950.02425415,0.05292940
1951.95306152,0.05258159
1953.88186890,0.05270692
1955.81067627,0.05254847
1957.73948364,0.05276418
1959.66829102,0.05268869
1961.59709839,0.05251976
1963.52590576,0.05266763
1965.45471313,0.05231443
1967.38352051,0.05170561
1969.31232788,0.05229448
1971.24113525,0.05280329
1973.16994263,0.05230693
1975.09875000,0.05248775
1977.02755737,0.05226640
1978.95636475,0.05239031
1980.88517212,0.05223661
1982.81397949,0.05199452
1984.74278687,0.05238826
1986.67159424,0.05174478
1988.60040161,0.05193046
1990.52920898,0.05136534
1992.45801636,0.05053815
1994.38682373,0.05155348
1996.31563110,0.05177288
1998.24443848,0.05152629
2000.17324585,0.05151916
2002.10205322,0.05141900
2004.03086060,0.05139124
2005.95966797,0.05118193
2007.88847534,0.05114194
2009.81728271,0.05121658
2011.74609009,0.05085227
2013.67489746,0.05094090
2015.60370483,0.05071303
2017.53251221,0.05000583
2019.46131958,0.05044489
2021.39012695,0.05043624
2023.31893433,0.05038913
2025.24774170,0.05038086
2027.17654907,0.05003060
2029.10535645,0.05036238
2031.03416382,0.05010924
2032.96297119,0.04994461
2034.89177856,0.04984196
2036.82058594,0.04975290
2038.74939331,0.04990258
2040.67820068,0.04948191
2042.60700806,0.04950266
2044.53581543,0.04947852
2046.46462280,0.04922916
2048.39343018,0.04920776
2050.32223755,0.04910429
2052.25104492,0.04904325
2054.17985229,0.04890460
2056.10865967,0.04883011
2058.03746704,0.04885205
2059.96627441,0.04872960
2061.89508179,0.04858628
2063.82388916,0.04844573
2065.75269653,0.04827107
2067.68150391,0.04839200
2069.61031128,0.04833358
2071.53911865,0.04827527
2073.46792603,0.04832126
2075.39673340,0.04801141
2077.32554077,0.04803243
2079.25434814,0.04791070
2081.18315552,0.04775508
2083.11196289,0.04783428
2085.04077026,0.04776300
2086.96957764,0.04772229
2088.89838501,0.04739071
2090.82719238,0.04738888
2092.75599976,0.04763966
2094.68480713,0.04745213
2096.61361450,0.04721034
2098.54242187,0.04720820
2100.47122925,0.04728708
2102.40003662,0.04715950
2104.32884399,0.04699580
2106.25765137,0.04694763
2108.18645874,0.04696071
2110.11526611,0.04687899
2112.04407349,0.04676150
2113.97288086,0.04666649
2115.90168823,0.04662651
2117.83049561,0.04660401
2119.75930298,0.04648467
2121.68811035,0.04646264
2123.61691772,0.04635165
2125.54572510,0.04628018
2127.47453247,0.04637853
2129.40333984,0.04632303
2131.33214722,0.04603908
2133.26095459,0.04592597
2135.18976196,0.04603807
2137.11856934,0.04589885
2139.04737671,0.04586675
2140.97618408,0.04595601
2142.90499146,0.04593757
2144.83379883,0.04592185
2146.76260620,0.04586101
2148.69141357,0.04580252
2150.62022095,0.04576386
2152.54902832,0.04573019
2154.47783569,0.04557234
2156.40664307,0.04557443
2158.33545044,0.04561923
2160.26425781,0.04549858
2162.19306519,0.04537796
2164.12187256,0.04530039
2166.05067993,0.04530787
2167.97948730,0.04524642
2169.90829468,0.04528578
2171.83710205,0.04519034
2173.76590942,0.04506591
2175.69471680,0.04509694
2177.62352417,0.04508288
2179.55233154,0.04506491
2181.48113892,0.04483197
2183.40994629,0.04490519
2185.33875366,0.04503701
2187.26756104,0.04484710
2189.19636841,0.04483102
2191.12517578,0.04486420
2193.05398315,0.04470390
2194.98279053,0.04448251
2196.91159790,0.04460945
2198.84040527,0.04467551
2200.76921265,0.04450553
2202.69802002,0.04437918
2204.62682739,0.04430975
2206.55563477,0.04438026
2208.48444214,0.04441788
2210.41324951,0.04448625
2212.34205688,0.04445723
2214.27086426,0.04425649
2216.19967163,0.04409115
2218.12847900,0.04408924
2220.05728638,0.04408534
2221.98609375,0.04401562
2223.91490112,0.04398844
2225.84370850,0.04392961
2227.77251587,0.04393878
2229.70132324,0.04379388
2231.63013062,0.04378390
2233.55893799,0.04380378
2235.48774536,0.04366677
2237.41655273,0.04369246
2239.34536011,0.04352297
2241.27416748,0.04340460
2243.20297485,0.04333155
2245.13178223,0.04345352
2247.06058960,0.04356304
2248.98939697,0.04325131
2250.91820435,0.04322278
2252.84701172,0.04321731
2254.77581909,0.04315464
2256.70462646,0.04308436
2258.63343384,0.04289813
2260.56224121,0.04292669
2262.49104858,0.04289958
2264.41985596,0.04271683
2266.34866333,0.04268721
2268.27747070,0.04268790
2270.20627808,0.04257724
2272.13508545,0.04260288
2274.06389282,0.04255898
2275.99270020,0.04250857
2277.92150757,0.04249205
2279.85031494,0.04245929
2281.77912231,0.04253075
2283.70792969,0.04238418
2285.63673706,0.04236054
2287.56554443,0.04238573
2289.49435181,0.04217763
2291.42315918,0.04202772
2293.35196655,0.04203370
2295.28077393,0.04195952
2297.20958130,0.04179723
2299.13838867,0.04173440
2301.06719604,0.04146649
2302.99600342,0.04143246
2304.92481079,0.04134335
2306.85361816,0.04094493
2308.78242554,0.04071189
2310.71123291,0.04038618
2312.64004028,0.04018146
2314.56884766,0.03972591
2316.49765503,0.03921879
2318.42646240,0.03893439
2320.35526978,0.03842364
2322.28407715,0.03793438
2324.21288452,0.03746176
2326.14169189,0.03712591
2328.07049927,0.03677326
2329.99930664,0.03629818
2331.92811401,0.03600545
2333.85692139,0.03596176
2335.78572876,0.03582912
2337.71453613,0.03566159
2339.64334351,0.03568313
2341.57215088,0.03581116
2343.50095825,0.03636713
2345.42976562,0.03696986
2347.35857300,0.03823812
2349.28738037,0.03934459
2351.21618774,0.03822262
2353.14499512,0.03650959
2355.07380249,0.03525360
2357.00260986,0.03432011
2358.93141724,0.03374279
2360.86022461,0.03333762
2362.78903198,0.03335983
2364.71783936,0.03347375
2366.64664673,0.03382045
2368.57545410,0.03452593
2370.50426147,0.03529248
2372.43306885,0.03606725
2374.36187622,0.03701103
2376.29068359,0.03797975
2378.21949097,0.03864504
2380.14829834,0.03920217
2382.07710571,0.03955572
2384.00591309,0.03973236
2385.93472046,0.03993665
2387.86352783,0.04001736
2389.79233521,0.03991261
2391.72114258,0.03984578
2393.64994995,0.03982072
2395.57875732,0.03982438
2397.50756470,0.03993719
2399.43637207,0.03986343
2401.36517944,0.03977017
2403.29398682,0.03969273
2405.22279419,0.03953522
2407.15160156,0.03953513
2409.08040894,0.03951511
2411.00921631,0.03937586
2412.93802368,0.03934684
2414.86683105,0.03937187
2416.79563843,0.03929144
2418.72444580,0.03932886
2420.65325317,0.03920032
2422.58206055,0.03900759
2424.51086792,0.03906798
2426.43967529,0.03899137
2428.36848267,0.03894501
2430.29729004,0.03889906
2432.22609741,0.03886624
2434.15490479,0.03889088
2436.08371216,0.03881173
2438.01251953,0.03873889
2439.94132690,0.03864223
2441.87013428,0.03871472
2443.79894165,0.03876308
2445.72774902,0.03862306
2447.65655640,0.03854867
2449.58536377,0.03857520
2451.51417114,0.03853317
2453.44297852,0.03841038
2455.37178589,0.03845624
2457.30059326,0.03839821
2459.22940063,0.03819032
2461.15820801,0.03824577
2463.08701538,0.03824373
2465.01582275,0.03810449
2466.94463013,0.03822273
2468.87343750,0.03811324
2470.80224487,0.03799742
2472.73105225,0.03809744
2474.65985962,0.03789835
2476.58866699,0.03789345
2478.51747437,0.03789851
2480.44628174,0.03786411
2482.37508911,0.03780592
2484.30389648,0.03764817
2486.23270386,0.03774704
2488.16151123,0.03765605
2490.09031860,0.03769971
2492.01912598,0.03756593
2493.94793335,0.03738394
2495.87674072,0.03753929
2497.80554810,0.03738024
2499.73435547,0.03736465
2501.66316284,0.03723150
2503.59197021,0.03719532
2505.52077759,0.03726933
2507.44958496,0.03706316
2509.37839233,0.03713378
2511.30719971,0.03713580
2513.23600708,0.03704757
2515.16481445,0.03697105
2517.09362183,0.03698362
2519.02242920,0.03689162
2520.95123657,0.03682377
2522.88004395,0.03692012
2524.80885132,0.03667501
2526.73765869,0.03669078
2528.66646606,0.03668991
2530.59527344,0.03662362
2532.52408081,0.03675275
2534.45288818,0.03660167
2536.38169556,0.03653935
2538.31050293,0.03650856
2540.23931030,0.03647378
2542.16811768,0.03646887
2544.09692505,0.03636548
2546.02573242,0.03626750
2547.95453979,0.03622677
2549.88334717,0.03614344
2551.81215454,0.03612998
2553.74096191,0.03631006
2555.66976929,0.03613058
2557.59857666,0.03600637
2559.52738403,0.03611740
2561.45619141,0.03604447
2563.38499878,0.03599174
2565.31380615,0.03585953
2567.24261353,0.03578655
2569.17142090,0.03578209
2571.10022827,0.03580315
2573.02903564,0.03578235
2574.95784302,0.03571180
2576.88665039,0.03570150
2578.81545776,0.03557033
2580.74426514,0.03557779
2582.67307251,0.03555244
2584.60187988,0.03536443
2586.53068726,0.03535766
2588.45949463,0.03540567
2590.38830200,0.03526986
2592.31710937,0.03520717
2594.24591675,0.03533271
2596.17472412,0.03526087
2598.10353149,0.03519238
2600.03233887,0.03504357
2601.96114624,0.03497612
2603.88995361,0.03506631
2605.81876099,0.03480360
2607.74756836,0.03487327
2609.67637573,0.03499711
2611.60518311,0.03479958
2613.53399048,0.03472186
2615.46279785,0.03464556
2617.39160522,0.03473850
2619.32041260,0.03463952
2621.24921997,0.03448534
2623.17802734,0.03449316
2625.10683472,0.03445496
2627.03564209,0.03449150
2628.96444946,0.03424846
2630.89325684,0.03423689
2632.82206421,0.03437280
2634.75087158,0.03419086
2636.67967895,0.03424313
2638.60848633,0.03426488
2640.53729370,0.03418642
2642.46610107,0.03408840
2644.39490845,0.03401755
2646.32371582,0.03401884
2648.25252319,0.03386217
2650.18133057,0.03388211
2652.11013794,0.03388399
2654.03894531,0.03382687
2655.96775269,0.03382688
2657.89656006,0.03364276
2659.82536743,0.03358444
2661.75417480,0.03358519
2663.68298218,0.03354245
2665.61178955,0.03354175
2667.54059692,0.03351899
2669.46940430,0.03346224
2671.39821167,0.03337137
2673.32701904,0.03331430
2675.25582642,0.03326651
2677.18463379,0.03329625
2679.11344116,0.03320503
2681.04224854,0.03311532
2682.97105591,0.03316118
2684.89986328,0.03302719
2686.82867065,0.03300362
2688.75747803,0.03298917
2690.68628540,0.03291447
2692.61509277,0.03287643
2694.54390015,0.03276149
2696.47270752,0.03287186
2698.40151489,0.03283639
2700.33032227,0.03267019
2702.25912964,0.03271531
2704.18793701,0.03263424
2706.11674438,0.03252400
2708.04555176,0.03252942
2709.97435913,0.03255321
2711.90316650,0.03242936
2713.83197388,0.03226209
2715.76078125,0.03225607
2717.68958862,0.03229255
2719.61839600,0.03225988
2721.54720337,0.03212420
2723.47601074,0.03208086
2725.40481812,0.03205355
2727.33362549,0.03197814
2729.26243286,0.03199163
2731.19124023,0.03196261
2733.12004761,0.03187763
2735.04885498,0.03183032
2736.97766235,0.03183588
2738.90646973,0.03177585
2740.83527710,0.03177993
2742.76408447,0.03169762
2744.69289185,0.03148174
2746.62169922,0.03154829
2748.55050659,0.03153238
2750.47931396,0.03144918
2752.40812134,0.03148153
2754.33692871,0.03141578
2756.26573608,0.03131366
2758.19454346,0.03121851
2760.12335083,0.03122537
2762.05215820,0.03110892
2763.98096558,0.03100694
2765.90977295,0.03101288
2767.83858032,0.03091989
2769.76738770,0.03087882
2771.69619507,0.03077970
2773.62500244,0.03077207
2775.55380981,0.03082345
2777.48261719,0.03074749
2779.41142456,0.03068388
2781.34023193,0.03057874
2783.26903931,0.03044112
2785.19784668,0.03047658
2787.12665405,0.03056154
2789.05546143,0.03035703
2790.98426880,0.03029789
2792.91307617,0.03028410
2794.84188354,0.03012512
2796.77069092,0.03019683
2798.69949829,0.03005933
2800.62830566,0.02994165
2802.55711304,0.03001102
2804.48592041,0.02992813
2806.41472778,0.02983285
2808.34353516,0.02969103
2810.27234253,0.02962815
2812.20114990,0.02959780
2814.12995728,0.02959159
2816.05876465,0.02960296
2817.98757202,0.02950116
2819.91637939,0.02944215
2821.84518677,0.02935075
2823.77399414,0.02918023
2825.70280151,0.02906805
2827.63160889,0.02902685
2829.56041626,0.02894453
2831.48922363,0.02898890
2833.41803101,0.02902695
2835.34683838,0.02881553
2837.27564575,0.02875170
2839.20445312,0.02862806
2841.13326050,0.02841460
2843.06206787,0.02838161
2844.99087524,0.02812740
2846.91968262,0.02782735
2848.84848999,0.02772620
2850.77729736,0.02769565
2852.70610474,0.02780711
2854.63491211,0.02795621
2856.56371948,0.02797388
2858.49252686,0.02786592
2860.42133423,0.02779227
2862.35014160,0.02775472
2864.27894897,0.02775041
2866.20775635,0.02783967
2868.13656372,0.02777761
2870.06537109,0.02759912
2871.99417847,0.02753131
2873.92298584,0.02759574
2875.85179321,0.02763479
2877.78060059,0.02751169
2879.70940796,0.02743977
2881.63821533,0.02733894
2883.56702270,0.02722279
2885.49583008,0.02727319
2887.42463745,0.02719012
2889.35344482,0.02708179
2891.28225220,0.02707162
2893.21105957,0.02686618
2895.13986694,0.02669933
2897.06867432,0.02673650
2898.99748169,0.02668543
2900.92628906,0.02660644
2902.85509644,0.02655002
2904.78390381,0.02644604
2906.71271118,0.02632206
2908.64151855,0.02619153
2910.57032593,0.02606837
2912.49913330,0.02584654
2914.42794067,0.02575264
2916.35674805,0.02563568
2918.28555542,0.02545579
2920.21436279,0.02554039
2922.14317017,0.02558548
2924.07197754,0.02574942
2926.00078491,0.02580956
2927.92959229,0.02579487
2929.85839966,0.02595320
2931.78720703,0.02586171
2933.71601440,0.02603556
2935.64482178,0.02605279
2937.57362915,0.02584099
2939.50243652,0.02604686
2941.43124390,0.02599011
2943.36005127,0.02592351
2945.28885864,0.02600372
2947.21766602,0.02583940
2949.14647339,0.02570804
2951.07528076,0.02566764
2953.00408813,0.02560917
2954.93289551,0.02553430
2956.86170288,0.02551485
2958.79051025,0.02549604
2960.71931763,0.02543431
2962.64812500,0.02539607
2964.57693237,0.02534896
2966.50573975,0.02530382
2968.43454712,0.02531571
2970.36335449,0.02531514
2972.29216187,0.02541449
2974.22096924,0.02545348
2976.14977661,0.02536222
2978.07858398,0.02538519
2980.00739136,0.02519887
2981.93619873,0.02515403
2983.86500610,0.02522734
2985.79381348,0.02514321
2987.72262085,0.02524811
2989.65142822,0.02511149
2991.58023560,0.02499632
2993.50904297,0.02497563
2995.43785034,0.02489189
2997.36665771,0.02493128
2999.29546509,0.02481732
3001.22427246,0.02475503
3003.15307983,0.02471133
3005.08188721,0.02468542
3007.01069458,0.02461884
3008.93950195,0.02459197
3010.86830933,0.02455418
3012.79711670,0.02426213
3014.72592407,0.02422492
3016.65473145,0.02422699
3018.58353882,0.02420763
3020.51234619,0.02414357
3022.44115356,0.02408883
3024.36996094,0.02409874
3026.29876831,0.02389174
3028.22757568,0.02397817
3030.15638306,0.02389553
3032.08519043,0.02371560
3034.01399780,0.02367369
3035.94280518,0.02350440
3037.87161255,0.02354832
3039.80041992,0.02346426
3041.72922729,0.02346543
3043.65803467,0.02337386
3045.58684204,0.02327749
3047.51564941,0.02336554
3049.44445679,0.02315735
3051.37326416,0.02316826
3053.30207153,0.02310385
3055.23087891,0.02287685
3057.15968628,0.02274989
3059.08849365,0.02279208
3061.01730103,0.02291112
3062.94610840,0.02264748
3064.87491577,0.02261197
3066.80372314,0.02264514
3068.73253052,0.02252420
3070.66133789,0.02249560
3072.59014526,0.02238847
3074.51895264,0.02236387
3076.44776001,0.02232272
3078.37656738,0.02228523
3080.30537476,0.02219462
3082.23418213,0.02210513
3084.16298950,0.02206490
3086.09179687,0.02204350
3088.02060425,0.02207192
3089.94941162,0.02190272
3091.87821899,0.02185978
3093.80702637,0.02181721
3095.73583374,0.02167132
3097.66464111,0.02167171
3099.59344849,0.02155086
3101.52225586,0.02148484
3103.45106323,0.02146912
3105.37987061,0.02139924
3107.30867798,0.02136203
3109.23748535,0.02118525
3111.16629272,0.02107016
3113.09510010,0.02108238
3115.02390747,0.02096023
3116.95271484,0.02090182
3118.88152222,0.02089544
3120.81032959,0.02076711
3122.73913696,0.02071244
3124.66794434,0.02064966
3126.59675171,0.02052706
3128.52555908,0.02048000
3130.45436645,0.02047227
3132.38317383,0.02035312
3134.31198120,0.02027430
3136.24078857,0.02025317
3138.16959595,0.02011966
3140.09840332,0.02010555
3142.02721069,0.02001915
3143.95601807,0.01994300
3145.88482544,0.01988517
3147.81363281,0.01976050
3149.74244019,0.01977976
3151.67124756,0.01966481
3153.60005493,0.01968237
3155.52886230,0.01950444
3157.45766968,0.01927417
3159.38647705,0.01941681
3161.31528442,0.01931708
3163.24409180,0.01926550
3165.17289917,0.01914647
3167.10170654,0.01906428
3169.03051392,0.01904457
3170.95932129,0.01888210
3172.88812866,0.01891769
3174.81693604,0.01873218
3176.74574341,0.01866157
3178.67455078,0.01870517
3180.60335815,0.01858029
3182.53216553,0.01855684
3184.46097290,0.01842112
3186.38978027,0.01829645
3188.31858765,0.01833068
3190.24739502,0.01834925
3192.17620239,0.01822695
3194.10500977,0.01823310
3196.03381714,0.01815995
3197.96262451,0.01797388
3199.89143188,0.01800996
3201.82023926,0.01797891
3203.74904663,0.01795244
3205.67785400,0.01784628
3207.60666138,0.01772371
3209.53546875,0.01774157
3211.46427612,0.01770507
3213.39308350,0.01759128
3215.32189087,0.01756255
3217.25069824,0.01761380
3219.17950562,0.01744399
3221.10831299,0.01741867
3223.03712036,0.01747226
3224.96592773,0.01748141
3226.89473511,0.01754392
3228.82354248,0.01742299
3230.75234985,0.01738068
3232.68115723,0.01732267
3234.60996460,0.01727512
3236.53877197,0.01726841
3238.46757935,0.01723999
3240.39638672,0.01723249
3242.32519409,0.01717844
3244.25400146,0.01715419
3246.18280884,0.01703153
3248.11161621,0.01699148
3250.04042358,0.01704586
3251.96923096,0.01713868
3253.89803833,0.01710229
3255.82684570,0.01701318
3257.75565308,0.01701884
3259.68446045,0.01687504
3261.61326782,0.01697315
3263.54207520,0.01692721
3265.47088257,0.01685750
3267.39968994,0.01703702
3269.32849731,0.01687946
3271.25730469,0.01679235
3273.18611206,0.01682087
3275.11491943,0.01686142
3277.04372681,0.01686344
3278.97253418,0.01681506
3280.90134155,0.01676566
3282.83014893,0.01673111
3284.75895630,0.01689510
3286.68776367,0.01678436
3288.61657104,0.01677940
3290.54537842,0.01692096
3292.47418579,0.01663816
3294.40299316,0.01658170
3296.33180054,0.01670896
3298.26060791,0.01659879
3300.18941528,0.01654920
3302.11822266,0.01663783
3304.04703003,0.01674319
3305.97583740,0.01670422
3307.90464478,0.01650408
3309.83345215,0.01647184
3311.76225952,0.01651668
3313.69106689,0.01649719
3315.61987427,0.01655489
3317.54868164,0.01652878
3319.47748901,0.01647925
3321.40629639,0.01654531
3323.33510376,0.01650948
3325.26391113,0.01636319
3327.19271851,0.01638825
3329.12152588,0.01643662
3331.05033325,0.01638878
3332.97914062,0.01637680
3334.90794800,0.01632349
3336.83675537,0.01627763
3338.76556274,0.01630058
3340.69437012,0.01634228
3342.62317749,0.01630324
3344.55198486,0.01632816
3346.48079224,0.01630483
3348.40959961,0.01620991
3350.33840698,0.01624168
3352.26721436,0.01623099
3354.19602173,0.01627239
3356.12482910,0.01614321
3358.05363647,0.01606915
3359.98244385,0.01616940
3361.91125122,0.01616571
3363.84005859,0.01617937
3365.76886597,0.01605967
3367.69767334,0.01608365
3369.62648071,0.01608724
3371.55528809,0.01612419
3373.48409546,0.01617503
3375.41290283,0.01605940
3377.34171020,0.01606835
3379.27051758,0.01595828
3381.19932495,0.01609325
3383.12813232,0.01609784
3385.05693970,0.01591166
3386.98574707,0.01597586
3388.91455444,0.01598665
3390.84336182,0.01594299
3392.77216919,0.01581482
3394.70097656,0.01596346
3396.62978394,0.01594711
3398.55859131,0.01586823
3400.48739868,0.01597525
3402.41620605,0.01593678
3404.34501343,0.01601689
3406.27382080,0.01592953
3408.20262817,0.01591371
3410.13143555,0.01589675
3412.06024292,0.01590744
3413.98905029,0.01598985
3415.91785767,0.01596935
3417.84666504,0.01600942
3419.77547241,0.01586796
3421.70427979,0.01591789
3423.63308716,0.01585928
3425.56189453,0.01579610
3427.49070190,0.01591752
3429.41950928,0.01585261
3431.34831665,0.01587497
3433.27712402,0.01587558
3435.20593140,0.01588055
3437.13473877,0.01587176
3439.06354614,0.01591885
3440.99235352,0.01578292
3442.92116089,0.01576772
3444.84996826,0.01582136
3446.77877563,0.01552932
3448.70758301,0.01578152
3450.63639038,0.01598480
3452.56519775,0.01593872
3454.49400513,0.01597252
3456.42281250,0.01589912
3458.35161987,0.01598039
3460.28042725,0.01583605
3462.20923462,0.01566375
3464.13804199,0.01587832
3466.06684937,0.01600929
3467.99565674,0.01588216
3469.92446411,0.01598042
3471.85327148,0.01597805
3473.78207886,0.01596285
3475.71088623,0.01601138
3477.63969360,0.01592462
3479.56850098,0.01599384
3481.49730835,0.01574530
3483.42611572,0.01587133
3485.35492310,0.01601988
3487.28373047,0.01581247
3489.21253784,0.01597918
3491.14134521,0.01602516
3493.07015259,0.01610519
3494.99895996,0.01605005
3496.92776733,0.01602831
3498.85657471,0.01606645
3500.78538208,0.01600296
3502.71418945,0.01577660
3504.64299683,0.01573114
3506.57180420,0.01620666
3508.50061157,0.01592936
3510.42941895,0.01593009
3512.35822632,0.01616815
3514.28703369,0.01607983
3516.21584106,0.01630120
3518.14464844,0.01606200
3520.07345581,0.01614273
3522.00226318,0.01611501
3523.93107056,0.01586080
3525.85987793,0.01599102
3527.78868530,0.01585386
3529.71749268,0.01590260
3531.64630005,0.01611411
3533.57510742,0.01632058
3535.50391479,0.01625761
3537.43272217,0.01607904
3539.36152954,0.01634882
3541.29033691,0.01638790
3543.21914429,0.01613627
3545.14795166,0.01577932
3547.07675903,0.01548413
3549.00556641,0.01611933
3550.93437378,0.01627737
3552.86318115,0.01580628
3554.79198853,0.01631323
3556.72079590,0.01637788
3558.64960327,0.01629000
3560.57841064,0.01632515
3562.50721802,0.01617730
3564.43602539,0.01618233
3566.36483276,0.01486370
3568.29364014,0.01447098
3570.22244751,0.01607465
3572.15125488,0.01656548
3574.08006226,0.01622634
3576.00886963,0.01639802
3577.93767700,0.01631597
3579.86648437,0.01630206
3581.79529175,0.01635876
3583.72409912,0.01629925
3585.65290649,0.01600646
3587.58171387,0.01442203
3589.51052124,0.01491845
3591.43932861,0.01665775
3593.36813599,0.01603172
3595.29694336,0.01567247
3597.22575073,0.01600366
3599.15455811,0.01626822
3601.08336548,0.01610869
3603.01217285,0.01618215
3604.94098022,0.01663344
3606.86978760,0.01587535
3608.79859497,0.01480623
3610.72740234,0.01528045
3612.65620972,0.01562892
3614.58501709,0.01508212
3616.51382446,0.01635325
3618.44263184,0.01496777
3620.37143921,0.01434357
3622.30024658,0.01665170
3624.22905395,0.01616966
3626.15786133,0.01701152
3628.08666870,0.01399087
3630.01547607,0.01241978
3631.94428345,0.01652929
3633.87309082,0.01593706
3635.80189819,0.01622621
3637.73070557,0.01676127
3639.65951294,0.01637491
3641.58832031,0.01661487
3643.51712769,0.01637698
3645.44593506,0.01654544
3647.37474243,0.01454121
3649.30354980,0.01310993
3651.23235718,0.01329539
3653.16116455,0.01640721
3655.08997192,0.01629030
3657.01877930,0.01416864
3658.94758667,0.01683673
3660.87639404,0.01642773
3662.80520142,0.01660477
3664.73400879,0.01669294
3666.66281616,0.01652649
3668.59162354,0.01591641
3670.52043091,0.01246170
3672.44923828,0.01569667
3674.37804565,0.01474241
3676.30685303,0.01166804
3678.23566040,0.01541663
3680.16446777,0.01595186
3682.09327515,0.01611619
3684.02208252,0.01652638
3685.95088989,0.01622117
3687.87969727,0.01449314
3689.80850464,0.01303549
3691.73731201,0.01509007
3693.66611938,0.01572213
3695.59492676,0.01622178
3697.52373413,0.01610928
3699.45254150,0.01601766
3701.38134888,0.01544448
3703.31015625,0.01473725
3705.23896362,0.01655792
3707.16777100,0.01555528
3709.09657837,0.01524645
3711.02538574,0.01420202
3712.95419312,0.01303306
3714.88300049,0.01578040
3716.81180786,0.01555466
3718.74061523,0.01569133
3720.66942261,0.01525585
3722.59822998,0.01466268
3724.52703735,0.01543227
3726.45584473,0.01407917
3728.38465210,0.01539968
3730.31345947,0.01520291
3732.24226685,0.01369963
3734.17107422,0.01339024
3736.09988159,0.01251073
3738.02868896,0.01341725
3739.95749634,0.01484232
3741.88630371,0.01557460
3743.81511108,0.01172028
3745.74391846,0.01082529
3747.67272583,0.01470056
3749.60153320,0.01240664
3751.53034058,0.01110107
3753.45914795,0.01321311
3755.38795532,0.01438717
3757.31676270,0.01500047
3759.24557007,0.01372131
3761.17437744,0.01428918
3763.10318481,0.01549516
3765.03199219,0.01425127
3766.96079956,0.01450779
3768.88960693,0.01436434
3770.81841431,0.01354851
3772.74722168,0.01489921
3774.67602905,0.01493770
3776.60483643,0.01493075
3778.53364380,0.01444327
3780.46245117,0.01373923
3782.39125854,0.01492808
3784.32006592,0.01457144
3786.24887329,0.01447747
3788.17768066,0.01479209
3790.10648804,0.01470323
3792.03529541,0.01468509
3793.96410278,0.01483547
3795.89291016,0.01381203
3797.82171753,0.01355997
3799.75052490,0.01452599
3801.67933228,0.01115397
3803.60813965,0.01318494
3805.53694702,0.01461358
3807.46575439,0.01151353
3809.39456177,0.01440109
3811.32336914,0.01409531
3813.25217651,0.01464355
3815.18098389,0.01314802
3817.10979126,0.01124253
3819.03859863,0.01470903
3820.96740601,0.01134251
3822.89621338,0.01209514
3824.82502075,0.01452542
3826.75382812,0.01288545
3828.68263550,0.01421446
3830.61144287,0.01345924
3832.54025024,0.01293674
3834.46905762,0.01326091
3836.39786499,0.01252020
3838.32667236,0.01122256
3840.25547974,0.01215602
3842.18428711,0.01330084
3844.11309448,0.01265079
3846.04190186,0.01382532
3847.97070923,0.01364603
3849.89951660,0.01366502
3851.82832397,0.01200516
3853.75713135,0.00853406
3855.68593872,0.01046404
3857.61474609,0.01356358
3859.54355347,0.01328714
3861.47236084,0.01309353
3863.40116821,0.01275753
3865.32997559,0.01171687
3867.25878296,0.01335263
3869.18759033,0.01196149
3871.11639770,0.01088741
3873.04520508,0.01344484
3874.97401245,0.01201438
3876.90281982,0.01327648
3878.83162720,0.01361512
3880.76043457,0.01115957
3882.68924194,0.01331389
3884.61804932,0.01233991
3886.54685669,0.01109229
3888.47566406,0.01331440
3890.40447144,0.01254971
3892.33327881,0.01168386
3894.26208618,0.01303929
3896.19089355,0.01333905
3898.11970093,0.01248300
3900.04850830,0.01173028
3901.97731567,0.01154606
3903.90612305,0.01132412
3905.83493042,0.01160281
3907.76373779,0.01297686
3909.69254517,0.01292222
3911.62135254,0.01277043
3913.55015991,0.01314141
3915.47896728,0.01251187
3917.40777466,0.01213406
3919.33658203,0.01213459
3921.26538940,0.01254478
3923.19419678,0.01241591
3925.12300415,0.01219221
3927.05181152,0.01253241
3928.98061890,0.01268888
3930.90942627,0.01243281
3932.83823364,0.01188314
3934.76704102,0.01240264
3936.69584839,0.01253113
3938.62465576,0.01235781
3940.55346313,0.01260211
3942.48227051,0.01203993
3944.41107788,0.01217656
3946.33988525,0.01245304
3948.26869263,0.01200350
3950.19750000,0.01207106
3952.12630737,0.01232109
3954.05511475,0.01233652
3955.98392212,0.01235764
3957.91272949,0.01223421
3959.84153687,0.01220550
3961.77034424,0.01214842
3963.69915161,0.01208404
3965.62795898,0.01221243
3967.55676636,0.01209020
3969.48557373,0.01215246
3971.41438110,0.01211014
3973.34318848,0.01202753
3975.27199585,0.01202865
3977.20080322,0.01193755
3979.12961060,0.01208541
3981.05841797,0.01195012
3982.98722534,0.01199883
3984.91603271,0.01197603
3986.84484009,0.01186035
3988.77364746,0.01185528
3990.70245483,0.01181051
3992.63126221,0.01203377
3994.56006958,0.01182339
3996.48887695,0.01177076
3998.41768433,0.01184187
4000.34649170,0.01175708
4002.27529907,0.01174201
4004.20410645,0.01171299
4006.13291382,0.01174681
4008.06172119,0.01157518
4009.99052856,0.01167851
4011.91933594,0.01165015
4013.84814331,0.01151753
4015.77695068,0.01151834
4017.70575806,0.01159002
4019.63456543,0.01156428
4021.56337280,0.01131528
4023.49218018,0.01148563
4025.42098755,0.01137249
4027.34979492,0.01139244
4029.27860229,0.01146074
4031.20740967,0.01133017
4033.13621704,0.01144226
4035.06502441,0.01129974
4036.99383179,0.01143352
4038.92263916,0.01132732
4040.85144653,0.01116219
4042.78025391,0.01120908
4044.70906128,0.01114188
4046.63786865,0.01121540
4048.56667603,0.01109944
4050.49548340,0.01113070
4052.42429077,0.01113227
4054.35309814,0.01107107
4056.28190552,0.01106936
4058.21071289,0.01105820
4060.13952026,0.01102423
4062.06832764,0.01097518
4063.99713501,0.01104869
4065.92594238,0.01101468
4067.85474976,0.01101521
4069.78355713,0.01084963
4071.71236450,0.01087145
4073.64117187,0.01094298
4075.56997925,0.01077188
4077.49878662,0.01087389
4079.42759399,0.01092016
4081.35640137,0.01075726
4083.28520874,0.01061387
4085.21401611,0.01079427
4087.14282349,0.01073985
4089.07163086,0.01063341
4091.00043823,0.01070524
4092.92924561,0.01052159
4094.85805298,0.01061306
4096.78686035,0.01066049
4098.71566772,0.01054915
4100.64447510,0.01046636
4102.57328247,0.01052918
4104.50208984,0.01045983
4106.43089722,0.01040477
4108.35970459,0.01058950
4110.28851196,0.01042803
4112.21731934,0.01049973
4114.14612671,0.01041775
4116.07493408,0.01036144
4118.00374145,0.01044165
4119.93254883,0.01023131
4121.86135620,0.01035985
4123.79016357,0.01029444
4125.71897095,0.01028203
4127.64777832,0.01025944
4129.57658569,0.01014317
4131.50539307,0.01024744
4133.43420044,0.01017751
4135.36300781,0.01013239
4137.29181519,0.01008373
4139.22062256,0.01007492
4141.14942993,0.01004081
4143.07823730,0.01006695
4145.00704468,0.01001596
4146.93585205,0.00998241
4148.86465942,0.01008274
4150.79346680,0.00997408
4152.72227417,0.01005030
4154.65108154,0.01003838
4156.57988892,0.00990348
4158.50869629,0.00985592
4160.43750366,0.00991425
4162.36631103,0.00988758
4164.29511841,0.00971265
4166.22392578,0.00982648
4168.15273315,0.00974367
4170.08154053,0.00968579
4172.01034790,0.00977996
4173.93915527,0.00968595
4175.86796265,0.00964909
4177.79677002,0.00967965
4179.72557739,0.00965082
4181.65438477,0.00955398
4183.58319214,0.00956944
4185.51199951,0.00958832
4187.44080688,0.00964876
4189.36961426,0.00953473
4191.29842163,0.00947150
4193.22722900,0.00957607
4195.15603638,0.00948192
4197.08484375,0.00955328
4199.01365112,0.00949290
4200.94245850,0.00942081
4202.87126587,0.00938916
4204.80007324,0.00930288
4206.72888062,0.00939151
4208.65768799,0.00936301
4210.58649536,0.00937944
4212.51530273,0.00931121
4214.44411011,0.00931377
4216.37291748,0.00931997
4218.30172485,0.00913579
4220.23053223,0.00923735
4222.15933960,0.00929093
4224.08814697,0.00913301
4226.01695435,0.00911435
4227.94576172,0.00921498
4229.87456909,0.00922221
4231.80337646,0.00912006
4233.73218384,0.00901671
4235.66099121,0.00903958
4237.58979858,0.00903147
4239.51860596,0.00898097
4241.44741333,0.00899620
4243.37622070,0.00893016
4245.30502808,0.00899448
4247.23383545,0.00898612
4249.16264282,0.00891540
4251.09145020,0.00896554
4253.02025757,0.00896117
4254.94906494,0.00889027
4256.87787231,0.00884593
4258.80667969,0.00895763
4260.73548706,0.00885638
4262.66429443,0.00879911
4264.59310181,0.00882904
4266.52190918,0.00874391
4268.45071655,0.00879555
4270.37952393,0.00868937
4272.30833130,0.00863409
4274.23713867,0.00864604
4276.16594604,0.00862056
4278.09475342,0.00864180
4280.02356079,0.00857541
4281.95236816,0.00857252
4283.88117554,0.00860221
4285.80998291,0.00857423
4287.73879028,0.00856858
4289.66759766,0.00858363
4291.59640503,0.00849590
4293.52521240,0.00844923
4295.45401978,0.00836526
4297.38282715,0.00834478
4299.31163452,0.00844350
4301.24044189,0.00839588
4303.16924927,0.00839576
4305.09805664,0.00835450
4307.02686401,0.00840553
4308.95567139,0.00837021
4310.88447876,0.00822963
4312.81328613,0.00827746
4314.74209351,0.00826392
4316.67090088,0.00825517
4318.59970825,0.00817392
4320.52851562,0.00825083
4322.45732300,0.00825657
4324.38613037,0.00812862
4326.31493774,0.00821017
4328.24374512,0.00816909
4330.17255249,0.00819390
4332.10135986,0.00818816
4334.03016724,0.00811207
4335.95897461,0.00812179
4337.88778198,0.00808365
4339.81658936,0.00799755
4341.74539673,0.00798132
4343.67420410,0.00797519
4345.60301147,0.00795771
4347.53181885,0.00804463
4349.46062622,0.00788782
4351.38943359,0.00786385
4353.31824097,0.00791246
4355.24704834,0.00784470
4357.17585571,0.00787639
4359.10466309,0.00778282
4361.03347046,0.00787488
4362.96227783,0.00785632
4364.89108520,0.00784177
4366.81989258,0.00780488
4368.74869995,0.00759794
4370.67750732,0.00768906
4372.60631470,0.00774747
4374.53512207,0.00779858
4376.46392944,0.00775992
4378.39273682,0.00778107
4380.32154419,0.00778683
4382.25035156,0.00762976
4384.17915894,0.00768033
4386.10796631,0.00762666
4388.03677368,0.00757435
4389.96558105,0.00759138
4391.89438843,0.00756638
4393.82319580,0.00750242
4395.75200317,0.00749225
4397.68081055,0.00753802
4399.60961792,0.00753540
4401.53842529,0.00751548
4403.46723267,0.00742534
4405.39604004,0.00748128
4407.32484741,0.00743947
4409.25365478,0.00742348
4411.18246216,0.00745015
4413.11126953,0.00734203
4415.04007690,0.00735067
4416.96888428,0.00729601
4418.89769165,0.00730667
4420.82649902,0.00732418
4422.75530640,0.00735056
4424.68411377,0.00727610
4426.61292114,0.00719762
4428.54172852,0.00725013
4430.47053589,0.00717395
4432.39934326,0.00722346
4434.32815063,0.00718484
4436.25695801,0.00719407
4438.18576538,0.00715338
4440.11457275,0.00711647
4442.04338013,0.00723442
4443.97218750,0.00709966
4445.90099487,0.00714193
4447.82980225,0.00709869
4449.75860962,0.00704466
4451.68741699,0.00705399
4453.61622437,0.00691078
4455.54503174,0.00697773
4457.47383911,0.00702903
4459.40264648,0.00696165
4461.33145386,0.00686423
4463.26026123,0.00700693
4465.18906860,0.00695683
4467.11787598,0.00684175
4469.04668335,0.00702388
4470.97549072,0.00687199
4472.90429810,0.00683117
4474.83310547,0.00684308
4476.76191284,0.00676132
4478.69072021,0.00684146
4480.61952759,0.00679079
4482.54833496,0.00675702
4484.47714233,0.00678650
4486.40594971,0.00679451
4488.33475708,0.00676405
4490.26356445,0.00674000
4492.19237183,0.00670893
4494.12117920,0.00662879
4496.04998657,0.00665976
4497.97879395,0.00672163
4499.90760132,0.00664317
4501.83640869,0.00663509
4503.76521606,0.00664009
4505.69402344,0.00661331
4507.62283081,0.00672098
4509.55163818,0.00658922
4511.48044556,0.00652569
4513.40925293,0.00658277
4515.33806030,0.00645346
4517.26686768,0.00648648
4519.19567505,0.00648552
4521.12448242,0.00648044
4523.05328979,0.00650827
4524.98209717,0.00647135
4526.91090454,0.00645424
4528.83971191,0.00642921
4530.76851929,0.00641621
4532.69732666,0.00635276
4534.62613403,0.00637219
4536.55494141,0.00637552
4538.48374878,0.00634696
4540.41255615,0.00636081
4542.34136353,0.00634220
4544.27017090,0.00633744
4546.19897827,0.00631762
4548.12778564,0.00625635
4550.05659302,0.00622288
4551.98540039,0.00631099
4553.91420776,0.00627678
4555.84301514,0.00620616
4557.77182251,0.00617159
4559.70062988,0.00612849
4561.62943726,0.00620797
4563.55824463,0.00614908
4565.48705200,0.00610047
4567.41585937,0.00612411
4569.34466675,0.00615036
4571.27347412,0.00614041
4573.20228149,0.00599400
4575.13108887,0.00605690
4577.05989624,0.00614058
4578.98870361,0.00602321
4580.91751099,0.00605199
4582.84631836,0.00608179
4584.77512573,0.00597838
4586.70393311,0.00600814
4588.63274048,0.00592704
4590.56154785,0.00588756
4592.49035522,0.00598677
4594.41916260,0.00588346
4596.34796997,0.00590984
4598.27677734,0.00596890
4600.20558472,0.00596788
4602.13439209,0.00589861
4604.06319946,0.00580205
4605.99200684,0.00588321
4607.92081421,0.00585172
4609.84962158,0.00581925
4611.77842895,0.00582001
4613.70723633,0.00579621
4615.63604370,0.00576455
4617.56485107,0.00571734
4619.49365845,0.00569278
4621.42246582,0.00571055
4623.35127319,0.00576518
4625.28008057,0.00569742
4627.20888794,0.00567904
4629.13769531,0.00561981
4631.06650269,0.00568542
4632.99531006,0.00573921
4634.92411743,0.00558618
4636.85292480,0.00565240
4638.78173218,0.00562491
4640.71053955,0.00558037
4642.63934692,0.00552207
4644.56815430,0.00549578
4646.49696167,0.00555051
4648.42576904,0.00543902
4650.35457642,0.00548238
4652.28338379,0.00553030
4654.21219116,0.00555726
4656.14099853,0.00549839
4658.06980591,0.00545545
4659.99861328,0.00553758
4661.92742065,0.00553247
4663.85622803,0.00550403
4665.78503540,0.00536146
4667.71384277,0.00538828
4669.64265015,0.00542958
4671.57145752,0.00537406
4673.50026489,0.00536489
4675.42907227,0.00535443
4677.35787964,0.00540541
4679.28668701,0.00537457
4681.21549438,0.00536758
4683.14430176,0.00531744
4685.07310913,0.00530020
4687.00191650,0.00524281
4688.93072388,0.00525298
4690.85953125,0.00535686
4692.78833862,0.00523743
4694.71714600,0.00527219
4696.64595337,0.00523112
4698.57476074,0.00517304
4700.50356812,0.00517553
4702.43237549,0.00515787
4704.36118286,0.00526504
4706.28999023,0.00516243
4708.21879761,0.00516869
4710.14760498,0.00519913
4712.07641235,0.00517881
4714.00521973,0.00516213
4715.93402710,0.00504455
4717.86283447,0.00511767
4719.79164185,0.00509787
4721.72044922,0.00508914
4723.64925659,0.00519422
4725.57806396,0.00510183
4727.50687134,0.00503542
4729.43567871,0.00509589
4731.36448608,0.00502986
4733.29329346,0.00499193
4735.22210083,0.00506819
4737.15090820,0.00501502
4739.07971558,0.00492703
4741.00852295,0.00490109
4742.93733032,0.00496608
4744.86613770,0.00492520
4746.79494507,0.00489606
4748.72375244,0.00495362
4750.65255981,0.00489893
4752.58136719,0.00495686
4754.51017456,0.00488859
4756.43898193,0.00479641
4758.36778931,0.00486832
4760.29659668,0.00487127
4762.22540405,0.00482318
4764.15421143,0.00482387
4766.08301880,0.00489501
4768.01182617,0.00475891
4769.94063354,0.00468612
4771.86944092,0.00477952
4773.79824829,0.00481385
4775.72705566,0.00480803
4777.65586304,0.00469113
4779.58467041,0.00465412
4781.51347778,0.00470443
4783.44228516,0.00475447
4785.37109253,0.00468779
4787.29989990,0.00464310
4789.22870728,0.00469885
4791.15751465,0.00462598
4793.08632202,0.00462179
4795.01512939,0.00467925
4796.94393677,0.00470676
4798.87274414,0.00464063
4800.80155151,0.00453794
4802.73035889,0.00457455
4804.65916626,0.00460601
4806.58797363,0.00461632
4808.51678101,0.00462790
4810.44558838,0.00457824
4812.37439575,0.00450992
4814.30320312,0.00452255
4816.23201050,0.00452441
4818.16081787,0.00450895
4820.08962524,0.00452704
4822.01843262,0.00447989
4823.94723999,0.00447804
4825.87604736,0.00451699
4827.80485474,0.00449525
4829.73366211,0.00440444
4831.66246948,0.00435794
4833.59127686,0.00441213
4835.52008423,0.00437348
4837.44889160,0.00436007
4839.37769897,0.00445421
4841.30650635,0.00439878
4843.23531372,0.00435105
4845.16412109,0.00443425
4847.09292847,0.00440887
4849.02173584,0.00432268
4850.95054321,0.00427789
4852.87935059,0.00433501
4854.80815796,0.00435327
4856.73696533,0.00430594
4858.66577270,0.00437714
4860.59458008,0.00431200
4862.52338745,0.00426089
4864.45219482,0.00432911
4866.38100220,0.00424874
4868.30980957,0.00421585
4870.23861694,0.00424293
4872.16742432,0.00418017
4874.09623169,0.00418704
4876.02503906,0.00426037
4877.95384644,0.00420186
4879.88265381,0.00417079
4881.81146118,0.00422405
4883.74026855,0.00415286
4885.66907593,0.00404894
4887.59788330,0.00414103
4889.52669067,0.00417474
4891.45549805,0.00402969
4893.38430542,0.00411970
4895.31311279,0.00412372
4897.24192017,0.00406263
4899.17072754,0.00414453
4901.09953491,0.00402754
4903.02834228,0.00404220
4904.95714966,0.00415468
4906.88595703,0.00414019
4908.81476440,0.00405037
4910.74357178,0.00399864
4912.67237915,0.00403314
4914.60118652,0.00396253
4916.52999390,0.00391963
4918.45880127,0.00389416
4920.38760864,0.00391199
4922.31641602,0.00392165
4924.24522339,0.00389734
4926.17403076,0.00395629
4928.10283813,0.00393272
4930.03164551,0.00388206
4931.96045288,0.00390226
4933.88926025,0.00394544
4935.81806763,0.00386614
4937.74687500,0.00380433
4939.67568237,0.00381455
4941.60448975,0.00380704
4943.53329712,0.00387986
4945.46210449,0.00388144
4947.39091187,0.00380334
4949.31971924,0.00374940
4951.24852661,0.00380797
4953.17733398,0.00378773
4955.10614136,0.00374260
4957.03494873,0.00381860
4958.96375610,0.00375904
4960.89256348,0.00373682
4962.82137085,0.00371244
4964.75017822,0.00370915
4966.67898560,0.00378498
4968.60779297,0.00375475
4970.53660034,0.00370857
4972.46540771,0.00370099
4974.39421509,0.00371518
4976.32302246,0.00365731
4978.25182983,0.00365983
4980.18063721,0.00366480
4982.10944458,0.00364381
4984.03825195,0.00364521
4985.96705933,0.00356531
4987.89586670,0.00361940
4989.82467407,0.00362335
4991.75348145,0.00355818
4993.68228882,0.00362267
4995.61109619,0.00360561
4997.53990356,0.00357448
4999.46871094,0.00359275
5001.39751831,0.00352689
5003.32632568,0.00355803
5005.25513306,0.00360726
5007.18394043,0.00350635
5009.11274780,0.00352921
5011.04155518,0.00355024
5012.97036255,0.00350246
5014.89916992,0.00352541
5016.82797729,0.00355716
5018.75678467,0.00348752
5020.68559204,0.00345692
5022.61439941,0.00350083
5024.54320679,0.00337573
5026.47201416,0.00344566
5028.40082153,0.00343890
5030.32962891,0.00339852
5032.25843628,0.00351094
5034.18724365,0.00335430
5036.11605103,0.00343061
5038.04485840,0.00337632
5039.97366577,0.00324639
5041.90247314,0.00338564
5043.83128052,0.00336131
5045.76008789,0.00334519
5047.68889526,0.00330294
5049.61770264,0.00334064
5051.54651001,0.00337928
5053.47531738,0.00337568
5055.40412476,0.00331616
5057.33293213,0.00328964
5059.26173950,0.00332404
5061.19054687,0.00322966
5063.11935425,0.00329475
5065.04816162,0.00320836
5066.97696899,0.00323935
5068.90577637,0.00324357
5070.83458374,0.00311788
5072.76339111,0.00332848
5074.69219849,0.00321938
5076.62100586,0.00321858
5078.54981323,0.00329218
5080.47862061,0.00314635
5082.40742798,0.00321174
5084.33623535,0.00318420
5086.26504272,0.00312942
5088.19385010,0.00317756
5090.12265747,0.00319616
5092.05146484,0.00316090
5093.98027222,0.00319810
5095.90907959,0.00313782
5097.83788696,0.00314113
5099.76669434,0.00320419
5101.69550171,0.00305160
5103.62430908,0.00312868
5105.55311645,0.00316430
5107.48192383,0.00309692
5109.41073120,0.00311561
5111.33953857,0.00306755
5113.26834595,0.00306717
5115.19715332,0.00310593
5117.12596069,0.00307345
5119.05476807,0.00297722
5120.98357544,0.00309860
5122.91238281,0.00311505
5124.84119019,0.00300621
5126.76999756,0.00306845
5128.69880493,0.00309337
5130.62761230,0.00302723
5132.55641968,0.00298550
5134.48522705,0.00303393
5136.41403442,0.00293181
5138.34284180,0.00297619
5140.27164917,0.00299642
5142.20045654,0.00289810
5144.12926392,0.00301959
5146.05807129,0.00293667
5147.98687866,0.00293039
5149.91568603,0.00293770
5151.84449341,0.00289278
5153.77330078,0.00297069
5155.70210815,0.00289021
5157.63091553,0.00287635
5159.55972290,0.00287713
5161.48853027,0.00282647
5163.41733765,0.00281627
5165.34614502,0.00285848
5167.27495239,0.00283268
5169.20375977,0.00280590
5171.13256714,0.00287663
5173.06137451,0.00286867
5174.99018188,0.00287337
5176.91898926,0.00281717
5178.84779663,0.00281798
5180.77660400,0.00284872
5182.70541138,0.00282110
5184.63421875,0.00281027
5186.56302612,0.00272788
5188.49183350,0.00278408
5190.42064087,0.00284761
5192.34944824,0.00280424
5194.27825562,0.00277303
5196.20706299,0.00271712
5198.13587036,0.00268392
5200.06467773,0.00273949
5201.99348511,0.00275003
5203.92229248,0.00272369
5205.85109985,0.00271750
5207.77990723,0.00261863
5209.70871460,0.00268377
5211.63752197,0.00272084
5213.56632935,0.00266334
5215.49513672,0.00268776
5217.42394409,0.00267446
5219.35275146,0.00272351
5221.28155884,0.00270799
5223.21036621,0.00273151
5225.13917358,0.00265745
5227.06798096,0.00262073
5228.99678833,0.00273225
5230.92559570,0.00263983
5232.85440308,0.00267631
5234.78321045,0.00265175
5236.71201782,0.00260138
5238.64082520,0.00266175
5240.56963257,0.00262817
5242.49843994,0.00261610
5244.42724731,0.00259001
5246.35605469,0.00262743
5248.28486206,0.00253951
5250.21366943,0.00251303
5252.14247681,0.00254983
5254.07128418,0.00247209
5256.00009155,0.00255551
5257.92889893,0.00253956
5259.85770630,0.00253235
5261.78651367,0.00254795
5263.71532104,0.00244821
5265.64412842,0.00250238
5267.57293579,0.00256178
5269.50174316,0.00252210
5271.43055054,0.00251479
5273.35935791,0.00255043
5275.28816528,0.00255670
5277.21697266,0.00254217
5279.14578003,0.00251072
5281.07458740,0.00248005
5283.00339478,0.00244670
5284.93220215,0.00245815
5286.86100952,0.00251760
5288.78981689,0.00244498
5290.71862427,0.00240764
5292.64743164,0.00243942
5294.57623901,0.00242507
5296.50504639,0.00242743
5298.43385376,0.00243198
5300.36266113,0.00245642
5302.29146851,0.00238728
5304.22027588,0.00235014
5306.14908325,0.00241037
5308.07789062,0.00240335
5310.00669800,0.00241774
5311.93550537,0.00238644
5313.86431274,0.00234115
5315.79312012,0.00233526
5317.72192749,0.00235589
5319.65073486,0.00236067
5321.57954224,0.00230133
5323.50834961,0.00242478
5325.43715698,0.00240932
5327.36596436,0.00226765
5329.29477173,0.00231396
5331.22357910,0.00223552
5333.15238647,0.00223509
5335.08119385,0.00229063
5337.01000122,0.00223597
5338.93880859,0.00218075
5340.86761597,0.00222638
5342.79642334,0.00230889
5344.72523071,0.00216546
5346.65403809,0.00218613
5348.58284546,0.00223915
5350.51165283,0.00224279
5352.44046020,0.00225404
5354.36926758,0.00211893
5356.29807495,0.00228336
5358.22688232,0.00229970
5360.15568970,0.00219937
5362.08449707,0.00225891
5364.01330444,0.00219207
5365.94211182,0.00218995
5367.87091919,0.00218691
5369.79972656,0.00223966
5371.72853394,0.00219230
5373.65734131,0.00216348
5375.58614868,0.00217885
5377.51495605,0.00206274
5379.44376343,0.00216512
5381.37257080,0.00216172
5383.30137817,0.00212233
5385.23018555,0.00215246
5387.15899292,0.00208793
5389.08780029,0.00214717
5391.01660767,0.00216862
5392.94541504,0.00211663
5394.87422241,0.00206501
5396.80302978,0.00212156
5398.73183716,0.00218743
5400.66064453,0.00212374
5402.58945190,0.00212128
5404.51825928,0.00213115
5406.44706665,0.00210571
5408.37587402,0.00205835
5410.30468140,0.00202214
5412.23348877,0.00203904
5414.16229614,0.00203194
5416.09110352,0.00205637
5418.01991089,0.00207610
5419.94871826,0.00200092
5421.87752563,0.00199035
5423.80633301,0.00201883
5425.73514038,0.00204240
5427.66394775,0.00202342
5429.59275513,0.00195366
5431.52156250,0.00205308
5433.45036987,0.00204578
5435.37917725,0.00194031
5437.30798462,0.00198364
5439.23679199,0.00198488
5441.16559936,0.00196070
5443.09440674,0.00194768
5445.02321411,0.00197178
5446.95202148,0.00195463
5448.88082886,0.00194452
5450.80963623,0.00201458
5452.73844360,0.00201858
5454.66725098,0.00197258
5456.59605835,0.00195306
5458.52486572,0.00200781
5460.45367310,0.00196583
5462.38248047,0.00187951
5464.31128784,0.00190453
5466.24009521,0.00198722
5468.16890259,0.00198034
5470.09770996,0.00190731
5472.02651733,0.00196093
5473.95532471,0.00192008
5475.88413208,0.00186525
5477.81293945,0.00188082
5479.74174683,0.00191614
5481.67055420,0.00191257
5483.59936157,0.00182017
5485.52816895,0.00192003
5487.45697632,0.00187182
5489.38578369,0.00180352
5491.31459106,0.00185080
5493.24339844,0.00173285
5495.17220581,0.00184127
5497.10101318,0.00190666
5499.02982056,0.00181829
5500.95862793,0.00183277
5502.88743530,0.00182078
5504.81624268,0.00193274
5506.74505005,0.00194791
5508.67385742,0.00177626
5510.60266479,0.00182618
5512.53147217,0.00186574
5514.46027954,0.00177895
5516.38908691,0.00178573
5518.31789429,0.00176856
5520.24670166,0.00183584
5522.17550903,0.00186315
5524.10431641,0.00179014
5526.03312378,0.00183611
5527.96193115,0.00182085
5529.89073853,0.00173793
5531.81954590,0.00171788
5533.74835327,0.00177497
5535.67716064,0.00173244
5537.60596802,0.00164376
5539.53477539,0.00169582
5541.46358276,0.00173039
5543.39239014,0.00170024
5545.32119751,0.00165285
5547.25000488,0.00168130
5549.17881226,0.00169195
5551.10761963,0.00168251
5553.03642700,0.00174261
5554.96523437,0.00173701
5556.89404175,0.00172247
5558.82284912,0.00172758
5560.75165649,0.00171829
5562.68046387,0.00171857
5564.60927124,0.00170100
5566.53807861,0.00166891
5568.46688599,0.00169271
5570.39569336,0.00170691
5572.32450073,0.00171913
5574.25330811,0.00168113
5576.18211548,0.00163479
5578.11092285,0.00172389
5580.03973022,0.00165710
5581.96853760,0.00167629
5583.89734497,0.00172295
5585.82615234,0.00163091
5587.75495972,0.00165347
5589.68376709,0.00158328
5591.61257446,0.00165150
5593.54138184,0.00164022
5595.47018921,0.00156600
5597.39899658,0.00167467
5599.32780395,0.00162313
5601.25661133,0.00156654
5603.18541870,0.00157713
5605.11422607,0.00165606
5607.04303345,0.00158191
5608.97184082,0.00159170
5610.90064819,0.00168137
5612.82945557,0.00157192
5614.75826294,0.00160185
5616.68707031,0.00151709
5618.61587769,0.00157970
5620.54468506,0.00166156
5622.47349243,0.00155198
5624.40229980,0.00159732
5626.33110718,0.00156767
5628.25991455,0.00160310
5630.18872192,0.00157027
5632.11752930,0.00153183
5634.04633667,0.00158854
5635.97514404,0.00154545
5637.90395142,0.00151403
5639.83275879,0.00151894
5641.76156616,0.00156539
5643.69037353,0.00153777
5645.61918091,0.00156465
5647.54798828,0.00150046
5649.47679565,0.00144098
5651.40560303,0.00153316
5653.33441040,0.00150077
5655.26321777,0.00151908
5657.19202515,0.00147498
5659.12083252,0.00147143
5661.04963989,0.00152814
5662.97844727,0.00144909
5664.90725464,0.00144168
5666.83606201,0.00146599
5668.76486938,0.00146425
5670.69367676,0.00147367
5672.62248413,0.00151787
5674.55129150,0.00145507
5676.48009888,0.00140763
5678.40890625,0.00148069
5680.33771362,0.00147698
5682.26652100,0.00143209
5684.19532837,0.00144005
5686.12413574,0.00152868
5688.05294311,0.00144222
5689.98175049,0.00137036
5691.91055786,0.00147827
5693.83936523,0.00143398
5695.76817261,0.00141539
5697.69697998,0.00145841
5699.62578735,0.00141275
5701.55459473,0.00139452
5703.48340210,0.00144438
5705.41220947,0.00141851
5707.34101685,0.00138210
5709.26982422,0.00146136
5711.19863159,0.00141283
5713.12743896,0.00134958
5715.05624634,0.00139548
5716.98505371,0.00137760
5718.91386108,0.00137512
5720.84266846,0.00133973
5722.77147583,0.00130979
5724.70028320,0.00136572
5726.62909058,0.00139380
5728.55789795,0.00140956
5730.48670532,0.00137009
5732.41551270,0.00133586
5734.34432007,0.00133399
5736.27312744,0.00138843
5738.20193481,0.00139937
5740.13074219,0.00124808
5742.05954956,0.00131922
5743.98835693,0.00135028
5745.91716431,0.00125479
5747.84597168,0.00130098
5749.77477905,0.00130866
5751.70358643,0.00137622
5753.63239380,0.00125004
5755.56120117,0.00117472
5757.49000854,0.00130708
5759.41881592,0.00127797
5761.34762329,0.00125724
5763.27643066,0.00123080
5765.20523804,0.00129406
5767.13404541,0.00129274
5769.06285278,0.00125381
5770.99166016,0.00130584
5772.92046753,0.00129390
5774.84927490,0.00131936
5776.77808228,0.00126002
5778.70688965,0.00122860
5780.63569702,0.00118564
5782.56450439,0.00119435
5784.49331177,0.00123834
5786.42211914,0.00117997
5788.35092651,0.00126110
5790.27973389,0.00122678
5792.20854126,0.00117066
5794.13734863,0.00121484
5796.06615601,0.00122792
5797.99496338,0.00119302
5799.92377075,0.00116668
5801.85257812,0.00120908
5803.78138550,0.00116937
5805.71019287,0.00123301
5807.63900024,0.00123902
5809.56780762,0.00118765
5811.49661499,0.00120385
5813.42542236,0.00118231
5815.35422974,0.00118260
5817.28303711,0.00111337
5819.21184448,0.00117009
5821.14065186,0.00117290
5823.06945923,0.00111802
5824.99826660,0.00115900
5826.92707397,0.00117882
5828.85588135,0.00125536
5830.78468872,0.00117909
5832.71349609,0.00111896
5834.64230347,0.00114402
5836.57111084,0.00113272
5838.49991821,0.00116083
5840.42872559,0.00119455
5842.35753296,0.00116490
5844.28634033,0.00111163
5846.21514770,0.00119519
5848.14395508,0.00113886
5850.07276245,0.00110817
5852.00156982,0.00118975
5853.93037720,0.00112155
5855.85918457,0.00111998
5857.78799194,0.00112503
5859.71679932,0.00115463
5861.64560669,0.00114504
5863.57441406,0.00108508
5865.50322144,0.00112169
5867.43202881,0.00107965
5869.36083618,0.00104039
5871.28964355,0.00108472
5873.21845093,0.00110583
5875.14725830,0.00108931
5877.07606567,0.00108894
5879.00487305,0.00107736
5880.93368042,0.00108184
5882.86248779,0.00112500
5884.79129517,0.00109659
5886.72010254,0.00108870
5888.64890991,0.00114070
5890.57771728,0.00110363
5892.50652466,0.00106324
5894.43533203,0.00108081
5896.36413940,0.00102181
5898.29294678,0.00105430
5900.22175415,0.00112890
5902.15056152,0.00109909
5904.07936890,0.00110735
5906.00817627,0.00105726
5907.93698364,0.00099441
5909.86579102,0.00100244
5911.79459839,0.00101432
5913.72340576,0.00098632
5915.65221313,0.00099886
5917.58102051,0.00102758
5919.50982788,0.00100264
5921.43863525,0.00104195
5923.36744263,0.00101167
5925.29625000,0.00103983
5927.22505737,0.00105054
5929.15386475,0.00097435
5931.08267212,0.00104714
5933.01147949,0.00102899
5934.94028686,0.00099877
5936.86909424,0.00095276
5938.79790161,0.00093205
5940.72670898,0.00102320
5942.65551636,0.00098014
5944.58432373,0.00092002
5946.51313110,0.00091894
5948.44193848,0.00104020
5950.37074585,0.00110806
5952.29955322,0.00100114
5954.22836060,0.00098054
5956.15716797,0.00101228
5958.08597534,0.00097434
5960.01478271,0.00094388
5961.94359009,0.00097682
5963.87239746,0.00094136
5965.80120483,0.00091072
5967.73001221,0.00095606
5969.65881958,0.00098715
5971.58762695,0.00097037
5973.51643433,0.00098588
5975.44524170,0.00099766
5977.37404907,0.00090542
5979.30285645,0.00097764
5981.23166382,0.00099329
5983.16047119,0.00087836
5985.08927856,0.00088912
5987.01808594,0.00085743
5988.94689331,0.00088097
5990.87570068,0.00091296
5992.80450806,0.00091133
5994.73331543,0.00088911
5996.66212280,0.00087772
5998.59093018,0.00093051
6000.51973755,0.00085765
