399.26312622,0.00115844
401.19193359,0.00067316
403.12074097,0.00050997
405.04954834,0.00134410
406.97835571,0.00104532
408.90716309,0.00094768
410.83597046,0.00124282
412.76477783,0.00139766
414.69358521,0.00088767
416.62239258,0.00071995
418.55119995,0.00121066
420.48000732,0.00144212
422.40881470,0.00174356
424.33762207,0.00132013
426.26642944,0.00119071
428.19523682,0.00124147
430.12404419,0.00113387
432.05285156,0.00150987
433.98165894,0.00143001
435.91046631,0.00141362
437.83927368,0.00134982
439.76808105,0.00127783
441.69688843,0.00132946
443.62569580,0.00120010
445.55450317,0.00082701
447.48331055,0.00068947
449.41211792,0.00101109
451.34092529,0.00087757
453.26973267,0.00126753
455.19854004,0.00113382
457.12734741,0.00075354
459.05615479,0.00133727
460.98496216,0.00069377
462.91376953,0.00022695
464.84257690,0.00068325
466.77138428,0.00077521
468.70019165,0.00085501
470.62899902,0.00085472
472.55780640,0.00076264
474.48661377,0.00075565
476.41542114,0.00050057
478.34422852,0.00005432
480.27303589,0.00031511
482.20184326,0.00055651
484.13065063,0.00054668
486.05945801,0.00054370
487.98826538,0.00042786
489.91707275,0.00063038
491.84588013,0.00061599
493.77468750,0.00057594
495.70349487,0.00034670
497.63230225,0.00035370
499.56110962,0.00032119
501.48991699,0.00007324
503.41872437,0.00053676
505.34753174,0.00028885
507.27633911,0.00029825
509.20514648,0.00037986
511.13395386,0.00011531
513.06276123,0.00039952
514.99156860,0.00024419
516.92037598,0.00028981
518.84918335,0.00003057
520.77799072,0.00032637
522.70679810,0.00048613
524.63560547,-0.00014873
526.56441284,0.00019725
528.49322021,0.00018948
530.42202759,0.00045457
532.35083496,0.00033802
534.27964233,-0.00003267
536.20844971,0.00005372
538.13725708,0.00012206
540.06606445,0.00051121
541.99487183,-0.00021452
543.92367920,-0.00007957
545.85248657,0.00046692
547.78129395,0.00018071
549.71010132,0.00034558
551.63890869,0.00025401
553.56771606,0.00058380
555.49652344,0.00052726
557.42533081,0.00017361
559.35413818,0.00047713
561.28294556,0.00057193
563.21175293,0.00025983
565.14056030,-0.00004867
567.06936768,0.00026037
568.99817505,0.00021042
570.92698242,0.00022709
572.85578979,0.00025019
574.78459717,-0.00005573
576.71340454,0.00035177
578.64221191,0.00028189
580.57101929,-0.00006324
582.49982666,-0.00003799
584.42863403,0.00030563
586.35744141,0.00053168
588.28624878,0.00022664
590.21505615,0.00039804
592.14386353,0.00017306
594.07267090,0.00009588
596.00147827,0.00063016
597.93028564,0.00030631
599.85909302,0.00002713
601.78790039,0.00023536
603.71670776,0.00022174
605.64551514,0.00008267
607.57432251,0.00019528
609.50312988,0.00020110
611.43193726,0.00008483
613.36074463,0.00016522
615.28955200,-0.00009521
617.21835938,0.00008412
619.14716675,-0.00007167
621.07597412,-0.00006415
623.00478149,0.00004232
624.93358887,0.00001562
626.86239624,0.00019597
628.79120361,-0.00000070
630.72001099,0.00033282
632.64881836,0.00056198
634.57762573,0.00053887
636.50643311,0.00094894
638.43524048,0.00115872
640.36404785,0.00135845
642.29285522,0.00127684
644.22166260,0.00107197
646.15046997,0.00128055
648.07927734,0.00149865
650.00808472,0.00149545
651.93689209,0.00156244
653.86569946,0.00177186
655.79450684,0.00180217
657.72331421,0.00174757
659.65212158,0.00208180
661.58092896,0.00240918
663.50973633,0.00230160
665.43854370,0.00226652
667.36735107,0.00196173
669.29615845,0.00180369
671.22496582,0.00224945
673.15377319,0.00258421
675.08258057,0.00262934
677.01138794,0.00238792
678.94019531,0.00255441
680.86900269,0.00253526
682.79781006,0.00250704
684.72661743,0.00285661
686.65542480,0.00245543
688.58423218,0.00259750
690.51303955,0.00305613
692.44184692,0.00296359
694.37065430,0.00289439
696.29946167,0.00307334
698.22826904,0.00380964
700.15707642,0.00408156
702.08588379,0.00398925
704.01469116,0.00400223
705.94349854,0.00360207
707.87230591,0.00305934
709.80111328,0.00249563
711.72992065,0.00156245
713.65872803,0.00088172
715.58753540,0.00095118
717.51634277,0.00052283
719.44515015,0.00013285
721.37395752,0.00040966
723.30276489,0.00041932
725.23157227,0.00020268
727.16037964,-0.00013068
729.08918701,-0.00007336
731.01799438,0.00005009
732.94680176,0.00001710
734.87560913,0.00021146
736.80441650,0.00018002
738.73322388,0.00033495
740.66203125,0.00038254
742.59083862,0.00021459
744.51964600,0.00030351
746.44845337,0.00035550
748.37726074,0.00035972
750.30606812,0.00019041
752.23487549,0.00025200
754.16368286,0.00048078
756.09249023,0.00054951
758.02129761,0.00066271
759.95010498,0.00022903
761.87891235,-0.00000609
763.80771973,0.00020435
765.73652710,0.00023352
767.66533447,0.00043684
769.59414185,0.00016284
771.52294922,-0.00012667
773.45175659,0.00013167
775.38056396,0.00033058
777.30937134,0.00035815
779.23817871,0.00009432
781.16698608,0.00018613
783.09579346,0.00022014
785.02460083,0.00024178
786.95340820,0.00061257
788.88221558,0.00010845
790.81102295,0.00003893
792.73983032,0.00056778
794.66863770,0.00031754
796.59744507,0.00030918
798.52625244,0.00065516
800.45505981,0.00063811
802.38386719,0.00043878
804.31267456,0.00052601
806.24148193,0.00049022
808.17028931,0.00031938
810.09909668,0.00038507
812.02790405,0.00045479
813.95671143,0.00030761
815.88551880,0.00035930
817.81432617,0.00032716
819.74313354,-0.00007167
821.67194092,0.00048607
823.60074829,0.00049916
825.52955566,0.00014985
827.45836304,0.00080936
829.38717041,0.00065026
831.31597778,0.00063765
833.24478516,0.00087635
835.17359253,0.00083457
837.10239990,0.00083673
839.03120728,0.00078552
840.96001465,0.00098532
842.88882202,0.00076942
844.81762939,0.00071826
846.74643677,0.00077574
848.67524414,0.00089375
850.60405151,0.00074180
852.53285889,0.00050845
854.46166626,0.00088114
856.39047363,0.00045344
858.31928101,0.00033250
860.24808838,0.00050131
862.17689575,0.00042170
864.10570313,0.00037709
866.03451050,0.00000387
867.96331787,0.00025520
869.89212524,0.00035107
871.82093262,0.00052585
873.74973999,0.00061783
875.67854736,0.00029918
877.60735474,0.00051413
879.53616211,0.00025241
881.46496948,0.00019739
883.39377686,0.00046764
885.32258423,0.00033564
887.25139160,0.00042496
889.18019897,0.00032184
891.10900635,0.00019412
893.03781372,0.00037261
894.96662109,0.00056168
896.89542847,0.00040194
898.82423584,0.00024643
900.75304321,0.00042517
902.68185059,0.00050384
904.61065796,0.00066035
906.53946533,0.00054177
908.46827271,0.00030083
910.39708008,0.00049853
912.32588745,0.00055398
914.25469482,0.00046914
916.18350220,0.00062676
918.11230957,0.00058762
920.04111694,0.00065763
921.96992432,0.00091531
923.89873169,0.00083726
925.82753906,0.00101598
927.75634644,0.00102984
929.68515381,0.00076513
931.61396118,0.00097026
933.54276855,0.00115076
935.47157593,0.00097987
937.40038330,0.00109138
939.32919067,0.00132888
941.25799805,0.00119921
943.18680542,0.00124518
945.11561279,0.00118443
947.04442017,0.00120080
948.97322754,0.00126120
950.90203491,0.00113473
952.83084229,0.00150021
954.75964966,0.00139958
956.68845703,0.00120982
958.61726440,0.00131057
960.54607178,0.00114082
962.47487915,0.00118647
964.40368652,0.00117240
966.33249390,0.00121867
968.26130127,0.00137393
970.19010864,0.00137784
972.11891602,0.00141202
974.04772339,0.00166127
975.97653076,0.00167724
977.90533813,0.00158159
979.83414551,0.00187571
981.76295288,0.00197166
983.69176025,0.00230890
985.62056763,0.00265191
987.54937500,0.00271554
989.47818237,0.00292618
991.40698975,0.00320994
993.33579712,0.00376844
995.26460449,0.00392525
997.19341187,0.00423281
999.12221924,0.00474494
1001.05102661,0.00489655
1002.97983398,0.00523909
1004.90864136,0.00535699
1006.83744873,0.00586017
1008.76625610,0.00646981
1010.69506348,0.00659170
1012.62387085,0.00706112
1014.55267822,0.00746222
1016.48148560,0.00783140
1018.41029297,0.00827779
1020.33910034,0.00849862
1022.26790771,0.00880235
1024.19671509,0.00895008
1026.12552246,0.00916484
1028.05432983,0.00982336
1029.98313721,0.01016807
1031.91194458,0.01018081
1033.84075195,0.01040181
1035.76955933,0.01072706
1037.69836670,0.01088983
1039.62717407,0.01067459
1041.55598145,0.01064836
1043.48478882,0.01078510
1045.41359619,0.01056125
1047.34240356,0.01036535
1049.27121094,0.01017012
1051.20001831,0.01013313
1053.12882568,0.01011004
1055.05763306,0.00968660
1056.98644043,0.00948839
1058.91524780,0.00933191
1060.84405518,0.00904119
1062.77286255,0.00889663
1064.70166992,0.00838655
1066.63047729,0.00787261
1068.55928467,0.00778725
1070.48809204,0.00752202
1072.41689941,0.00698063
1074.34570679,0.00661359
1076.27451416,0.00654016
1078.20332153,0.00629225
1080.13212891,0.00584421
1082.06093628,0.00556897
1083.98974365,0.00544890
1085.91855103,0.00527179
1087.84735840,0.00498049
1089.77616577,0.00489985
1091.70497314,0.00451584
1093.63378052,0.00416611
1095.56258789,0.00432892
1097.49139526,0.00401259
1099.42020264,0.00389877
1101.34901001,0.00382035
1103.27781738,0.00359516
1105.20662476,0.00377540
1107.13543213,0.00358289
1109.06423950,0.00379729
1110.99304687,0.00364839
1112.92185425,0.00310175
1114.85066162,0.00354484
1116.77946899,0.00352358
1118.70827637,0.00349788
1120.63708374,0.00381801
1122.56589111,0.00362345
1124.49469849,0.00353915
1126.42350586,0.00362507
1128.35231323,0.00375610
1130.28112061,0.00388766
1132.20992798,0.00386156
1134.13873535,0.00386212
1136.06754272,0.00420128
1137.99635010,0.00432049
1139.92515747,0.00438459
1141.85396484,0.00495341
1143.78277222,0.00521099
1145.71157959,0.00542084
1147.64038696,0.00583273
1149.56919434,0.00615907
1151.49800171,0.00634491
1153.42680908,0.00641402
1155.35561646,0.00692920
1157.28442383,0.00740948
1159.21323120,0.00759509
1161.14203857,0.00779151
1163.07084595,0.00796402
1164.99965332,0.00841457
1166.92846069,0.00879980
1168.85726807,0.00892662
1170.78607544,0.00927128
1172.71488281,0.00966158
1174.64369019,0.00999750
1176.57249756,0.01032484
1178.50130493,0.01066004
1180.43011230,0.01113877
1182.35891968,0.01143099
1184.28772705,0.01207368
1186.21653442,0.01266336
1188.14534180,0.01279259
1190.07414917,0.01372533
1192.00295654,0.01434921
1193.93176392,0.01478394
1195.86057129,0.01572931
1197.78937866,0.01625946
1199.71818604,0.01714476
1201.64699341,0.01787199
1203.57580078,0.01851713
1205.50460815,0.01943743
1207.43341553,0.01988088
1209.36222290,0.02057511
1211.29103027,0.02118410
1213.21983765,0.02161139
1215.14864502,0.02220771
1217.07745239,0.02265078
1219.00625977,0.02315129
1220.93506714,0.02353271
1222.86387451,0.02367673
1224.79268188,0.02377014
1226.72148926,0.02389617
1228.65029663,0.02401507
1230.57910400,0.02425346
1232.50791138,0.02435933
1234.43671875,0.02421403
1236.36552612,0.02426859
1238.29433350,0.02425435
1240.22314087,0.02417352
1242.15194824,0.02405839
1244.08075562,0.02395887
1246.00956299,0.02384512
1247.93837036,0.02349172
1249.86717773,0.02349517
1251.79598511,0.02334834
1253.72479248,0.02299021
1255.65359985,0.02288270
1257.58240723,0.02240043
1259.51121460,0.02197587
1261.44002197,0.02180738
1263.36882935,0.02158355
1265.29763672,0.02119317
1267.22644409,0.02089573
1269.15525146,0.02089689
1271.08405884,0.02056732
1273.01286621,0.02017111
1274.94167358,0.01970735
1276.87048096,0.01925127
1278.79928833,0.01897000
1280.72809570,0.01851954
1282.65690308,0.01825713
1284.58571045,0.01781633
1286.51451782,0.01749847
1288.44332520,0.01723013
1290.37213257,0.01681678
1292.30093994,0.01692767
1294.22974731,0.01659601
1296.15855469,0.01635513
1298.08736206,0.01663518
1300.01616943,0.01663833
1301.94497681,0.01677395
1303.87378418,0.01687882
1305.80259155,0.01698366
1307.73139893,0.01730436
1309.66020630,0.01761004
1311.58901367,0.01772839
1313.51782104,0.01801570
1315.44662842,0.01852576
1317.37543579,0.01874972
1319.30424316,0.01913796
1321.23305054,0.01984938
1323.16185791,0.02046002
1325.09066528,0.02101087
1327.01947266,0.02173699
1328.94828003,0.02212131
1330.87708740,0.02257639
1332.80589478,0.02349734
1334.73470215,0.02373371
1336.66350952,0.02378348
1338.59231689,0.02355506
1340.52112427,0.02381903
1342.44993164,0.02508566
1344.37873901,0.02514333
1346.30754639,0.02502429
1348.23635376,0.02497959
1350.16516113,0.02486940
1352.09396851,0.02504915
1354.02277588,0.02443753
1355.95158325,0.02433565
1357.88039062,0.02426223
1359.80919800,0.02368154
1361.73800537,0.02240410
1363.66681274,0.02206476
1365.59562012,0.02373056
1367.52442749,0.02290290
1369.45323486,0.02249989
1371.38204224,0.02310415
1373.31084961,0.02168576
1375.23965698,0.02200271
1377.16846436,0.02254236
1379.09727173,0.02254205
1381.02607910,0.02254476
1382.95488647,0.02247147
1384.88369385,0.02276566
1386.81250122,0.02122707
1388.74130859,0.02140748
1390.67011597,0.02375612
1392.59892334,0.02291961
1394.52773071,0.02107861
1396.45653809,0.02227336
1398.38534546,0.02225316
1400.31415283,0.02226732
1402.24296021,0.02423613
1404.17176758,0.02257856
1406.10057495,0.02280230
1408.02938232,0.02380098
1409.95818970,0.02283958
1411.88699707,0.02341280
1413.81580444,0.02241006
1415.74461182,0.02291236
1417.67341919,0.02023197
1419.60222656,0.01772341
1421.53103394,0.02117241
1423.45984131,0.02044812
1425.38864868,0.01990515
1427.31745605,0.02045194
1429.24626343,0.01860169
1431.17507080,0.01805139
1433.10387817,0.01849692
1435.03268555,0.01671902
1436.96149292,0.01386572
1438.89030029,0.01616192
1440.81910767,0.01685291
1442.74791504,0.01544137
1444.67672241,0.01618135
1446.60552979,0.01468058
1448.53433716,0.01498734
1450.46314453,0.01568178
1452.39195190,0.01578881
1454.32075928,0.01624299
1456.24956665,0.01304337
1458.17837402,0.01357438
1460.10718140,0.01873599
1462.03598877,0.02007911
1463.96479614,0.01959879
1465.89360352,0.02023744
1467.82241089,0.02364870
1469.75121826,0.02546107
1471.68002563,0.02177787
1473.60883301,0.02287248
1475.53764038,0.02632096
1477.46644775,0.02852711
1479.39525513,0.03179747
1481.32406250,0.03187274
1483.25286987,0.03397127
1485.18167725,0.03518542
1487.11048462,0.03412430
1489.03929199,0.03342602
1490.96809937,0.03345577
1492.89690674,0.04001864
1494.82571411,0.03874641
1496.75452148,0.03389853
1498.68332886,0.03901124
1500.61213623,0.04029488
1502.54094360,0.04367180
1504.46975098,0.04058224
1506.39855835,0.02746416
1508.32736572,0.03500621
1510.25617310,0.04211305
1512.18498047,0.04083660
1514.11378784,0.04476021
1516.04259521,0.03913947
1517.97140259,0.04128528
1519.90020996,0.03978223
1521.82901733,0.03330507
1523.75782471,0.04233431
1525.68663208,0.04130007
1527.61543945,0.04109677
1529.54424683,0.04658666
1531.47305420,0.04425729
1533.40186157,0.03969144
1535.33066895,0.04291686
1537.25947632,0.04626811
1539.18828369,0.03096217
1541.11709106,0.03288089
1543.04589844,0.04045317
1544.97470581,0.03844077
1546.90351318,0.04705641
1548.83232056,0.04327841
1550.76112793,0.04491005
1552.68993530,0.04465704
1554.61874268,0.03992313
1556.54755005,0.04299842
1558.47635742,0.02783737
1560.40516479,0.03118151
1562.33397217,0.04739853
1564.26277954,0.04406525
1566.19158691,0.04583052
1568.12039429,0.04504811
1570.04920166,0.03897154
1571.97800903,0.04632494
1573.90681641,0.04669715
1575.83562378,0.03542536
1577.76443115,0.04140037
1579.69323853,0.04784908
1581.62204590,0.04494144
1583.55085327,0.04623944
1585.47966064,0.04563527
1587.40846802,0.04584454
1589.33727539,0.04555437
1591.26608276,0.04542085
1593.19489014,0.04549453
1595.12369751,0.04488949
1597.05250488,0.04547082
1598.98131226,0.04531330
1600.91011963,0.04556019
1602.83892700,0.04454489
1604.76773437,0.04543213
1606.69654175,0.04467328
1608.62534912,0.04451873
1610.55415649,0.04450700
1612.48296387,0.04503365
1614.41177124,0.04567303
1616.34057861,0.03604001
1618.26938599,0.03979022
1620.19819336,0.04756131
1622.12700073,0.04124705
1624.05580811,0.04154145
1625.98461548,0.04430445
1627.91342285,0.04394381
1629.84223022,0.04382811
1631.77103760,0.04743525
1633.69984497,0.04307841
1635.62865234,0.03439074
1637.55745972,0.04129204
1639.48626709,0.04644255
1641.41507446,0.04528942
1643.34388184,0.04673105
1645.27268921,0.04125667
1647.20149658,0.03530531
1649.13030396,0.04589290
1651.05911133,0.04307349
1652.98791870,0.02536391
1654.91672607,0.03701983
1656.84553345,0.04817960
1658.77434082,0.04605752
1660.70314819,0.04739276
1662.63195557,0.04214738
1664.56076294,0.04522076
1666.48957031,0.04915549
1668.41837769,0.04142642
1670.34718506,0.04014443
1672.27599243,0.04673874
1674.20479980,0.04244182
1676.13360718,0.04041271
1678.06241455,0.04770254
1679.99122192,0.04579090
1681.92002930,0.04482502
1683.84883667,0.03493476
1685.77764404,0.03514575
1687.70645142,0.05040292
1689.63525879,0.04242694
1691.56406616,0.04796571
1693.49287354,0.04863983
1695.42168091,0.03346877
1697.35048828,0.04336142
1699.27929565,0.03669948
1701.20810303,0.03238108
1703.13691040,0.04698792
1705.06571777,0.04223548
1706.99452515,0.04274981
1708.92333252,0.04734448
1710.85213989,0.04545105
1712.78094727,0.04605329
1714.70975464,0.04200068
1716.63856201,0.03717231
1718.56736938,0.03643728
1720.49617676,0.04467502
1722.42498413,0.04675849
1724.35379150,0.04288119
1726.28259888,0.04750691
1728.21140625,0.04337330
1730.14021362,0.04371230
1732.06902100,0.04235429
1733.99782837,0.03052142
1735.92663574,0.04005110
1737.85544312,0.04497039
1739.78425049,0.03904971
1741.71305786,0.04319580
1743.64186523,0.04374181
1745.57067261,0.04391337
1747.49947998,0.04415606
1749.42828735,0.04172894
1751.35709473,0.03973591
1753.28590210,0.04492541
1755.21470947,0.04726464
1757.14351685,0.04233391
1759.07232422,0.04760472
1761.00113159,0.04411023
1762.92993896,0.04222864
1764.85874634,0.04959624
1766.78755371,0.04373648
1768.71636108,0.04427648
1770.64516846,0.04370017
1772.57397583,0.03870475
1774.50278320,0.04430158
1776.43159058,0.04688265
1778.36039795,0.04631688
1780.28920532,0.04562826
1782.21801270,0.04600644
1784.14682007,0.04603571
1786.07562744,0.04497909
1788.00443481,0.04791427
1789.93324219,0.04620250
1791.86204956,0.04081085
1793.79085693,0.04317931
1795.71966431,0.04686273
1797.64847168,0.04628099
1799.57727905,0.04535028
1801.50608643,0.04408878
1803.43489380,0.04618030
1805.36370117,0.04738789
1807.29250854,0.04662417
1809.22131592,0.04702312
1811.15012329,0.04538700
1813.07893066,0.04713026
1815.00773804,0.04730263
1816.93654541,0.04656270
1818.86535278,0.04708771
1820.79416016,0.04690362
1822.72296753,0.04769780
1824.65177490,0.04384712
1826.58058228,0.04573805
1828.50938965,0.04571657
1830.43819702,0.04238273
1832.36700439,0.04709461
1834.29581177,0.04672644
1836.22461914,0.04668957
1838.15342651,0.04650997
1840.08223389,0.04686001
1842.01104126,0.04675686
1843.93984863,0.04046054
1845.86865601,0.04382489
1847.79746338,0.04669902
1849.72627075,0.04553144
1851.65507812,0.04720983
1853.58388550,0.04611935
1855.51269287,0.04656857
1857.44150024,0.04630628
1859.37030762,0.04598179
1861.29911499,0.04621144
1863.22792236,0.04564023
1865.15672974,0.04609387
1867.08553711,0.04417622
1869.01434448,0.04208236
1870.94315186,0.04410876
1872.87195923,0.04621714
1874.80076660,0.04534325
1876.72957397,0.04563555
1878.65838135,0.04552571
1880.58718872,0.04518706
1882.51599609,0.04559693
1884.44480347,0.04463357
1886.37361084,0.04545667
1888.30241821,0.04425219
1890.23122559,0.04310033
1892.16003296,0.04514463
1894.08884033,0.04449134
1896.01764771,0.04418177
1897.94645508,0.04475522
1899.87526245,0.04454271
1901.80406982,0.04458684
1903.73287720,0.04416546
1905.66168457,0.04440242
1907.59049194,0.04388884
1909.51929932,0.04351317
1911.44810669,0.04372536
1913.37691406,0.04395046
1915.30572144,0.04449167
1917.23452881,0.04199695
1919.16333618,0.04217523
1921.09214355,0.04405124
1923.02095093,0.04216316
1924.94975830,0.04336273
1926.87856567,0.04397977
1928.80737305,0.04329100
1930.73618042,0.04395317
1932.66498779,0.04310913
1934.59379517,0.04353753
1936.52260254,0.04314237
1938.45140991,0.04327182
1940.38021729,0.04335014
1942.30902466,0.04171800
1944.23783203,0.04259815
1946.16663940,0.04298748
1948.09544678,0.04286905
1950.02425415,0.04315714
1951.95306152,0.04293331
1953.88186890,0.04294384
1955.81067627,0.04273193
1957.73948364,0.04284360
1959.66829102,0.04274119
1961.59709839,0.04264140
1963.52590576,0.04267970
1965.45471313,0.04230819
1967.38352051,0.04180436
1969.31232788,0.04224574
1971.24113525,0.04258370
1973.16994263,0.04215892
1975.09875000,0.04234096
1977.02755737,0.04193519
1978.95636475,0.04207715
1980.88517212,0.04217618
1982.81397949,0.04167216
1984.74278687,0.04204713
1986.67159424,0.04172389
1988.60040161,0.04162142
1990.52920898,0.04120123
1992.45801636,0.04060295
1994.38682373,0.04129589
1996.31563110,0.04139521
1998.24443848,0.04130280
2000.17324585,0.04131206
2002.10205322,0.04093816
2004.03086060,0.04098098
2005.95966797,0.04091837
2007.88847534,0.04064202
2009.81728271,0.04056516
2011.74609009,0.04034181
2013.67489746,0.04047850
2015.60370483,0.04022314
2017.53251221,0.03963352
2019.46131958,0.03998186
2021.39012695,0.03990996
2023.31893433,0.03958776
2025.24774170,0.03957158
2027.17654907,0.03957289
2029.10535645,0.03955850
2031.03416382,0.03928456
2032.96297119,0.03932596
2034.89177856,0.03924453
2036.82058594,0.03910272
2038.74939331,0.03898374
2040.67820068,0.03871705
2042.60700806,0.03867801
2044.53581543,0.03859521
2046.46462280,0.03851590
2048.39343018,0.03844051
2050.32223755,0.03843116
2052.25104492,0.03832699
2054.17985229,0.03812478
2056.10865967,0.03803649
2058.03746704,0.03797038
2059.96627441,0.03791304
2061.89508179,0.03780315
2063.82388916,0.03757805
2065.75269653,0.03736683
2067.68150391,0.03751457
2069.61031128,0.03744688
2071.53911865,0.03722020
2073.46792603,0.03716195
2075.39673340,0.03707553
2077.32554077,0.03703761
2079.25434814,0.03688449
2081.18315552,0.03696516
2083.11196289,0.03693542
2085.04077026,0.03676047
2086.96957764,0.03665510
2088.89838501,0.03648598
2090.82719238,0.03641402
2092.75599976,0.03631476
2094.68480713,0.03640167
2096.61361450,0.03622703
2098.54242187,0.03612248
2100.47122925,0.03618012
2102.40003662,0.03595663
2104.32884399,0.03595520
2106.25765137,0.03586555
2108.18645874,0.03573899
2110.11526611,0.03567659
2112.04407349,0.03567097
2113.97288086,0.03566529
2115.90168823,0.03556760
2117.83049561,0.03550305
2119.75930298,0.03543131
2121.68811035,0.03544509
2123.61691772,0.03532037
2125.54572510,0.03527029
2127.47453247,0.03511215
2129.40333984,0.03504211
2131.33214722,0.03518265
2133.26095459,0.03492432
2135.18976196,0.03483156
2137.11856934,0.03491975
2139.04737671,0.03491095
2140.97618408,0.03486036
2142.90499146,0.03478277
2144.83379883,0.03468116
2146.76260620,0.03467897
2148.69141357,0.03471530
2150.62022095,0.03452418
2152.54902832,0.03453651
2154.47783569,0.03455024
2156.40664307,0.03449623
2158.33545044,0.03442347
2160.26425781,0.03429093
2162.19306519,0.03438682
2164.12187256,0.03431061
2166.05067993,0.03413999
2167.97948730,0.03426941
2169.90829468,0.03436939
2171.83710205,0.03421101
2173.76590942,0.03417454
2175.69471680,0.03405006
2177.62352417,0.03401354
2179.55233154,0.03414105
2181.48113892,0.03400221
2183.40994629,0.03398962
2185.33875366,0.03388362
2187.26756104,0.03385301
2189.19636841,0.03375951
2191.12517578,0.03372943
2193.05398315,0.03383803
2194.98279053,0.03361414
2196.91159790,0.03380286
2198.84040527,0.03369013
2200.76921265,0.03351793
2202.69802002,0.03365283
2204.62682739,0.03354561
2206.55563477,0.03352710
2208.48444214,0.03334936
2210.41324951,0.03340465
2212.34205688,0.03337814
2214.27086426,0.03335765
2216.19967163,0.03339988
2218.12847900,0.03327295
2220.05728638,0.03335389
2221.98609375,0.03311292
2223.91490112,0.03307034
2225.84370850,0.03313010
2227.77251587,0.03305280
2229.70132324,0.03302811
2231.63013062,0.03290604
2233.55893799,0.03297681
2235.48774536,0.03293545
2237.41655273,0.03280083
2239.34536011,0.03270912
2241.27416748,0.03284144
2243.20297485,0.03286526
2245.13178223,0.03263750
2247.06058960,0.03259851
2248.98939697,0.03257343
2250.91820435,0.03257269
2252.84701172,0.03249034
2254.77581909,0.03247768
2256.70462646,0.03245682
2258.63343384,0.03239006
2260.56224121,0.03240543
2262.49104858,0.03234585
2264.41985596,0.03229361
2266.34866333,0.03223120
2268.27747070,0.03224484
2270.20627808,0.03217285
2272.13508545,0.03219579
2274.06389282,0.03216154
2275.99270020,0.03203038
2277.92150757,0.03212529
2279.85031494,0.03207477
2281.77912231,0.03202273
2283.70792969,0.03194514
2285.63673706,0.03186206
2287.56554443,0.03181151
2289.49435181,0.03179096
2291.42315918,0.03178028
2293.35196655,0.03171123
2295.28077393,0.03172546
2297.20958130,0.03155504
2299.13838867,0.03145126
2301.06719604,0.03129653
2302.99600342,0.03118660
2304.92481079,0.03111764
2306.85361816,0.03086945
2308.78242554,0.03076971
2310.71123291,0.03041000
2312.64004028,0.03015457
2314.56884766,0.02996385
2316.49765503,0.02962803
2318.42646240,0.02928600
2320.35526978,0.02881783
2322.28407715,0.02848823
2324.21288452,0.02812768
2326.14169189,0.02800382
2328.07049927,0.02774154
2329.99930664,0.02737611
2331.92811401,0.02725573
2333.85692139,0.02699623
2335.78572876,0.02697946
2337.71453613,0.02685912
2339.64334351,0.02672741
2341.57215088,0.02704781
2343.50095825,0.02739421
2345.42976562,0.02781313
2347.35857300,0.02889862
2349.28738037,0.02970567
2351.21618774,0.02879713
2353.14499512,0.02745111
2355.07380249,0.02659211
2357.00260986,0.02587795
2358.93141724,0.02542640
2360.86022461,0.02511473
2362.78903198,0.02503874
2364.71783936,0.02525243
2366.64664673,0.02550474
2368.57545410,0.02599318
2370.50426147,0.02663855
2372.43306885,0.02709767
2374.36187622,0.02791744
2376.29068359,0.02861132
2378.21949097,0.02894662
2380.14829834,0.02954456
2382.07710571,0.02987912
2384.00591309,0.03014912
2385.93472046,0.03019614
2387.86352783,0.02998560
2389.79233521,0.03008178
2391.72114258,0.03005361
2393.64994995,0.02995673
2395.57875732,0.03000895
2397.50756470,0.02998009
2399.43637207,0.02983564
2401.36517944,0.02988735
2403.29398682,0.02989553
2405.22279419,0.02972311
2407.15160156,0.02964783
2409.08040894,0.02965285
2411.00921631,0.02969022
2412.93802368,0.02956542
2414.86683105,0.02963915
2416.79563843,0.02964891
2418.72444580,0.02946888
2420.65325317,0.02956694
2422.58206055,0.02953866
2424.51086792,0.02946429
2426.43967529,0.02937156
2428.36848267,0.02929823
2430.29729004,0.02932102
2432.22609741,0.02924665
2434.15490479,0.02917456
2436.08371216,0.02906599
2438.01251953,0.02908547
2439.94132690,0.02909109
2441.87013428,0.02902537
2443.79894165,0.02910351
2445.72774902,0.02906538
2447.65655640,0.02897776
2449.58536377,0.02894627
2451.51417114,0.02885441
2453.44297852,0.02889701
2455.37178589,0.02882163
2457.30059326,0.02870345
2459.22940063,0.02883023
2461.15820801,0.02869239
2463.08701538,0.02862864
2465.01582275,0.02867410
2466.94463013,0.02861337
2468.87343750,0.02860274
2470.80224487,0.02842696
2472.73105225,0.02845737
2474.65985962,0.02837147
2476.58866699,0.02825937
2478.51747437,0.02837062
2480.44628174,0.02829354
2482.37508911,0.02830004
2484.30389648,0.02821300
2486.23270386,0.02809204
2488.16151123,0.02809289
2490.09031860,0.02812932
2492.01912598,0.02809464
2493.94793335,0.02803656
2495.87674072,0.02802050
2497.80554810,0.02797332
2499.73435547,0.02808650
2501.66316284,0.02785845
2503.59197021,0.02782439
2505.52077759,0.02799650
2507.44958496,0.02780784
2509.37839233,0.02786657
2511.30719971,0.02775741
2513.23600708,0.02771849
2515.16481445,0.02767105
2517.09362183,0.02752868
2519.02242920,0.02764973
2520.95123657,0.02748343
2522.88004395,0.02755378
2524.80885132,0.02756074
2526.73765869,0.02736717
2528.66646606,0.02746558
2530.59527344,0.02739717
2532.52408081,0.02738815
2534.45288818,0.02739448
2536.38169556,0.02726629
2538.31050293,0.02724952
2540.23931030,0.02723537
2542.16811768,0.02710350
2544.09692505,0.02708848
2546.02573242,0.02718298
2547.95453979,0.02707867
2549.88334717,0.02701927
2551.81215454,0.02698749
2553.74096191,0.02687667
2555.66976929,0.02686418
2557.59857666,0.02688040
2559.52738403,0.02688051
2561.45619141,0.02686137
2563.38499878,0.02679001
2565.31380615,0.02669769
2567.24261353,0.02672251
2569.17142090,0.02666368
2571.10022827,0.02657261
2573.02903564,0.02658997
2574.95784302,0.02645580
2576.88665039,0.02641455
2578.81545776,0.02632760
2580.74426514,0.02627013
2582.67307251,0.02641578
2584.60187988,0.02629198
2586.53068726,0.02626063
2588.45949463,0.02622457
2590.38830200,0.02611750
2592.31710937,0.02619807
2594.24591675,0.02607128
2596.17472412,0.02600886
2598.10353149,0.02603659
2600.03233887,0.02600665
2601.96114624,0.02596760
2603.88995361,0.02590377
2605.81876099,0.02582924
2607.74756836,0.02573362
2609.67637573,0.02576664
2611.60518311,0.02562495
2613.53399048,0.02568736
2615.46279785,0.02571202
2617.39160522,0.02536378
2619.32041260,0.02553587
2621.24921997,0.02558556
2623.17802734,0.02541232
2625.10683472,0.02547039
2627.03564209,0.02541474
2628.96444946,0.02535659
2630.89325684,0.02523625
2632.82206421,0.02518149
2634.75087158,0.02523928
2636.67967895,0.02521707
2638.60848633,0.02506872
2640.53729370,0.02500663
2642.46610107,0.02500679
2644.39490845,0.02496123
2646.32371582,0.02495355
2648.25252319,0.02483612
2650.18133057,0.02489593
2652.11013794,0.02485736
2654.03894531,0.02470068
2655.96775269,0.02477369
2657.89656006,0.02475774
2659.82536743,0.02467860
2661.75417480,0.02450765
2663.68298218,0.02448513
2665.61178955,0.02449322
2667.54059692,0.02440233
2669.46940430,0.02435013
2671.39821167,0.02426266
2673.32701904,0.02435422
2675.25582642,0.02423548
2677.18463379,0.02411193
2679.11344116,0.02418572
2681.04224854,0.02412452
2682.97105591,0.02402922
2684.89986328,0.02390642
2686.82867065,0.02390462
2688.75747803,0.02387044
2690.68628540,0.02386840
2692.61509277,0.02382745
2694.54390015,0.02371523
2696.47270752,0.02374673
2698.40151489,0.02366326
2700.33032227,0.02369657
2702.25912964,0.02358760
2704.18793701,0.02340669
2706.11674438,0.02350968
2708.04555176,0.02340746
2709.97435913,0.02335332
2711.90316650,0.02335278
2713.83197388,0.02325523
2715.76078125,0.02325938
2717.68958862,0.02323737
2719.61839600,0.02319209
2721.54720337,0.02298799
2723.47601074,0.02288771
2725.40481812,0.02300055
2727.33362549,0.02295393
2729.26243286,0.02290930
2731.19124023,0.02279064
2733.12004761,0.02268094
2735.04885498,0.02271326
2736.97766235,0.02261365
2738.90646973,0.02254933
2740.83527710,0.02251964
2742.76408447,0.02244041
2744.69289185,0.02235494
2746.62169922,0.02235584
2748.55050659,0.02237703
2750.47931396,0.02226308
2752.40812134,0.02225827
2754.33692871,0.02217868
2756.26573608,0.02205154
2758.19454346,0.02203931
2760.12335083,0.02201535
2762.05215820,0.02198927
2763.98096558,0.02189470
2765.90977295,0.02187339
2767.83858032,0.02176799
2769.76738770,0.02168090
2771.69619507,0.02162647
2773.62500244,0.02150450
2775.55380981,0.02157326
2777.48261719,0.02147473
2779.41142456,0.02140700
2781.34023193,0.02136009
2783.26903931,0.02117341
2785.19784668,0.02120098
2787.12665405,0.02107765
2789.05546143,0.02096688
2790.98426880,0.02104263
2792.91307617,0.02093296
2794.84188354,0.02085781
2796.77069092,0.02090243
2798.69949829,0.02075062
2800.62830566,0.02063346
2802.55711304,0.02067176
2804.48592041,0.02053499
2806.41472778,0.02045671
2808.34353516,0.02042336
2810.27234253,0.02032720
2812.20114990,0.02032490
2814.12995728,0.02019588
2816.05876465,0.02006785
2817.98757202,0.02008902
2819.91637939,0.02001811
2821.84518677,0.01994947
2823.77399414,0.01995539
2825.70280151,0.01979298
2827.63160889,0.01962074
2829.56041626,0.01963104
2831.48922363,0.01965862
2833.41803101,0.01952930
2835.34683838,0.01939619
2837.27564575,0.01937010
2839.20445312,0.01916200
2841.13326050,0.01909509
2843.06206787,0.01914912
2844.99087524,0.01895515
2846.91968262,0.01879243
2848.84848999,0.01868209
2850.77729736,0.01868852
2852.70610474,0.01868941
2854.63491211,0.01861828
2856.56371948,0.01861123
2858.49252686,0.01859234
2860.42133423,0.01857482
2862.35014160,0.01846307
2864.27894897,0.01842871
2866.20775635,0.01832585
2868.13656372,0.01812090
2870.06537109,0.01817463
2871.99417847,0.01820058
2873.92298584,0.01802026
2875.85179321,0.01785627
2877.78060059,0.01792927
2879.70940796,0.01787465
2881.63821533,0.01766313
2883.56702270,0.01775697
2885.49583008,0.01762913
2887.42463745,0.01741282
2889.35344482,0.01747492
2891.28225220,0.01729543
2893.21105957,0.01722504
2895.13986694,0.01731361
2897.06867432,0.01717274
2898.99748169,0.01708505
2900.92628906,0.01696505
2902.85509644,0.01686115
2904.78390381,0.01680571
2906.71271118,0.01662987
2908.64151855,0.01654995
2910.57032593,0.01659403
2912.49913330,0.01661658
2914.42794067,0.01646181
2916.35674805,0.01633937
2918.28555542,0.01629638
2920.21436279,0.01619263
2922.14317017,0.01618007
2924.07197754,0.01612527
2926.00078491,0.01611855
2927.92959229,0.01614363
2929.85839966,0.01608731
2931.78720703,0.01605872
2933.71601440,0.01604968
2935.64482178,0.01605850
2937.57362915,0.01595821
2939.50243652,0.01593120
2941.43124390,0.01594373
2943.36005127,0.01577179
2945.28885864,0.01559894
2947.21766602,0.01551111
2949.14647339,0.01546568
2951.07528076,0.01540977
2953.00408813,0.01532669
2954.93289551,0.01516126
2956.86170288,0.01512174
2958.79051025,0.01517349
2960.71931763,0.01502394
2962.64812500,0.01486282
2964.57693237,0.01480793
2966.50573975,0.01481510
2968.43454712,0.01474804
2970.36335449,0.01471535
2972.29216187,0.01478249
2974.22096924,0.01470002
2976.14977661,0.01460889
2978.07858398,0.01455914
2980.00739136,0.01448407
2981.93619873,0.01445825
2983.86500610,0.01440858
2985.79381348,0.01433212
2987.72262085,0.01434225
2989.65142822,0.01428425
2991.58023560,0.01405908
2993.50904297,0.01399586
2995.43785034,0.01405703
2997.36665771,0.01392842
2999.29546509,0.01379828
3001.22427246,0.01373946
3003.15307983,0.01370934
3005.08188721,0.01377624
3007.01069458,0.01355827
3008.93950195,0.01341379
3010.86830933,0.01352357
3012.79711670,0.01327270
3014.72592407,0.01313512
3016.65473145,0.01318801
3018.58353882,0.01318173
3020.51234619,0.01310791
3022.44115356,0.01297616
3024.36996094,0.01300203
3026.29876831,0.01281672
3028.22757568,0.01271901
3030.15638306,0.01270391
3032.08519043,0.01253358
3034.01399780,0.01255085
3035.94280518,0.01251410
3037.87161255,0.01245629
3039.80041992,0.01236217
3041.72922729,0.01227319
3043.65803467,0.01224478
3045.58684204,0.01220359
3047.51564941,0.01213085
3049.44445679,0.01197406
3051.37326416,0.01199296
3053.30207153,0.01191712
3055.23087891,0.01180140
3057.15968628,0.01183677
3059.08849365,0.01183549
3061.01730103,0.01169378
3062.94610840,0.01152678
3064.87491577,0.01161543
3066.80372314,0.01150129
3068.73253052,0.01136707
3070.66133789,0.01137529
3072.59014526,0.01127276
3074.51895264,0.01126992
3076.44776001,0.01121197
3078.37656738,0.01115891
3080.30537476,0.01105188
3082.23418213,0.01103217
3084.16298950,0.01102675
3086.09179687,0.01091580
3088.02060425,0.01104484
3089.94941162,0.01093752
3091.87821899,0.01075125
3093.80702637,0.01079157
3095.73583374,0.01069562
3097.66464111,0.01058029
3099.59344849,0.01062412
3101.52225586,0.01058180
3103.45106323,0.01039200
3105.37987061,0.01041924
3107.30867798,0.01041380
3109.23748535,0.01035392
3111.16629272,0.01037376
3113.09510010,0.01023049
3115.02390747,0.01014963
3116.95271484,0.01012329
3118.88152222,0.01009088
3120.81032959,0.00996628
3122.73913696,0.00989806
3124.66794434,0.01010196
3126.59675171,0.01000418
3128.52555908,0.00983747
3130.45436645,0.00986293
3132.38317383,0.00980086
3134.31198120,0.00993997
3136.24078857,0.00987180
3138.16959595,0.00968709
3140.09840332,0.00982730
3142.02721069,0.00968594
3143.95601807,0.00955963
3145.88482544,0.00966057
3147.81363281,0.00958319
3149.74244019,0.00949167
3151.67124756,0.00948769
3153.60005493,0.00945926
3155.52886230,0.00937505
3157.45766968,0.00940315
3159.38647705,0.00939134
3161.31528442,0.00937085
3163.24409180,0.00935316
3165.17289917,0.00928119
3167.10170654,0.00927310
3169.03051392,0.00911334
3170.95932129,0.00919619
3172.88812866,0.00922397
3174.81693604,0.00906951
3176.74574341,0.00923924
3178.67455078,0.00914469
3180.60335815,0.00901642
3182.53216553,0.00910083
3184.46097290,0.00907508
3186.38978027,0.00901338
3188.31858765,0.00899185
3190.24739502,0.00898304
3192.17620239,0.00893039
3194.10500977,0.00895728
3196.03381714,0.00893306
3197.96262451,0.00888233
3199.89143188,0.00886310
3201.82023926,0.00892759
3203.74904663,0.00886744
3205.67785400,0.00872646
3207.60666138,0.00889501
3209.53546875,0.00881591
3211.46427612,0.00876834
3213.39308350,0.00886079
3215.32189087,0.00872733
3217.25069824,0.00876138
3219.17950562,0.00883306
3221.10831299,0.00882953
3223.03712036,0.00873813
3224.96592773,0.00881970
3226.89473511,0.00891374
3228.82354248,0.00874307
3230.75234985,0.00872501
3232.68115723,0.00883067
3234.60996460,0.00886282
3236.53877197,0.00874513
3238.46757935,0.00877071
3240.39638672,0.00886318
3242.32519409,0.00879281
3244.25400146,0.00876405
3246.18280884,0.00879661
3248.11161621,0.00878233
3250.04042358,0.00880894
3251.96923096,0.00901188
3253.89803833,0.00883752
3255.82684570,0.00872361
3257.75565308,0.00889879
3259.68446045,0.00877350
3261.61326782,0.00881185
3263.54207520,0.00884707
3265.47088257,0.00884527
3267.39968994,0.00884656
3269.32849731,0.00877503
3271.25730469,0.00885021
3273.18611206,0.00884078
3275.11491943,0.00890932
3277.04372681,0.00887065
3278.97253418,0.00876475
3280.90134155,0.00884416
3282.83014893,0.00883033
3284.75895630,0.00876779
3286.68776367,0.00881761
3288.61657104,0.00889831
3290.54537842,0.00883972
3292.47418579,0.00881370
3294.40299316,0.00880033
3296.33180054,0.00879783
3298.26060791,0.00885871
3300.18941528,0.00885427
3302.11822266,0.00886357
3304.04703003,0.00890028
3305.97583740,0.00892315
3307.90464478,0.00881257
3309.83345215,0.00881547
3311.76225952,0.00886725
3313.69106689,0.00882064
3315.61987427,0.00893057
3317.54868164,0.00893436
3319.47748901,0.00891350
3321.40629639,0.00895605
3323.33510376,0.00888620
3325.26391113,0.00883522
3327.19271851,0.00888906
3329.12152588,0.00892976
3331.05033325,0.00885947
3332.97914062,0.00884850
3334.90794800,0.00890070
3336.83675537,0.00899145
3338.76556274,0.00904953
3340.69437012,0.00895146
3342.62317749,0.00884531
3344.55198486,0.00894121
3346.48079224,0.00908102
3348.40959961,0.00901932
3350.33840698,0.00899303
3352.26721436,0.00898104
3354.19602173,0.00896760
3356.12482910,0.00903053
3358.05363647,0.00900796
3359.98244385,0.00898485
3361.91125122,0.00894364
3363.84005859,0.00896424
3365.76886597,0.00902777
3367.69767334,0.00898477
3369.62648071,0.00902334
3371.55528809,0.00903544
3373.48409546,0.00902432
3375.41290283,0.00908289
3377.34171020,0.00898117
3379.27051758,0.00900917
3381.19932495,0.00915817
3383.12813232,0.00914874
3385.05693970,0.00914944
3386.98574707,0.00914853
3388.91455444,0.00921438
3390.84336182,0.00913518
3392.77216919,0.00906730
3394.70097656,0.00918539
3396.62978394,0.00917224
3398.55859131,0.00924683
3400.48739868,0.00922588
3402.41620605,0.00921052
3404.34501343,0.00925548
3406.27382080,0.00921697
3408.20262817,0.00928147
3410.13143555,0.00926911
3412.06024292,0.00933962
3413.98905029,0.00929081
3415.91785767,0.00928014
3417.84666504,0.00939191
3419.77547241,0.00929045
3421.70427979,0.00932230
3423.63308716,0.00933420
3425.56189453,0.00935029
3427.49070190,0.00938949
3429.41950928,0.00935627
3431.34831665,0.00939069
3433.27712402,0.00941041
3435.20593140,0.00937111
3437.13473877,0.00935238
3439.06354614,0.00945401
3440.99235352,0.00937750
3442.92116089,0.00933238
3444.84996826,0.00941548
3446.77877563,0.00938502
3448.70758301,0.00945876
3450.63639038,0.00953309
3452.56519775,0.00952411
3454.49400513,0.00954030
3456.42281250,0.00954113
3458.35161987,0.00954376
3460.28042725,0.00958579
3462.20923462,0.00943495
3464.13804199,0.00945392
3466.06684937,0.00960188
3467.99565674,0.00951307
3469.92446411,0.00954203
3471.85327148,0.00952308
3473.78207886,0.00961325
3475.71088623,0.00960068
3477.63969360,0.00960203
3479.56850098,0.00966594
3481.49730835,0.00942555
3483.42611572,0.00959096
3485.35492310,0.00960876
3487.28373047,0.00953826
3489.21253784,0.00965244
3491.14134521,0.00964261
3493.07015259,0.00969240
3494.99895996,0.00968287
3496.92776733,0.00981380
3498.85657471,0.00975413
3500.78538208,0.00977375
3502.71418945,0.00966261
3504.64299683,0.00959499
3506.57180420,0.00986209
3508.50061157,0.00967225
3510.42941895,0.00978713
3512.35822632,0.00982214
3514.28703369,0.00981642
3516.21584106,0.01000534
3518.14464844,0.00984920
3520.07345581,0.00992708
3522.00226318,0.00983503
3523.93107056,0.00966999
3525.85987793,0.00971706
3527.78868530,0.00974778
3529.71749268,0.00976791
3531.64630005,0.00998502
3533.57510742,0.01018530
3535.50391479,0.00992311
3537.43272217,0.00978616
3539.36152954,0.00993695
3541.29033691,0.01009008
3543.21914429,0.00997345
3545.14795166,0.00971910
3547.07675903,0.00964195
3549.00556641,0.01002286
3550.93437378,0.01012980
3552.86318115,0.00971361
3554.79198853,0.01002550
3556.72079590,0.01014822
3558.64960327,0.01006318
3560.57841064,0.01006173
3562.50721802,0.00996463
3564.43602539,0.01006351
3566.36483276,0.00921227
3568.29364014,0.00894404
3570.22244751,0.00995199
3572.15125488,0.01025221
3574.08006226,0.01010717
3576.00886963,0.01019820
3577.93767700,0.01011012
3579.86648437,0.01008721
3581.79529175,0.01018035
3583.72409912,0.01020058
3585.65290649,0.01000091
3587.58171387,0.00902888
3589.51052124,0.00930712
3591.43932861,0.01033053
3593.36813599,0.00999843
3595.29694336,0.00976838
3597.22575073,0.00996210
3599.15455811,0.01021940
3601.08336548,0.01013360
3603.01217285,0.01026675
3604.94098022,0.01053982
3606.86978760,0.00994714
3608.79859497,0.00929538
3610.72740234,0.00958292
3612.65620972,0.00979562
3614.58501709,0.00950260
3616.51382446,0.01027277
3618.44263184,0.00937147
3620.37143921,0.00909751
3622.30024658,0.01049008
3624.22905395,0.01020851
3626.15786133,0.01090677
3628.08666870,0.00890467
3630.01547607,0.00788145
3631.94428345,0.01043134
3633.87309082,0.01018058
3635.80189819,0.01041698
3637.73070557,0.01070696
3639.65951294,0.01061984
3641.58832031,0.01057378
3643.51712769,0.01051005
3645.44593506,0.01073317
3647.37474243,0.00929171
3649.30354980,0.00851814
3651.23235718,0.00863308
3653.16116455,0.01057165
3655.08997192,0.01052586
3657.01877930,0.00936995
3658.94758667,0.01113074
3660.87639404,0.01076077
3662.80520142,0.01104004
3664.73400879,0.01100689
3666.66281616,0.01091577
3668.59162354,0.01055875
3670.52043091,0.00824639
3672.44923828,0.01056206
3674.37804565,0.00990807
3676.30685303,0.00798377
3678.23566040,0.01056518
3680.16446777,0.01074078
3682.09327515,0.01089912
3684.02208252,0.01121937
3685.95088989,0.01107180
3687.87969727,0.00990150
3689.80850464,0.00885184
3691.73731201,0.01040196
3693.66611938,0.01079036
3695.59492676,0.01114026
3697.52373413,0.01112248
3699.45254150,0.01101753
3701.38134888,0.01070862
3703.31015625,0.01020729
3705.23896362,0.01160294
3707.16777100,0.01081198
3709.09657837,0.01036851
3711.02538574,0.00977753
3712.95419312,0.00902691
3714.88300049,0.01101081
3716.81180786,0.01078424
3718.74061523,0.01087428
3720.66942261,0.01068890
3722.59822998,0.01022683
3724.52703735,0.01071902
3726.45584473,0.00973396
3728.38465210,0.01079086
3730.31345947,0.01065529
3732.24226685,0.00955845
3734.17107422,0.00937195
3736.09988159,0.00872404
3738.02868896,0.00946774
3739.95749634,0.01042322
3741.88630371,0.01085524
3743.81511108,0.00812727
3745.74391846,0.00744001
3747.67272583,0.01018989
3749.60153320,0.00869726
3751.53034058,0.00778860
3753.45914795,0.00913214
3755.38795532,0.01003509
3757.31676270,0.01048588
3759.24557007,0.00951351
3761.17437744,0.00997309
3763.10318481,0.01077082
3765.03199219,0.00986106
3766.96079956,0.01011419
3768.88960693,0.01001775
3770.81841431,0.00942303
3772.74722168,0.01043180
3774.67602905,0.01044219
3776.60483643,0.01045435
3778.53364380,0.01009219
3780.46245117,0.00952548
3782.39125854,0.01047738
3784.32006592,0.01011010
3786.24887329,0.00995490
3788.17768066,0.01027142
3790.10648804,0.01013003
3792.03529541,0.01020521
3793.96410278,0.01035559
3795.89291016,0.00956614
3797.82171753,0.00946415
3799.75052490,0.01008965
3801.67933228,0.00771527
3803.60813965,0.00917495
3805.53694702,0.01007128
3807.46575439,0.00789762
3809.39456177,0.00988785
3811.32336914,0.00975169
3813.25217651,0.01023736
3815.18098389,0.00898185
3817.10979126,0.00765393
3819.03859863,0.01018083
3820.96740601,0.00778193
3822.89621338,0.00832001
3824.82502075,0.01001927
3826.75382812,0.00883076
3828.68263550,0.00978396
3830.61144287,0.00933819
3832.54025024,0.00883093
3834.46905762,0.00910609
3836.39786499,0.00868734
3838.32667236,0.00765227
3840.25547974,0.00839174
3842.18428711,0.00912139
3844.11309448,0.00864004
3846.04190186,0.00950528
3847.97070923,0.00925508
3849.89951660,0.00934929
3851.82832397,0.00832474
3853.75713135,0.00593232
3855.68593872,0.00726046
3857.61474609,0.00946171
3859.54355347,0.00912552
3861.47236084,0.00894829
3863.40116821,0.00886244
3865.32997559,0.00794883
3867.25878296,0.00907824
3869.18759033,0.00820403
3871.11639770,0.00735171
3873.04520508,0.00906036
3874.97401245,0.00810050
3876.90281982,0.00902550
3878.83162720,0.00919029
3880.76043457,0.00757632
3882.68924194,0.00911462
3884.61804932,0.00839130
3886.54685669,0.00756020
3888.47566406,0.00911350
3890.40447144,0.00859490
3892.33327881,0.00785458
3894.26208618,0.00876500
3896.19089355,0.00907760
3898.11970093,0.00842506
3900.04850830,0.00784476
3901.97731567,0.00780204
3903.90612305,0.00768564
3905.83493042,0.00779914
3907.76373779,0.00874271
3909.69254517,0.00879379
3911.62135254,0.00867850
3913.55015991,0.00876510
3915.47896728,0.00846185
3917.40777466,0.00829314
3919.33658203,0.00807586
3921.26538940,0.00841255
3923.19419678,0.00839958
3925.12300415,0.00825322
3927.05181152,0.00847180
3928.98061890,0.00852650
3930.90942627,0.00830866
3932.83823364,0.00792077
3934.76704102,0.00837136
3936.69584839,0.00838221
3938.62465576,0.00829953
3940.55346313,0.00848884
3942.48227051,0.00799010
3944.41107788,0.00812397
3946.33988525,0.00837016
3948.26869263,0.00813632
3950.19750000,0.00806117
3952.12630737,0.00820264
3954.05511475,0.00828812
3955.98392212,0.00820972
3957.91272949,0.00814266
3959.84153687,0.00817071
3961.77034424,0.00812604
3963.69915161,0.00805656
3965.62795898,0.00816704
3967.55676636,0.00803407
3969.48557373,0.00805708
3971.41438110,0.00808690
3973.34318848,0.00801777
3975.27199585,0.00804201
3977.20080322,0.00797406
3979.12961060,0.00808678
3981.05841797,0.00788505
3982.98722534,0.00787569
3984.91603271,0.00789861
3986.84484009,0.00783152
3988.77364746,0.00799053
3990.70245483,0.00783707
3992.63126221,0.00783984
3994.56006958,0.00774881
3996.48887695,0.00775370
3998.41768433,0.00780241
4000.34649170,0.00778051
4002.27529907,0.00780349
4004.20410645,0.00767958
4006.13291382,0.00777484
4008.06172119,0.00759061
4009.99052856,0.00768242
4011.91933594,0.00770464
4013.84814331,0.00745247
4015.77695068,0.00766876
4017.70575806,0.00760801
4019.63456543,0.00755225
4021.56337280,0.00755559
4023.49218018,0.00753895
4025.42098755,0.00753264
4027.34979492,0.00747528
4029.27860229,0.00753431
4031.20740967,0.00747947
4033.13621704,0.00743583
4035.06502441,0.00741781
4036.99383179,0.00744479
4038.92263916,0.00734743
4040.85144653,0.00732300
4042.78025391,0.00739494
4044.70906128,0.00731484
4046.63786865,0.00730840
4048.56667603,0.00731734
4050.49548340,0.00733785
4052.42429077,0.00728088
4054.35309814,0.00728830
4056.28190552,0.00730556
4058.21071289,0.00724476
4060.13952026,0.00720091
4062.06832764,0.00719346
4063.99713501,0.00719669
4065.92594238,0.00713129
4067.85474976,0.00722052
4069.78355713,0.00713106
4071.71236450,0.00707657
4073.64117187,0.00708232
4075.56997925,0.00696348
4077.49878662,0.00703000
4079.42759399,0.00698431
4081.35640137,0.00698178
4083.28520874,0.00695288
4085.21401611,0.00697211
4087.14282349,0.00701605
4089.07163086,0.00691625
4091.00043823,0.00694147
4092.92924561,0.00698622
4094.85805298,0.00699712
4096.78686035,0.00682081
4098.71566772,0.00682225
4100.64447510,0.00687024
4102.57328247,0.00681071
4104.50208984,0.00685069
4106.43089722,0.00682671
4108.35970459,0.00688954
4110.28851196,0.00676544
4112.21731934,0.00670205
4114.14612671,0.00668890
4116.07493408,0.00666300
4118.00374145,0.00672794
4119.93254883,0.00660613
4121.86135620,0.00665161
4123.79016357,0.00668503
4125.71897095,0.00670825
4127.64777832,0.00665709
4129.57658569,0.00656170
4131.50539307,0.00665466
4133.43420044,0.00658319
4135.36300781,0.00651118
4137.29181519,0.00647967
4139.22062256,0.00649590
4141.14942993,0.00646615
4143.07823730,0.00642381
4145.00704468,0.00646024
4146.93585205,0.00640759
4148.86465942,0.00644869
4150.79346680,0.00643781
4152.72227417,0.00633361
4154.65108154,0.00636027
4156.57988892,0.00645616
4158.50869629,0.00638699
4160.43750366,0.00633686
4162.36631103,0.00635715
4164.29511841,0.00631105
4166.22392578,0.00635003
4168.15273315,0.00626303
4170.08154053,0.00623063
4172.01034790,0.00630090
4173.93915527,0.00626978
4175.86796265,0.00622988
4177.79677002,0.00622127
4179.72557739,0.00620505
4181.65438477,0.00612039
4183.58319214,0.00618634
4185.51199951,0.00613805
4187.44080688,0.00606541
4189.36961426,0.00610901
4191.29842163,0.00597350
4193.22722900,0.00600655
4195.15603638,0.00605363
4197.08484375,0.00598484
4199.01365112,0.00596881
4200.94245850,0.00595367
4202.87126587,0.00600983
4204.80007324,0.00597328
4206.72888062,0.00595080
4208.65768799,0.00601948
4210.58649536,0.00591054
4212.51530273,0.00584097
4214.44411011,0.00590107
4216.37291748,0.00588535
4218.30172485,0.00586042
4220.23053223,0.00584939
4222.15933960,0.00590320
4224.08814697,0.00585097
4226.01695435,0.00578493
4227.94576172,0.00581576
4229.87456909,0.00574080
4231.80337646,0.00577665
4233.73218384,0.00570963
4235.66099121,0.00563572
4237.58979858,0.00570225
4239.51860596,0.00571735
4241.44741333,0.00576598
4243.37622070,0.00569166
4245.30502808,0.00571310
4247.23383545,0.00566672
4249.16264282,0.00554679
4251.09145020,0.00564591
4253.02025757,0.00564877
4254.94906494,0.00561040
4256.87787231,0.00561920
4258.80667969,0.00559239
4260.73548706,0.00554447
4262.66429443,0.00558632
4264.59310181,0.00551762
4266.52190918,0.00539432
4268.45071655,0.00545724
4270.37952393,0.00546932
4272.30833130,0.00551620
4274.23713867,0.00554944
4276.16594604,0.00545441
4278.09475342,0.00540618
4280.02356079,0.00546427
4281.95236816,0.00541147
4283.88117554,0.00534841
4285.80998291,0.00534371
4287.73879028,0.00527828
4289.66759766,0.00537481
4291.59640503,0.00536606
4293.52521240,0.00537171
4295.45401978,0.00532792
4297.38282715,0.00525547
4299.31163452,0.00536443
4301.24044189,0.00521725
4303.16924927,0.00523840
4305.09805664,0.00523580
4307.02686401,0.00522178
4308.95567139,0.00529604
4310.88447876,0.00511603
4312.81328613,0.00519311
4314.74209351,0.00522976
4316.67090088,0.00517728
4318.59970825,0.00511341
4320.52851562,0.00509080
4322.45732300,0.00518711
4324.38613037,0.00509890
4326.31493774,0.00509733
4328.24374512,0.00509765
4330.17255249,0.00509852
4332.10135986,0.00503398
4334.03016724,0.00497566
4335.95897461,0.00501584
4337.88778198,0.00493642
4339.81658936,0.00497320
4341.74539673,0.00497924
4343.67420410,0.00500769
4345.60301147,0.00503983
4347.53181885,0.00497128
4349.46062622,0.00496335
4351.38943359,0.00490525
4353.31824097,0.00489297
4355.24704834,0.00492526
4357.17585571,0.00491042
4359.10466309,0.00482123
4361.03347046,0.00480323
4362.96227783,0.00487487
4364.89108520,0.00487757
4366.81989258,0.00487372
4368.74869995,0.00480337
4370.67750732,0.00468551
4372.60631470,0.00469678
4374.53512207,0.00476932
4376.46392944,0.00476180
4378.39273682,0.00476327
4380.32154419,0.00469090
4382.25035156,0.00469225
4384.17915894,0.00478018
4386.10796631,0.00465416
4388.03677368,0.00466016
4389.96558105,0.00469284
4391.89438843,0.00461466
4393.82319580,0.00462906
4395.75200317,0.00455784
4397.68081055,0.00459093
4399.60961792,0.00466987
4401.53842529,0.00453868
4403.46723267,0.00453764
4405.39604004,0.00461746
4407.32484741,0.00457531
4409.25365478,0.00463048
4411.18246216,0.00460531
4413.11126953,0.00446872
4415.04007690,0.00442609
4416.96888428,0.00444362
4418.89769165,0.00446250
4420.82649902,0.00445397
4422.75530640,0.00451548
4424.68411377,0.00446654
4426.61292114,0.00440970
4428.54172852,0.00441569
4430.47053589,0.00431165
4432.39934326,0.00432988
4434.32815063,0.00440279
4436.25695801,0.00435566
4438.18576538,0.00425710
4440.11457275,0.00427585
4442.04338013,0.00432079
4443.97218750,0.00433309
4445.90099487,0.00429919
4447.82980225,0.00426247
4449.75860962,0.00439684
4451.68741699,0.00434750
4453.61622437,0.00425783
4455.54503174,0.00426206
4457.47383911,0.00423620
4459.40264648,0.00426844
4461.33145386,0.00425549
4463.26026123,0.00422982
4465.18906860,0.00417493
4467.11787598,0.00419296
4469.04668335,0.00412846
4470.97549072,0.00411752
4472.90429810,0.00418554
4474.83310547,0.00413226
4476.76191284,0.00415445
4478.69072021,0.00408805
4480.61952759,0.00415296
4482.54833496,0.00414968
4484.47714233,0.00410389
4486.40594971,0.00411871
4488.33475708,0.00401663
4490.26356445,0.00414583
4492.19237183,0.00403048
4494.12117920,0.00399794
4496.04998657,0.00407391
4497.97879395,0.00390886
4499.90760132,0.00400643
4501.83640869,0.00404028
4503.76521606,0.00401846
4505.69402344,0.00398095
4507.62283081,0.00391824
4509.55163818,0.00392899
4511.48044556,0.00388239
4513.40925293,0.00388640
4515.33806030,0.00390384
4517.26686768,0.00388252
4519.19567505,0.00387204
4521.12448242,0.00392915
4523.05328979,0.00389152
4524.98209717,0.00390517
4526.91090454,0.00386198
4528.83971191,0.00374095
4530.76851929,0.00383454
4532.69732666,0.00383451
4534.62613403,0.00385913
4536.55494141,0.00380934
4538.48374878,0.00377212
4540.41255615,0.00386156
4542.34136353,0.00376316
4544.27017090,0.00377528
4546.19897827,0.00373652
4548.12778564,0.00364961
4550.05659302,0.00372474
4551.98540039,0.00372161
4553.91420776,0.00364612
4555.84301514,0.00359485
4557.77182251,0.00362339
4559.70062988,0.00372127
4561.62943726,0.00369505
4563.55824463,0.00357326
4565.48705200,0.00362084
4567.41585937,0.00359507
4569.34466675,0.00353061
4571.27347412,0.00358613
4573.20228149,0.00356454
4575.13108887,0.00356238
4577.05989624,0.00358948
4578.98870361,0.00361612
4580.91751099,0.00353929
4582.84631836,0.00350275
4584.77512573,0.00355593
4586.70393311,0.00349096
4588.63274048,0.00349713
4590.56154785,0.00348594
4592.49035522,0.00344362
4594.41916260,0.00346563
4596.34796997,0.00341546
4598.27677734,0.00343154
4600.20558472,0.00347979
4602.13439209,0.00340613
4604.06319946,0.00340727
4605.99200684,0.00342420
4607.92081421,0.00339427
4609.84962158,0.00343456
4611.77842895,0.00344039
4613.70723633,0.00342296
4615.63604370,0.00334316
4617.56485107,0.00333050
4619.49365845,0.00330074
4621.42246582,0.00323983
4623.35127319,0.00335318
4625.28008057,0.00331791
4627.20888794,0.00330131
4629.13769531,0.00332402
4631.06650269,0.00330336
4632.99531006,0.00331301
4634.92411743,0.00324554
4636.85292480,0.00323009
4638.78173218,0.00316951
4640.71053955,0.00320683
4642.63934692,0.00321279
4644.56815430,0.00315689
4646.49696167,0.00318767
4648.42576904,0.00315019
4650.35457642,0.00318261
4652.28338379,0.00316432
4654.21219116,0.00320503
4656.14099853,0.00323173
4658.06980591,0.00313354
4659.99861328,0.00313929
4661.92742065,0.00313934
4663.85622803,0.00312798
4665.78503540,0.00311053
4667.71384277,0.00310003
4669.64265015,0.00314568
4671.57145752,0.00318476
4673.50026489,0.00308433
4675.42907227,0.00309180
4677.35787964,0.00311670
4679.28668701,0.00298706
4681.21549438,0.00303743
4683.14430176,0.00304997
4685.07310913,0.00305100
4687.00191650,0.00304114
4688.93072388,0.00302031
4690.85953125,0.00301454
4692.78833862,0.00298002
4694.71714600,0.00305168
4696.64595337,0.00294719
4698.57476074,0.00301486
4700.50356812,0.00308550
4702.43237549,0.00295074
4704.36118286,0.00296423
4706.28999023,0.00295090
4708.21879761,0.00294407
4710.14760498,0.00290816
4712.07641235,0.00295621
4714.00521973,0.00286151
4715.93402710,0.00280532
4717.86283447,0.00297500
4719.79164185,0.00289413
4721.72044922,0.00282028
4723.64925659,0.00278493
4725.57806396,0.00282855
4727.50687134,0.00283807
4729.43567871,0.00280599
4731.36448608,0.00286718
4733.29329346,0.00281262
4735.22210083,0.00284396
4737.15090820,0.00280913
4739.07971558,0.00276783
4741.00852295,0.00282845
4742.93733032,0.00278886
4744.86613770,0.00277280
4746.79494507,0.00287003
4748.72375244,0.00282595
4750.65255981,0.00268993
4752.58136719,0.00278685
4754.51017456,0.00279934
4756.43898193,0.00277735
4758.36778931,0.00277347
4760.29659668,0.00273726
4762.22540405,0.00269784
4764.15421143,0.00260779
4766.08301880,0.00272142
4768.01182617,0.00271590
4769.94063354,0.00267766
4771.86944092,0.00266824
4773.79824829,0.00260328
4775.72705566,0.00268109
4777.65586304,0.00266812
4779.58467041,0.00264586
4781.51347778,0.00259496
4783.44228516,0.00256040
4785.37109253,0.00261695
4787.29989990,0.00265371
4789.22870728,0.00257313
4791.15751465,0.00254032
4793.08632202,0.00264205
4795.01512939,0.00254215
4796.94393677,0.00253713
4798.87274414,0.00254428
4800.80155151,0.00249761
4802.73035889,0.00260437
4804.65916626,0.00260877
4806.58797363,0.00252219
4808.51678101,0.00248636
4810.44558838,0.00256725
4812.37439575,0.00251833
4814.30320312,0.00247294
4816.23201050,0.00247282
4818.16081787,0.00252337
4820.08962524,0.00258895
4822.01843262,0.00242079
4823.94723999,0.00246493
4825.87604736,0.00247691
4827.80485474,0.00246026
4829.73366211,0.00248549
4831.66246948,0.00238212
4833.59127686,0.00247332
4835.52008423,0.00242505
4837.44889160,0.00239655
4839.37769897,0.00241487
4841.30650635,0.00235389
4843.23531372,0.00237410
4845.16412109,0.00235280
4847.09292847,0.00235043
4849.02173584,0.00229265
4850.95054321,0.00235319
4852.87935059,0.00239169
4854.80815796,0.00236979
4856.73696533,0.00242393
4858.66577270,0.00234470
4860.59458008,0.00232455
4862.52338745,0.00230938
4864.45219482,0.00229156
4866.38100220,0.00230034
4868.30980957,0.00225413
4870.23861694,0.00226520
4872.16742432,0.00230768
4874.09623169,0.00233446
4876.02503906,0.00224764
4877.95384644,0.00222329
4879.88265381,0.00230578
4881.81146118,0.00230021
4883.74026855,0.00229540
4885.66907593,0.00225568
4887.59788330,0.00224816
4889.52669067,0.00228724
4891.45549805,0.00222962
4893.38430542,0.00223401
4895.31311279,0.00222456
4897.24192017,0.00220529
4899.17072754,0.00224522
4901.09953491,0.00218385
4903.02834228,0.00220501
4904.95714966,0.00224860
4906.88595703,0.00221433
4908.81476440,0.00217885
4910.74357178,0.00213764
4912.67237915,0.00216632
4914.60118652,0.00215297
4916.52999390,0.00212429
4918.45880127,0.00215769
4920.38760864,0.00219717
4922.31641602,0.00215383
4924.24522339,0.00212546
4926.17403076,0.00212332
4928.10283813,0.00206946
4930.03164551,0.00209575
4931.96045288,0.00208756
4933.88926025,0.00213131
4935.81806763,0.00205740
4937.74687500,0.00198250
4939.67568237,0.00211976
4941.60448975,0.00206707
4943.53329712,0.00209282
4945.46210449,0.00202730
4947.39091187,0.00195021
4949.31971924,0.00206584
4951.24852661,0.00199134
4953.17733398,0.00199042
4955.10614136,0.00201165
4957.03494873,0.00204383
4958.96375610,0.00199389
4960.89256348,0.00193773
4962.82137085,0.00201568
4964.75017822,0.00192518
4966.67898560,0.00195254
4968.60779297,0.00195644
4970.53660034,0.00188692
4972.46540771,0.00190474
4974.39421509,0.00190767
4976.32302246,0.00196104
4978.25182983,0.00190873
4980.18063721,0.00190156
4982.10944458,0.00197373
4984.03825195,0.00193590
4985.96705933,0.00184991
4987.89586670,0.00189602
4989.82467407,0.00196096
4991.75348145,0.00186639
4993.68228882,0.00189122
4995.61109619,0.00190468
4997.53990356,0.00184541
4999.46871094,0.00188414
5001.39751831,0.00186340
5003.32632568,0.00186763
5005.25513306,0.00188173
5007.18394043,0.00183147
5009.11274780,0.00188010
5011.04155518,0.00189234
5012.97036255,0.00180532
5014.89916992,0.00187081
5016.82797729,0.00186389
5018.75678467,0.00175512
5020.68559204,0.00188985
5022.61439941,0.00189045
5024.54320679,0.00175201
5026.47201416,0.00180752
5028.40082153,0.00177317
5030.32962891,0.00177161
5032.25843628,0.00183586
5034.18724365,0.00178722
5036.11605103,0.00178646
5038.04485840,0.00176033
5039.97366577,0.00181502
5041.90247314,0.00182835
5043.83128052,0.00171561
5045.76008789,0.00174849
5047.68889526,0.00174975
5049.61770264,0.00173336
5051.54651001,0.00169887
5053.47531738,0.00169099
5055.40412476,0.00175282
5057.33293213,0.00171079
5059.26173950,0.00170135
5061.19054687,0.00169621
5063.11935425,0.00169011
5065.04816162,0.00168079
5066.97696899,0.00169212
5068.90577637,0.00166607
5070.83458374,0.00159817
5072.76339111,0.00170035
5074.69219849,0.00168130
5076.62100586,0.00157397
5078.54981323,0.00158146
5080.47862061,0.00158407
5082.40742798,0.00152410
5084.33623535,0.00154007
5086.26504272,0.00162866
5088.19385010,0.00161423
5090.12265747,0.00167649
5092.05146484,0.00163778
5093.98027222,0.00162919
5095.90907959,0.00170809
5097.83788696,0.00158368
5099.76669434,0.00155710
5101.69550171,0.00157846
5103.62430908,0.00160970
5105.55311645,0.00159292
5107.48192383,0.00162735
5109.41073120,0.00165718
5111.33953857,0.00150159
5113.26834595,0.00156587
5115.19715332,0.00154245
5117.12596069,0.00146756
5119.05476807,0.00150499
5120.98357544,0.00149031
5122.91238281,0.00157899
5124.84119019,0.00154597
5126.76999756,0.00150479
5128.69880493,0.00152756
5130.62761230,0.00151684
5132.55641968,0.00151339
5134.48522705,0.00149918
5136.41403442,0.00146738
5138.34284180,0.00146222
5140.27164917,0.00150979
5142.20045654,0.00141145
5144.12926392,0.00146982
5146.05807129,0.00154092
5147.98687866,0.00143777
5149.91568603,0.00148755
5151.84449341,0.00144758
5153.77330078,0.00148696
5155.70210815,0.00150125
5157.63091553,0.00140735
5159.55972290,0.00150577
5161.48853027,0.00147242
5163.41733765,0.00136986
5165.34614502,0.00132777
5167.27495239,0.00138649
5169.20375977,0.00145372
5171.13256714,0.00134462
5173.06137451,0.00135159
5174.99018188,0.00138687
5176.91898926,0.00138598
5178.84779663,0.00143834
5180.77660400,0.00140165
5182.70541138,0.00139687
5184.63421875,0.00138616
5186.56302612,0.00132900
5188.49183350,0.00139152
5190.42064087,0.00140318
5192.34944824,0.00136597
5194.27825562,0.00140243
5196.20706299,0.00134603
5198.13587036,0.00134794
5200.06467773,0.00138602
5201.99348511,0.00132852
5203.92229248,0.00135222
5205.85109985,0.00132224
5207.77990723,0.00126749
5209.70871460,0.00129097
5211.63752197,0.00134652
5213.56632935,0.00129598
5215.49513672,0.00117162
5217.42394409,0.00130750
5219.35275146,0.00134005
5221.28155884,0.00127772
5223.21036621,0.00132613
5225.13917358,0.00122016
5227.06798096,0.00120903
5228.99678833,0.00127410
5230.92559570,0.00130116
5232.85440308,0.00126095
5234.78321045,0.00127858
5236.71201782,0.00133755
5238.64082520,0.00118979
5240.56963257,0.00125231
5242.49843994,0.00131282
5244.42724731,0.00127817
5246.35605469,0.00129736
5248.28486206,0.00113157
5250.21366943,0.00121003
5252.14247681,0.00130393
5254.07128418,0.00120676
5256.00009155,0.00122631
5257.92889893,0.00120323
5259.85770630,0.00119451
5261.78651367,0.00118514
5263.71532104,0.00116919
5265.64412842,0.00127780
5267.57293579,0.00131861
5269.50174316,0.00122913
5271.43055054,0.00122326
5273.35935791,0.00124833
5275.28816528,0.00123214
5277.21697266,0.00121312
5279.14578003,0.00114717
5281.07458740,0.00119906
5283.00339478,0.00126315
5284.93220215,0.00118785
5286.86100952,0.00120994
5288.78981689,0.00125847
5290.71862427,0.00114835
5292.64743164,0.00111557
5294.57623901,0.00123800
5296.50504639,0.00121021
5298.43385376,0.00111952
5300.36266113,0.00114845
5302.29146851,0.00114024
5304.22027588,0.00113992
5306.14908325,0.00120123
5308.07789062,0.00114181
5310.00669800,0.00108990
5311.93550537,0.00115356
5313.86431274,0.00112715
5315.79312012,0.00111435
5317.72192749,0.00115179
5319.65073486,0.00112040
5321.57954224,0.00108283
5323.50834961,0.00111323
5325.43715698,0.00115230
5327.36596436,0.00109851
5329.29477173,0.00110842
5331.22357910,0.00113799
5333.15238647,0.00110799
5335.08119385,0.00109082
5337.01000122,0.00103751
5338.93880859,0.00103077
5340.86761597,0.00111112
5342.79642334,0.00113765
5344.72523071,0.00103591
5346.65403809,0.00100873
5348.58284546,0.00103042
5350.51165283,0.00102427
5352.44046020,0.00103519
5354.36926758,0.00105538
5356.29807495,0.00115429
5358.22688232,0.00109466
5360.15568970,0.00104379
5362.08449707,0.00109080
5364.01330444,0.00107055
5365.94211182,0.00111191
5367.87091919,0.00106970
5369.79972656,0.00107939
5371.72853394,0.00111145
5373.65734131,0.00110126
5375.58614868,0.00111837
5377.51495605,0.00103222
5379.44376343,0.00098741
5381.37257080,0.00097528
5383.30137817,0.00098968
5385.23018555,0.00099641
5387.15899292,0.00102328
5389.08780029,0.00104810
5391.01660767,0.00102721
5392.94541504,0.00104674
5394.87422241,0.00096875
5396.80302978,0.00099029
5398.73183716,0.00102696
5400.66064453,0.00100289
5402.58945190,0.00100893
5404.51825928,0.00094928
5406.44706665,0.00101082
5408.37587402,0.00097592
5410.30468140,0.00094820
5412.23348877,0.00103968
5414.16229614,0.00096505
5416.09110352,0.00096715
5418.01991089,0.00100764
5419.94871826,0.00094359
5421.87752563,0.00092007
5423.80633301,0.00092443
5425.73514038,0.00092249
5427.66394775,0.00090381
5429.59275513,0.00086903
5431.52156250,0.00094530
5433.45036987,0.00099622
5435.37917725,0.00087620
5437.30798462,0.00089521
5439.23679199,0.00095286
5441.16559936,0.00092002
5443.09440674,0.00096137
5445.02321411,0.00094121
5446.95202148,0.00090578
5448.88082886,0.00091940
5450.80963623,0.00092543
5452.73844360,0.00089227
5454.66725098,0.00086123
5456.59605835,0.00097121
5458.52486572,0.00097705
5460.45367310,0.00089937
5462.38248047,0.00092092
5464.31128784,0.00086309
5466.24009521,0.00086209
5468.16890259,0.00090565
5470.09770996,0.00089289
5472.02651733,0.00086887
5473.95532471,0.00081140
5475.88413208,0.00082969
5477.81293945,0.00086338
5479.74174683,0.00091524
5481.67055420,0.00090734
5483.59936157,0.00090056
5485.52816895,0.00095296
5487.45697632,0.00084180
5489.38578369,0.00084921
5491.31459106,0.00086773
5493.24339844,0.00077360
5495.17220581,0.00080099
5497.10101318,0.00083596
5499.02982056,0.00086676
5500.95862793,0.00083095
5502.88743530,0.00083504
5504.81624268,0.00085147
5506.74505005,0.00078454
5508.67385742,0.00081701
5510.60266479,0.00084855
5512.53147217,0.00079294
5514.46027954,0.00075640
5516.38908691,0.00082078
5518.31789429,0.00087103
5520.24670166,0.00086545
5522.17550903,0.00080400
5524.10431641,0.00078339
5526.03312378,0.00084976
5527.96193115,0.00081702
5529.89073853,0.00081059
5531.81954590,0.00079214
5533.74835327,0.00079790
5535.67716064,0.00080835
5537.60596802,0.00073489
5539.53477539,0.00078619
5541.46358276,0.00080711
5543.39239014,0.00079864
5545.32119751,0.00076824
5547.25000488,0.00074964
5549.17881226,0.00077832
5551.10761963,0.00077340
5553.03642700,0.00079271
5554.96523437,0.00073082
5556.89404175,0.00081089
5558.82284912,0.00079576
5560.75165649,0.00067372
5562.68046387,0.00080939
5564.60927124,0.00074084
5566.53807861,0.00068994
5568.46688599,0.00077841
5570.39569336,0.00074791
5572.32450073,0.00077525
5574.25330811,0.00074487
5576.18211548,0.00074088
5578.11092285,0.00072392
5580.03973022,0.00066280
5581.96853760,0.00074513
5583.89734497,0.00075718
5585.82615234,0.00074019
5587.75495972,0.00076604
5589.68376709,0.00072943
5591.61257446,0.00070984
5593.54138184,0.00069649
5595.47018921,0.00070261
5597.39899658,0.00070845
5599.32780395,0.00074185
5601.25661133,0.00079083
5603.18541870,0.00075204
5605.11422607,0.00074774
5607.04303345,0.00069941
5608.97184082,0.00061441
5610.90064819,0.00066926
5612.82945557,0.00071768
5614.75826294,0.00068663
5616.68707031,0.00066849
5618.61587769,0.00067768
5620.54468506,0.00068752
5622.47349243,0.00070413
5624.40229980,0.00066282
5626.33110718,0.00066984
5628.25991455,0.00073850
5630.18872192,0.00060216
5632.11752930,0.00055192
5634.04633667,0.00068981
5635.97514404,0.00064383
5637.90395142,0.00063498
5639.83275879,0.00073124
5641.76156616,0.00067627
5643.69037353,0.00067371
5645.61918091,0.00070248
5647.54798828,0.00062637
5649.47679565,0.00067927
5651.40560303,0.00074159
5653.33441040,0.00066470
5655.26321777,0.00064020
5657.19202515,0.00068409
5659.12083252,0.00065521
5661.04963989,0.00058908
5662.97844727,0.00060979
5664.90725464,0.00066706
5666.83606201,0.00068532
5668.76486938,0.00062952
5670.69367676,0.00062268
5672.62248413,0.00066190
5674.55129150,0.00060827
5676.48009888,0.00060027
5678.40890625,0.00063988
5680.33771362,0.00063761
5682.26652100,0.00061599
5684.19532837,0.00061745
5686.12413574,0.00061033
5688.05294311,0.00062377
5689.98175049,0.00064304
5691.91055786,0.00058090
5693.83936523,0.00062404
5695.76817261,0.00059372
5697.69697998,0.00051477
5699.62578735,0.00060838
5701.55459473,0.00061435
5703.48340210,0.00064700
5705.41220947,0.00063143
5707.34101685,0.00052829
5709.26982422,0.00062246
5711.19863159,0.00064685
5713.12743896,0.00057930
5715.05624634,0.00062943
5716.98505371,0.00062190
5718.91386108,0.00053211
5720.84266846,0.00046802
5722.77147583,0.00050065
5724.70028320,0.00057889
5726.62909058,0.00052232
5728.55789795,0.00053023
5730.48670532,0.00059951
5732.41551270,0.00053170
5734.34432007,0.00050889
5736.27312744,0.00053806
5738.20193481,0.00054221
5740.13074219,0.00052667
5742.05954956,0.00052823
5743.98835693,0.00048648
5745.91716431,0.00048792
5747.84597168,0.00059816
5749.77477905,0.00057078
5751.70358643,0.00054644
5753.63239380,0.00056413
5755.56120117,0.00056197
5757.49000854,0.00055121
5759.41881592,0.00053384
5761.34762329,0.00057720
5763.27643066,0.00053159
5765.20523804,0.00051812
5767.13404541,0.00052678
5769.06285278,0.00053889
5770.99166016,0.00057501
5772.92046753,0.00051317
5774.84927490,0.00051362
5776.77808228,0.00051682
5778.70688965,0.00049223
5780.63569702,0.00047613
5782.56450439,0.00050124
5784.49331177,0.00050735
5786.42211914,0.00045966
5788.35092651,0.00051623
5790.27973389,0.00052398
5792.20854126,0.00050861
5794.13734863,0.00053135
5796.06615601,0.00054902
5797.99496338,0.00051864
5799.92377075,0.00049193
5801.85257812,0.00052601
5803.78138550,0.00047355
5805.71019287,0.00047131
5807.63900024,0.00046021
5809.56780762,0.00048822
5811.49661499,0.00053270
5813.42542236,0.00044894
5815.35422974,0.00047226
5817.28303711,0.00048902
5819.21184448,0.00050170
5821.14065186,0.00047006
5823.06945923,0.00042910
5824.99826660,0.00049694
5826.92707397,0.00049092
5828.85588135,0.00049649
5830.78468872,0.00049775
5832.71349609,0.00053435
5834.64230347,0.00050557
5836.57111084,0.00042852
5838.49991821,0.00048052
5840.42872559,0.00043163
5842.35753296,0.00043152
5844.28634033,0.00043917
5846.21514770,0.00035022
5848.14395508,0.00042969
5850.07276245,0.00048454
5852.00156982,0.00041553
5853.93037720,0.00043472
5855.85918457,0.00046668
5857.78799194,0.00046223
5859.71679932,0.00046902
5861.64560669,0.00042079
5863.57441406,0.00041549
5865.50322144,0.00038930
5867.43202881,0.00036308
5869.36083618,0.00041202
5871.28964355,0.00037959
5873.21845093,0.00044285
5875.14725830,0.00046473
5877.07606567,0.00040248
5879.00487305,0.00049954
5880.93368042,0.00051981
5882.86248779,0.00045673
5884.79129517,0.00042897
5886.72010254,0.00039218
5888.64890991,0.00035055
5890.57771728,0.00038940
5892.50652466,0.00044932
5894.43533203,0.00045848
5896.36413940,0.00046234
5898.29294678,0.00036426
5900.22175415,0.00035807
5902.15056152,0.00037899
5904.07936890,0.00036773
5906.00817627,0.00048967
5907.93698364,0.00042985
5909.86579102,0.00035459
5911.79459839,0.00041441
5913.72340576,0.00044456
5915.65221313,0.00044455
5917.58102051,0.00040292
5919.50982788,0.00045430
5921.43863525,0.00043355
5923.36744263,0.00036976
5925.29625000,0.00039511
5927.22505737,0.00038975
5929.15386475,0.00039100
5931.08267212,0.00036628
5933.01147949,0.00035068
5934.94028686,0.00040415
5936.86909424,0.00044172
5938.79790161,0.00034662
5940.72670898,0.00034408
5942.65551636,0.00044321
5944.58432373,0.00038807
5946.51313110,0.00037158
5948.44193848,0.00036204
5950.37074585,0.00036341
5952.29955322,0.00041982
5954.22836060,0.00041041
5956.15716797,0.00040857
5958.08597534,0.00037743
5960.01478271,0.00032230
5961.94359009,0.00033349
5963.87239746,0.00036578
5965.80120483,0.00033219
5967.73001221,0.00034032
5969.65881958,0.00031734
5971.58762695,0.00027270
5973.51643433,0.00030450
5975.44524170,0.00034530
5977.37404907,0.00040746
5979.30285645,0.00031290
5981.23166382,0.00035293
5983.16047119,0.00039559
5985.08927856,0.00030138
5987.01808594,0.00038823
5988.94689331,0.00030395
5990.87570068,0.00031249
5992.80450806,0.00036632
5994.73331543,0.00034783
5996.66212280,0.00040940
5998.59093018,0.00033899
6000.51973755,0.00037820
