399.26312622,0.00026326
401.19193359,0.00046903
403.12074097,0.00070000
405.04954834,0.00068113
406.97835571,0.00086574
408.90716309,0.00093545
410.83597046,0.00111722
412.76477783,0.00142657
414.69358521,0.00132789
416.62239258,0.00093366
418.55119995,0.00096870
420.48000732,0.00129776
422.40881470,0.00120655
424.33762207,0.00109869
426.26642944,0.00134032
428.19523682,0.00145260
430.12404419,0.00178066
432.05285156,0.00182917
433.98165894,0.00147373
435.91046631,0.00166688
437.83927368,0.00167143
439.76808105,0.00166338
441.69688843,0.00167190
443.62569580,0.00125942
445.55450317,0.00095814
447.48331055,0.00094193
449.41211792,0.00129820
451.34092529,0.00106338
453.26973267,0.00069708
455.19854004,0.00088654
457.12734741,0.00099005
459.05615479,0.00129343
460.98496216,0.00128881
462.91376953,0.00090806
464.84257690,0.00053807
466.77138428,0.00070159
468.70019165,0.00105956
470.62899902,0.00052528
472.55780640,0.00046221
474.48661377,0.00066252
476.41542114,0.00046061
478.34422852,0.00073503
480.27303589,0.00084234
482.20184326,0.00042133
484.13065063,0.00020312
486.05945801,0.00048692
487.98826538,0.00046225
489.91707275,0.00046883
491.84588013,0.00045687
493.77468750,-0.00001737
495.70349487,0.00002881
497.63230225,-0.00004736
499.56110962,0.00037722
501.48991699,0.00060025
503.41872437,0.00005096
505.34753174,0.00012124
507.27633911,0.00007508
509.20514648,0.00019981
511.13395386,0.00031492
513.06276123,-0.00002351
514.99156860,-0.00006893
516.92037598,0.00025996
518.84918335,0.00005586
520.77799072,0.00026120
522.70679810,0.00058640
524.63560547,0.00036326
526.56441284,0.00052641
528.49322021,0.00015485
530.42202759,0.00041960
532.35083496,0.00037222
534.27964233,-0.00019282
536.20844971,0.00028205
538.13725708,0.00008853
540.06606445,-0.00007610
541.99487183,0.00017872
543.92367920,0.00030742
545.85248657,0.00006442
547.78129395,0.00022055
549.71010132,0.00051667
551.63890869,0.00019718
553.56771606,0.00048067
555.49652344,0.00027610
557.42533081,0.00011540
559.35413818,0.00030404
561.28294556,0.00043531
563.21175293,0.00041904
565.14056030,-0.00011829
567.06936768,0.00032203
568.99817505,0.00037863
570.92698242,0.00012565
572.85578979,0.00029571
574.78459717,0.00024753
576.71340454,0.00030760
578.64221191,0.00021232
580.57101929,0.00023439
582.49982666,-0.00002727
584.42863403,0.00006853
586.35744141,0.00037146
588.28624878,0.00018949
590.21505615,0.00011059
592.14386353,0.00003412
594.07267090,0.00009258
596.00147827,0.00008366
597.93028564,0.00020959
599.85909302,0.00015968
601.78790039,-0.00006871
603.71670776,0.00033017
605.64551514,0.00036010
607.57432251,0.00007511
609.50312988,0.00005989
611.43193726,-0.00007543
613.36074463,0.00032716
615.28955200,0.00025966
617.21835938,-0.00015942
619.14716675,-0.00002593
621.07597412,0.00014654
623.00478149,0.00023064
624.93358887,-0.00019755
626.86239624,-0.00001963
628.79120361,0.00011878
630.72001099,0.00027516
632.64881836,0.00057069
634.57762573,0.00059706
636.50643311,0.00092026
638.43524048,0.00096895
640.36404785,0.00127545
642.29285522,0.00126368
644.22166260,0.00134259
646.15046997,0.00162287
648.07927734,0.00164998
650.00808472,0.00208096
651.93689209,0.00155506
653.86569946,0.00164540
655.79450684,0.00203111
657.72331421,0.00190395
659.65212158,0.00214015
661.58092896,0.00170251
663.50973633,0.00190259
665.43854370,0.00201643
667.36735107,0.00208833
669.29615845,0.00269744
671.22496582,0.00250562
673.15377319,0.00244907
675.08258057,0.00255144
677.01138794,0.00265136
678.94019531,0.00262584
680.86900269,0.00267704
682.79781006,0.00276982
684.72661743,0.00266801
686.65542480,0.00278583
688.58423218,0.00241395
690.51303955,0.00254462
692.44184692,0.00311399
694.37065430,0.00309740
696.29946167,0.00334579
698.22826904,0.00386589
700.15707642,0.00412052
702.08588379,0.00394696
704.01469116,0.00382931
705.94349854,0.00355921
707.87230591,0.00269160
709.80111328,0.00213177
711.72992065,0.00202269
713.65872803,0.00106771
715.58753540,0.00035361
717.51634277,0.00081256
719.44515015,0.00044061
721.37395752,0.00018130
723.30276489,0.00039071
725.23157227,0.00025312
727.16037964,0.00045694
729.08918701,0.00015250
731.01799438,0.00008588
732.94680176,0.00028780
734.87560913,0.00006331
736.80441650,0.00016886
738.73322388,0.00014961
740.66203125,0.00004778
742.59083862,0.00009586
744.51964600,0.00015565
746.44845337,0.00017136
748.37726074,0.00034783
750.30606812,0.00045576
752.23487549,0.00024003
754.16368286,0.00015254
756.09249023,0.00008286
758.02129761,0.00058655
759.95010498,0.00059346
761.87891235,0.00008350
763.80771973,0.00018713
765.73652710,0.00006858
767.66533447,0.00049359
769.59414185,0.00043178
771.52294922,0.00015795
773.45175659,0.00063606
775.38056396,0.00028529
777.30937134,0.00027129
779.23817871,0.00043685
781.16698608,0.00037703
783.09579346,0.00036472
785.02460083,0.00036651
786.95340820,0.00040171
788.88221558,-0.00014878
790.81102295,0.00031705
792.73983032,0.00062195
794.66863770,0.00013960
796.59744507,0.00042696
798.52625244,0.00061874
800.45505981,0.00071273
802.38386719,0.00055249
804.31267456,0.00051396
806.24148193,0.00052527
808.17028931,0.00023949
810.09909668,0.00038225
812.02790405,0.00030415
813.95671143,-0.00010570
815.88551880,0.00010017
817.81432617,0.00054708
819.74313354,0.00040531
821.67194092,0.00054148
823.60074829,0.00042228
825.52955566,0.00014410
827.45836304,0.00070004
829.38717041,0.00073871
831.31597778,0.00073202
833.24478516,0.00077935
835.17359253,0.00066564
837.10239990,0.00077312
839.03120728,0.00082820
840.96001465,0.00094903
842.88882202,0.00091672
844.81762939,0.00102082
846.74643677,0.00061695
848.67524414,0.00044014
850.60405151,0.00070298
852.53285889,0.00055228
854.46166626,0.00063867
856.39047363,0.00041991
858.31928101,0.00059798
860.24808838,0.00069144
862.17689575,0.00038106
864.10570313,0.00055136
866.03451050,0.00031728
867.96331787,0.00019859
869.89212524,0.00029685
871.82093262,0.00043457
873.74973999,0.00041416
875.67854736,0.00022588
877.60735474,0.00043801
879.53616211,0.00049828
881.46496948,0.00046022
883.39377686,0.00059215
885.32258423,0.00037998
887.25139160,0.00023297
889.18019897,0.00065248
891.10900635,0.00043398
893.03781372,0.00019342
894.96662109,0.00068510
896.89542847,0.00045144
898.82423584,0.00032400
900.75304321,0.00037321
902.68185059,0.00017627
904.61065796,0.00042704
906.53946533,0.00020218
908.46827271,0.00021160
910.39708008,0.00053568
912.32588745,0.00039627
914.25469482,0.00049561
916.18350220,0.00058298
918.11230957,0.00062850
920.04111694,0.00073459
921.96992432,0.00064181
923.89873169,0.00053567
925.82753906,0.00076111
927.75634644,0.00074458
929.68515381,0.00087630
931.61396118,0.00129716
933.54276855,0.00108138
935.47157593,0.00120378
937.40038330,0.00136871
939.32919067,0.00128517
941.25799805,0.00121647
943.18680542,0.00120214
945.11561279,0.00158987
947.04442017,0.00115917
948.97322754,0.00099062
950.90203491,0.00138842
952.83084229,0.00132260
954.75964966,0.00136955
956.68845703,0.00110015
958.61726440,0.00111350
960.54607178,0.00125965
962.47487915,0.00130267
964.40368652,0.00141478
966.33249390,0.00128432
968.26130127,0.00149827
970.19010864,0.00136095
972.11891602,0.00160826
974.04772339,0.00196273
975.97653076,0.00144875
977.90533813,0.00165367
979.83414551,0.00205093
981.76295288,0.00227317
983.69176025,0.00243677
985.62056763,0.00251074
987.54937500,0.00298494
989.47818237,0.00310730
991.40698975,0.00337292
993.33579712,0.00406232
995.26460449,0.00424762
997.19341187,0.00430317
999.12221924,0.00474163
1001.05102661,0.00511120
1002.97983398,0.00551049
1004.90864136,0.00592950
1006.83744873,0.00608329
1008.76625610,0.00673862
1010.69506348,0.00711338
1012.62387085,0.00705496
1014.55267822,0.00762711
1016.48148560,0.00795819
1018.41029297,0.00833815
1020.33910034,0.00888777
1022.26790771,0.00898157
1024.19671509,0.00941193
1026.12552246,0.00996378
1028.05432983,0.01020039
1029.98313721,0.01042469
1031.91194458,0.01058546
1033.84075195,0.01088914
1035.76955933,0.01117659
1037.69836670,0.01122708
1039.62717407,0.01136059
1041.55598145,0.01121187
1043.48478882,0.01103259
1045.41359619,0.01099636
1047.34240356,0.01073318
1049.27121094,0.01069760
1051.20001831,0.01046491
1053.12882568,0.01018669
1055.05763306,0.01024510
1056.98644043,0.01003200
1058.91524780,0.00964800
1060.84405518,0.00919397
1062.77286255,0.00890380
1064.70166992,0.00880627
1066.63047729,0.00859645
1068.55928467,0.00817194
1070.48809204,0.00773053
1072.41689941,0.00744513
1074.34570679,0.00704056
1076.27451416,0.00673830
1078.20332153,0.00635349
1080.13212891,0.00591914
1082.06093628,0.00590952
1083.98974365,0.00577540
1085.91855103,0.00530277
1087.84735840,0.00501681
1089.77616577,0.00491126
1091.70497314,0.00460089
1093.63378052,0.00448161
1095.56258789,0.00444885
1097.49139526,0.00414033
1099.42020264,0.00413448
1101.34901001,0.00414254
1103.27781738,0.00393728
1105.20662476,0.00402088
1107.13543213,0.00407163
1109.06423950,0.00383858
1110.99304687,0.00369658
1112.92185425,0.00375562
1114.85066162,0.00371717
1116.77946899,0.00339060
1118.70827637,0.00355786
1120.63708374,0.00393492
1122.56589111,0.00368756
1124.49469849,0.00377307
1126.42350586,0.00376653
1128.35231323,0.00357673
1130.28112061,0.00379628
1132.20992798,0.00378243
1134.13873535,0.00397263
1136.06754272,0.00416718
1137.99635010,0.00427106
1139.92515747,0.00467022
1141.85396484,0.00503532
1143.78277222,0.00530759
1145.71157959,0.00569336
1147.64038696,0.00620068
1149.56919434,0.00630279
1151.49800171,0.00653491
1153.42680908,0.00690618
1155.35561646,0.00707827
1157.28442383,0.00750213
1159.21323120,0.00781421
1161.14203857,0.00805982
1163.07084595,0.00840843
1164.99965332,0.00865761
1166.92846069,0.00883702
1168.85726807,0.00934390
1170.78607544,0.00972987
1172.71488281,0.00988440
1174.64369019,0.01041854
1176.57249756,0.01072545
1178.50130493,0.01105071
1180.43011230,0.01139176
1182.35891968,0.01190028
1184.28772705,0.01269287
1186.21653442,0.01297559
1188.14534180,0.01363540
1190.07414917,0.01435067
1192.00295654,0.01473923
1193.93176392,0.01560463
1195.86057129,0.01637425
1197.78937866,0.01691223
1199.71818604,0.01777875
1201.64699341,0.01859257
1203.57580078,0.01912088
1205.50460815,0.01992968
1207.43341553,0.02072944
1209.36222290,0.02146065
1211.29103027,0.02209853
1213.21983765,0.02250025
1215.14864502,0.02295175
1217.07745239,0.02335775
1219.00625977,0.02399343
1220.93506714,0.02429894
1222.86387451,0.02440730
1224.79268188,0.02466674
1226.72148926,0.02475948
1228.65029663,0.02506247
1230.57910400,0.02503733
1232.50791138,0.02505653
1234.43671875,0.02524583
1236.36552612,0.02516046
1238.29433350,0.02514659
1240.22314087,0.02517289
1242.15194824,0.02508402
1244.08075562,0.02453192
1246.00956299,0.02448433
1247.93837036,0.02460534
1249.86717773,0.02420788
1251.79598511,0.02421213
1253.72479248,0.02398956
1255.65359985,0.02368577
1257.58240723,0.02345005
1259.51121460,0.02278657
1261.44002197,0.02228059
1263.36882935,0.02224230
1265.29763672,0.02210386
1267.22644409,0.02162209
1269.15525146,0.02149940
1271.08405884,0.02107448
1273.01286621,0.02045312
1274.94167358,0.02037293
1276.87048096,0.02002016
1278.79928833,0.01959659
1280.72809570,0.01923986
1282.65690308,0.01879086
1284.58571045,0.01834440
1286.51451782,0.01794003
1288.44332520,0.01773986
1290.37213257,0.01761033
1292.30093994,0.01750486
1294.22974731,0.01714546
1296.15855469,0.01703530
1298.08736206,0.01720748
1300.01616943,0.01709818
1301.94497681,0.01731408
1303.87378418,0.01753609
1305.80259155,0.01760612
1307.73139893,0.01793079
1309.66020630,0.01815212
1311.58901367,0.01829816
1313.51782104,0.01858547
1315.44662842,0.01910717
1317.37543579,0.01954911
1319.30424316,0.01988920
1321.23305054,0.02052394
1323.16185791,0.02119417
1325.09066528,0.02183213
1327.01947266,0.02247414
1328.94828003,0.02297528
1330.87708740,0.02355276
1332.80589478,0.02408429
1334.73470215,0.02447465
1336.66350952,0.02466308
1338.59231689,0.02417180
1340.52112427,0.02450649
1342.44993164,0.02585334
1344.37873901,0.02600963
1346.30754639,0.02583028
1348.23635376,0.02563565
1350.16516113,0.02556333
1352.09396851,0.02585449
1354.02277588,0.02525866
1355.95158325,0.02505770
1357.88039062,0.02499303
1359.80919800,0.02441750
1361.73800537,0.02320371
1363.66681274,0.02280186
1365.59562012,0.02427225
1367.52442749,0.02356845
1369.45323486,0.02331415
1371.38204224,0.02388781
1373.31084961,0.02229650
1375.23965698,0.02248049
1377.16846436,0.02319425
1379.09727173,0.02314983
1381.02607910,0.02316064
1382.95488647,0.02325387
1384.88369385,0.02319783
1386.81250122,0.02169954
1388.74130859,0.02207629
1390.67011597,0.02442993
1392.59892334,0.02370857
1394.52773071,0.02158619
1396.45653809,0.02288816
1398.38534546,0.02283665
1400.31415283,0.02274939
1402.24296021,0.02490666
1404.17176758,0.02309853
1406.10057495,0.02369490
1408.02938232,0.02457740
1409.95818970,0.02329492
1411.88699707,0.02408429
1413.81580444,0.02306118
1415.74461182,0.02355089
1417.67341919,0.02054236
1419.60222656,0.01815510
1421.53103394,0.02184277
1423.45984131,0.02102005
1425.38864868,0.02049899
1427.31745605,0.02085276
1429.24626343,0.01909753
1431.17507080,0.01857257
1433.10387817,0.01907444
1435.03268555,0.01705849
1436.96149292,0.01395924
1438.89030029,0.01663034
1440.81910767,0.01707946
1442.74791504,0.01590142
1444.67672241,0.01689755
1446.60552979,0.01497589
1448.53433716,0.01540188
1450.46314453,0.01607781
1452.39195190,0.01631487
1454.32075928,0.01682418
1456.24956665,0.01330948
1458.17837402,0.01393838
1460.10718140,0.01924353
1462.03598877,0.02054905
1463.96479614,0.01997468
1465.89360352,0.02077068
1467.82241089,0.02425596
1469.75121826,0.02580255
1471.68002563,0.02205395
1473.60883301,0.02342287
1475.53764038,0.02715343
1477.46644775,0.02925196
1479.39525513,0.03254499
1481.32406250,0.03274955
1483.25286987,0.03467462
1485.18167725,0.03577097
1487.11048462,0.03467000
1489.03929199,0.03409306
1490.96809937,0.03425973
1492.89690674,0.04084322
1494.82571411,0.03936039
1496.75452148,0.03433266
1498.68332886,0.03988435
1500.61213623,0.04136357
1502.54094360,0.04464758
1504.46975098,0.04153086
1506.39855835,0.02814018
1508.32736572,0.03591049
1510.25617310,0.04316956
1512.18498047,0.04154582
1514.11378784,0.04554712
1516.04259521,0.03999675
1517.97140259,0.04215588
1519.90020996,0.04053994
1521.82901733,0.03381646
1523.75782471,0.04316757
1525.68663208,0.04229094
1527.61543945,0.04204030
1529.54424683,0.04760670
1531.47305420,0.04518243
1533.40186157,0.04057609
1535.33066895,0.04389080
1537.25947632,0.04731901
1539.18828369,0.03160886
1541.11709106,0.03343078
1543.04589844,0.04131969
1544.97470581,0.03937042
1546.90351318,0.04827782
1548.83232056,0.04435166
1550.76112793,0.04580285
1552.68993530,0.04559665
1554.61874268,0.04069688
1556.54755005,0.04385207
1558.47635742,0.02844413
1560.40516479,0.03180873
1562.33397217,0.04836924
1564.26277954,0.04506005
1566.19158691,0.04700681
1568.12039429,0.04597028
1570.04920166,0.03976559
1571.97800903,0.04762809
1573.90681641,0.04793844
1575.83562378,0.03653073
1577.76443115,0.04235896
1579.69323853,0.04857520
1581.62204590,0.04630600
1583.55085327,0.04766078
1585.47966064,0.04690615
1587.40846802,0.04743687
1589.33727539,0.04670423
1591.26608276,0.04651887
1593.19489014,0.04665981
1595.12369751,0.04601265
1597.05250488,0.04679169
1598.98131226,0.04640532
1600.91011963,0.04653174
1602.83892700,0.04557995
1604.76773437,0.04670388
1606.69654175,0.04583054
1608.62534912,0.04550255
1610.55415649,0.04561820
1612.48296387,0.04607032
1614.41177124,0.04654023
1616.34057861,0.03666056
1618.26938599,0.04081057
1620.19819336,0.04866644
1622.12700073,0.04198489
1624.05580811,0.04228282
1625.98461548,0.04488738
1627.91342285,0.04460224
1629.84223022,0.04445990
1631.77103760,0.04801691
1633.69984497,0.04338054
1635.62865234,0.03433829
1637.55745972,0.04150663
1639.48626709,0.04649093
1641.41507446,0.04511349
1643.34388184,0.04672936
1645.27268921,0.04111913
1647.20149658,0.03486261
1649.13030396,0.04542055
1651.05911133,0.04247295
1652.98791870,0.02462814
1654.91672607,0.03643804
1656.84553345,0.04742555
1658.77434082,0.04499331
1660.70314819,0.04621672
1662.63195557,0.04099143
1664.56076294,0.04398315
1666.48957031,0.04782297
1668.41837769,0.04017400
1670.34718506,0.03897931
1672.27599243,0.04530672
1674.20479980,0.04070701
1676.13360718,0.03893185
1678.06241455,0.04599375
1679.99122192,0.04384695
1681.92002930,0.04287877
1683.84883667,0.03313289
1685.77764404,0.03353650
1687.70645142,0.04824104
1689.63525879,0.04054546
1691.56406616,0.04564530
1693.49287354,0.04608370
1695.42168091,0.03196923
1697.35048828,0.04118184
1699.27929565,0.03474598
1701.20810303,0.03079512
1703.13691040,0.04458276
1705.06571777,0.04010140
1706.99452515,0.04061225
1708.92333252,0.04487124
1710.85213989,0.04282194
1712.78094727,0.04353395
1714.70975464,0.03959835
1716.63856201,0.03486128
1718.56736938,0.03446549
1720.49617676,0.04225001
1722.42498413,0.04412865
1724.35379150,0.04058227
1726.28259888,0.04490690
1728.21140625,0.04066288
1730.14021362,0.04113430
1732.06902100,0.03996966
1733.99782837,0.02869809
1735.92663574,0.03784412
1737.85544312,0.04226190
1739.78425049,0.03677158
1741.71305786,0.04096489
1743.64186523,0.04142277
1745.57067261,0.04144600
1747.49947998,0.04166610
1749.42828735,0.03941764
1751.35709473,0.03746027
1753.28590210,0.04263789
1755.21470947,0.04469141
1757.14351685,0.03990111
1759.07232422,0.04512265
1761.00113159,0.04164748
1762.92993896,0.03999258
1764.85874634,0.04692294
1766.78755371,0.04118352
1768.71636108,0.04183836
1770.64516846,0.04132865
1772.57397583,0.03638139
1774.50278320,0.04169217
1776.43159058,0.04449843
1778.36039795,0.04371204
1780.28920532,0.04307152
1782.21801270,0.04360528
1784.14682007,0.04327828
1786.07562744,0.04255110
1788.00443481,0.04531647
1789.93324219,0.04343605
1791.86204956,0.03843186
1793.79085693,0.04075218
1795.71966431,0.04444898
1797.64847168,0.04354287
1799.57727905,0.04265864
1801.50608643,0.04181599
1803.43489380,0.04355316
1805.36370117,0.04472586
1807.29250854,0.04393568
1809.22131592,0.04406042
1811.15012329,0.04255829
1813.07893066,0.04431263
1815.00773804,0.04447340
1816.93654541,0.04378899
1818.86535278,0.04430904
1820.79416016,0.04409139
1822.72296753,0.04483738
1824.65177490,0.04115263
1826.58058228,0.04323585
1828.50938965,0.04315865
1830.43819702,0.03978589
1832.36700439,0.04450309
1834.29581177,0.04393273
1836.22461914,0.04374796
1838.15342651,0.04368865
1840.08223389,0.04411323
1842.01104126,0.04391754
1843.93984863,0.03788269
1845.86865601,0.04127175
1847.79746338,0.04378536
1849.72627075,0.04275011
1851.65507812,0.04426382
1853.58388550,0.04305807
1855.51269287,0.04367312
1857.44150024,0.04325444
1859.37030762,0.04311243
1861.29911499,0.04336147
1863.22792236,0.04259660
1865.15672974,0.04326084
1867.08553711,0.04147931
1869.01434448,0.03933524
1870.94315186,0.04135662
1872.87195923,0.04322865
1874.80076660,0.04231104
1876.72957397,0.04272186
1878.65838135,0.04237380
1880.58718872,0.04217896
1882.51599609,0.04256493
1884.44480347,0.04162084
1886.37361084,0.04259295
1888.30241821,0.04104150
1890.23122559,0.04027261
1892.16003296,0.04242127
1894.08884033,0.04128052
1896.01764771,0.04095661
1897.94645508,0.04162925
1899.87526245,0.04153511
1901.80406982,0.04162395
1903.73287720,0.04118197
1905.66168457,0.04134249
1907.59049194,0.04091334
1909.51929932,0.04056061
1911.44810669,0.04086133
1913.37691406,0.04093996
1915.30572144,0.04117875
1917.23452881,0.03906931
1919.16333618,0.03911419
1921.09214355,0.04090499
1923.02095093,0.03924441
1924.94975830,0.04022592
1926.87856567,0.04086549
1928.80737305,0.04006120
1930.73618042,0.04067928
1932.66498779,0.03996048
1934.59379517,0.04037686
1936.52260254,0.04004466
1938.45140991,0.04029211
1940.38021729,0.04026405
1942.30902466,0.03844209
1944.23783203,0.03942451
1946.16663940,0.03992153
1948.09544678,0.03986393
1950.02425415,0.03990066
1951.95306152,0.03957089
1953.88186890,0.03971168
1955.81067627,0.03947224
1957.73948364,0.03968799
1959.66829102,0.03950664
1961.59709839,0.03943289
1963.52590576,0.03943514
1965.45471313,0.03909112
1967.38352051,0.03867824
1969.31232788,0.03886706
1971.24113525,0.03942208
1973.16994263,0.03907549
1975.09875000,0.03905273
1977.02755737,0.03882232
1978.95636475,0.03880735
1980.88517212,0.03867169
1982.81397949,0.03854158
1984.74278687,0.03882113
1986.67159424,0.03820869
1988.60040161,0.03839318
1990.52920898,0.03784000
1992.45801636,0.03725909
1994.38682373,0.03814484
1996.31563110,0.03811216
1998.24443848,0.03775379
2000.17324585,0.03762254
2002.10205322,0.03764046
2004.03086060,0.03762279
2005.95966797,0.03738581
2007.88847534,0.03723390
2009.81728271,0.03742297
2011.74609009,0.03735389
2013.67489746,0.03700406
2015.60370483,0.03673521
2017.53251221,0.03642055
2019.46131958,0.03681018
2021.39012695,0.03670243
2023.31893433,0.03640662
2025.24774170,0.03640219
2027.17654907,0.03614997
2029.10535645,0.03624523
2031.03416382,0.03600914
2032.96297119,0.03597142
2034.89177856,0.03588568
2036.82058594,0.03574607
2038.74939331,0.03571917
2040.67820068,0.03528972
2042.60700806,0.03539202
2044.53581543,0.03544553
2046.46462280,0.03516490
2048.39343018,0.03503820
2050.32223755,0.03506405
2052.25104492,0.03494292
2054.17985229,0.03476899
2056.10865967,0.03472762
2058.03746704,0.03455401
2059.96627441,0.03457638
2061.89508179,0.03443371
2063.82388916,0.03414593
2065.75269653,0.03414337
2067.68150391,0.03428651
2069.61031128,0.03418004
2071.53911865,0.03398339
2073.46792603,0.03402460
2075.39673340,0.03389479
2077.32554077,0.03371039
2079.25434814,0.03355862
2081.18315552,0.03355386
2083.11196289,0.03348292
2085.04077026,0.03332444
2086.96957764,0.03321106
2088.89838501,0.03304460
2090.82719238,0.03306642
2092.75599976,0.03291786
2094.68480713,0.03286025
2096.61361450,0.03285678
2098.54242187,0.03282402
2100.47122925,0.03284360
2102.40003662,0.03269732
2104.32884399,0.03263424
2106.25765137,0.03242501
2108.18645874,0.03243498
2110.11526611,0.03248181
2112.04407349,0.03216108
2113.97288086,0.03201631
2115.90168823,0.03218426
2117.83049561,0.03218255
2119.75930298,0.03191026
2121.68811035,0.03191592
2123.61691772,0.03187061
2125.54572510,0.03176712
2127.47453247,0.03163809
2129.40333984,0.03152220
2131.33214722,0.03167609
2133.26095459,0.03155292
2135.18976196,0.03137191
2137.11856934,0.03139966
2139.04737671,0.03140164
2140.97618408,0.03133910
2142.90499146,0.03126394
2144.83379883,0.03115709
2146.76260620,0.03118509
2148.69141357,0.03115119
2150.62022095,0.03096425
2152.54902832,0.03101347
2154.47783569,0.03101956
2156.40664307,0.03093901
2158.33545044,0.03064899
2160.26425781,0.03060032
2162.19306519,0.03072174
2164.12187256,0.03054173
2166.05067993,0.03057783
2167.97948730,0.03055174
2169.90829468,0.03061935
2171.83710205,0.03053668
2173.76590942,0.03044044
2175.69471680,0.03049675
2177.62352417,0.03027348
2179.55233154,0.03025227
2181.48113892,0.03014098
2183.40994629,0.03015098
2185.33875366,0.03024285
2187.26756104,0.03020385
2189.19636841,0.03003269
2191.12517578,0.02989689
2193.05398315,0.03004785
2194.98279053,0.02989898
2196.91159790,0.02992242
2198.84040527,0.02978450
2200.76921265,0.02960498
2202.69802002,0.02977144
2204.62682739,0.02970757
2206.55563477,0.02960834
2208.48444214,0.02945073
2210.41324951,0.02949093
2212.34205688,0.02940773
2214.27086426,0.02939933
2216.19967163,0.02950852
2218.12847900,0.02934140
2220.05728638,0.02931275
2221.98609375,0.02918710
2223.91490112,0.02915422
2225.84370850,0.02923867
2227.77251587,0.02912419
2229.70132324,0.02887396
2231.63013062,0.02908465
2233.55893799,0.02911855
2235.48774536,0.02873325
2237.41655273,0.02888783
2239.34536011,0.02870940
2241.27416748,0.02863406
2243.20297485,0.02873553
2245.13178223,0.02860035
2247.06058960,0.02860687
2248.98939697,0.02839163
2250.91820435,0.02844479
2252.84701172,0.02853073
2254.77581909,0.02842967
2256.70462646,0.02831558
2258.63343384,0.02827527
2260.56224121,0.02822528
2262.49104858,0.02813457
2264.41985596,0.02811483
2266.34866333,0.02796660
2268.27747070,0.02812515
2270.20627808,0.02801370
2272.13508545,0.02782203
2274.06389282,0.02788192
2275.99270020,0.02786671
2277.92150757,0.02794864
2279.85031494,0.02783187
2281.77912231,0.02785201
2283.70792969,0.02769136
2285.63673706,0.02763776
2287.56554443,0.02769357
2289.49435181,0.02753356
2291.42315918,0.02758519
2293.35196655,0.02734384
2295.28077393,0.02736106
2297.20958130,0.02734213
2299.13838867,0.02715006
2301.06719604,0.02719295
2302.99600342,0.02690444
2304.92481079,0.02674709
2306.85361816,0.02658389
2308.78242554,0.02628055
2310.71123291,0.02612861
2312.64004028,0.02593189
2314.56884766,0.02574337
2316.49765503,0.02552260
2318.42646240,0.02515257
2320.35526978,0.02491972
2322.28407715,0.02465873
2324.21288452,0.02428694
2326.14169189,0.02412865
2328.07049927,0.02373257
2329.99930664,0.02336564
2331.92811401,0.02326887
2333.85692139,0.02321559
2335.78572876,0.02310535
2337.71453613,0.02306397
2339.64334351,0.02326192
2341.57215088,0.02317771
2343.50095825,0.02335583
2345.42976562,0.02380718
2347.35857300,0.02462114
2349.28738037,0.02538446
2351.21618774,0.02453936
2353.14499512,0.02336953
2355.07380249,0.02255987
2357.00260986,0.02183231
2358.93141724,0.02159657
2360.86022461,0.02141746
2362.78903198,0.02130357
2364.71783936,0.02144487
2366.64664673,0.02170578
2368.57545410,0.02205457
2370.50426147,0.02252745
2372.43306885,0.02306594
2374.36187622,0.02358074
2376.29068359,0.02404555
2378.21949097,0.02471156
2380.14829834,0.02505901
2382.07710571,0.02505414
2384.00591309,0.02535306
2385.93472046,0.02543911
2387.86352783,0.02545582
2389.79233521,0.02530047
2391.72114258,0.02521575
2393.64994995,0.02533974
2395.57875732,0.02517173
2397.50756470,0.02525920
2399.43637207,0.02509675
2401.36517944,0.02500000
2403.29398682,0.02514096
2405.22279419,0.02498190
2407.15160156,0.02498748
2409.08040894,0.02497200
2411.00921631,0.02496018
2412.93802368,0.02483756
2414.86683105,0.02471710
2416.79563843,0.02479348
2418.72444580,0.02476722
2420.65325317,0.02469428
2422.58206055,0.02469279
2424.51086792,0.02465516
2426.43967529,0.02455103
2428.36848267,0.02456661
2430.29729004,0.02440659
2432.22609741,0.02439184
2434.15490479,0.02451064
2436.08371216,0.02433876
2438.01251953,0.02426824
2439.94132690,0.02432700
2441.87013428,0.02433456
2443.79894165,0.02423536
2445.72774902,0.02424875
2447.65655640,0.02410045
2449.58536377,0.02395957
2451.51417114,0.02402379
2453.44297852,0.02388649
2455.37178589,0.02387361
2457.30059326,0.02392065
2459.22940063,0.02390417
2461.15820801,0.02377724
2463.08701538,0.02376276
2465.01582275,0.02373505
2466.94463013,0.02364657
2468.87343750,0.02375108
2470.80224487,0.02357185
2472.73105225,0.02357075
2474.65985962,0.02353233
2476.58866699,0.02337505
2478.51747437,0.02349437
2480.44628174,0.02345391
2482.37508911,0.02329792
2484.30389648,0.02319538
2486.23270386,0.02328571
2488.16151123,0.02314763
2490.09031860,0.02309469
2492.01912598,0.02314812
2493.94793335,0.02305975
2495.87674072,0.02313536
2497.80554810,0.02294016
2499.73435547,0.02290276
2501.66316284,0.02286099
2503.59197021,0.02276907
2505.52077759,0.02290142
2507.44958496,0.02278630
2509.37839233,0.02267045
2511.30719971,0.02266145
2513.23600708,0.02264173
2515.16481445,0.02253069
2517.09362183,0.02260737
2519.02242920,0.02264249
2520.95123657,0.02259358
2522.88004395,0.02255747
2524.80885132,0.02232455
2526.73765869,0.02232475
2528.66646606,0.02226908
2530.59527344,0.02239182
2532.52408081,0.02237251
2534.45288818,0.02209311
2536.38169556,0.02224883
2538.31050293,0.02210405
2540.23931030,0.02204581
2542.16811768,0.02210943
2544.09692505,0.02186337
2546.02573242,0.02188760
2547.95453979,0.02186875
2549.88334717,0.02170675
2551.81215454,0.02184055
2553.74096191,0.02193320
2555.66976929,0.02178656
2557.59857666,0.02175080
2559.52738403,0.02171844
2561.45619141,0.02173376
2563.38499878,0.02162679
2565.31380615,0.02143271
2567.24261353,0.02151819
2569.17142090,0.02150874
2571.10022827,0.02139233
2573.02903564,0.02134116
2574.95784302,0.02138311
2576.88665039,0.02127274
2578.81545776,0.02115010
2580.74426514,0.02118580
2582.67307251,0.02108534
2584.60187988,0.02108701
2586.53068726,0.02105089
2588.45949463,0.02100185
2590.38830200,0.02095837
2592.31710937,0.02093374
2594.24591675,0.02099087
2596.17472412,0.02084558
2598.10353149,0.02082237
2600.03233887,0.02081395
2601.96114624,0.02076506
2603.88995361,0.02067500
2605.81876099,0.02055820
2607.74756836,0.02065345
2609.67637573,0.02055521
2611.60518311,0.02045388
2613.53399048,0.02037801
2615.46279785,0.02025201
2617.39160522,0.02041900
2619.32041260,0.02044024
2621.24921997,0.02025994
2623.17802734,0.02024177
2625.10683472,0.02025642
2627.03564209,0.02019271
2628.96444946,0.02010947
2630.89325684,0.02013560
2632.82206421,0.02007519
2634.75087158,0.01989613
2636.67967895,0.01989974
2638.60848633,0.01984067
2640.53729370,0.01975767
2642.46610107,0.01976830
2644.39490845,0.01969416
2646.32371582,0.01959744
2648.25252319,0.01957014
2650.18133057,0.01965019
2652.11013794,0.01961254
2654.03894531,0.01951709
2655.96775269,0.01936324
2657.89656006,0.01932579
2659.82536743,0.01942152
2661.75417480,0.01929431
2663.68298218,0.01928080
2665.61178955,0.01922251
2667.54059692,0.01916437
2669.46940430,0.01913849
2671.39821167,0.01907216
2673.32701904,0.01906577
2675.25582642,0.01897319
2677.18463379,0.01903242
2679.11344116,0.01879277
2681.04224854,0.01878577
2682.97105591,0.01891087
2684.89986328,0.01866188
2686.82867065,0.01887809
2688.75747803,0.01874754
2690.68628540,0.01850753
2692.61509277,0.01857803
2694.54390015,0.01848009
2696.47270752,0.01849123
2698.40151489,0.01843577
2700.33032227,0.01837355
2702.25912964,0.01823903
2704.18793701,0.01822586
2706.11674438,0.01823124
2708.04555176,0.01813285
2709.97435913,0.01816909
2711.90316650,0.01809073
2713.83197388,0.01804383
2715.76078125,0.01791076
2717.68958862,0.01790608
2719.61839600,0.01795269
2721.54720337,0.01780854
2723.47601074,0.01780096
2725.40481812,0.01775562
2727.33362549,0.01777795
2729.26243286,0.01762951
2731.19124023,0.01753810
2733.12004761,0.01772093
2735.04885498,0.01755353
2736.97766235,0.01745138
2738.90646973,0.01741218
2740.83527710,0.01731274
2742.76408447,0.01734053
2744.69289185,0.01724251
2746.62169922,0.01724081
2748.55050659,0.01714932
2750.47931396,0.01710310
2752.40812134,0.01717161
2754.33692871,0.01701159
2756.26573608,0.01704081
2758.19454346,0.01691535
2760.12335083,0.01681019
2762.05215820,0.01682029
2763.98096558,0.01666259
2765.90977295,0.01682613
2767.83858032,0.01664605
2769.76738770,0.01648327
2771.69619507,0.01659555
2773.62500244,0.01642756
2775.55380981,0.01640714
2777.48261719,0.01637247
2779.41142456,0.01634894
2781.34023193,0.01622612
2783.26903931,0.01620085
2785.19784668,0.01620563
2787.12665405,0.01604215
2789.05546143,0.01608726
2790.98426880,0.01591299
2792.91307617,0.01596361
2794.84188354,0.01595341
2796.77069092,0.01575154
2798.69949829,0.01585921
2800.62830566,0.01569143
2802.55711304,0.01568440
2804.48592041,0.01568605
2806.41472778,0.01554375
2808.34353516,0.01558686
2810.27234253,0.01552799
2812.20114990,0.01544210
2814.12995728,0.01540340
2816.05876465,0.01538568
2817.98757202,0.01521422
2819.91637939,0.01517367
2821.84518677,0.01519487
2823.77399414,0.01508981
2825.70280151,0.01504862
2827.63160889,0.01486326
2829.56041626,0.01481073
2831.48922363,0.01480085
2833.41803101,0.01466946
2835.34683838,0.01464491
2837.27564575,0.01460403
2839.20445312,0.01452811
2841.13326050,0.01444275
2843.06206787,0.01440022
2844.99087524,0.01433434
2846.91968262,0.01418575
2848.84848999,0.01416144
2850.77729736,0.01426370
2852.70610474,0.01423028
2854.63491211,0.01416053
2856.56371948,0.01411229
2858.49252686,0.01399683
2860.42133423,0.01403448
2862.35014160,0.01405467
2864.27894897,0.01395175
2866.20775635,0.01387593
2868.13656372,0.01378711
2870.06537109,0.01373030
2871.99417847,0.01366381
2873.92298584,0.01363329
2875.85179321,0.01367041
2877.78060059,0.01357793
2879.70940796,0.01348363
2881.63821533,0.01345572
2883.56702270,0.01334910
2885.49583008,0.01334760
2887.42463745,0.01331707
2889.35344482,0.01325448
2891.28225220,0.01321370
2893.21105957,0.01307400
2895.13986694,0.01309189
2897.06867432,0.01296987
2898.99748169,0.01292054
2900.92628906,0.01306284
2902.85509644,0.01294737
2904.78390381,0.01287048
2906.71271118,0.01277835
2908.64151855,0.01278464
2910.57032593,0.01277877
2912.49913330,0.01265403
2914.42794067,0.01261604
2916.35674805,0.01250890
2918.28555542,0.01257270
2920.21436279,0.01246360
2922.14317017,0.01240587
2924.07197754,0.01254796
2926.00078491,0.01240270
2927.92959229,0.01239322
2929.85839966,0.01229889
2931.78720703,0.01232272
2933.71601440,0.01240446
2935.64482178,0.01215237
2937.57362915,0.01222388
2939.50243652,0.01222734
2941.43124390,0.01209764
2943.36005127,0.01208287
2945.28885864,0.01200410
2947.21766602,0.01199422
2949.14647339,0.01188939
2951.07528076,0.01185509
2953.00408813,0.01177132
2954.93289551,0.01176358
2956.86170288,0.01184603
2958.79051025,0.01162064
2960.71931763,0.01164265
2962.64812500,0.01164015
2964.57693237,0.01149339
2966.50573975,0.01154514
2968.43454712,0.01150780
2970.36335449,0.01150208
2972.29216187,0.01147177
2974.22096924,0.01150933
2976.14977661,0.01152724
2978.07858398,0.01138233
2980.00739136,0.01127371
2981.93619873,0.01126108
2983.86500610,0.01136574
2985.79381348,0.01122724
2987.72262085,0.01122114
2989.65142822,0.01127231
2991.58023560,0.01098624
2993.50904297,0.01104951
2995.43785034,0.01109770
2997.36665771,0.01091963
2999.29546509,0.01098500
3001.22427246,0.01096700
3003.15307983,0.01084122
3005.08188721,0.01082409
3007.01069458,0.01081497
3008.93950195,0.01084946
3010.86830933,0.01078515
3012.79711670,0.01059085
3014.72592407,0.01058820
3016.65473145,0.01061070
3018.58353882,0.01058944
3020.51234619,0.01058360
3022.44115356,0.01049142
3024.36996094,0.01041736
3026.29876831,0.01041594
3028.22757568,0.01038317
3030.15638306,0.01023921
3032.08519043,0.01021477
3034.01399780,0.01020409
3035.94280518,0.01023729
3037.87161255,0.01032441
3039.80041992,0.01023772
3041.72922729,0.01021107
3043.65803467,0.01007090
3045.58684204,0.01003202
3047.51564941,0.01004080
3049.44445679,0.00990170
3051.37326416,0.00998798
3053.30207153,0.00995545
3055.23087891,0.00991218
3057.15968628,0.00990169
3059.08849365,0.00979507
3061.01730103,0.00978104
3062.94610840,0.00976804
3064.87491577,0.00969883
3066.80372314,0.00965536
3068.73253052,0.00977881
3070.66133789,0.00967253
3072.59014526,0.00963518
3074.51895264,0.00974865
3076.44776001,0.00948966
3078.37656738,0.00943029
3080.30537476,0.00948470
3082.23418213,0.00940795
3084.16298950,0.00946763
3086.09179687,0.00953936
3088.02060425,0.00949154
3089.94941162,0.00938399
3091.87821899,0.00935843
3093.80702637,0.00940487
3095.73583374,0.00940464
3097.66464111,0.00925309
3099.59344849,0.00925474
3101.52225586,0.00923866
3103.45106323,0.00908117
3105.37987061,0.00920825
3107.30867798,0.00920527
3109.23748535,0.00912092
3111.16629272,0.00919863
3113.09510010,0.00910961
3115.02390747,0.00903120
3116.95271484,0.00903263
3118.88152222,0.00900172
3120.81032959,0.00899610
3122.73913696,0.00893968
3124.66794434,0.00887265
3126.59675171,0.00885469
3128.52555908,0.00884873
3130.45436645,0.00888429
3132.38317383,0.00882346
3134.31198120,0.00879565
3136.24078857,0.00879186
3138.16959595,0.00873233
3140.09840332,0.00882696
3142.02721069,0.00876319
3143.95601807,0.00868282
3145.88482544,0.00869802
3147.81363281,0.00866747
3149.74244019,0.00870073
3151.67124756,0.00857083
3153.60005493,0.00856433
3155.52886230,0.00859987
3157.45766968,0.00844455
3159.38647705,0.00843918
3161.31528442,0.00852181
3163.24409180,0.00853714
3165.17289917,0.00845169
3167.10170654,0.00843705
3169.03051392,0.00845371
3170.95932129,0.00837269
3172.88812866,0.00831790
3174.81693604,0.00835322
3176.74574341,0.00842191
3178.67455078,0.00834220
3180.60335815,0.00825440
3182.53216553,0.00832214
3184.46097290,0.00831013
3186.38978027,0.00820050
3188.31858765,0.00829444
3190.24739502,0.00824165
3192.17620239,0.00810166
3194.10500977,0.00831753
3196.03381714,0.00822881
3197.96262451,0.00814881
3199.89143188,0.00830471
3201.82023926,0.00809263
3203.74904663,0.00810922
3205.67785400,0.00825705
3207.60666138,0.00815383
3209.53546875,0.00815646
3211.46427612,0.00813148
3213.39308350,0.00808020
3215.32189087,0.00812556
3217.25069824,0.00811692
3219.17950562,0.00809717
3221.10831299,0.00809964
3223.03712036,0.00804379
3224.96592773,0.00802066
3226.89473511,0.00809012
3228.82354248,0.00809346
3230.75234985,0.00800493
3232.68115723,0.00808852
3234.60996460,0.00816789
3236.53877197,0.00804043
3238.46757935,0.00805349
3240.39638672,0.00812238
3242.32519409,0.00808782
3244.25400146,0.00806270
3246.18280884,0.00805064
3248.11161621,0.00807551
3250.04042358,0.00806779
3251.96923096,0.00802706
3253.89803833,0.00799669
3255.82684570,0.00797500
3257.75565308,0.00799456
3259.68446045,0.00803039
3261.61326782,0.00803442
3263.54207520,0.00803696
3265.47088257,0.00804270
3267.39968994,0.00808222
3269.32849731,0.00814592
3271.25730469,0.00808107
3273.18611206,0.00801158
3275.11491943,0.00802815
3277.04372681,0.00806484
3278.97253418,0.00803816
3280.90134155,0.00796387
3282.83014893,0.00796634
3284.75895630,0.00793434
3286.68776367,0.00799326
3288.61657104,0.00798995
3290.54537842,0.00788044
3292.47418579,0.00797029
3294.40299316,0.00796305
3296.33180054,0.00798284
3298.26060791,0.00805115
3300.18941528,0.00792966
3302.11822266,0.00792525
3304.04703003,0.00804574
3305.97583740,0.00808341
3307.90464478,0.00797485
3309.83345215,0.00794881
3311.76225952,0.00803518
3313.69106689,0.00794382
3315.61987427,0.00791091
3317.54868164,0.00805300
3319.47748901,0.00800524
3321.40629639,0.00788087
3323.33510376,0.00793861
3325.26391113,0.00792222
3327.19271851,0.00787006
3329.12152588,0.00796705
3331.05033325,0.00796916
3332.97914062,0.00793002
3334.90794800,0.00797301
3336.83675537,0.00801084
3338.76556274,0.00802332
3340.69437012,0.00790385
3342.62317749,0.00791619
3344.55198486,0.00804304
3346.48079224,0.00800055
3348.40959961,0.00802718
3350.33840698,0.00795853
3352.26721436,0.00789330
3354.19602173,0.00792971
3356.12482910,0.00790593
3358.05363647,0.00802269
3359.98244385,0.00792967
3361.91125122,0.00785223
3363.84005859,0.00799577
3365.76886597,0.00798937
3367.69767334,0.00798763
3369.62648071,0.00799737
3371.55528809,0.00803485
3373.48409546,0.00806368
3375.41290283,0.00804486
3377.34171020,0.00798533
3379.27051758,0.00795934
3381.19932495,0.00793409
3383.12813232,0.00788370
3385.05693970,0.00801332
3386.98574707,0.00794493
3388.91455444,0.00789894
3390.84336182,0.00803023
3392.77216919,0.00794728
3394.70097656,0.00790169
3396.62978394,0.00795727
3398.55859131,0.00799144
3400.48739868,0.00793985
3402.41620605,0.00795939
3404.34501343,0.00801322
3406.27382080,0.00800856
3408.20262817,0.00801775
3410.13143555,0.00801958
3412.06024292,0.00804052
3413.98905029,0.00796226
3415.91785767,0.00802616
3417.84666504,0.00806278
3419.77547241,0.00791450
3421.70427979,0.00785957
3423.63308716,0.00791278
3425.56189453,0.00802387
3427.49070190,0.00797707
3429.41950928,0.00794999
3431.34831665,0.00797381
3433.27712402,0.00799883
3435.20593140,0.00794636
3437.13473877,0.00787735
3439.06354614,0.00796090
3440.99235352,0.00790739
3442.92116089,0.00789875
3444.84996826,0.00781855
3446.77877563,0.00776675
3448.70758301,0.00788420
3450.63639038,0.00794129
3452.56519775,0.00795229
3454.49400513,0.00787495
3456.42281250,0.00795247
3458.35161987,0.00794840
3460.28042725,0.00791718
3462.20923462,0.00783027
3464.13804199,0.00779074
3466.06684937,0.00791343
3467.99565674,0.00782070
3469.92446411,0.00793570
3471.85327148,0.00783727
3473.78207886,0.00775951
3475.71088623,0.00786385
3477.63969360,0.00777380
3479.56850098,0.00788782
3481.49730835,0.00776121
3483.42611572,0.00771340
3485.35492310,0.00776733
3487.28373047,0.00772702
3489.21253784,0.00777788
3491.14134521,0.00782325
3493.07015259,0.00783076
3494.99895996,0.00761386
3496.92776733,0.00771257
3498.85657471,0.00785387
3500.78538208,0.00771376
3502.71418945,0.00745929
3504.64299683,0.00746203
3506.57180420,0.00777731
3508.50061157,0.00769527
3510.42941895,0.00774802
3512.35822632,0.00775650
3514.28703369,0.00765934
3516.21584106,0.00778089
3518.14464844,0.00767338
3520.07345581,0.00765682
3522.00226318,0.00767406
3523.93107056,0.00757375
3525.85987793,0.00757249
3527.78868530,0.00764966
3529.71749268,0.00762677
3531.64630005,0.00769197
3533.57510742,0.00772107
3535.50391479,0.00760971
3537.43272217,0.00768959
3539.36152954,0.00770899
3541.29033691,0.00775587
3543.21914429,0.00761891
3545.14795166,0.00729817
3547.07675903,0.00730690
3549.00556641,0.00759192
3550.93437378,0.00763448
3552.86318115,0.00743028
3554.79198853,0.00757116
3556.72079590,0.00763421
3558.64960327,0.00762158
3560.57841064,0.00752674
3562.50721802,0.00748431
3564.43602539,0.00746312
3566.36483276,0.00685307
3568.29364014,0.00680069
3570.22244751,0.00738487
3572.15125488,0.00761340
3574.08006226,0.00748656
3576.00886963,0.00753911
3577.93767700,0.00759676
3579.86648437,0.00740124
3581.79529175,0.00748907
3583.72409912,0.00755006
3585.65290649,0.00725804
3587.58171387,0.00662059
3589.51052124,0.00682084
3591.43932861,0.00754441
3593.36813599,0.00732402
3595.29694336,0.00710276
3597.22575073,0.00727797
3599.15455811,0.00739699
3601.08336548,0.00722919
3603.01217285,0.00736358
3604.94098022,0.00755227
3606.86978760,0.00715184
3608.79859497,0.00667857
3610.72740234,0.00687460
3612.65620972,0.00712749
3614.58501709,0.00687809
3616.51382446,0.00745147
3618.44263184,0.00676540
3620.37143921,0.00646480
3622.30024658,0.00752704
3624.22905395,0.00724114
3626.15786133,0.00774150
3628.08666870,0.00633776
3630.01547607,0.00558832
3631.94428345,0.00747684
3633.87309082,0.00729114
3635.80189819,0.00747665
3637.73070557,0.00751516
3639.65951294,0.00741719
3641.58832031,0.00755896
3643.51712769,0.00744842
3645.44593506,0.00756779
3647.37474243,0.00658778
3649.30354980,0.00600852
3651.23235718,0.00606349
3653.16116455,0.00752844
3655.08997192,0.00740281
3657.01877930,0.00646650
3658.94758667,0.00786435
3660.87639404,0.00757145
3662.80520142,0.00772698
3664.73400879,0.00774503
3666.66281616,0.00766594
3668.59162354,0.00744039
3670.52043091,0.00580123
3672.44923828,0.00743332
3674.37804565,0.00692771
3676.30685303,0.00552590
3678.23566040,0.00738122
3680.16446777,0.00757318
3682.09327515,0.00771497
3684.02208252,0.00793712
3685.95088989,0.00780849
3687.87969727,0.00699399
3689.80850464,0.00627769
3691.73731201,0.00739556
3693.66611938,0.00775690
3695.59492676,0.00785450
3697.52373413,0.00783456
3699.45254150,0.00785296
3701.38134888,0.00754610
3703.31015625,0.00729194
3705.23896362,0.00816061
3707.16777100,0.00766761
3709.09657837,0.00748387
3711.02538574,0.00686149
3712.95419312,0.00638969
3714.88300049,0.00776949
3716.81180786,0.00761486
3718.74061523,0.00768236
3720.66942261,0.00748708
3722.59822998,0.00721639
3724.52703735,0.00749214
3726.45584473,0.00685477
3728.38465210,0.00761891
3730.31345947,0.00751644
3732.24226685,0.00672219
3734.17107422,0.00653686
3736.09988159,0.00619583
3738.02868896,0.00665119
3739.95749634,0.00728954
3741.88630371,0.00766171
3743.81511108,0.00573124
3745.74391846,0.00535175
3747.67272583,0.00729291
3749.60153320,0.00607624
3751.53034058,0.00546425
3753.45914795,0.00644484
3755.38795532,0.00701324
3757.31676270,0.00748217
3759.24557007,0.00677796
3761.17437744,0.00698029
3763.10318481,0.00755165
3765.03199219,0.00689951
3766.96079956,0.00711869
3768.88960693,0.00698771
3770.81841431,0.00657657
3772.74722168,0.00732081
3774.67602905,0.00729485
3776.60483643,0.00727326
3778.53364380,0.00699899
3780.46245117,0.00667466
3782.39125854,0.00738737
3784.32006592,0.00720611
3786.24887329,0.00699307
3788.17768066,0.00715986
3790.10648804,0.00705344
3792.03529541,0.00696610
3793.96410278,0.00721452
3795.89291016,0.00664575
3797.82171753,0.00655941
3799.75052490,0.00706568
3801.67933228,0.00527845
3803.60813965,0.00632349
3805.53694702,0.00702141
3807.46575439,0.00557618
3809.39456177,0.00691937
3811.32336914,0.00678438
3813.25217651,0.00709855
3815.18098389,0.00625587
3817.10979126,0.00544108
3819.03859863,0.00702280
3820.96740601,0.00543833
3822.89621338,0.00589777
3824.82502075,0.00696661
3826.75382812,0.00622442
3828.68263550,0.00674138
3830.61144287,0.00642757
3832.54025024,0.00616281
3834.46905762,0.00621177
3836.39786499,0.00598140
3838.32667236,0.00532348
3840.25547974,0.00579691
3842.18428711,0.00633813
3844.11309448,0.00598580
3846.04190186,0.00659182
3847.97070923,0.00648351
3849.89951660,0.00653301
3851.82832397,0.00580529
3853.75713135,0.00416900
3855.68593872,0.00499430
3857.61474609,0.00641511
3859.54355347,0.00631329
3861.47236084,0.00616245
3863.40116821,0.00599300
3865.32997559,0.00550074
3867.25878296,0.00625875
3869.18759033,0.00567566
3871.11639770,0.00509504
3873.04520508,0.00626419
3874.97401245,0.00566006
3876.90281982,0.00612564
3878.83162720,0.00633107
3880.76043457,0.00519568
3882.68924194,0.00612857
3884.61804932,0.00575262
3886.54685669,0.00513180
3888.47566406,0.00625373
3890.40447144,0.00585560
3892.33327881,0.00532505
3894.26208618,0.00597611
3896.19089355,0.00610591
3898.11970093,0.00584983
3900.04850830,0.00545666
3901.97731567,0.00531039
3903.90612305,0.00521338
3905.83493042,0.00529178
3907.76373779,0.00605558
3909.69254517,0.00597271
3911.62135254,0.00585160
3913.55015991,0.00607723
3915.47896728,0.00579245
3917.40777466,0.00566975
3919.33658203,0.00554427
3921.26538940,0.00570949
3923.19419678,0.00571280
3925.12300415,0.00552571
3927.05181152,0.00579417
3928.98061890,0.00583456
3930.90942627,0.00556343
3932.83823364,0.00539925
3934.76704102,0.00558972
3936.69584839,0.00575945
3938.62465576,0.00576697
3940.55346313,0.00572799
3942.48227051,0.00550323
3944.41107788,0.00547926
3946.33988525,0.00564761
3948.26869263,0.00552565
3950.19750000,0.00545886
3952.12630737,0.00557326
3954.05511475,0.00558417
3955.98392212,0.00561680
3957.91272949,0.00546775
3959.84153687,0.00549774
3961.77034424,0.00553379
3963.69915161,0.00540456
3965.62795898,0.00551415
3967.55676636,0.00548146
3969.48557373,0.00546350
3971.41438110,0.00534482
3973.34318848,0.00536591
3975.27199585,0.00541010
3977.20080322,0.00530316
3979.12961060,0.00546074
3981.05841797,0.00536142
3982.98722534,0.00536252
3984.91603271,0.00540557
3986.84484009,0.00538560
3988.77364746,0.00534246
3990.70245483,0.00524123
3992.63126221,0.00535475
3994.56006958,0.00521926
3996.48887695,0.00529536
3998.41768433,0.00536491
4000.34649170,0.00519950
4002.27529907,0.00520062
4004.20410645,0.00520159
4006.13291382,0.00518647
4008.06172119,0.00504869
4009.99052856,0.00509367
4011.91933594,0.00516701
4013.84814331,0.00515851
4015.77695068,0.00511700
4017.70575806,0.00503800
4019.63456543,0.00504954
4021.56337280,0.00506439
4023.49218018,0.00507578
4025.42098755,0.00498348
4027.34979492,0.00504507
4029.27860229,0.00501198
4031.20740967,0.00497991
4033.13621704,0.00503622
4035.06502441,0.00494779
4036.99383179,0.00500768
4038.92263916,0.00502248
4040.85144653,0.00506068
4042.78025391,0.00493529
4044.70906128,0.00484536
4046.63786865,0.00490597
4048.56667603,0.00488297
4050.49548340,0.00491851
4052.42429077,0.00482634
4054.35309814,0.00486832
4056.28190552,0.00480613
4058.21071289,0.00478685
4060.13952026,0.00486177
4062.06832764,0.00475805
4063.99713501,0.00478922
4065.92594238,0.00477296
4067.85474976,0.00481475
4069.78355713,0.00477868
4071.71236450,0.00471514
4073.64117187,0.00467026
4075.56997925,0.00464081
4077.49878662,0.00472957
4079.42759399,0.00467982
4081.35640137,0.00469387
4083.28520874,0.00467253
4085.21401611,0.00463735
4087.14282349,0.00458135
4089.07163086,0.00460111
4091.00043823,0.00464128
4092.92924561,0.00458881
4094.85805298,0.00466743
4096.78686035,0.00458159
4098.71566772,0.00457038
4100.64447510,0.00449729
4102.57328247,0.00447185
4104.50208984,0.00459796
4106.43089722,0.00449185
4108.35970459,0.00448974
4110.28851196,0.00447881
4112.21731934,0.00451176
4114.14612671,0.00448412
4116.07493408,0.00440909
4118.00374145,0.00444510
4119.93254883,0.00441973
4121.86135620,0.00440218
4123.79016357,0.00436499
4125.71897095,0.00443827
4127.64777832,0.00441520
4129.57658569,0.00435761
4131.50539307,0.00432013
4133.43420044,0.00424590
4135.36300781,0.00431452
4137.29181519,0.00433628
4139.22062256,0.00429121
4141.14942993,0.00430049
4143.07823730,0.00431565
4145.00704468,0.00421899
4146.93585205,0.00430098
4148.86465942,0.00423270
4150.79346680,0.00414119
4152.72227417,0.00425870
4154.65108154,0.00409653
4156.57988892,0.00417709
4158.50869629,0.00415984
4160.43750366,0.00409049
4162.36631103,0.00413813
4164.29511841,0.00409069
4166.22392578,0.00420460
4168.15273315,0.00408528
4170.08154053,0.00418150
4172.01034790,0.00416832
4173.93915527,0.00402931
4175.86796265,0.00415216
4177.79677002,0.00409892
4179.72557739,0.00410740
4181.65438477,0.00398962
4183.58319214,0.00400494
4185.51199951,0.00407029
4187.44080688,0.00401215
4189.36961426,0.00402065
4191.29842163,0.00395120
4193.22722900,0.00400563
4195.15603638,0.00399130
4197.08484375,0.00396118
4199.01365112,0.00392818
4200.94245850,0.00397560
4202.87126587,0.00398981
4204.80007324,0.00390255
4206.72888062,0.00398821
4208.65768799,0.00391576
4210.58649536,0.00385103
4212.51530273,0.00380960
4214.44411011,0.00387103
4216.37291748,0.00389318
4218.30172485,0.00377678
4220.23053223,0.00388801
4222.15933960,0.00379757
4224.08814697,0.00380501
4226.01695435,0.00384536
4227.94576172,0.00373205
4229.87456909,0.00378831
4231.80337646,0.00370085
4233.73218384,0.00375583
4235.66099121,0.00379398
4237.58979858,0.00369523
4239.51860596,0.00375977
4241.44741333,0.00372197
4243.37622070,0.00377237
4245.30502808,0.00376734
4247.23383545,0.00364394
4249.16264282,0.00369766
4251.09145020,0.00365559
4253.02025757,0.00367426
4254.94906494,0.00366506
4256.87787231,0.00354168
4258.80667969,0.00361703
4260.73548706,0.00360497
4262.66429443,0.00359581
4264.59310181,0.00358860
4266.52190918,0.00354143
4268.45071655,0.00362950
4270.37952393,0.00357675
4272.30833130,0.00352081
4274.23713867,0.00356709
4276.16594604,0.00359951
4278.09475342,0.00353856
4280.02356079,0.00348626
4281.95236816,0.00358110
4283.88117554,0.00354071
4285.80998291,0.00352803
4287.73879028,0.00356123
4289.66759766,0.00344541
4291.59640503,0.00350335
4293.52521240,0.00353524
4295.45401978,0.00339902
4297.38282715,0.00342352
4299.31163452,0.00345335
4301.24044189,0.00343543
4303.16924927,0.00338621
4305.09805664,0.00340022
4307.02686401,0.00347176
4308.95567139,0.00332133
4310.88447876,0.00329315
4312.81328613,0.00333230
4314.74209351,0.00336599
4316.67090088,0.00340246
4318.59970825,0.00329798
4320.52851562,0.00330643
4322.45732300,0.00325965
4324.38613037,0.00335513
4326.31493774,0.00336043
4328.24374512,0.00325172
4330.17255249,0.00333844
4332.10135986,0.00322657
4334.03016724,0.00330202
4335.95897461,0.00330394
4337.88778198,0.00314295
4339.81658936,0.00319278
4341.74539673,0.00320888
4343.67420410,0.00320518
4345.60301147,0.00315395
4347.53181885,0.00322042
4349.46062622,0.00326358
4351.38943359,0.00322201
4353.31824097,0.00314788
4355.24704834,0.00310457
4357.17585571,0.00317124
4359.10466309,0.00315830
4361.03347046,0.00317430
4362.96227783,0.00309645
4364.89108520,0.00304071
4366.81989258,0.00304142
4368.74869995,0.00310275
4370.67750732,0.00314247
4372.60631470,0.00303468
4374.53512207,0.00307431
4376.46392944,0.00301286
4378.39273682,0.00304713
4380.32154419,0.00310923
4382.25035156,0.00301853
4384.17915894,0.00302158
4386.10796631,0.00298814
4388.03677368,0.00303066
4389.96558105,0.00302355
4391.89438843,0.00296836
4393.82319580,0.00293398
4395.75200317,0.00297167
4397.68081055,0.00299846
4399.60961792,0.00294493
4401.53842529,0.00296889
4403.46723267,0.00289616
4405.39604004,0.00290815
4407.32484741,0.00293452
4409.25365478,0.00284733
4411.18246216,0.00280580
4413.11126953,0.00287312
4415.04007690,0.00287397
4416.96888428,0.00283037
4418.89769165,0.00296266
4420.82649902,0.00290779
4422.75530640,0.00285622
4424.68411377,0.00279661
4426.61292114,0.00275821
4428.54172852,0.00283001
4430.47053589,0.00276322
4432.39934326,0.00285605
4434.32815063,0.00280254
4436.25695801,0.00274385
4438.18576538,0.00279691
4440.11457275,0.00277545
4442.04338013,0.00278477
4443.97218750,0.00274745
4445.90099487,0.00279560
4447.82980225,0.00273104
4449.75860962,0.00273718
4451.68741699,0.00274985
4453.61622437,0.00270765
4455.54503174,0.00274964
4457.47383911,0.00270020
4459.40264648,0.00275438
4461.33145386,0.00272533
4463.26026123,0.00267240
4465.18906860,0.00264875
4467.11787598,0.00265287
4469.04668335,0.00271591
4470.97549072,0.00270211
4472.90429810,0.00267541
4474.83310547,0.00262683
4476.76191284,0.00268701
4478.69072021,0.00261491
4480.61952759,0.00263842
4482.54833496,0.00274669
4484.47714233,0.00261345
4486.40594971,0.00259565
4488.33475708,0.00259836
4490.26356445,0.00259408
4492.19237183,0.00252661
4494.12117920,0.00248168
4496.04998657,0.00252587
4497.97879395,0.00251707
4499.90760132,0.00254379
4501.83640869,0.00258096
4503.76521606,0.00257833
4505.69402344,0.00250653
4507.62283081,0.00256205
4509.55163818,0.00251254
4511.48044556,0.00249250
4513.40925293,0.00259408
4515.33806030,0.00246345
4517.26686768,0.00246821
4519.19567505,0.00250989
4521.12448242,0.00247000
4523.05328979,0.00240460
4524.98209717,0.00239967
4526.91090454,0.00248304
4528.83971191,0.00243234
4530.76851929,0.00242982
4532.69732666,0.00245947
4534.62613403,0.00245273
4536.55494141,0.00241474
4538.48374878,0.00245450
4540.41255615,0.00241622
4542.34136353,0.00229082
4544.27017090,0.00238108
4546.19897827,0.00238202
4548.12778564,0.00233808
4550.05659302,0.00238374
4551.98540039,0.00242331
4553.91420776,0.00240279
4555.84301514,0.00233600
4557.77182251,0.00238296
4559.70062988,0.00237631
4561.62943726,0.00227899
4563.55824463,0.00231101
4565.48705200,0.00234168
4567.41585937,0.00230447
4569.34466675,0.00234830
4571.27347412,0.00224747
4573.20228149,0.00222902
4575.13108887,0.00226821
4577.05989624,0.00215538
4578.98870361,0.00226959
4580.91751099,0.00229844
4582.84631836,0.00222491
4584.77512573,0.00220123
4586.70393311,0.00224546
4588.63274048,0.00225217
4590.56154785,0.00217786
4592.49035522,0.00228020
4594.41916260,0.00215445
4596.34796997,0.00211009
4598.27677734,0.00219931
4600.20558472,0.00217719
4602.13439209,0.00219636
4604.06319946,0.00215664
4605.99200684,0.00221553
4607.92081421,0.00214356
4609.84962158,0.00212278
4611.77842895,0.00211551
4613.70723633,0.00206028
4615.63604370,0.00212541
4617.56485107,0.00209440
4619.49365845,0.00214757
4621.42246582,0.00206738
4623.35127319,0.00201294
4625.28008057,0.00206490
4627.20888794,0.00206605
4629.13769531,0.00207195
4631.06650269,0.00207710
4632.99531006,0.00217448
4634.92411743,0.00210137
4636.85292480,0.00214465
4638.78173218,0.00213164
4640.71053955,0.00201651
4642.63934692,0.00208392
4644.56815430,0.00203291
4646.49696167,0.00210746
4648.42576904,0.00208146
4650.35457642,0.00197989
4652.28338379,0.00202795
4654.21219116,0.00197387
4656.14099853,0.00196147
4658.06980591,0.00199616
4659.99861328,0.00198147
4661.92742065,0.00198615
4663.85622803,0.00202901
4665.78503540,0.00195235
4667.71384277,0.00188500
4669.64265015,0.00198028
4671.57145752,0.00203729
4673.50026489,0.00193241
4675.42907227,0.00195624
4677.35787964,0.00202082
4679.28668701,0.00188390
4681.21549438,0.00192357
4683.14430176,0.00192153
4685.07310913,0.00194108
4687.00191650,0.00197312
4688.93072388,0.00186964
4690.85953125,0.00193114
4692.78833862,0.00182519
4694.71714600,0.00185508
4696.64595337,0.00189574
4698.57476074,0.00178007
4700.50356812,0.00185962
4702.43237549,0.00182465
4704.36118286,0.00181899
4706.28999023,0.00184722
4708.21879761,0.00190198
4710.14760498,0.00187579
4712.07641235,0.00176770
4714.00521973,0.00183647
4715.93402710,0.00181491
4717.86283447,0.00182189
4719.79164185,0.00183009
4721.72044922,0.00172728
4723.64925659,0.00175696
4725.57806396,0.00184381
4727.50687134,0.00180427
4729.43567871,0.00178965
4731.36448608,0.00180295
4733.29329346,0.00169632
4735.22210083,0.00172454
4737.15090820,0.00179795
4739.07971558,0.00178780
4741.00852295,0.00180255
4742.93733032,0.00174302
4744.86613770,0.00170512
4746.79494507,0.00176280
4748.72375244,0.00172803
4750.65255981,0.00168808
4752.58136719,0.00170544
4754.51017456,0.00165092
4756.43898193,0.00166228
4758.36778931,0.00164779
4760.29659668,0.00170359
4762.22540405,0.00170654
4764.15421143,0.00160228
4766.08301880,0.00172401
4768.01182617,0.00164111
4769.94063354,0.00161540
4771.86944092,0.00170103
4773.79824829,0.00164519
4775.72705566,0.00170790
4777.65586304,0.00167925
4779.58467041,0.00170584
4781.51347778,0.00169240
4783.44228516,0.00165109
4785.37109253,0.00166422
4787.29989990,0.00162528
4789.22870728,0.00161866
4791.15751465,0.00159908
4793.08632202,0.00168231
4795.01512939,0.00160486
4796.94393677,0.00159479
4798.87274414,0.00157296
4800.80155151,0.00145824
4802.73035889,0.00164542
4804.65916626,0.00160092
4806.58797363,0.00157737
4808.51678101,0.00158620
4810.44558838,0.00151130
4812.37439575,0.00160906
4814.30320312,0.00152928
4816.23201050,0.00150634
4818.16081787,0.00151275
4820.08962524,0.00154970
4822.01843262,0.00157076
4823.94723999,0.00151009
4825.87604736,0.00159529
4827.80485474,0.00150627
4829.73366211,0.00149977
4831.66246948,0.00154224
4833.59127686,0.00143044
4835.52008423,0.00146639
4837.44889160,0.00150996
4839.37769897,0.00152372
4841.30650635,0.00147826
4843.23531372,0.00143275
4845.16412109,0.00142186
4847.09292847,0.00145951
4849.02173584,0.00153304
4850.95054321,0.00145884
4852.87935059,0.00146984
4854.80815796,0.00144894
4856.73696533,0.00137737
4858.66577270,0.00140575
4860.59458008,0.00137984
4862.52338745,0.00147018
4864.45219482,0.00149212
4866.38100220,0.00141130
4868.30980957,0.00143880
4870.23861694,0.00142811
4872.16742432,0.00139817
4874.09623169,0.00143824
4876.02503906,0.00144056
4877.95384644,0.00136129
4879.88265381,0.00139082
4881.81146118,0.00142489
4883.74026855,0.00144584
4885.66907593,0.00142768
4887.59788330,0.00137400
4889.52669067,0.00141549
4891.45549805,0.00136177
4893.38430542,0.00143266
4895.31311279,0.00139872
4897.24192017,0.00129192
4899.17072754,0.00134884
4901.09953491,0.00126073
4903.02834228,0.00138207
4904.95714966,0.00140726
4906.88595703,0.00130642
4908.81476440,0.00137608
4910.74357178,0.00137430
4912.67237915,0.00136799
4914.60118652,0.00126588
4916.52999390,0.00131009
4918.45880127,0.00138783
4920.38760864,0.00135641
4922.31641602,0.00133724
4924.24522339,0.00127909
4926.17403076,0.00129600
4928.10283813,0.00129885
4930.03164551,0.00133400
4931.96045288,0.00128608
4933.88926025,0.00128524
4935.81806763,0.00131144
4937.74687500,0.00127198
4939.67568237,0.00131897
4941.60448975,0.00123740
4943.53329712,0.00127793
4945.46210449,0.00129227
4947.39091187,0.00124819
4949.31971924,0.00128693
4951.24852661,0.00120951
4953.17733398,0.00120239
4955.10614136,0.00120229
4957.03494873,0.00123969
4958.96375610,0.00118354
4960.89256348,0.00111789
4962.82137085,0.00117661
4964.75017822,0.00118471
4966.67898560,0.00125595
4968.60779297,0.00123008
4970.53660034,0.00117594
4972.46540771,0.00116679
4974.39421509,0.00116839
4976.32302246,0.00117334
4978.25182983,0.00114704
4980.18063721,0.00118554
4982.10944458,0.00115461
4984.03825195,0.00114933
4985.96705933,0.00118167
4987.89586670,0.00108580
4989.82467407,0.00108848
4991.75348145,0.00127262
4993.68228882,0.00121266
4995.61109619,0.00109341
4997.53990356,0.00115557
4999.46871094,0.00110116
5001.39751831,0.00113221
5003.32632568,0.00108778
5005.25513306,0.00103232
5007.18394043,0.00113542
5009.11274780,0.00110721
5011.04155518,0.00109555
5012.97036255,0.00107770
5014.89916992,0.00110676
5016.82797729,0.00110582
5018.75678467,0.00106552
5020.68559204,0.00111247
5022.61439941,0.00105302
5024.54320679,0.00096019
5026.47201416,0.00103627
5028.40082153,0.00117483
5030.32962891,0.00104124
5032.25843628,0.00101011
5034.18724365,0.00109744
5036.11605103,0.00104627
5038.04485840,0.00107528
5039.97366577,0.00102134
5041.90247314,0.00105936
5043.83128052,0.00109416
5045.76008789,0.00107074
5047.68889526,0.00109130
5049.61770264,0.00103783
5051.54651001,0.00101641
5053.47531738,0.00091370
5055.40412476,0.00101627
5057.33293213,0.00109520
5059.26173950,0.00100493
5061.19054687,0.00106262
5063.11935425,0.00098113
5065.04816162,0.00095513
5066.97696899,0.00095117
5068.90577637,0.00093665
5070.83458374,0.00101527
5072.76339111,0.00100580
5074.69219849,0.00107990
5076.62100586,0.00105305
5078.54981323,0.00100132
5080.47862061,0.00104013
5082.40742798,0.00092824
5084.33623535,0.00097506
5086.26504272,0.00107713
5088.19385010,0.00097100
5090.12265747,0.00092324
5092.05146484,0.00094759
5093.98027222,0.00097597
5095.90907959,0.00095827
5097.83788696,0.00092593
5099.76669434,0.00092933
5101.69550171,0.00091547
5103.62430908,0.00098064
5105.55311645,0.00095369
5107.48192383,0.00091080
5109.41073120,0.00100804
5111.33953857,0.00098780
5113.26834595,0.00093882
5115.19715332,0.00095888
5117.12596069,0.00095686
5119.05476807,0.00088453
5120.98357544,0.00088612
5122.91238281,0.00094895
5124.84119019,0.00087568
5126.76999756,0.00090964
5128.69880493,0.00095553
5130.62761230,0.00086737
5132.55641968,0.00085589
5134.48522705,0.00085650
5136.41403442,0.00090889
5138.34284180,0.00094215
5140.27164917,0.00087405
5142.20045654,0.00089508
5144.12926392,0.00090013
5146.05807129,0.00084193
5147.98687866,0.00084294
5149.91568603,0.00086844
5151.84449341,0.00091664
5153.77330078,0.00095474
5155.70210815,0.00092440
5157.63091553,0.00088069
5159.55972290,0.00087996
5161.48853027,0.00087001
5163.41733765,0.00087367
5165.34614502,0.00087364
5167.27495239,0.00084990
5169.20375977,0.00088249
5171.13256714,0.00080954
5173.06137451,0.00082151
5174.99018188,0.00092560
5176.91898926,0.00081523
5178.84779663,0.00083922
5180.77660400,0.00089473
5182.70541138,0.00082388
5184.63421875,0.00080692
5186.56302612,0.00076725
5188.49183350,0.00079940
5190.42064087,0.00082084
5192.34944824,0.00079195
5194.27825562,0.00083318
5196.20706299,0.00083675
5198.13587036,0.00074419
5200.06467773,0.00077684
5201.99348511,0.00084564
5203.92229248,0.00076819
5205.85109985,0.00080759
5207.77990723,0.00083391
5209.70871460,0.00077900
5211.63752197,0.00076477
5213.56632935,0.00076821
5215.49513672,0.00077456
5217.42394409,0.00072508
5219.35275146,0.00075186
5221.28155884,0.00076566
5223.21036621,0.00082634
5225.13917358,0.00083557
5227.06798096,0.00075664
5228.99678833,0.00082274
5230.92559570,0.00072807
5232.85440308,0.00071499
5234.78321045,0.00079063
5236.71201782,0.00075633
5238.64082520,0.00082731
5240.56963257,0.00078057
5242.49843994,0.00075570
5244.42724731,0.00081201
5246.35605469,0.00080907
5248.28486206,0.00078794
5250.21366943,0.00077004
5252.14247681,0.00077885
5254.07128418,0.00070314
5256.00009155,0.00072974
5257.92889893,0.00079874
5259.85770630,0.00073822
5261.78651367,0.00072275
5263.71532104,0.00068438
5265.64412842,0.00066849
5267.57293579,0.00074134
5269.50174316,0.00072509
5271.43055054,0.00073443
5273.35935791,0.00080180
5275.28816528,0.00075235
5277.21697266,0.00072270
5279.14578003,0.00075442
5281.07458740,0.00077826
5283.00339478,0.00072195
5284.93220215,0.00063464
5286.86100952,0.00069165
5288.78981689,0.00067151
5290.71862427,0.00062463
5292.64743164,0.00071718
5294.57623901,0.00077488
5296.50504639,0.00077405
5298.43385376,0.00073758
5300.36266113,0.00071658
5302.29146851,0.00068996
5304.22027588,0.00067727
5306.14908325,0.00071847
5308.07789062,0.00072483
5310.00669800,0.00070308
5311.93550537,0.00069204
5313.86431274,0.00071035
5315.79312012,0.00072808
5317.72192749,0.00073174
5319.65073486,0.00069578
5321.57954224,0.00066080
5323.50834961,0.00072409
5325.43715698,0.00077954
5327.36596436,0.00070537
5329.29477173,0.00066248
5331.22357910,0.00071223
5333.15238647,0.00066383
5335.08119385,0.00067796
5337.01000122,0.00067986
5338.93880859,0.00057473
5340.86761597,0.00066858
5342.79642334,0.00069263
5344.72523071,0.00058748
5346.65403809,0.00065865
5348.58284546,0.00075932
5350.51165283,0.00065914
5352.44046020,0.00059666
5354.36926758,0.00070556
5356.29807495,0.00063455
5358.22688232,0.00061077
5360.15568970,0.00063647
5362.08449707,0.00055161
5364.01330444,0.00063975
5365.94211182,0.00066664
5367.87091919,0.00063357
5369.79972656,0.00068838
5371.72853394,0.00069196
5373.65734131,0.00059940
5375.58614868,0.00058836
5377.51495605,0.00065492
5379.44376343,0.00055218
5381.37257080,0.00057235
5383.30137817,0.00063943
5385.23018555,0.00060950
5387.15899292,0.00063346
5389.08780029,0.00062513
5391.01660767,0.00064128
5392.94541504,0.00057958
5394.87422241,0.00060306
5396.80302978,0.00064065
5398.73183716,0.00059351
5400.66064453,0.00064818
5402.58945190,0.00056794
5404.51825928,0.00058028
5406.44706665,0.00064188
5408.37587402,0.00058925
5410.30468140,0.00059176
5412.23348877,0.00055273
5414.16229614,0.00060006
5416.09110352,0.00055923
5418.01991089,0.00047184
5419.94871826,0.00058489
5421.87752563,0.00058817
5423.80633301,0.00054624
5425.73514038,0.00062456
5427.66394775,0.00060710
5429.59275513,0.00056808
5431.52156250,0.00064290
5433.45036987,0.00064123
5435.37917725,0.00057691
5437.30798462,0.00055670
5439.23679199,0.00055299
5441.16559936,0.00055322
5443.09440674,0.00058234
5445.02321411,0.00060667
5446.95202148,0.00053512
5448.88082886,0.00053806
5450.80963623,0.00059670
5452.73844360,0.00057889
5454.66725098,0.00057098
5456.59605835,0.00058281
5458.52486572,0.00057379
5460.45367310,0.00052602
5462.38248047,0.00052759
5464.31128784,0.00049672
5466.24009521,0.00049741
5468.16890259,0.00058465
5470.09770996,0.00055783
5472.02651733,0.00053005
5473.95532471,0.00050705
5475.88413208,0.00052302
5477.81293945,0.00056149
5479.74174683,0.00051313
5481.67055420,0.00053542
5483.59936157,0.00051770
5485.52816895,0.00045283
5487.45697632,0.00048479
5489.38578369,0.00050104
5491.31459106,0.00048625
5493.24339844,0.00049949
5495.17220581,0.00047033
5497.10101318,0.00048207
5499.02982056,0.00056202
5500.95862793,0.00050116
5502.88743530,0.00049685
5504.81624268,0.00055924
5506.74505005,0.00051293
5508.67385742,0.00055581
5510.60266479,0.00050663
5512.53147217,0.00044722
5514.46027954,0.00050309
5516.38908691,0.00043663
5518.31789429,0.00053336
5520.24670166,0.00054442
5522.17550903,0.00041857
5524.10431641,0.00055346
5526.03312378,0.00052911
5527.96193115,0.00048325
5529.89073853,0.00049378
5531.81954590,0.00041973
5533.74835327,0.00046644
5535.67716064,0.00048018
5537.60596802,0.00049492
5539.53477539,0.00041636
5541.46358276,0.00043139
5543.39239014,0.00054434
5545.32119751,0.00049191
5547.25000488,0.00048424
5549.17881226,0.00042240
5551.10761963,0.00045663
5553.03642700,0.00044612
5554.96523437,0.00040606
5556.89404175,0.00049128
5558.82284912,0.00044490
5560.75165649,0.00057608
5562.68046387,0.00057420
5564.60927124,0.00042469
5566.53807861,0.00045494
5568.46688599,0.00043955
5570.39569336,0.00046507
5572.32450073,0.00050143
5574.25330811,0.00051154
5576.18211548,0.00043848
5578.11092285,0.00045240
5580.03973022,0.00051326
5581.96853760,0.00045650
5583.89734497,0.00047599
5585.82615234,0.00044237
5587.75495972,0.00040979
5589.68376709,0.00043781
5591.61257446,0.00052624
5593.54138184,0.00049353
5595.47018921,0.00033767
5597.39899658,0.00040020
5599.32780395,0.00046642
5601.25661133,0.00045951
5603.18541870,0.00042237
5605.11422607,0.00045762
5607.04303345,0.00049204
5608.97184082,0.00042256
5610.90064819,0.00043159
5612.82945557,0.00037711
5614.75826294,0.00043040
5616.68707031,0.00047894
5618.61587769,0.00041474
5620.54468506,0.00047835
5622.47349243,0.00042545
5624.40229980,0.00039675
5626.33110718,0.00042046
5628.25991455,0.00041351
5630.18872192,0.00051782
5632.11752930,0.00042818
5634.04633667,0.00032059
5635.97514404,0.00040697
5637.90395142,0.00035112
5639.83275879,0.00033521
5641.76156616,0.00040072
5643.69037353,0.00036821
5645.61918091,0.00038056
5647.54798828,0.00037027
5649.47679565,0.00040155
5651.40560303,0.00043403
5653.33441040,0.00039310
5655.26321777,0.00038647
5657.19202515,0.00034948
5659.12083252,0.00038625
5661.04963989,0.00041856
5662.97844727,0.00042084
5664.90725464,0.00043031
5666.83606201,0.00035490
5668.76486938,0.00035116
5670.69367676,0.00040385
5672.62248413,0.00040283
5674.55129150,0.00038037
5676.48009888,0.00041557
5678.40890625,0.00036597
5680.33771362,0.00030327
5682.26652100,0.00039202
5684.19532837,0.00036566
5686.12413574,0.00030776
5688.05294311,0.00033353
5689.98175049,0.00042200
5691.91055786,0.00045359
5693.83936523,0.00035033
5695.76817261,0.00037056
5697.69697998,0.00036626
5699.62578735,0.00032379
5701.55459473,0.00036517
5703.48340210,0.00033834
5705.41220947,0.00030925
5707.34101685,0.00033759
5709.26982422,0.00033725
5711.19863159,0.00032584
5713.12743896,0.00037554
5715.05624634,0.00034875
5716.98505371,0.00036600
5718.91386108,0.00047655
5720.84266846,0.00039602
5722.77147583,0.00034638
5724.70028320,0.00044573
5726.62909058,0.00042346
5728.55789795,0.00031756
5730.48670532,0.00032773
5732.41551270,0.00030446
5734.34432007,0.00029777
5736.27312744,0.00044470
5738.20193481,0.00037259
5740.13074219,0.00029684
5742.05954956,0.00035704
5743.98835693,0.00034235
5745.91716431,0.00040816
5747.84597168,0.00037220
5749.77477905,0.00034019
5751.70358643,0.00037545
5753.63239380,0.00033928
5755.56120117,0.00036593
5757.49000854,0.00034337
5759.41881592,0.00033269
5761.34762329,0.00034839
5763.27643066,0.00035023
5765.20523804,0.00034734
5767.13404541,0.00030935
5769.06285278,0.00034470
5770.99166016,0.00034821
5772.92046753,0.00031691
5774.84927490,0.00034067
5776.77808228,0.00037917
5778.70688965,0.00038834
5780.63569702,0.00039013
5782.56450439,0.00033731
5784.49331177,0.00027900
5786.42211914,0.00035331
5788.35092651,0.00031984
5790.27973389,0.00027734
5792.20854126,0.00033291
5794.13734863,0.00032909
5796.06615601,0.00031318
5797.99496338,0.00027191
5799.92377075,0.00029581
5801.85257812,0.00029116
5803.78138550,0.00027440
5805.71019287,0.00027154
5807.63900024,0.00028032
5809.56780762,0.00036111
5811.49661499,0.00030897
5813.42542236,0.00033907
5815.35422974,0.00033312
5817.28303711,0.00025960
5819.21184448,0.00032556
5821.14065186,0.00026331
5823.06945923,0.00028265
5824.99826660,0.00031695
5826.92707397,0.00031320
5828.85588135,0.00038540
5830.78468872,0.00033050
5832.71349609,0.00035274
5834.64230347,0.00037293
5836.57111084,0.00024165
5838.49991821,0.00020782
5840.42872559,0.00032937
5842.35753296,0.00035801
5844.28634033,0.00025031
5846.21514770,0.00026268
5848.14395508,0.00030212
5850.07276245,0.00027298
5852.00156982,0.00027390
5853.93037720,0.00030413
5855.85918457,0.00033955
5857.78799194,0.00027355
5859.71679932,0.00023238
5861.64560669,0.00029907
5863.57441406,0.00027228
5865.50322144,0.00027099
5867.43202881,0.00028978
5869.36083618,0.00026471
5871.28964355,0.00030484
5873.21845093,0.00026504
5875.14725830,0.00020541
5877.07606567,0.00021923
5879.00487305,0.00031333
5880.93368042,0.00032363
5882.86248779,0.00022941
5884.79129517,0.00027329
5886.72010254,0.00024328
5888.64890991,0.00027593
5890.57771728,0.00030485
5892.50652466,0.00020872
5894.43533203,0.00024828
5896.36413940,0.00022040
5898.29294678,0.00028152
5900.22175415,0.00033904
5902.15056152,0.00028350
5904.07936890,0.00028073
5906.00817627,0.00024386
5907.93698364,0.00027990
5909.86579102,0.00027425
5911.79459839,0.00026047
5913.72340576,0.00022769
5915.65221313,0.00024114
5917.58102051,0.00029609
5919.50982788,0.00019877
5921.43863525,0.00024754
5923.36744263,0.00026210
5925.29625000,0.00022537
5927.22505737,0.00030361
5929.15386475,0.00025310
5931.08267212,0.00020539
5933.01147949,0.00021900
5934.94028686,0.00020341
5936.86909424,0.00023049
5938.79790161,0.00028981
5940.72670898,0.00021987
5942.65551636,0.00015718
5944.58432373,0.00024545
5946.51313110,0.00026141
5948.44193848,0.00020633
5950.37074585,0.00026360
5952.29955322,0.00033083
5954.22836060,0.00024340
5956.15716797,0.00020203
5958.08597534,0.00018662
5960.01478271,0.00015055
5961.94359009,0.00025043
5963.87239746,0.00028795
5965.80120483,0.00023804
5967.73001221,0.00022491
5969.65881958,0.00022352
5971.58762695,0.00021736
5973.51643433,0.00027753
5975.44524170,0.00029178
5977.37404907,0.00022497
5979.30285645,0.00026667
5981.23166382,0.00022668
5983.16047119,0.00023039
5985.08927856,0.00030205
5987.01808594,0.00020814
5988.94689331,0.00021136
5990.87570068,0.00022984
5992.80450806,0.00019174
5994.73331543,0.00021619
5996.66212280,0.00020187
5998.59093018,0.00022317
6000.51973755,0.00022877
