399.26312622,0.00063053
401.19193359,0.00047953
403.12074097,0.00072575
405.04954834,0.00087868
406.97835571,0.00103643
408.90716309,0.00093130
410.83597046,0.00076805
412.76477783,0.00121817
414.69358521,0.00097046
416.62239258,0.00132262
418.55119995,0.00134434
420.48000732,0.00102842
422.40881470,0.00145907
424.33762207,0.00090593
426.26642944,0.00095347
428.19523682,0.00138279
430.12404419,0.00106491
432.05285156,0.00129347
433.98165894,0.00145735
435.91046631,0.00115222
437.83927368,0.00082189
439.76808105,0.00047886
441.69688843,0.00053464
443.62569580,0.00083474
445.55450317,0.00093336
447.48331055,0.00113328
449.41211792,0.00103146
451.34092529,0.00073617
453.26973267,0.00067519
455.19854004,0.00070907
457.12734741,0.00065689
459.05615479,0.00068552
460.98496216,0.00102454
462.91376953,0.00038245
464.84257690,-0.00004897
466.77138428,0.00060529
468.70019165,0.00058169
470.62899902,0.00044959
472.55780640,0.00085172
474.48661377,0.00108463
476.41542114,0.00044658
478.34422852,0.00039152
480.27303589,0.00069595
482.20184326,0.00034059
484.13065063,0.00042052
486.05945801,0.00010043
487.98826538,0.00041545
489.91707275,0.00080475
491.84588013,0.00038452
493.77468750,0.00061128
495.70349487,0.00026318
497.63230225,0.00020144
499.56110962,0.00042572
501.48991699,0.00007424
503.41872437,0.00022688
505.34753174,0.00038586
507.27633911,-0.00000302
509.20514648,-0.00017368
511.13395386,0.00046558
513.06276123,0.00024967
514.99156860,-0.00017440
516.92037598,0.00018697
518.84918335,0.00012498
520.77799072,0.00024693
522.70679810,0.00023489
524.63560547,0.00014566
526.56441284,0.00027641
528.49322021,0.00038094
530.42202759,0.00046824
532.35083496,0.00048478
534.27964233,0.00069912
536.20844971,-0.00000860
538.13725708,-0.00018120
540.06606445,0.00045308
541.99487183,-0.00018136
543.92367920,0.00030211
545.85248657,0.00060141
547.78129395,-0.00016081
549.71010132,0.00036320
551.63890869,0.00060896
553.56771606,0.00005046
555.49652344,0.00008148
557.42533081,0.00004085
559.35413818,-0.00020146
561.28294556,0.00034458
563.21175293,0.00055732
565.14056030,0.00031701
567.06936768,0.00040359
568.99817505,0.00030644
570.92698242,0.00012504
572.85578979,0.00028268
574.78459717,0.00046313
576.71340454,-0.00015016
578.64221191,0.00000864
580.57101929,0.00034186
582.49982666,-0.00001550
584.42863403,0.00036618
586.35744141,0.00012421
588.28624878,0.00020090
590.21505615,0.00047768
592.14386353,0.00002186
594.07267090,-0.00000635
596.00147827,0.00000397
597.93028564,0.00021538
599.85909302,0.00026135
601.78790039,0.00032644
603.71670776,0.00021928
605.64551514,0.00002685
607.57432251,-0.00009019
609.50312988,0.00029216
611.43193726,0.00019385
613.36074463,-0.00002911
615.28955200,0.00016302
617.21835938,-0.00010283
619.14716675,0.00012992
621.07597412,0.00034485
623.00478149,0.00024797
624.93358887,0.00009582
626.86239624,0.00007348
628.79120361,0.00001923
630.72001099,0.00028679
632.64881836,0.00057810
634.57762573,0.00082400
636.50643311,0.00090143
638.43524048,0.00056449
640.36404785,0.00090885
642.29285522,0.00106964
644.22166260,0.00110352
646.15046997,0.00131499
648.07927734,0.00123813
650.00808472,0.00141945
651.93689209,0.00122299
653.86569946,0.00145725
655.79450684,0.00187009
657.72331421,0.00141033
659.65212158,0.00147115
661.58092896,0.00185284
663.50973633,0.00183692
665.43854370,0.00203866
667.36735107,0.00205020
669.29615845,0.00189481
671.22496582,0.00226852
673.15377319,0.00234640
675.08258057,0.00223148
677.01138794,0.00226073
678.94019531,0.00210425
680.86900269,0.00221784
682.79781006,0.00253426
684.72661743,0.00269353
686.65542480,0.00234969
688.58423218,0.00204144
690.51303955,0.00225851
692.44184692,0.00269126
694.37065430,0.00299179
696.29946167,0.00295558
698.22826904,0.00338339
700.15707642,0.00378382
702.08588379,0.00350230
704.01469116,0.00337412
705.94349854,0.00316917
707.87230591,0.00267198
709.80111328,0.00222708
711.72992065,0.00138626
713.65872803,0.00065159
715.58753540,0.00075745
717.51634277,0.00073228
719.44515015,0.00036085
721.37395752,0.00025198
723.30276489,0.00043240
725.23157227,0.00031124
727.16037964,0.00000384
729.08918701,0.00012582
731.01799438,-0.00004256
732.94680176,0.00002478
734.87560913,0.00035523
736.80441650,-0.00003177
738.73322388,0.00003062
740.66203125,0.00023758
742.59083862,0.00012647
744.51964600,0.00000566
746.44845337,-0.00009831
748.37726074,0.00016504
750.30606812,0.00011647
752.23487549,0.00013727
754.16368286,0.00031586
756.09249023,0.00040747
758.02129761,0.00040329
759.95010498,-0.00000643
761.87891235,0.00001385
763.80771973,0.00027689
765.73652710,0.00037471
767.66533447,0.00039430
769.59414185,0.00020544
771.52294922,0.00007053
773.45175659,0.00032624
775.38056396,0.00042269
777.30937134,0.00015937
779.23817871,0.00025355
781.16698608,0.00029157
783.09579346,0.00008965
785.02460083,0.00025175
786.95340820,0.00036000
788.88221558,0.00031246
790.81102295,0.00026048
792.73983032,0.00029598
794.66863770,0.00037854
796.59744507,0.00032338
798.52625244,0.00060173
800.45505981,0.00075223
802.38386719,0.00061685
804.31267456,0.00036604
806.24148193,0.00021603
808.17028931,0.00064073
810.09909668,0.00029850
812.02790405,-0.00002725
813.95671143,0.00038515
815.88551880,0.00033493
817.81432617,0.00032234
819.74313354,0.00024567
821.67194092,0.00037024
823.60074829,0.00030181
825.52955566,0.00010731
827.45836304,0.00052646
829.38717041,0.00062042
831.31597778,0.00052673
833.24478516,0.00038597
835.17359253,0.00096439
837.10239990,0.00128587
839.03120728,0.00082425
840.96001465,0.00106486
842.88882202,0.00077843
844.81762939,0.00058788
846.74643677,0.00078221
848.67524414,0.00067599
850.60405151,0.00068109
852.53285889,0.00060082
854.46166626,0.00074206
856.39047363,0.00042870
858.31928101,0.00028220
860.24808838,0.00046410
862.17689575,0.00022012
864.10570313,0.00058257
866.03451050,0.00053959
867.96331787,0.00009571
869.89212524,0.00047412
871.82093262,0.00040527
873.74973999,0.00010472
875.67854736,0.00025194
877.60735474,0.00022726
879.53616211,0.00013717
881.46496948,0.00031625
883.39377686,0.00063835
885.32258423,0.00045931
887.25139160,0.00012782
889.18019897,0.00033472
891.10900635,0.00036106
893.03781372,0.00022570
894.96662109,0.00051229
896.89542847,0.00046424
898.82423584,0.00034830
900.75304321,0.00050975
902.68185059,0.00029150
904.61065796,0.00019997
906.53946533,0.00059361
908.46827271,0.00077321
910.39708008,0.00063267
912.32588745,0.00071815
914.25469482,0.00070106
916.18350220,0.00050758
918.11230957,0.00058340
920.04111694,0.00051196
921.96992432,0.00050408
923.89873169,0.00077442
925.82753906,0.00080086
927.75634644,0.00093359
929.68515381,0.00109814
931.61396118,0.00099708
933.54276855,0.00115577
935.47157593,0.00128987
937.40038330,0.00133249
939.32919067,0.00153227
941.25799805,0.00155699
943.18680542,0.00143686
945.11561279,0.00139264
947.04442017,0.00135990
948.97322754,0.00124257
950.90203491,0.00135031
952.83084229,0.00123628
954.75964966,0.00104559
956.68845703,0.00134544
958.61726440,0.00126373
960.54607178,0.00130334
962.47487915,0.00148126
964.40368652,0.00122437
966.33249390,0.00137205
968.26130127,0.00145205
970.19010864,0.00131037
972.11891602,0.00147695
974.04772339,0.00185662
975.97653076,0.00217987
977.90533813,0.00199829
979.83414551,0.00207800
981.76295288,0.00244135
983.69176025,0.00251793
985.62056763,0.00278980
987.54937500,0.00286027
989.47818237,0.00324111
991.40698975,0.00380738
993.33579712,0.00385840
995.26460449,0.00427625
997.19341187,0.00446813
999.12221924,0.00487267
1001.05102661,0.00538578
1002.97983398,0.00535633
1004.90864136,0.00597216
1006.83744873,0.00636630
1008.76625610,0.00674222
1010.69506348,0.00719820
1012.62387085,0.00733947
1014.55267822,0.00797276
1016.48148560,0.00816002
1018.41029297,0.00851248
1020.33910034,0.00928954
1022.26790771,0.00945723
1024.19671509,0.00976080
1026.12552246,0.01032707
1028.05432983,0.01047773
1029.98313721,0.01052842
1031.91194458,0.01098144
1033.84075195,0.01125170
1035.76955933,0.01138161
1037.69836670,0.01157329
1039.62717407,0.01152143
1041.55598145,0.01144281
1043.48478882,0.01145093
1045.41359619,0.01155530
1047.34240356,0.01144444
1049.27121094,0.01113106
1051.20001831,0.01075504
1053.12882568,0.01064749
1055.05763306,0.01080098
1056.98644043,0.01041462
1058.91524780,0.00993925
1060.84405518,0.00973121
1062.77286255,0.00959669
1064.70166992,0.00923600
1066.63047729,0.00875285
1068.55928467,0.00846749
1070.48809204,0.00803298
1072.41689941,0.00789883
1074.34570679,0.00736576
1076.27451416,0.00676096
1078.20332153,0.00691363
1080.13212891,0.00642868
1082.06093628,0.00607567
1083.98974365,0.00587923
1085.91855103,0.00549685
1087.84735840,0.00536822
1089.77616577,0.00496321
1091.70497314,0.00500188
1093.63378052,0.00487638
1095.56258789,0.00466042
1097.49139526,0.00447637
1099.42020264,0.00399542
1101.34901001,0.00418798
1103.27781738,0.00411629
1105.20662476,0.00414741
1107.13543213,0.00419853
1109.06423950,0.00386874
1110.99304687,0.00398511
1112.92185425,0.00384784
1114.85066162,0.00380841
1116.77946899,0.00371384
1118.70827637,0.00363015
1120.63708374,0.00383786
1122.56589111,0.00375267
1124.49469849,0.00375407
1126.42350586,0.00388884
1128.35231323,0.00397610
1130.28112061,0.00392954
1132.20992798,0.00422979
1134.13873535,0.00424314
1136.06754272,0.00419653
1137.99635010,0.00480475
1139.92515747,0.00486760
1141.85396484,0.00531940
1143.78277222,0.00590544
1145.71157959,0.00595533
1147.64038696,0.00638820
1149.56919434,0.00678547
1151.49800171,0.00719414
1153.42680908,0.00745645
1155.35561646,0.00758621
1157.28442383,0.00796504
1159.21323120,0.00835822
1161.14203857,0.00854097
1163.07084595,0.00886413
1164.99965332,0.00935572
1166.92846069,0.00950116
1168.85726807,0.00988838
1170.78607544,0.01039764
1172.71488281,0.01079305
1174.64369019,0.01131242
1176.57249756,0.01161492
1178.50130493,0.01181673
1180.43011230,0.01218381
1182.35891968,0.01281423
1184.28772705,0.01340445
1186.21653442,0.01414630
1188.14534180,0.01497532
1190.07414917,0.01534817
1192.00295654,0.01598816
1193.93176392,0.01699489
1195.86057129,0.01764324
1197.78937866,0.01837676
1199.71818604,0.01926078
1201.64699341,0.01986050
1203.57580078,0.02075380
1205.50460815,0.02163732
1207.43341553,0.02230407
1209.36222290,0.02308849
1211.29103027,0.02355121
1213.21983765,0.02415471
1215.14864502,0.02500345
1217.07745239,0.02546626
1219.00625977,0.02580711
1220.93506714,0.02644810
1222.86387451,0.02672549
1224.79268188,0.02662299
1226.72148926,0.02696159
1228.65029663,0.02724778
1230.57910400,0.02734001
1232.50791138,0.02738504
1234.43671875,0.02743113
1236.36552612,0.02753705
1238.29433350,0.02749652
1240.22314087,0.02744689
1242.15194824,0.02733326
1244.08075562,0.02726576
1246.00956299,0.02707422
1247.93837036,0.02688368
1249.86717773,0.02674101
1251.79598511,0.02648800
1253.72479248,0.02639075
1255.65359985,0.02610223
1257.58240723,0.02578536
1259.51121460,0.02539638
1261.44002197,0.02492625
1263.36882935,0.02468078
1265.29763672,0.02431744
1267.22644409,0.02396255
1269.15525146,0.02384628
1271.08405884,0.02356584
1273.01286621,0.02295749
1274.94167358,0.02269029
1276.87048096,0.02228871
1278.79928833,0.02167596
1280.72809570,0.02144165
1282.65690308,0.02099913
1284.58571045,0.02058316
1286.51451782,0.02022348
1288.44332520,0.01995881
1290.37213257,0.01976741
1292.30093994,0.01950867
1294.22974731,0.01947244
1296.15855469,0.01915479
1298.08736206,0.01908148
1300.01616943,0.01939738
1301.94497681,0.01942368
1303.87378418,0.01944679
1305.80259155,0.01971377
1307.73139893,0.02003063
1309.66020630,0.02029875
1311.58901367,0.02064943
1313.51782104,0.02099156
1315.44662842,0.02152900
1317.37543579,0.02190218
1319.30424316,0.02233154
1321.23305054,0.02335820
1323.16185791,0.02402579
1325.09066528,0.02455115
1327.01947266,0.02535227
1328.94828003,0.02603706
1330.87708740,0.02655382
1332.80589478,0.02707009
1334.73470215,0.02768897
1336.66350952,0.02786151
1338.59231689,0.02738637
1340.52112427,0.02767085
1342.44993164,0.02915556
1344.37873901,0.02966627
1346.30754639,0.02943950
1348.23635376,0.02929788
1350.16516113,0.02912399
1352.09396851,0.02928210
1354.02277588,0.02869127
1355.95158325,0.02847129
1357.88039062,0.02845044
1359.80919800,0.02769525
1361.73800537,0.02644764
1363.66681274,0.02585822
1365.59562012,0.02751973
1367.52442749,0.02707615
1369.45323486,0.02647752
1371.38204224,0.02713038
1373.31084961,0.02532856
1375.23965698,0.02554648
1377.16846436,0.02653276
1379.09727173,0.02632439
1381.02607910,0.02636391
1382.95488647,0.02639612
1384.88369385,0.02645724
1386.81250122,0.02471795
1388.74130859,0.02515860
1390.67011597,0.02787079
1392.59892334,0.02692150
1394.52773071,0.02486843
1396.45653809,0.02621514
1398.38534546,0.02618234
1400.31415283,0.02603824
1402.24296021,0.02858649
1404.17176758,0.02666012
1406.10057495,0.02668382
1408.02938232,0.02819804
1409.95818970,0.02685098
1411.88699707,0.02748836
1413.81580444,0.02649104
1415.74461182,0.02713852
1417.67341919,0.02427393
1419.60222656,0.02106272
1421.53103394,0.02511823
1423.45984131,0.02428267
1425.38864868,0.02348864
1427.31745605,0.02421620
1429.24626343,0.02186948
1431.17507080,0.02127117
1433.10387817,0.02211322
1435.03268555,0.02001348
1436.96149292,0.01636329
1438.89030029,0.01920634
1440.81910767,0.02007449
1442.74791504,0.01835437
1444.67672241,0.01950868
1446.60552979,0.01761020
1448.53433716,0.01796618
1450.46314453,0.01884289
1452.39195190,0.01891494
1454.32075928,0.01962725
1456.24956665,0.01564301
1458.17837402,0.01616604
1460.10718140,0.02245447
1462.03598877,0.02393810
1463.96479614,0.02338057
1465.89360352,0.02419130
1467.82241089,0.02825844
1469.75121826,0.03070183
1471.68002563,0.02627708
1473.60883301,0.02762050
1475.53764038,0.03187107
1477.46644775,0.03435913
1479.39525513,0.03844083
1481.32406250,0.03862505
1483.25286987,0.04125615
1485.18167725,0.04263613
1487.11048462,0.04129840
1489.03929199,0.04059736
1490.96809937,0.04038461
1492.89690674,0.04863338
1494.82571411,0.04730263
1496.75452148,0.04119021
1498.68332886,0.04752459
1500.61213623,0.04904051
1502.54094360,0.05316489
1504.46975098,0.04985904
1506.39855835,0.03362411
1508.32736572,0.04226161
1510.25617310,0.05142022
1512.18498047,0.04979414
1514.11378784,0.05463490
1516.04259521,0.04805678
1517.97140259,0.05009905
1519.90020996,0.04845291
1521.82901733,0.04052567
1523.75782471,0.05171573
1525.68663208,0.05065656
1527.61543945,0.05006029
1529.54424683,0.05700023
1531.47305420,0.05416091
1533.40186157,0.04850364
1535.33066895,0.05206519
1537.25947632,0.05638248
1539.18828369,0.03771025
1541.11709106,0.03962523
1543.04589844,0.04950486
1544.97470581,0.04700569
1546.90351318,0.05789773
1548.83232056,0.05326243
1550.76112793,0.05484655
1552.68993530,0.05500267
1554.61874268,0.04881208
1556.54755005,0.05308107
1558.47635742,0.03462945
1560.40516479,0.03793029
1562.33397217,0.05856000
1564.26277954,0.05459310
1566.19158691,0.05639747
1568.12039429,0.05565199
1570.04920166,0.04771433
1571.97800903,0.05694699
1573.90681641,0.05808001
1575.83562378,0.04371996
1577.76443115,0.05070634
1579.69323853,0.05886050
1581.62204590,0.05585056
1583.55085327,0.05749355
1585.47966064,0.05640977
1587.40846802,0.05702873
1589.33727539,0.05645560
1591.26608276,0.05622948
1593.19489014,0.05640342
1595.12369751,0.05559924
1597.05250488,0.05654367
1598.98131226,0.05599829
1600.91011963,0.05643825
1602.83892700,0.05535703
1604.76773437,0.05622449
1606.69654175,0.05507589
1608.62534912,0.05486069
1610.55415649,0.05493707
1612.48296387,0.05524185
1614.41177124,0.05632367
1616.34057861,0.04432932
1618.26938599,0.04861660
1620.19819336,0.05856738
1622.12700073,0.05053271
1624.05580811,0.05064064
1625.98461548,0.05406201
1627.91342285,0.05360598
1629.84223022,0.05347683
1631.77103760,0.05804452
1633.69984497,0.05264314
1635.62865234,0.04163864
1637.55745972,0.05008929
1639.48626709,0.05652172
1641.41507446,0.05514780
1643.34388184,0.05707760
1645.27268921,0.05076551
1647.20149658,0.04283571
1649.13030396,0.05577593
1651.05911133,0.05353388
1652.98791870,0.03102807
1654.91672607,0.04495955
1656.84553345,0.05948874
1658.77434082,0.05675171
1660.70314819,0.05871334
1662.63195557,0.05240948
1664.56076294,0.05595565
1666.48957031,0.06136703
1668.41837769,0.05203899
1670.34718506,0.05016778
1672.27599243,0.05882232
1674.20479980,0.05350204
1676.13360718,0.05074826
1678.06241455,0.06056095
1679.99122192,0.05791839
1681.92002930,0.05685080
1683.84883667,0.04478844
1685.77764404,0.04407458
1687.70645142,0.06430298
1689.63525879,0.05471039
1691.56406616,0.06102806
1693.49287354,0.06277512
1695.42168091,0.04289398
1697.35048828,0.05537844
1699.27929565,0.04746320
1701.20810303,0.04133507
1703.13691040,0.06072035
1705.06571777,0.05472336
1706.99452515,0.05524679
1708.92333252,0.06130854
1710.85213989,0.05841125
1712.78094727,0.05978086
1714.70975464,0.05466123
1716.63856201,0.04800431
1718.56736938,0.04699283
1720.49617676,0.05779329
1722.42498413,0.06067109
1724.35379150,0.05526179
1726.28259888,0.06158080
1728.21140625,0.05618631
1730.14021362,0.05629297
1732.06902100,0.05516689
1733.99782837,0.03929523
1735.92663574,0.05130538
1737.85544312,0.05823483
1739.78425049,0.05033761
1741.71305786,0.05575170
1743.64186523,0.05648473
1745.57067261,0.05658741
1747.49947998,0.05701299
1749.42828735,0.05388011
1751.35709473,0.05125757
1753.28590210,0.05797582
1755.21470947,0.06125361
1757.14351685,0.05459890
1759.07232422,0.06141660
1761.00113159,0.05705376
1762.92993896,0.05438576
1764.85874634,0.06421481
1766.78755371,0.05637077
1768.71636108,0.05704379
1770.64516846,0.05653168
1772.57397583,0.04956729
1774.50278320,0.05684263
1776.43159058,0.06061377
1778.36039795,0.05985906
1780.28920532,0.05862281
1782.21801270,0.05932174
1784.14682007,0.05941496
1786.07562744,0.05775562
1788.00443481,0.06149182
1789.93324219,0.05949195
1791.86204956,0.05275615
1793.79085693,0.05537881
1795.71966431,0.06030076
1797.64847168,0.05944384
1799.57727905,0.05809636
1801.50608643,0.05698891
1803.43489380,0.05928314
1805.36370117,0.06092241
1807.29250854,0.05990622
1809.22131592,0.06000768
1811.15012329,0.05802988
1813.07893066,0.06041269
1815.00773804,0.06076984
1816.93654541,0.05971916
1818.86535278,0.06044947
1820.79416016,0.06018623
1822.72296753,0.06131551
1824.65177490,0.05631611
1826.58058228,0.05882584
1828.50938965,0.05898806
1830.43819702,0.05427799
1832.36700439,0.06054560
1834.29581177,0.06004784
1836.22461914,0.05984077
1838.15342651,0.05951915
1840.08223389,0.05999631
1842.01104126,0.06035208
1843.93984863,0.05191387
1845.86865601,0.05624130
1847.79746338,0.05998604
1849.72627075,0.05842102
1851.65507812,0.06072740
1853.58388550,0.05918333
1855.51269287,0.05997594
1857.44150024,0.05946876
1859.37030762,0.05913936
1861.29911499,0.05965619
1863.22792236,0.05873474
1865.15672974,0.05944074
1867.08553711,0.05691956
1869.01434448,0.05410653
1870.94315186,0.05679957
1872.87195923,0.05961076
1874.80076660,0.05834170
1876.72957397,0.05870366
1878.65838135,0.05864675
1880.58718872,0.05831918
1882.51599609,0.05902044
1884.44480347,0.05759924
1886.37361084,0.05866487
1888.30241821,0.05711183
1890.23122559,0.05564171
1892.16003296,0.05840719
1894.08884033,0.05742184
1896.01764771,0.05701646
1897.94645508,0.05777562
1899.87526245,0.05759483
1901.80406982,0.05788057
1903.73287720,0.05735177
1905.66168457,0.05760851
1907.59049194,0.05691258
1909.51929932,0.05647047
1911.44810669,0.05696384
1913.37691406,0.05714562
1915.30572144,0.05780520
1917.23452881,0.05465404
1919.16333618,0.05450725
1921.09214355,0.05715189
1923.02095093,0.05502361
1924.94975830,0.05641444
1926.87856567,0.05714919
1928.80737305,0.05618186
1930.73618042,0.05710568
1932.66498779,0.05610175
1934.59379517,0.05688087
1936.52260254,0.05637280
1938.45140991,0.05645402
1940.38021729,0.05653448
1942.30902466,0.05413970
1944.23783203,0.05542308
1946.16663940,0.05612552
1948.09544678,0.05604904
1950.02425415,0.05642066
1951.95306152,0.05604008
1953.88186890,0.05623846
1955.81067627,0.05604901
1957.73948364,0.05608310
1959.66829102,0.05586733
1961.59709839,0.05584412
1963.52590576,0.05592403
1965.45471313,0.05555127
1967.38352051,0.05498301
1969.31232788,0.05541714
1971.24113525,0.05596083
1973.16994263,0.05540427
1975.09875000,0.05576983
1977.02755737,0.05550933
1978.95636475,0.05539249
1980.88517212,0.05537833
1982.81397949,0.05505576
1984.74278687,0.05540679
1986.67159424,0.05486042
1988.60040161,0.05489402
1990.52920898,0.05425804
1992.45801636,0.05361726
1994.38682373,0.05459576
1996.31563110,0.05480035
1998.24443848,0.05455557
2000.17324585,0.05449763
2002.10205322,0.05448691
2004.03086060,0.05434630
2005.95966797,0.05418840
2007.88847534,0.05392213
2009.81728271,0.05392686
2011.74609009,0.05387027
2013.67489746,0.05370326
2015.60370483,0.05352163
2017.53251221,0.05285730
2019.46131958,0.05332259
2021.39012695,0.05337568
2023.31893433,0.05296199
2025.24774170,0.05318891
2027.17654907,0.05291335
2029.10535645,0.05292803
2031.03416382,0.05275586
2032.96297119,0.05257692
2034.89177856,0.05251630
2036.82058594,0.05236648
2038.74939331,0.05225682
2040.67820068,0.05193584
2042.60700806,0.05207355
2044.53581543,0.05206151
2046.46462280,0.05196951
2048.39343018,0.05199262
2050.32223755,0.05176334
2052.25104492,0.05161897
2054.17985229,0.05149635
2056.10865967,0.05140204
2058.03746704,0.05133395
2059.96627441,0.05120398
2061.89508179,0.05109778
2063.82388916,0.05080153
2065.75269653,0.05054649
2067.68150391,0.05074313
2069.61031128,0.05065752
2071.53911865,0.05065193
2073.46792603,0.05060799
2075.39673340,0.05027210
2077.32554077,0.05042996
2079.25434814,0.05031474
2081.18315552,0.05013692
2083.11196289,0.05000798
2085.04077026,0.04995184
2086.96957764,0.04996171
2088.89838501,0.04959489
2090.82719238,0.04959975
2092.75599976,0.04962288
2094.68480713,0.04950411
2096.61361450,0.04947384
2098.54242187,0.04950238
2100.47122925,0.04933621
2102.40003662,0.04915954
2104.32884399,0.04918871
2106.25765137,0.04895315
2108.18645874,0.04897922
2110.11526611,0.04896145
2112.04407349,0.04886560
2113.97288086,0.04881176
2115.90168823,0.04867598
2117.83049561,0.04866146
2119.75930298,0.04862455
2121.68811035,0.04863740
2123.61691772,0.04836067
2125.54572510,0.04835665
2127.47453247,0.04830733
2129.40333984,0.04816748
2131.33214722,0.04829790
2133.26095459,0.04803947
2135.18976196,0.04796051
2137.11856934,0.04790401
2139.04737671,0.04792335
2140.97618408,0.04799373
2142.90499146,0.04789228
2144.83379883,0.04780251
2146.76260620,0.04773580
2148.69141357,0.04778368
2150.62022095,0.04761872
2152.54902832,0.04767206
2154.47783569,0.04752631
2156.40664307,0.04744088
2158.33545044,0.04762296
2160.26425781,0.04739367
2162.19306519,0.04740004
2164.12187256,0.04737552
2166.05067993,0.04725822
2167.97948730,0.04717345
2169.90829468,0.04709952
2171.83710205,0.04708412
2173.76590942,0.04710568
2175.69471680,0.04702295
2177.62352417,0.04677753
2179.55233154,0.04688768
2181.48113892,0.04670398
2183.40994629,0.04663397
2185.33875366,0.04676040
2187.26756104,0.04656108
2189.19636841,0.04654602
2191.12517578,0.04644550
2193.05398315,0.04648321
2194.98279053,0.04642628
2196.91159790,0.04634066
2198.84040527,0.04640049
2200.76921265,0.04623475
2202.69802002,0.04618067
2204.62682739,0.04610257
2206.55563477,0.04601669
2208.48444214,0.04597684
2210.41324951,0.04600263
2212.34205688,0.04602613
2214.27086426,0.04589992
2216.19967163,0.04588906
2218.12847900,0.04592770
2220.05728638,0.04588152
2221.98609375,0.04581364
2223.91490112,0.04559485
2225.84370850,0.04549850
2227.77251587,0.04566469
2229.70132324,0.04547609
2231.63013062,0.04537649
2233.55893799,0.04537521
2235.48774536,0.04524257
2237.41655273,0.04528910
2239.34536011,0.04513703
2241.27416748,0.04514118
2243.20297485,0.04503850
2245.13178223,0.04486644
2247.06058960,0.04498756
2248.98939697,0.04493546
2250.91820435,0.04484688
2252.84701172,0.04471230
2254.77581909,0.04465201
2256.70462646,0.04456449
2258.63343384,0.04444122
2260.56224121,0.04437585
2262.49104858,0.04436222
2264.41985596,0.04440896
2266.34866333,0.04427131
2268.27747070,0.04421292
2270.20627808,0.04415086
2272.13508545,0.04409699
2274.06389282,0.04404932
2275.99270020,0.04400600
2277.92150757,0.04401788
2279.85031494,0.04391307
2281.77912231,0.04390571
2283.70792969,0.04384345
2285.63673706,0.04379957
2287.56554443,0.04372197
2289.49435181,0.04354277
2291.42315918,0.04353372
2293.35196655,0.04348819
2295.28077393,0.04327715
2297.20958130,0.04318686
2299.13838867,0.04307248
2301.06719604,0.04277668
2302.99600342,0.04271454
2304.92481079,0.04254722
2306.85361816,0.04233810
2308.78242554,0.04195996
2310.71123291,0.04148357
2312.64004028,0.04137129
2314.56884766,0.04096813
2316.49765503,0.04056650
2318.42646240,0.04006866
2320.35526978,0.03956625
2322.28407715,0.03903578
2324.21288452,0.03847297
2326.14169189,0.03835827
2328.07049927,0.03781800
2329.99930664,0.03738374
2331.92811401,0.03712174
2333.85692139,0.03697392
2335.78572876,0.03697547
2337.71453613,0.03674378
2339.64334351,0.03680338
2341.57215088,0.03690920
2343.50095825,0.03746642
2345.42976562,0.03807560
2347.35857300,0.03926556
2349.28738037,0.04046453
2351.21618774,0.03934131
2353.14499512,0.03760948
2355.07380249,0.03625439
2357.00260986,0.03520187
2358.93141724,0.03474520
2360.86022461,0.03441431
2362.78903198,0.03431384
2364.71783936,0.03448360
2366.64664673,0.03479255
2368.57545410,0.03530442
2370.50426147,0.03623312
2372.43306885,0.03710102
2374.36187622,0.03796864
2376.29068359,0.03887204
2378.21949097,0.03970425
2380.14829834,0.04031380
2382.07710571,0.04050644
2384.00591309,0.04091566
2385.93472046,0.04095591
2387.86352783,0.04085606
2389.79233521,0.04093342
2391.72114258,0.04085963
2393.64994995,0.04098354
2395.57875732,0.04091534
2397.50756470,0.04073752
2399.43637207,0.04066359
2401.36517944,0.04070749
2403.29398682,0.04062558
2405.22279419,0.04058009
2407.15160156,0.04059698
2409.08040894,0.04041070
2411.00921631,0.04042124
2412.93802368,0.04027262
2414.86683105,0.04027802
2416.79563843,0.04032940
2418.72444580,0.04011725
2420.65325317,0.04014357
2422.58206055,0.04008999
2424.51086792,0.04002710
2426.43967529,0.04002330
2428.36848267,0.03987658
2430.29729004,0.03972578
2432.22609741,0.03981471
2434.15490479,0.03986057
2436.08371216,0.03974732
2438.01251953,0.03965885
2439.94132690,0.03949358
2441.87013428,0.03948483
2443.79894165,0.03951004
2445.72774902,0.03950572
2447.65655640,0.03947040
2449.58536377,0.03941822
2451.51417114,0.03937281
2453.44297852,0.03926263
2455.37178589,0.03918768
2457.30059326,0.03916305
2459.22940063,0.03915911
2461.15820801,0.03896601
2463.08701538,0.03905179
2465.01582275,0.03901584
2466.94463013,0.03878429
2468.87343750,0.03887803
2470.80224487,0.03866491
2472.73105225,0.03870657
2474.65985962,0.03875871
2476.58866699,0.03858598
2478.51747437,0.03859069
2480.44628174,0.03842734
2482.37508911,0.03842542
2484.30389648,0.03838974
2486.23270386,0.03834910
2488.16151123,0.03834623
2490.09031860,0.03825337
2492.01912598,0.03825985
2493.94793335,0.03822838
2495.87674072,0.03815442
2497.80554810,0.03807423
2499.73435547,0.03809070
2501.66316284,0.03802547
2503.59197021,0.03788390
2505.52077759,0.03785742
2507.44958496,0.03788467
2509.37839233,0.03777744
2511.30719971,0.03768691
2513.23600708,0.03770631
2515.16481445,0.03761140
2517.09362183,0.03762931
2519.02242920,0.03757665
2520.95123657,0.03752170
2522.88004395,0.03744383
2524.80885132,0.03729708
2526.73765869,0.03735439
2528.66646606,0.03725439
2530.59527344,0.03716694
2532.52408081,0.03722217
2534.45288818,0.03727958
2536.38169556,0.03714444
2538.31050293,0.03707771
2540.23931030,0.03713078
2542.16811768,0.03694644
2544.09692505,0.03690339
2546.02573242,0.03678237
2547.95453979,0.03676641
2549.88334717,0.03677674
2551.81215454,0.03663006
2553.74096191,0.03665390
2555.66976929,0.03651963
2557.59857666,0.03647432
2559.52738403,0.03646136
2561.45619141,0.03639117
2563.38499878,0.03636195
2565.31380615,0.03639184
2567.24261353,0.03638180
2569.17142090,0.03620767
2571.10022827,0.03621557
2573.02903564,0.03612922
2574.95784302,0.03604294
2576.88665039,0.03597938
2578.81545776,0.03592239
2580.74426514,0.03596883
2582.67307251,0.03583916
2584.60187988,0.03581843
2586.53068726,0.03581116
2588.45949463,0.03580761
2590.38830200,0.03576227
2592.31710937,0.03562821
2594.24591675,0.03560469
2596.17472412,0.03556240
2598.10353149,0.03553075
2600.03233887,0.03549052
2601.96114624,0.03542634
2603.88995361,0.03527538
2605.81876099,0.03527958
2607.74756836,0.03527835
2609.67637573,0.03511684
2611.60518311,0.03514958
2613.53399048,0.03507772
2615.46279785,0.03500506
2617.39160522,0.03503538
2619.32041260,0.03497192
2621.24921997,0.03490330
2623.17802734,0.03480273
2625.10683472,0.03469715
2627.03564209,0.03469677
2628.96444946,0.03468418
2630.89325684,0.03456705
2632.82206421,0.03447226
2634.75087158,0.03433540
2636.67967895,0.03437387
2638.60848633,0.03441138
2640.53729370,0.03432642
2642.46610107,0.03431987
2644.39490845,0.03416884
2646.32371582,0.03418786
2648.25252319,0.03409963
2650.18133057,0.03392713
2652.11013794,0.03404977
2654.03894531,0.03397537
2655.96775269,0.03393100
2657.89656006,0.03397445
2659.82536743,0.03391632
2661.75417480,0.03384197
2663.68298218,0.03373331
2665.61178955,0.03370592
2667.54059692,0.03365044
2669.46940430,0.03360401
2671.39821167,0.03361769
2673.32701904,0.03351720
2675.25582642,0.03344153
2677.18463379,0.03338128
2679.11344116,0.03325450
2681.04224854,0.03323862
2682.97105591,0.03316773
2684.89986328,0.03311048
2686.82867065,0.03311706
2688.75747803,0.03304926
2690.68628540,0.03302861
2692.61509277,0.03290355
2694.54390015,0.03288501
2696.47270752,0.03290941
2698.40151489,0.03277557
2700.33032227,0.03277101
2702.25912964,0.03273919
2704.18793701,0.03266799
2706.11674438,0.03259609
2708.04555176,0.03253864
2709.97435913,0.03256917
2711.90316650,0.03250707
2713.83197388,0.03234592
2715.76078125,0.03228167
2717.68958862,0.03238977
2719.61839600,0.03226408
2721.54720337,0.03195065
2723.47601074,0.03204984
2725.40481812,0.03213818
2727.33362549,0.03188473
2729.26243286,0.03187344
2731.19124023,0.03195039
2733.12004761,0.03187519
2735.04885498,0.03177793
2736.97766235,0.03163487
2738.90646973,0.03158979
2740.83527710,0.03154723
2742.76408447,0.03151993
2744.69289185,0.03150170
2746.62169922,0.03138642
2748.55050659,0.03135645
2750.47931396,0.03141265
2752.40812134,0.03131182
2754.33692871,0.03117897
2756.26573608,0.03123030
2758.19454346,0.03110077
2760.12335083,0.03096157
2762.05215820,0.03091066
2763.98096558,0.03085436
2765.90977295,0.03087432
2767.83858032,0.03078912
2769.76738770,0.03082614
2771.69619507,0.03066542
2773.62500244,0.03051892
2775.55380981,0.03050300
2777.48261719,0.03029543
2779.41142456,0.03039160
2781.34023193,0.03036278
2783.26903931,0.03027199
2785.19784668,0.03035894
2787.12665405,0.03027539
2789.05546143,0.03016395
2790.98426880,0.03011750
2792.91307617,0.03002326
2794.84188354,0.02985932
2796.77069092,0.02986846
2798.69949829,0.02972434
2800.62830566,0.02963072
2802.55711304,0.02965445
2804.48592041,0.02950966
2806.41472778,0.02953261
2808.34353516,0.02943004
2810.27234253,0.02927707
2812.20114990,0.02922156
2814.12995728,0.02925324
2816.05876465,0.02919746
2817.98757202,0.02900456
2819.91637939,0.02899432
2821.84518677,0.02892615
2823.77399414,0.02884407
2825.70280151,0.02874640
2827.63160889,0.02875640
2829.56041626,0.02866386
2831.48922363,0.02846784
2833.41803101,0.02841939
2835.34683838,0.02823353
2837.27564575,0.02825420
2839.20445312,0.02813219
2841.13326050,0.02789075
2843.06206787,0.02776458
2844.99087524,0.02757135
2846.91968262,0.02745611
2848.84848999,0.02721708
2850.77729736,0.02723601
2852.70610474,0.02738867
2854.63491211,0.02749143
2856.56371948,0.02744771
2858.49252686,0.02728748
2860.42133423,0.02748453
2862.35014160,0.02752006
2864.27894897,0.02741203
2866.20775635,0.02726216
2868.13656372,0.02703621
2870.06537109,0.02705120
2871.99417847,0.02710442
2873.92298584,0.02699451
2875.85179321,0.02686451
2877.78060059,0.02687974
2879.70940796,0.02688593
2881.63821533,0.02689949
2883.56702270,0.02673194
2885.49583008,0.02660747
2887.42463745,0.02664669
2889.35344482,0.02640085
2891.28225220,0.02632529
2893.21105957,0.02632810
2895.13986694,0.02617193
2897.06867432,0.02607653
2898.99748169,0.02599726
2900.92628906,0.02597428
2902.85509644,0.02589313
2904.78390381,0.02581242
2906.71271118,0.02569992
2908.64151855,0.02554383
2910.57032593,0.02545588
2912.49913330,0.02528031
2914.42794067,0.02510560
2916.35674805,0.02498833
2918.28555542,0.02491814
2920.21436279,0.02500580
2922.14317017,0.02505590
2924.07197754,0.02516522
2926.00078491,0.02528503
2927.92959229,0.02520356
2929.85839966,0.02526284
2931.78720703,0.02534587
2933.71601440,0.02544277
2935.64482178,0.02536827
2937.57362915,0.02522052
2939.50243652,0.02537496
2941.43124390,0.02519215
2943.36005127,0.02513056
2945.28885864,0.02519128
2947.21766602,0.02502101
2949.14647339,0.02507304
2951.07528076,0.02494161
2953.00408813,0.02480626
2954.93289551,0.02472291
2956.86170288,0.02462677
2958.79051025,0.02466838
2960.71931763,0.02461871
2962.64812500,0.02458306
2964.57693237,0.02447251
2966.50573975,0.02436468
2968.43454712,0.02445170
2970.36335449,0.02455138
2972.29216187,0.02444296
2974.22096924,0.02439003
2976.14977661,0.02440401
2978.07858398,0.02430156
2980.00739136,0.02433075
2981.93619873,0.02431866
2983.86500610,0.02430151
2985.79381348,0.02422835
2987.72262085,0.02409639
2989.65142822,0.02411588
2991.58023560,0.02400008
2993.50904297,0.02391192
2995.43785034,0.02392681
2997.36665771,0.02380852
2999.29546509,0.02371133
3001.22427246,0.02365264
3003.15307983,0.02354048
3005.08188721,0.02358001
3007.01069458,0.02354378
3008.93950195,0.02328381
3010.86830933,0.02315853
3012.79711670,0.02315758
3014.72592407,0.02312692
3016.65473145,0.02299425
3018.58353882,0.02297309
3020.51234619,0.02293999
3022.44115356,0.02283506
3024.36996094,0.02272152
3026.29876831,0.02258196
3028.22757568,0.02262355
3030.15638306,0.02241863
3032.08519043,0.02233366
3034.01399780,0.02238845
3035.94280518,0.02227752
3037.87161255,0.02231304
3039.80041992,0.02213972
3041.72922729,0.02204301
3043.65803467,0.02200919
3045.58684204,0.02193617
3047.51564941,0.02180812
3049.44445679,0.02165390
3051.37326416,0.02176535
3053.30207153,0.02167300
3055.23087891,0.02149645
3057.15968628,0.02141027
3059.08849365,0.02142206
3061.01730103,0.02127867
3062.94610840,0.02120647
3064.87491577,0.02129408
3066.80372314,0.02103547
3068.73253052,0.02099463
3070.66133789,0.02085634
3072.59014526,0.02080601
3074.51895264,0.02086432
3076.44776001,0.02073534
3078.37656738,0.02075340
3080.30537476,0.02047488
3082.23418213,0.02046673
3084.16298950,0.02040582
3086.09179687,0.02027763
3088.02060425,0.02030033
3089.94941162,0.02007132
3091.87821899,0.02022470
3093.80702637,0.02010880
3095.73583374,0.01989533
3097.66464111,0.01988358
3099.59344849,0.01970234
3101.52225586,0.01969151
3103.45106323,0.01962266
3105.37987061,0.01954288
3107.30867798,0.01951204
3109.23748535,0.01941228
3111.16629272,0.01920263
3113.09510010,0.01914257
3115.02390747,0.01905548
3116.95271484,0.01885537
3118.88152222,0.01894615
3120.81032959,0.01891769
3122.73913696,0.01880562
3124.66794434,0.01872996
3126.59675171,0.01855916
3128.52555908,0.01841404
3130.45436645,0.01847362
3132.38317383,0.01840099
3134.31198120,0.01816950
3136.24078857,0.01823874
3138.16959595,0.01809677
3140.09840332,0.01800357
3142.02721069,0.01798195
3143.95601807,0.01778645
3145.88482544,0.01773768
3147.81363281,0.01767036
3149.74244019,0.01764040
3151.67124756,0.01748963
3153.60005493,0.01745626
3155.52886230,0.01736097
3157.45766968,0.01720769
3159.38647705,0.01723698
3161.31528442,0.01706917
3163.24409180,0.01709577
3165.17289917,0.01698650
3167.10170654,0.01685200
3169.03051392,0.01684925
3170.95932129,0.01666782
3172.88812866,0.01669031
3174.81693604,0.01661229
3176.74574341,0.01652401
3178.67455078,0.01646509
3180.60335815,0.01634047
3182.53216553,0.01630683
3184.46097290,0.01622392
3186.38978027,0.01620230
3188.31858765,0.01620062
3190.24739502,0.01614727
3192.17620239,0.01605286
3194.10500977,0.01600374
3196.03381714,0.01592439
3197.96262451,0.01581845
3199.89143188,0.01580257
3201.82023926,0.01574557
3203.74904663,0.01565514
3205.67785400,0.01564371
3207.60666138,0.01567843
3209.53546875,0.01558317
3211.46427612,0.01556905
3213.39308350,0.01548310
3215.32189087,0.01536359
3217.25069824,0.01551841
3219.17950562,0.01540670
3221.10831299,0.01521427
3223.03712036,0.01523567
3224.96592773,0.01527693
3226.89473511,0.01524874
3228.82354248,0.01510726
3230.75234985,0.01511328
3232.68115723,0.01516266
3234.60996460,0.01512745
3236.53877197,0.01509511
3238.46757935,0.01505547
3240.39638672,0.01507766
3242.32519409,0.01509734
3244.25400146,0.01503702
3246.18280884,0.01507309
3248.11161621,0.01509206
3250.04042358,0.01501379
3251.96923096,0.01495471
3253.89803833,0.01487736
3255.82684570,0.01503211
3257.75565308,0.01505652
3259.68446045,0.01494541
3261.61326782,0.01504239
3263.54207520,0.01492170
3265.47088257,0.01487801
3267.39968994,0.01488359
3269.32849731,0.01482877
3271.25730469,0.01494897
3273.18611206,0.01494487
3275.11491943,0.01493071
3277.04372681,0.01494028
3278.97253418,0.01489392
3280.90134155,0.01485968
3282.83014893,0.01482625
3284.75895630,0.01488755
3286.68776367,0.01493781
3288.61657104,0.01489353
3290.54537842,0.01489639
3292.47418579,0.01487357
3294.40299316,0.01483293
3296.33180054,0.01484353
3298.26060791,0.01476765
3300.18941528,0.01473706
3302.11822266,0.01477398
3304.04703003,0.01477947
3305.97583740,0.01471233
3307.90464478,0.01471364
3309.83345215,0.01473621
3311.76225952,0.01469880
3313.69106689,0.01480543
3315.61987427,0.01472237
3317.54868164,0.01480169
3319.47748901,0.01485674
3321.40629639,0.01459624
3323.33510376,0.01473786
3325.26391113,0.01473384
3327.19271851,0.01464582
3329.12152588,0.01470944
3331.05033325,0.01466084
3332.97914062,0.01465913
3334.90794800,0.01462604
3336.83675537,0.01465482
3338.76556274,0.01468722
3340.69437012,0.01474045
3342.62317749,0.01464560
3344.55198486,0.01457009
3346.48079224,0.01469669
3348.40959961,0.01469778
3350.33840698,0.01459486
3352.26721436,0.01458612
3354.19602173,0.01468702
3356.12482910,0.01457218
3358.05363647,0.01460352
3359.98244385,0.01460858
3361.91125122,0.01450962
3363.84005859,0.01457257
3365.76886597,0.01449812
3367.69767334,0.01458064
3369.62648071,0.01452476
3371.55528809,0.01458370
3373.48409546,0.01464602
3375.41290283,0.01453519
3377.34171020,0.01464094
3379.27051758,0.01455902
3381.19932495,0.01465735
3383.12813232,0.01463477
3385.05693970,0.01455224
3386.98574707,0.01455069
3388.91455444,0.01459159
3390.84336182,0.01478667
3392.77216919,0.01456050
3394.70097656,0.01459074
3396.62978394,0.01460344
3398.55859131,0.01456026
3400.48739868,0.01467475
3402.41620605,0.01458109
3404.34501343,0.01474554
3406.27382080,0.01469249
3408.20262817,0.01462094
3410.13143555,0.01476537
3412.06024292,0.01479183
3413.98905029,0.01473374
3415.91785767,0.01473438
3417.84666504,0.01483071
3419.77547241,0.01469054
3421.70427979,0.01457390
3423.63308716,0.01468034
3425.56189453,0.01480894
3427.49070190,0.01468319
3429.41950928,0.01470219
3431.34831665,0.01477058
3433.27712402,0.01467323
3435.20593140,0.01476372
3437.13473877,0.01475416
3439.06354614,0.01489176
3440.99235352,0.01477618
3442.92116089,0.01473159
3444.84996826,0.01491640
3446.77877563,0.01459824
3448.70758301,0.01471467
3450.63639038,0.01491452
3452.56519775,0.01484672
3454.49400513,0.01496814
3456.42281250,0.01495107
3458.35161987,0.01489430
3460.28042725,0.01498330
3462.20923462,0.01500591
3464.13804199,0.01491385
3466.06684937,0.01495190
3467.99565674,0.01504810
3469.92446411,0.01510222
3471.85327148,0.01499860
3473.78207886,0.01494477
3475.71088623,0.01498508
3477.63969360,0.01511869
3479.56850098,0.01507873
3481.49730835,0.01477776
3483.42611572,0.01502273
3485.35492310,0.01511248
3487.28373047,0.01505208
3489.21253784,0.01514517
3491.14134521,0.01513914
3493.07015259,0.01521046
3494.99895996,0.01509983
3496.92776733,0.01523280
3498.85657471,0.01523525
3500.78538208,0.01515065
3502.71418945,0.01497228
3504.64299683,0.01500961
3506.57180420,0.01546494
3508.50061157,0.01512263
3510.42941895,0.01514544
3512.35822632,0.01537474
3514.28703369,0.01532415
3516.21584106,0.01552539
3518.14464844,0.01539344
3520.07345581,0.01531853
3522.00226318,0.01524019
3523.93107056,0.01517270
3525.85987793,0.01517323
3527.78868530,0.01521371
3529.71749268,0.01530263
3531.64630005,0.01547384
3533.57510742,0.01569033
3535.50391479,0.01543235
3537.43272217,0.01535083
3539.36152954,0.01560857
3541.29033691,0.01562095
3543.21914429,0.01546356
3545.14795166,0.01516112
3547.07675903,0.01488397
3549.00556641,0.01550859
3550.93437378,0.01577713
3552.86318115,0.01522401
3554.79198853,0.01566467
3556.72079590,0.01583859
3558.64960327,0.01564894
3560.57841064,0.01548958
3562.50721802,0.01542258
3564.43602539,0.01553850
3566.36483276,0.01429553
3568.29364014,0.01400625
3570.22244751,0.01539212
3572.15125488,0.01591692
3574.08006226,0.01569207
3576.00886963,0.01571029
3577.93767700,0.01576994
3579.86648437,0.01569658
3581.79529175,0.01568456
3583.72409912,0.01577743
3585.65290649,0.01538900
3587.58171387,0.01390311
3589.51052124,0.01443550
3591.43932861,0.01599220
3593.36813599,0.01543086
3595.29694336,0.01511334
3597.22575073,0.01544699
3599.15455811,0.01563331
3601.08336548,0.01545557
3603.01217285,0.01570687
3604.94098022,0.01608427
3606.86978760,0.01532658
3608.79859497,0.01430203
3610.72740234,0.01465758
3612.65620972,0.01505724
3614.58501709,0.01454261
3616.51382446,0.01584880
3618.44263184,0.01454818
3620.37143921,0.01387589
3622.30024658,0.01612121
3624.22905395,0.01563894
3626.15786133,0.01646236
3628.08666870,0.01355619
3630.01547607,0.01193482
3631.94428345,0.01579842
3633.87309082,0.01541496
3635.80189819,0.01577554
3637.73070557,0.01619314
3639.65951294,0.01588297
3641.58832031,0.01610329
3643.51712769,0.01591295
3645.44593506,0.01600024
3647.37474243,0.01406147
3649.30354980,0.01279093
3651.23235718,0.01283516
3653.16116455,0.01586863
3655.08997192,0.01576386
3657.01877930,0.01370323
3658.94758667,0.01631345
3660.87639404,0.01596026
3662.80520142,0.01621050
3664.73400879,0.01609904
3666.66281616,0.01597893
3668.59162354,0.01547908
3670.52043091,0.01203030
3672.44923828,0.01524438
3674.37804565,0.01435685
3676.30685303,0.01155594
3678.23566040,0.01524989
3680.16446777,0.01551564
3682.09327515,0.01568626
3684.02208252,0.01617831
3685.95088989,0.01586106
3687.87969727,0.01408113
3689.80850464,0.01257966
3691.73731201,0.01466999
3693.66611938,0.01522311
3695.59492676,0.01571202
3697.52373413,0.01571724
3699.45254150,0.01553768
3701.38134888,0.01506216
3703.31015625,0.01437333
3705.23896362,0.01613630
3707.16777100,0.01523997
3709.09657837,0.01470197
3711.02538574,0.01369490
3712.95419312,0.01264641
3714.88300049,0.01529517
3716.81180786,0.01508838
3718.74061523,0.01512090
3720.66942261,0.01479919
3722.59822998,0.01416011
3724.52703735,0.01478303
3726.45584473,0.01361105
3728.38465210,0.01493312
3730.31345947,0.01477123
3732.24226685,0.01330717
3734.17107422,0.01293109
3736.09988159,0.01204026
3738.02868896,0.01294303
3739.95749634,0.01435323
3741.88630371,0.01506164
3743.81511108,0.01127814
3745.74391846,0.01036715
3747.67272583,0.01417761
3749.60153320,0.01191733
3751.53034058,0.01067909
3753.45914795,0.01272730
3755.38795532,0.01388393
3757.31676270,0.01461039
3759.24557007,0.01322822
3761.17437744,0.01371911
3763.10318481,0.01483334
3765.03199219,0.01366090
3766.96079956,0.01407036
3768.88960693,0.01380567
3770.81841431,0.01307589
3772.74722168,0.01444035
3774.67602905,0.01446755
3776.60483643,0.01446178
3778.53364380,0.01388905
3780.46245117,0.01329393
3782.39125854,0.01442965
3784.32006592,0.01395440
3786.24887329,0.01383929
3788.17768066,0.01426183
3790.10648804,0.01415632
3792.03529541,0.01407543
3793.96410278,0.01437661
3795.89291016,0.01335591
3797.82171753,0.01305932
3799.75052490,0.01394913
3801.67933228,0.01063470
3803.60813965,0.01265331
3805.53694702,0.01401655
3807.46575439,0.01101819
3809.39456177,0.01383813
3811.32336914,0.01356430
3813.25217651,0.01402704
3815.18098389,0.01255257
3817.10979126,0.01071611
3819.03859863,0.01408782
3820.96740601,0.01085997
3822.89621338,0.01157425
3824.82502075,0.01407791
3826.75382812,0.01237892
3828.68263550,0.01356459
3830.61144287,0.01297462
3832.54025024,0.01238620
3834.46905762,0.01268616
3836.39786499,0.01191694
3838.32667236,0.01063770
3840.25547974,0.01160222
3842.18428711,0.01263542
3844.11309448,0.01201185
3846.04190186,0.01320042
3847.97070923,0.01305387
3849.89951660,0.01304019
3851.82832397,0.01149555
3853.75713135,0.00824479
3855.68593872,0.01004088
3857.61474609,0.01296883
3859.54355347,0.01264376
3861.47236084,0.01242720
3863.40116821,0.01217128
3865.32997559,0.01114275
3867.25878296,0.01272957
3869.18759033,0.01145664
3871.11639770,0.01029797
3873.04520508,0.01277985
3874.97401245,0.01145707
3876.90281982,0.01257308
3878.83162720,0.01295123
3880.76043457,0.01059639
3882.68924194,0.01266801
3884.61804932,0.01169079
3886.54685669,0.01049415
3888.47566406,0.01278193
3890.40447144,0.01195935
3892.33327881,0.01104124
3894.26208618,0.01227511
3896.19089355,0.01257566
3898.11970093,0.01195079
3900.04850830,0.01113714
3901.97731567,0.01086479
3903.90612305,0.01077311
3905.83493042,0.01105714
3907.76373779,0.01231398
3909.69254517,0.01232193
3911.62135254,0.01215831
3913.55015991,0.01242556
3915.47896728,0.01190813
3917.40777466,0.01142253
3919.33658203,0.01135058
3921.26538940,0.01196534
3923.19419678,0.01189462
3925.12300415,0.01159611
3927.05181152,0.01179514
3928.98061890,0.01195738
3930.90942627,0.01176328
3932.83823364,0.01122783
3934.76704102,0.01178287
3936.69584839,0.01193208
3938.62465576,0.01183277
3940.55346313,0.01195835
3942.48227051,0.01133171
3944.41107788,0.01153841
3946.33988525,0.01175812
3948.26869263,0.01132888
3950.19750000,0.01136697
3952.12630737,0.01160306
3954.05511475,0.01160450
3955.98392212,0.01157862
3957.91272949,0.01156916
3959.84153687,0.01157328
3961.77034424,0.01142846
3963.69915161,0.01132897
3965.62795898,0.01160582
3967.55676636,0.01148859
3969.48557373,0.01136068
3971.41438110,0.01137102
3973.34318848,0.01130390
3975.27199585,0.01132481
3977.20080322,0.01136492
3979.12961060,0.01140644
3981.05841797,0.01120336
3982.98722534,0.01133147
3984.91603271,0.01127165
3986.84484009,0.01121593
3988.77364746,0.01126860
3990.70245483,0.01107295
3992.63126221,0.01125042
3994.56006958,0.01111037
3996.48887695,0.01109743
3998.41768433,0.01105423
4000.34649170,0.01095042
4002.27529907,0.01107708
4004.20410645,0.01097053
4006.13291382,0.01105575
4008.06172119,0.01095482
4009.99052856,0.01093997
4011.91933594,0.01089044
4013.84814331,0.01086544
4015.77695068,0.01097345
4017.70575806,0.01082430
4019.63456543,0.01079837
4021.56337280,0.01081642
4023.49218018,0.01087602
4025.42098755,0.01071124
4027.34979492,0.01072929
4029.27860229,0.01068343
4031.20740967,0.01059553
4033.13621704,0.01076406
4035.06502441,0.01060406
4036.99383179,0.01064442
4038.92263916,0.01054593
4040.85144653,0.01047747
4042.78025391,0.01045604
4044.70906128,0.01038602
4046.63786865,0.01050410
4048.56667603,0.01043949
4050.49548340,0.01049929
4052.42429077,0.01040605
4054.35309814,0.01039354
4056.28190552,0.01029878
4058.21071289,0.01023110
4060.13952026,0.01032571
4062.06832764,0.01023503
4063.99713501,0.01032150
4065.92594238,0.01024153
4067.85474976,0.01024598
4069.78355713,0.01014356
4071.71236450,0.01015537
4073.64117187,0.01021165
4075.56997925,0.01004683
4077.49878662,0.01016567
4079.42759399,0.01002898
4081.35640137,0.01005330
4083.28520874,0.01004821
4085.21401611,0.00999696
4087.14282349,0.01005271
4089.07163086,0.01000377
4091.00043823,0.00999290
4092.92924561,0.00977890
4094.85805298,0.00989379
4096.78686035,0.00986487
4098.71566772,0.00985201
4100.64447510,0.00989372
4102.57328247,0.00972202
4104.50208984,0.00977481
4106.43089722,0.00965442
4108.35970459,0.00974875
4110.28851196,0.00971946
4112.21731934,0.00962536
4114.14612671,0.00972025
4116.07493408,0.00966225
4118.00374145,0.00965401
4119.93254883,0.00962268
4121.86135620,0.00968014
4123.79016357,0.00956386
4125.71897095,0.00948829
4127.64777832,0.00951808
4129.57658569,0.00951242
4131.50539307,0.00945697
4133.43420044,0.00933971
4135.36300781,0.00940600
4137.29181519,0.00939749
4139.22062256,0.00941258
4141.14942993,0.00931702
4143.07823730,0.00935659
4145.00704468,0.00935933
4146.93585205,0.00919065
4148.86465942,0.00928937
4150.79346680,0.00922129
4152.72227417,0.00925144
4154.65108154,0.00919690
4156.57988892,0.00912637
4158.50869629,0.00918900
4160.43750366,0.00908227
4162.36631103,0.00907995
4164.29511841,0.00906367
4166.22392578,0.00908825
4168.15273315,0.00902222
4170.08154053,0.00900720
4172.01034790,0.00902187
4173.93915527,0.00899432
4175.86796265,0.00900529
4177.79677002,0.00892517
4179.72557739,0.00896326
4181.65438477,0.00887921
4183.58319214,0.00888990
4185.51199951,0.00888152
4187.44080688,0.00880962
4189.36961426,0.00889616
4191.29842163,0.00883252
4193.22722900,0.00881853
4195.15603638,0.00881083
4197.08484375,0.00878312
4199.01365112,0.00868052
4200.94245850,0.00868469
4202.87126587,0.00870463
4204.80007324,0.00857898
4206.72888062,0.00862082
4208.65768799,0.00857638
4210.58649536,0.00865089
4212.51530273,0.00866257
4214.44411011,0.00851713
4216.37291748,0.00855468
4218.30172485,0.00845883
4220.23053223,0.00836569
4222.15933960,0.00842901
4224.08814697,0.00842114
4226.01695435,0.00836107
4227.94576172,0.00836439
4229.87456909,0.00831864
4231.80337646,0.00831466
4233.73218384,0.00832695
4235.66099121,0.00831218
4237.58979858,0.00834489
4239.51860596,0.00832882
4241.44741333,0.00828485
4243.37622070,0.00818091
4245.30502808,0.00824185
4247.23383545,0.00826755
4249.16264282,0.00818013
4251.09145020,0.00816252
4253.02025757,0.00814486
4254.94906494,0.00819860
4256.87787231,0.00809724
4258.80667969,0.00806279
4260.73548706,0.00805755
4262.66429443,0.00804107
4264.59310181,0.00813803
4266.52190918,0.00813226
4268.45071655,0.00808961
4270.37952393,0.00796504
4272.30833130,0.00795125
4274.23713867,0.00794793
4276.16594604,0.00797748
4278.09475342,0.00796932
4280.02356079,0.00782605
4281.95236816,0.00785150
4283.88117554,0.00783852
4285.80998291,0.00787491
4287.73879028,0.00781912
4289.66759766,0.00776540
4291.59640503,0.00776731
4293.52521240,0.00770013
4295.45401978,0.00778703
4297.38282715,0.00772158
4299.31163452,0.00769534
4301.24044189,0.00771035
4303.16924927,0.00765198
4305.09805664,0.00765804
4307.02686401,0.00763901
4308.95567139,0.00758605
4310.88447876,0.00757668
4312.81328613,0.00768497
4314.74209351,0.00761525
4316.67090088,0.00755159
4318.59970825,0.00750794
4320.52851562,0.00746373
4322.45732300,0.00754478
4324.38613037,0.00749103
4326.31493774,0.00747214
4328.24374512,0.00744098
4330.17255249,0.00736391
4332.10135986,0.00732235
4334.03016724,0.00737503
4335.95897461,0.00739837
4337.88778198,0.00737386
4339.81658936,0.00743438
4341.74539673,0.00734480
4343.67420410,0.00732369
4345.60301147,0.00727135
4347.53181885,0.00723323
4349.46062622,0.00728830
4351.38943359,0.00720244
4353.31824097,0.00723573
4355.24704834,0.00720671
4357.17585571,0.00713059
4359.10466309,0.00714287
4361.03347046,0.00714568
4362.96227783,0.00718450
4364.89108520,0.00719042
4366.81989258,0.00712063
4368.74869995,0.00705965
4370.67750732,0.00705018
4372.60631470,0.00699855
4374.53512207,0.00701009
4376.46392944,0.00703327
4378.39273682,0.00703899
4380.32154419,0.00704445
4382.25035156,0.00700506
4384.17915894,0.00696097
4386.10796631,0.00689850
4388.03677368,0.00690878
4389.96558105,0.00686124
4391.89438843,0.00683837
4393.82319580,0.00685841
4395.75200317,0.00684650
4397.68081055,0.00688385
4399.60961792,0.00683735
4401.53842529,0.00678369
4403.46723267,0.00675374
4405.39604004,0.00673622
4407.32484741,0.00669227
4409.25365478,0.00671045
4411.18246216,0.00676694
4413.11126953,0.00671316
4415.04007690,0.00668773
4416.96888428,0.00666133
4418.89769165,0.00666296
4420.82649902,0.00666266
4422.75530640,0.00667674
4424.68411377,0.00663415
4426.61292114,0.00649950
4428.54172852,0.00653129
4430.47053589,0.00656150
4432.39934326,0.00645613
4434.32815063,0.00645863
4436.25695801,0.00650711
4438.18576538,0.00642555
4440.11457275,0.00645451
4442.04338013,0.00639450
4443.97218750,0.00637363
4445.90099487,0.00651054
4447.82980225,0.00640197
4449.75860962,0.00641794
4451.68741699,0.00638974
4453.61622437,0.00634917
4455.54503174,0.00639410
4457.47383911,0.00634130
4459.40264648,0.00636148
4461.33145386,0.00628070
4463.26026123,0.00634167
4465.18906860,0.00628136
4467.11787598,0.00615580
4469.04668335,0.00623378
4470.97549072,0.00623578
4472.90429810,0.00620497
4474.83310547,0.00612311
4476.76191284,0.00617816
4478.69072021,0.00614358
4480.61952759,0.00616034
4482.54833496,0.00616347
4484.47714233,0.00602622
4486.40594971,0.00610074
4488.33475708,0.00605713
4490.26356445,0.00607299
4492.19237183,0.00607975
4494.12117920,0.00602943
4496.04998657,0.00599765
4497.97879395,0.00597540
4499.90760132,0.00595310
4501.83640869,0.00582729
4503.76521606,0.00600546
4505.69402344,0.00593330
4507.62283081,0.00585063
4509.55163818,0.00603255
4511.48044556,0.00588055
4513.40925293,0.00582525
4515.33806030,0.00584650
4517.26686768,0.00579820
4519.19567505,0.00576453
4521.12448242,0.00584258
4523.05328979,0.00583179
4524.98209717,0.00570852
4526.91090454,0.00575504
4528.83971191,0.00574393
4530.76851929,0.00573840
4532.69732666,0.00565911
4534.62613403,0.00565732
4536.55494141,0.00575753
4538.48374878,0.00569930
4540.41255615,0.00564817
4542.34136353,0.00567720
4544.27017090,0.00570984
4546.19897827,0.00555976
4548.12778564,0.00554469
4550.05659302,0.00558371
4551.98540039,0.00550553
4553.91420776,0.00556738
4555.84301514,0.00552988
4557.77182251,0.00549592
4559.70062988,0.00554414
4561.62943726,0.00545098
4563.55824463,0.00538564
4565.48705200,0.00548528
4567.41585937,0.00547939
4569.34466675,0.00542319
4571.27347412,0.00542538
4573.20228149,0.00537943
4575.13108887,0.00539419
4577.05989624,0.00532124
4578.98870361,0.00529490
4580.91751099,0.00534267
4582.84631836,0.00532747
4584.77512573,0.00537863
4586.70393311,0.00532634
4588.63274048,0.00528135
4590.56154785,0.00530030
4592.49035522,0.00524719
4594.41916260,0.00523607
4596.34796997,0.00528588
4598.27677734,0.00533865
4600.20558472,0.00528616
4602.13439209,0.00518862
4604.06319946,0.00525569
4605.99200684,0.00526435
4607.92081421,0.00517261
4609.84962158,0.00515905
4611.77842895,0.00510280
4613.70723633,0.00516411
4615.63604370,0.00520176
4617.56485107,0.00512053
4619.49365845,0.00507343
4621.42246582,0.00501087
4623.35127319,0.00502072
4625.28008057,0.00501094
4627.20888794,0.00503876
4629.13769531,0.00499499
4631.06650269,0.00497081
4632.99531006,0.00501789
4634.92411743,0.00498112
4636.85292480,0.00503858
4638.78173218,0.00493712
4640.71053955,0.00492199
4642.63934692,0.00499796
4644.56815430,0.00495917
4646.49696167,0.00493119
4648.42576904,0.00482558
4650.35457642,0.00487330
4652.28338379,0.00486684
4654.21219116,0.00481790
4656.14099853,0.00479701
4658.06980591,0.00476567
4659.99861328,0.00479534
4661.92742065,0.00476095
4663.85622803,0.00479519
4665.78503540,0.00480842
4667.71384277,0.00484573
4669.64265015,0.00476661
4671.57145752,0.00470976
4673.50026489,0.00481405
4675.42907227,0.00473579
4677.35787964,0.00469224
4679.28668701,0.00470584
4681.21549438,0.00469602
4683.14430176,0.00459167
4685.07310913,0.00458165
4687.00191650,0.00465084
4688.93072388,0.00456847
4690.85953125,0.00459730
4692.78833862,0.00464206
4694.71714600,0.00463029
4696.64595337,0.00455547
4698.57476074,0.00457186
4700.50356812,0.00464034
4702.43237549,0.00460781
4704.36118286,0.00456256
4706.28999023,0.00448233
4708.21879761,0.00455093
4710.14760498,0.00453408
4712.07641235,0.00444968
4714.00521973,0.00449846
4715.93402710,0.00453299
4717.86283447,0.00445327
4719.79164185,0.00438996
4721.72044922,0.00449301
4723.64925659,0.00441776
4725.57806396,0.00437959
4727.50687134,0.00444126
4729.43567871,0.00440220
4731.36448608,0.00442240
4733.29329346,0.00442667
4735.22210083,0.00440710
4737.15090820,0.00438572
4739.07971558,0.00438455
4741.00852295,0.00435600
4742.93733032,0.00437250
4744.86613770,0.00430195
4746.79494507,0.00427755
4748.72375244,0.00432592
4750.65255981,0.00424366
4752.58136719,0.00432534
4754.51017456,0.00421259
4756.43898193,0.00420911
4758.36778931,0.00432268
4760.29659668,0.00416992
4762.22540405,0.00423545
4764.15421143,0.00421567
4766.08301880,0.00417390
4768.01182617,0.00416206
4769.94063354,0.00413077
4771.86944092,0.00421217
4773.79824829,0.00415747
4775.72705566,0.00410341
4777.65586304,0.00407568
4779.58467041,0.00410947
4781.51347778,0.00411620
4783.44228516,0.00406926
4785.37109253,0.00406741
4787.29989990,0.00405495
4789.22870728,0.00404910
4791.15751465,0.00403095
4793.08632202,0.00404166
4795.01512939,0.00403787
4796.94393677,0.00402758
4798.87274414,0.00395469
4800.80155151,0.00393525
4802.73035889,0.00397063
4804.65916626,0.00396121
4806.58797363,0.00398032
4808.51678101,0.00394341
4810.44558838,0.00392392
4812.37439575,0.00385533
4814.30320312,0.00386781
4816.23201050,0.00387831
4818.16081787,0.00386061
4820.08962524,0.00398636
4822.01843262,0.00391256
4823.94723999,0.00383393
4825.87604736,0.00384880
4827.80485474,0.00384415
4829.73366211,0.00383475
4831.66246948,0.00386185
4833.59127686,0.00387635
4835.52008423,0.00378320
4837.44889160,0.00380337
4839.37769897,0.00376396
4841.30650635,0.00377687
4843.23531372,0.00379401
4845.16412109,0.00371987
4847.09292847,0.00377950
4849.02173584,0.00372611
4850.95054321,0.00368560
4852.87935059,0.00370944
4854.80815796,0.00373158
4856.73696533,0.00366136
4858.66577270,0.00355947
4860.59458008,0.00366483
4862.52338745,0.00370341
4864.45219482,0.00366714
4866.38100220,0.00366915
4868.30980957,0.00367490
4870.23861694,0.00365065
4872.16742432,0.00365758
4874.09623169,0.00363750
4876.02503906,0.00354266
4877.95384644,0.00357637
4879.88265381,0.00356276
4881.81146118,0.00351449
4883.74026855,0.00353018
4885.66907593,0.00353615
4887.59788330,0.00356731
4889.52669067,0.00355930
4891.45549805,0.00354353
4893.38430542,0.00353213
4895.31311279,0.00348336
4897.24192017,0.00345603
4899.17072754,0.00351145
4901.09953491,0.00352888
4903.02834228,0.00342275
4904.95714966,0.00339545
4906.88595703,0.00351652
4908.81476440,0.00349180
4910.74357178,0.00340663
4912.67237915,0.00345191
4914.60118652,0.00343443
4916.52999390,0.00342330
4918.45880127,0.00339186
4920.38760864,0.00336340
4922.31641602,0.00333137
4924.24522339,0.00331234
4926.17403076,0.00340442
4928.10283813,0.00334161
4930.03164551,0.00334586
4931.96045288,0.00334373
4933.88926025,0.00329342
4935.81806763,0.00337272
4937.74687500,0.00330861
4939.67568237,0.00331501
4941.60448975,0.00333336
4943.53329712,0.00328355
4945.46210449,0.00327328
4947.39091187,0.00325513
4949.31971924,0.00329300
4951.24852661,0.00326997
4953.17733398,0.00322443
4955.10614136,0.00319986
4957.03494873,0.00320889
4958.96375610,0.00319614
4960.89256348,0.00316236
4962.82137085,0.00321118
4964.75017822,0.00320551
4966.67898560,0.00316832
4968.60779297,0.00319442
4970.53660034,0.00316352
4972.46540771,0.00308756
4974.39421509,0.00309048
4976.32302246,0.00307548
4978.25182983,0.00310710
4980.18063721,0.00316431
4982.10944458,0.00314238
4984.03825195,0.00310218
4985.96705933,0.00304130
4987.89586670,0.00307210
4989.82467407,0.00306686
4991.75348145,0.00304955
4993.68228882,0.00304092
4995.61109619,0.00302698
4997.53990356,0.00311097
4999.46871094,0.00308406
5001.39751831,0.00303442
5003.32632568,0.00296900
5005.25513306,0.00298850
5007.18394043,0.00307120
5009.11274780,0.00302523
5011.04155518,0.00304215
5012.97036255,0.00300245
5014.89916992,0.00296823
5016.82797729,0.00297180
5018.75678467,0.00293682
5020.68559204,0.00295767
5022.61439941,0.00295142
5024.54320679,0.00293462
5026.47201416,0.00294165
5028.40082153,0.00294295
5030.32962891,0.00292337
5032.25843628,0.00290864
5034.18724365,0.00288846
5036.11605103,0.00290544
5038.04485840,0.00287147
5039.97366577,0.00285119
5041.90247314,0.00291873
5043.83128052,0.00287677
5045.76008789,0.00285009
5047.68889526,0.00283005
5049.61770264,0.00285418
5051.54651001,0.00287168
5053.47531738,0.00280383
5055.40412476,0.00277277
5057.33293213,0.00276310
5059.26173950,0.00281247
5061.19054687,0.00275196
5063.11935425,0.00274537
5065.04816162,0.00276646
5066.97696899,0.00278532
5068.90577637,0.00285322
5070.83458374,0.00270103
5072.76339111,0.00266967
5074.69219849,0.00271499
5076.62100586,0.00273858
5078.54981323,0.00270513
5080.47862061,0.00260903
5082.40742798,0.00270417
5084.33623535,0.00272351
5086.26504272,0.00268697
5088.19385010,0.00268297
5090.12265747,0.00271621
5092.05146484,0.00266063
5093.98027222,0.00261140
5095.90907959,0.00269349
5097.83788696,0.00262756
5099.76669434,0.00261391
5101.69550171,0.00260169
5103.62430908,0.00263324
5105.55311645,0.00265029
5107.48192383,0.00254665
5109.41073120,0.00266152
5111.33953857,0.00269550
5113.26834595,0.00260213
5115.19715332,0.00264746
5117.12596069,0.00268482
5119.05476807,0.00258897
5120.98357544,0.00252192
5122.91238281,0.00250951
5124.84119019,0.00248044
5126.76999756,0.00248956
5128.69880493,0.00251518
5130.62761230,0.00258406
5132.55641968,0.00252768
5134.48522705,0.00246233
5136.41403442,0.00249467
5138.34284180,0.00252518
5140.27164917,0.00249800
5142.20045654,0.00242838
5144.12926392,0.00251056
5146.05807129,0.00243538
5147.98687866,0.00241247
5149.91568603,0.00249974
5151.84449341,0.00240843
5153.77330078,0.00244632
5155.70210815,0.00240093
5157.63091553,0.00237476
5159.55972290,0.00245902
5161.48853027,0.00242037
5163.41733765,0.00241550
5165.34614502,0.00244668
5167.27495239,0.00240495
5169.20375977,0.00227789
5171.13256714,0.00229403
5173.06137451,0.00239292
5174.99018188,0.00239260
5176.91898926,0.00239312
5178.84779663,0.00244408
5180.77660400,0.00245280
5182.70541138,0.00237558
5184.63421875,0.00231797
5186.56302612,0.00229447
5188.49183350,0.00235768
5190.42064087,0.00231748
5192.34944824,0.00225340
5194.27825562,0.00234338
5196.20706299,0.00224572
5198.13587036,0.00224037
5200.06467773,0.00236360
5201.99348511,0.00226311
5203.92229248,0.00222862
5205.85109985,0.00219299
5207.77990723,0.00211167
5209.70871460,0.00220603
5211.63752197,0.00227678
5213.56632935,0.00227046
5215.49513672,0.00222536
5217.42394409,0.00220031
5219.35275146,0.00220732
5221.28155884,0.00222092
5223.21036621,0.00228771
5225.13917358,0.00213671
5227.06798096,0.00208568
5228.99678833,0.00221532
5230.92559570,0.00211946
5232.85440308,0.00213117
5234.78321045,0.00217165
5236.71201782,0.00215721
5238.64082520,0.00217464
5240.56963257,0.00214010
5242.49843994,0.00215131
5244.42724731,0.00211767
5246.35605469,0.00210543
5248.28486206,0.00204186
5250.21366943,0.00203808
5252.14247681,0.00214986
5254.07128418,0.00200849
5256.00009155,0.00200168
5257.92889893,0.00218200
5259.85770630,0.00210211
5261.78651367,0.00208846
5263.71532104,0.00206340
5265.64412842,0.00194970
5267.57293579,0.00210392
5269.50174316,0.00210440
5271.43055054,0.00207453
5273.35935791,0.00215928
5275.28816528,0.00206704
5277.21697266,0.00206872
5279.14578003,0.00199574
5281.07458740,0.00200309
5283.00339478,0.00208349
5284.93220215,0.00198028
5286.86100952,0.00198276
5288.78981689,0.00195265
5290.71862427,0.00195385
5292.64743164,0.00197032
5294.57623901,0.00199720
5296.50504639,0.00207482
5298.43385376,0.00200379
5300.36266113,0.00197261
5302.29146851,0.00189837
5304.22027588,0.00191038
5306.14908325,0.00205221
5308.07789062,0.00197788
5310.00669800,0.00195195
5311.93550537,0.00197769
5313.86431274,0.00190268
5315.79312012,0.00194293
5317.72192749,0.00195443
5319.65073486,0.00195253
5321.57954224,0.00199940
5323.50834961,0.00193152
5325.43715698,0.00194683
5327.36596436,0.00188815
5329.29477173,0.00179124
5331.22357910,0.00189552
5333.15238647,0.00185514
5335.08119385,0.00182258
5337.01000122,0.00190445
5338.93880859,0.00183445
5340.86761597,0.00180838
5342.79642334,0.00188116
5344.72523071,0.00184177
5346.65403809,0.00185489
5348.58284546,0.00189846
5350.51165283,0.00182958
5352.44046020,0.00180229
5354.36926758,0.00174519
5356.29807495,0.00180538
5358.22688232,0.00190879
5360.15568970,0.00182465
5362.08449707,0.00179966
5364.01330444,0.00183045
5365.94211182,0.00175050
5367.87091919,0.00171572
5369.79972656,0.00184240
5371.72853394,0.00179257
5373.65734131,0.00180310
5375.58614868,0.00182616
5377.51495605,0.00167699
5379.44376343,0.00181696
5381.37257080,0.00178674
5383.30137817,0.00175737
5385.23018555,0.00183865
5387.15899292,0.00171012
5389.08780029,0.00172886
5391.01660767,0.00169543
5392.94541504,0.00170093
5394.87422241,0.00167672
5396.80302978,0.00163662
5398.73183716,0.00171937
5400.66064453,0.00167212
5402.58945190,0.00169437
5404.51825928,0.00169187
5406.44706665,0.00166623
5408.37587402,0.00164595
5410.30468140,0.00160540
5412.23348877,0.00163232
5414.16229614,0.00161240
5416.09110352,0.00161624
5418.01991089,0.00163137
5419.94871826,0.00164079
5421.87752563,0.00165260
5423.80633301,0.00166188
5425.73514038,0.00163621
5427.66394775,0.00160752
5429.59275513,0.00160136
5431.52156250,0.00162912
5433.45036987,0.00169036
5435.37917725,0.00161420
5437.30798462,0.00158840
5439.23679199,0.00159685
5441.16559936,0.00155820
5443.09440674,0.00156043
5445.02321411,0.00156521
5446.95202148,0.00163737
5448.88082886,0.00161102
5450.80963623,0.00155793
5452.73844360,0.00155481
5454.66725098,0.00155007
5456.59605835,0.00160480
5458.52486572,0.00158553
5460.45367310,0.00156492
5462.38248047,0.00154945
5464.31128784,0.00143201
5466.24009521,0.00149912
5468.16890259,0.00163756
5470.09770996,0.00152472
5472.02651733,0.00152231
5473.95532471,0.00151626
5475.88413208,0.00146894
5477.81293945,0.00151405
5479.74174683,0.00143999
5481.67055420,0.00156743
5483.59936157,0.00154745
5485.52816895,0.00143797
5487.45697632,0.00151920
5489.38578369,0.00143046
5491.31459106,0.00146207
5493.24339844,0.00144224
5495.17220581,0.00142245
5497.10101318,0.00151188
5499.02982056,0.00147453
5500.95862793,0.00149964
5502.88743530,0.00144957
5504.81624268,0.00139983
5506.74505005,0.00148846
5508.67385742,0.00153230
5510.60266479,0.00147403
5512.53147217,0.00145802
5514.46027954,0.00148245
5516.38908691,0.00142496
5518.31789429,0.00140287
5520.24670166,0.00146802
5522.17550903,0.00143434
5524.10431641,0.00138016
5526.03312378,0.00150772
5527.96193115,0.00141687
5529.89073853,0.00137920
5531.81954590,0.00151829
5533.74835327,0.00141583
5535.67716064,0.00144772
5537.60596802,0.00132995
5539.53477539,0.00122787
5541.46358276,0.00138960
5543.39239014,0.00137125
5545.32119751,0.00141180
5547.25000488,0.00140475
5549.17881226,0.00137206
5551.10761963,0.00138523
5553.03642700,0.00135837
5554.96523437,0.00140688
5556.89404175,0.00136234
5558.82284912,0.00136226
5560.75165649,0.00142506
5562.68046387,0.00137835
5564.60927124,0.00139119
5566.53807861,0.00140683
5568.46688599,0.00130721
5570.39569336,0.00131153
5572.32450073,0.00133624
5574.25330811,0.00130253
5576.18211548,0.00131075
5578.11092285,0.00133402
5580.03973022,0.00136729
5581.96853760,0.00124747
5583.89734497,0.00124626
5585.82615234,0.00131249
5587.75495972,0.00124474
5589.68376709,0.00134329
5591.61257446,0.00133196
5593.54138184,0.00126498
5595.47018921,0.00131396
5597.39899658,0.00131032
5599.32780395,0.00130720
5601.25661133,0.00128255
5603.18541870,0.00124173
5605.11422607,0.00125549
5607.04303345,0.00128643
5608.97184082,0.00124346
5610.90064819,0.00127841
5612.82945557,0.00127961
5614.75826294,0.00122218
5616.68707031,0.00124453
5618.61587769,0.00120878
5620.54468506,0.00125102
5622.47349243,0.00124539
5624.40229980,0.00115088
5626.33110718,0.00117317
5628.25991455,0.00124062
5630.18872192,0.00120269
5632.11752930,0.00118255
5634.04633667,0.00127733
5635.97514404,0.00117029
5637.90395142,0.00116446
5639.83275879,0.00126968
5641.76156616,0.00118139
5643.69037353,0.00117458
5645.61918091,0.00117192
5647.54798828,0.00116345
5649.47679565,0.00117903
5651.40560303,0.00119060
5653.33441040,0.00120635
5655.26321777,0.00118427
5657.19202515,0.00114168
5659.12083252,0.00107894
5661.04963989,0.00113904
5662.97844727,0.00118179
5664.90725464,0.00110079
5666.83606201,0.00106840
5668.76486938,0.00112839
5670.69367676,0.00112422
5672.62248413,0.00111558
5674.55129150,0.00116235
5676.48009888,0.00107261
5678.40890625,0.00109354
5680.33771362,0.00110587
5682.26652100,0.00106805
5684.19532837,0.00117897
5686.12413574,0.00114443
5688.05294311,0.00111982
5689.98175049,0.00111923
5691.91055786,0.00108983
5693.83936523,0.00108986
5695.76817261,0.00107947
5697.69697998,0.00112705
5699.62578735,0.00108946
5701.55459473,0.00110798
5703.48340210,0.00109664
5705.41220947,0.00105158
5707.34101685,0.00113099
5709.26982422,0.00109731
5711.19863159,0.00110564
5713.12743896,0.00110330
5715.05624634,0.00105156
5716.98505371,0.00108603
5718.91386108,0.00109931
5720.84266846,0.00113806
5722.77147583,0.00111328
5724.70028320,0.00110610
5726.62909058,0.00110422
5728.55789795,0.00104755
5730.48670532,0.00105786
5732.41551270,0.00099509
5734.34432007,0.00103110
5736.27312744,0.00110470
5738.20193481,0.00102442
5740.13074219,0.00101895
5742.05954956,0.00102901
5743.98835693,0.00105886
5745.91716431,0.00108389
5747.84597168,0.00103251
5749.77477905,0.00105923
5751.70358643,0.00107940
5753.63239380,0.00103240
5755.56120117,0.00100149
5757.49000854,0.00098249
5759.41881592,0.00097417
5761.34762329,0.00101359
5763.27643066,0.00103674
5765.20523804,0.00100366
5767.13404541,0.00096604
5769.06285278,0.00095537
5770.99166016,0.00100450
5772.92046753,0.00098306
5774.84927490,0.00098186
5776.77808228,0.00106719
5778.70688965,0.00102560
5780.63569702,0.00099897
5782.56450439,0.00103618
5784.49331177,0.00104114
5786.42211914,0.00099370
5788.35092651,0.00091876
5790.27973389,0.00092390
5792.20854126,0.00094281
5794.13734863,0.00096528
5796.06615601,0.00095777
5797.99496338,0.00096467
5799.92377075,0.00094778
5801.85257812,0.00089468
5803.78138550,0.00098401
5805.71019287,0.00093767
5807.63900024,0.00091950
5809.56780762,0.00101089
5811.49661499,0.00091734
5813.42542236,0.00091779
5815.35422974,0.00088804
5817.28303711,0.00088021
5819.21184448,0.00097475
5821.14065186,0.00091079
5823.06945923,0.00089065
5824.99826660,0.00086025
5826.92707397,0.00085812
5828.85588135,0.00092425
5830.78468872,0.00085612
5832.71349609,0.00082530
5834.64230347,0.00087357
5836.57111084,0.00087301
5838.49991821,0.00087029
5840.42872559,0.00087494
5842.35753296,0.00087625
5844.28634033,0.00093909
5846.21514770,0.00089804
5848.14395508,0.00084135
5850.07276245,0.00087486
5852.00156982,0.00083159
5853.93037720,0.00088144
5855.85918457,0.00086483
5857.78799194,0.00081441
5859.71679932,0.00087665
5861.64560669,0.00087163
5863.57441406,0.00086145
5865.50322144,0.00076057
5867.43202881,0.00079609
5869.36083618,0.00086309
5871.28964355,0.00079858
5873.21845093,0.00089273
5875.14725830,0.00086098
5877.07606567,0.00077750
5879.00487305,0.00080794
5880.93368042,0.00079212
5882.86248779,0.00078589
5884.79129517,0.00083782
5886.72010254,0.00084373
5888.64890991,0.00078687
5890.57771728,0.00085199
5892.50652466,0.00081808
5894.43533203,0.00074353
5896.36413940,0.00080701
5898.29294678,0.00078624
5900.22175415,0.00075247
5902.15056152,0.00072446
5904.07936890,0.00075524
5906.00817627,0.00082592
5907.93698364,0.00084151
5909.86579102,0.00086290
5911.79459839,0.00079104
5913.72340576,0.00075704
5915.65221313,0.00084198
5917.58102051,0.00080813
5919.50982788,0.00072951
5921.43863525,0.00074583
5923.36744263,0.00075594
5925.29625000,0.00077248
5927.22505737,0.00075710
5929.15386475,0.00074231
5931.08267212,0.00079099
5933.01147949,0.00078500
5934.94028686,0.00079853
5936.86909424,0.00077942
5938.79790161,0.00071426
5940.72670898,0.00071651
5942.65551636,0.00070878
5944.58432373,0.00070266
5946.51313110,0.00071649
5948.44193848,0.00074276
5950.37074585,0.00073977
5952.29955322,0.00072545
5954.22836060,0.00072165
5956.15716797,0.00071930
5958.08597534,0.00075507
5960.01478271,0.00074256
5961.94359009,0.00072519
5963.87239746,0.00071979
5965.80120483,0.00069284
5967.73001221,0.00071357
5969.65881958,0.00072938
5971.58762695,0.00072595
5973.51643433,0.00072374
5975.44524170,0.00072803
5977.37404907,0.00075172
5979.30285645,0.00074434
5981.23166382,0.00074918
5983.16047119,0.00074430
5985.08927856,0.00066067
5987.01808594,0.00065145
5988.94689331,0.00064685
5990.87570068,0.00062668
5992.80450806,0.00068242
5994.73331543,0.00067924
5996.66212280,0.00066623
5998.59093018,0.00063664
6000.51973755,0.00068856
