399.26312622,0.00067063
401.19193359,0.00073847
403.12074097,0.00101891
405.04954834,0.00068252
406.97835571,0.00059168
408.90716309,0.00104121
410.83597046,0.00040186
412.76477783,0.00046062
414.69358521,0.00107551
416.62239258,0.00078399
418.55119995,0.00078321
420.48000732,0.00065543
422.40881470,0.00095426
424.33762207,0.00109000
426.26642944,0.00098136
428.19523682,0.00137362
430.12404419,0.00073184
432.05285156,0.00084832
433.98165894,0.00129907
435.91046631,0.00088494
437.83927368,0.00110543
439.76808105,0.00104747
441.69688843,0.00094490
443.62569580,0.00053070
445.55450317,0.00021503
447.48331055,0.00105047
449.41211792,0.00106623
451.34092529,0.00068040
453.26973267,0.00067327
455.19854004,0.00041918
457.12734741,0.00057152
459.05615479,0.00101999
460.98496216,0.00098122
462.91376953,0.00060834
464.84257690,0.00074837
466.77138428,0.00122687
468.70019165,0.00076584
470.62899902,0.00012818
472.55780640,0.00065506
474.48661377,0.00063176
476.41542114,0.00033145
478.34422852,0.00041559
480.27303589,0.00018939
482.20184326,0.00080851
484.13065063,0.00056694
486.05945801,-0.00013140
487.98826538,0.00025675
489.91707275,0.00039582
491.84588013,0.00061307
493.77468750,0.00008171
495.70349487,0.00002874
497.63230225,0.00012821
499.56110962,-0.00007540
501.48991699,0.00038825
503.41872437,0.00012423
505.34753174,0.00014841
507.27633911,0.00019092
509.20514648,0.00059592
511.13395386,0.00051508
513.06276123,-0.00004707
514.99156860,0.00011761
516.92037598,0.00011122
518.84918335,0.00021669
520.77799072,-0.00002715
522.70679810,0.00012670
524.63560547,0.00022821
526.56441284,-0.00009857
528.49322021,0.00018357
530.42202759,0.00035174
532.35083496,0.00001725
534.27964233,-0.00007801
536.20844971,0.00036223
538.13725708,0.00013977
540.06606445,0.00001917
541.99487183,0.00032842
543.92367920,0.00000043
545.85248657,0.00016086
547.78129395,0.00025760
549.71010132,0.00006398
551.63890869,0.00021397
553.56771606,0.00019831
555.49652344,0.00024366
557.42533081,0.00007223
559.35413818,0.00011325
561.28294556,0.00025818
563.21175293,0.00003695
565.14056030,0.00004174
567.06936768,0.00009992
568.99817505,0.00058563
570.92698242,0.00033247
572.85578979,-0.00024492
574.78459717,0.00036706
576.71340454,0.00020277
578.64221191,0.00006237
580.57101929,0.00028953
582.49982666,-0.00005536
584.42863403,0.00020264
586.35744141,0.00018151
588.28624878,-0.00002749
590.21505615,0.00000219
592.14386353,0.00007759
594.07267090,0.00040035
596.00147827,0.00013226
597.93028564,-0.00002590
599.85909302,0.00037971
601.78790039,0.00040214
603.71670776,0.00011131
605.64551514,-0.00006906
607.57432251,-0.00004800
609.50312988,0.00021746
611.43193726,0.00029039
613.36074463,0.00012381
615.28955200,-0.00001474
617.21835938,0.00035535
619.14716675,0.00023236
621.07597412,-0.00012204
623.00478149,0.00024801
624.93358887,0.00031693
626.86239624,0.00010907
628.79120361,0.00007987
630.72001099,0.00030195
632.64881836,0.00043293
634.57762573,0.00065846
636.50643311,0.00097484
638.43524048,0.00107748
640.36404785,0.00099137
642.29285522,0.00087644
644.22166260,0.00122822
646.15046997,0.00164532
648.07927734,0.00132396
650.00808472,0.00086480
651.93689209,0.00120292
653.86569946,0.00129296
655.79450684,0.00126011
657.72331421,0.00178265
659.65212158,0.00159799
661.58092896,0.00135240
663.50973633,0.00151380
665.43854370,0.00144857
667.36735107,0.00151824
669.29615845,0.00169815
671.22496582,0.00182324
673.15377319,0.00188949
675.08258057,0.00194667
677.01138794,0.00189241
678.94019531,0.00187699
680.86900269,0.00206946
682.79781006,0.00204254
684.72661743,0.00194887
686.65542480,0.00209576
688.58423218,0.00195935
690.51303955,0.00197758
692.44184692,0.00255360
694.37065430,0.00261040
696.29946167,0.00276099
698.22826904,0.00339791
700.15707642,0.00347524
702.08588379,0.00316590
704.01469116,0.00290601
705.94349854,0.00283333
707.87230591,0.00246373
709.80111328,0.00178981
711.72992065,0.00142155
713.65872803,0.00111904
715.58753540,0.00049313
717.51634277,0.00018733
719.44515015,0.00054383
721.37395752,0.00033656
723.30276489,0.00009283
725.23157227,0.00023661
727.16037964,-0.00017359
729.08918701,-0.00017252
731.01799438,0.00012949
732.94680176,-0.00021478
734.87560913,0.00006337
736.80441650,0.00024649
738.73322388,-0.00006317
740.66203125,0.00037546
742.59083862,0.00018002
744.51964600,-0.00021889
746.44845337,0.00006412
748.37726074,0.00023042
750.30606812,0.00012152
752.23487549,0.00028992
754.16368286,0.00026355
756.09249023,-0.00021677
758.02129761,0.00024944
759.95010498,0.00042005
761.87891235,0.00024679
763.80771973,0.00028103
765.73652710,0.00006149
767.66533447,0.00018923
769.59414185,0.00016158
771.52294922,0.00031635
773.45175659,0.00035657
775.38056396,0.00021650
777.30937134,0.00039921
779.23817871,0.00035788
781.16698608,0.00026793
783.09579346,-0.00008986
785.02460083,0.00022357
786.95340820,0.00077483
788.88221558,0.00044092
790.81102295,0.00045208
792.73983032,0.00011472
794.66863770,0.00010018
796.59744507,0.00051104
798.52625244,0.00017169
800.45505981,0.00052308
802.38386719,0.00043350
804.31267456,0.00022235
806.24148193,0.00060426
808.17028931,0.00016463
810.09909668,0.00008221
812.02790405,0.00019440
813.95671143,0.00037228
815.88551880,0.00056870
817.81432617,0.00015216
819.74313354,0.00020563
821.67194092,0.00049809
823.60074829,0.00033367
825.52955566,0.00023030
827.45836304,0.00056300
829.38717041,0.00048862
831.31597778,0.00057767
833.24478516,0.00093212
835.17359253,0.00054240
837.10239990,0.00088331
839.03120728,0.00107034
840.96001465,0.00060731
842.88882202,0.00073219
844.81762939,0.00053262
846.74643677,0.00048863
848.67524414,0.00073070
850.60405151,0.00062417
852.53285889,0.00041828
854.46166626,0.00047144
856.39047363,0.00063233
858.31928101,0.00026380
860.24808838,0.00027391
862.17689575,0.00061982
864.10570313,0.00038958
866.03451050,0.00029864
867.96331787,0.00048328
869.89212524,0.00040862
871.82093262,0.00022002
873.74973999,0.00031283
875.67854736,0.00031452
877.60735474,0.00034016
879.53616211,0.00039696
881.46496948,0.00008378
883.39377686,0.00025397
885.32258423,0.00047442
887.25139160,0.00052089
889.18019897,0.00075647
891.10900635,0.00047051
893.03781372,0.00044340
894.96662109,0.00047954
896.89542847,0.00027881
898.82423584,0.00042467
900.75304321,0.00031547
902.68185059,0.00032501
904.61065796,0.00034175
906.53946533,0.00023769
908.46827271,0.00030927
910.39708008,0.00031477
912.32588745,0.00040430
914.25469482,0.00052723
916.18350220,0.00077249
918.11230957,0.00059522
920.04111694,0.00045782
921.96992432,0.00060512
923.89873169,0.00055240
925.82753906,0.00085559
927.75634644,0.00075142
929.68515381,0.00081502
931.61396118,0.00097578
933.54276855,0.00072588
935.47157593,0.00113925
937.40038330,0.00111429
939.32919067,0.00098495
941.25799805,0.00125439
943.18680542,0.00128596
945.11561279,0.00120422
947.04442017,0.00111102
948.97322754,0.00143406
950.90203491,0.00134139
952.83084229,0.00116686
954.75964966,0.00123097
956.68845703,0.00115782
958.61726440,0.00135101
960.54607178,0.00115145
962.47487915,0.00107179
964.40368652,0.00125755
966.33249390,0.00129357
968.26130127,0.00131880
970.19010864,0.00122587
972.11891602,0.00135938
974.04772339,0.00154507
975.97653076,0.00159718
977.90533813,0.00147488
979.83414551,0.00177929
981.76295288,0.00208070
983.69176025,0.00200027
985.62056763,0.00252918
987.54937500,0.00282758
989.47818237,0.00300523
991.40698975,0.00339287
993.33579712,0.00367076
995.26460449,0.00410721
997.19341187,0.00436426
999.12221924,0.00472327
1001.05102661,0.00507020
1002.97983398,0.00533594
1004.90864136,0.00571162
1006.83744873,0.00613594
1008.76625610,0.00656880
1010.69506348,0.00682018
1012.62387085,0.00706093
1014.55267822,0.00739538
1016.48148560,0.00777615
1018.41029297,0.00800645
1020.33910034,0.00852979
1022.26790771,0.00900673
1024.19671509,0.00929790
1026.12552246,0.00979336
1028.05432983,0.01000283
1029.98313721,0.01040271
1031.91194458,0.01056620
1033.84075195,0.01081125
1035.76955933,0.01119583
1037.69836670,0.01095171
1039.62717407,0.01109338
1041.55598145,0.01116692
1043.48478882,0.01099176
1045.41359619,0.01081717
1047.34240356,0.01069690
1049.27121094,0.01055060
1051.20001831,0.01017915
1053.12882568,0.01020965
1055.05763306,0.01004688
1056.98644043,0.00973731
1058.91524780,0.00951205
1060.84405518,0.00949026
1062.77286255,0.00934030
1064.70166992,0.00862159
1066.63047729,0.00834496
1068.55928467,0.00803388
1070.48809204,0.00758144
1072.41689941,0.00722711
1074.34570679,0.00692757
1076.27451416,0.00684260
1078.20332153,0.00646685
1080.13212891,0.00606640
1082.06093628,0.00574666
1083.98974365,0.00549982
1085.91855103,0.00524581
1087.84735840,0.00499027
1089.77616577,0.00485625
1091.70497314,0.00467195
1093.63378052,0.00444857
1095.56258789,0.00435747
1097.49139526,0.00428753
1099.42020264,0.00392030
1101.34901001,0.00387845
1103.27781738,0.00388976
1105.20662476,0.00381705
1107.13543213,0.00383046
1109.06423950,0.00360752
1110.99304687,0.00358732
1112.92185425,0.00353941
1114.85066162,0.00366581
1116.77946899,0.00365599
1118.70827637,0.00360463
1120.63708374,0.00378728
1122.56589111,0.00363079
1124.49469849,0.00373993
1126.42350586,0.00367473
1128.35231323,0.00371127
1130.28112061,0.00400377
1132.20992798,0.00411302
1134.13873535,0.00432333
1136.06754272,0.00423043
1137.99635010,0.00445989
1139.92515747,0.00474983
1141.85396484,0.00492309
1143.78277222,0.00527702
1145.71157959,0.00559851
1147.64038696,0.00624872
1149.56919434,0.00655619
1151.49800171,0.00671654
1153.42680908,0.00709963
1155.35561646,0.00741633
1157.28442383,0.00770185
1159.21323120,0.00792614
1161.14203857,0.00840836
1163.07084595,0.00854505
1164.99965332,0.00858377
1166.92846069,0.00914173
1168.85726807,0.00942981
1170.78607544,0.00981754
1172.71488281,0.01041499
1174.64369019,0.01073813
1176.57249756,0.01113402
1178.50130493,0.01143469
1180.43011230,0.01175315
1182.35891968,0.01217433
1184.28772705,0.01273817
1186.21653442,0.01356883
1188.14534180,0.01415329
1190.07414917,0.01488467
1192.00295654,0.01559394
1193.93176392,0.01596805
1195.86057129,0.01665744
1197.78937866,0.01753635
1199.71818604,0.01830927
1201.64699341,0.01917318
1203.57580078,0.02008682
1205.50460815,0.02059224
1207.43341553,0.02139284
1209.36222290,0.02212018
1211.29103027,0.02245794
1213.21983765,0.02333843
1215.14864502,0.02377626
1217.07745239,0.02432033
1219.00625977,0.02497561
1220.93506714,0.02509882
1222.86387451,0.02551933
1224.79268188,0.02565762
1226.72148926,0.02587121
1228.65029663,0.02609105
1230.57910400,0.02611287
1232.50791138,0.02634943
1234.43671875,0.02631538
1236.36552612,0.02633154
1238.29433350,0.02651337
1240.22314087,0.02655518
1242.15194824,0.02647704
1244.08075562,0.02634626
1246.00956299,0.02600422
1247.93837036,0.02585812
1249.86717773,0.02580443
1251.79598511,0.02554305
1253.72479248,0.02541122
1255.65359985,0.02497954
1257.58240723,0.02472598
1259.51121460,0.02446049
1261.44002197,0.02406250
1263.36882935,0.02381408
1265.29763672,0.02348045
1267.22644409,0.02338671
1269.15525146,0.02262564
1271.08405884,0.02227495
1273.01286621,0.02241084
1274.94167358,0.02181649
1276.87048096,0.02144405
1278.79928833,0.02093229
1280.72809570,0.02072730
1282.65690308,0.02027961
1284.58571045,0.01960786
1286.51451782,0.01964027
1288.44332520,0.01911824
1290.37213257,0.01896681
1292.30093994,0.01894471
1294.22974731,0.01860422
1296.15855469,0.01863033
1298.08736206,0.01842874
1300.01616943,0.01858136
1301.94497681,0.01861522
1303.87378418,0.01864824
1305.80259155,0.01910856
1307.73139893,0.01929708
1309.66020630,0.01958244
1311.58901367,0.01961295
1313.51782104,0.02008208
1315.44662842,0.02100253
1317.37543579,0.02105004
1319.30424316,0.02141754
1321.23305054,0.02239197
1323.16185791,0.02306237
1325.09066528,0.02362303
1327.01947266,0.02440289
1328.94828003,0.02516147
1330.87708740,0.02574298
1332.80589478,0.02644764
1334.73470215,0.02676180
1336.66350952,0.02682186
1338.59231689,0.02667025
1340.52112427,0.02682065
1342.44993164,0.02805661
1344.37873901,0.02845841
1346.30754639,0.02839796
1348.23635376,0.02843881
1350.16516113,0.02817481
1352.09396851,0.02824898
1354.02277588,0.02766192
1355.95158325,0.02749750
1357.88039062,0.02766381
1359.80919800,0.02705298
1361.73800537,0.02549872
1363.66681274,0.02499187
1365.59562012,0.02689210
1367.52442749,0.02595674
1369.45323486,0.02547472
1371.38204224,0.02642686
1373.31084961,0.02449206
1375.23965698,0.02485310
1377.16846436,0.02569065
1379.09727173,0.02553038
1381.02607910,0.02572541
1382.95488647,0.02551416
1384.88369385,0.02566037
1386.81250122,0.02413684
1388.74130859,0.02454550
1390.67011597,0.02699585
1392.59892334,0.02611238
1394.52773071,0.02417556
1396.45653809,0.02531352
1398.38534546,0.02543302
1400.31415283,0.02529236
1402.24296021,0.02774812
1404.17176758,0.02597919
1406.10057495,0.02603516
1408.02938232,0.02754397
1409.95818970,0.02617237
1411.88699707,0.02685781
1413.81580444,0.02585763
1415.74461182,0.02644664
1417.67341919,0.02350293
1419.60222656,0.02035637
1421.53103394,0.02450903
1423.45984131,0.02352526
1425.38864868,0.02291115
1427.31745605,0.02370064
1429.24626343,0.02133109
1431.17507080,0.02089401
1433.10387817,0.02141758
1435.03268555,0.01926711
1436.96149292,0.01588847
1438.89030029,0.01876566
1440.81910767,0.01962015
1442.74791504,0.01776148
1444.67672241,0.01900318
1446.60552979,0.01736378
1448.53433716,0.01735512
1450.46314453,0.01796932
1452.39195190,0.01852079
1454.32075928,0.01917790
1456.24956665,0.01500785
1458.17837402,0.01554730
1460.10718140,0.02159468
1462.03598877,0.02348263
1463.96479614,0.02307416
1465.89360352,0.02358121
1467.82241089,0.02742588
1469.75121826,0.02965656
1471.68002563,0.02545811
1473.60883301,0.02669016
1475.53764038,0.03117473
1477.46644775,0.03375828
1479.39525513,0.03727506
1481.32406250,0.03765367
1483.25286987,0.04019462
1485.18167725,0.04149800
1487.11048462,0.04019402
1489.03929199,0.03953708
1490.96809937,0.03968590
1492.89690674,0.04750474
1494.82571411,0.04628212
1496.75452148,0.04018701
1498.68332886,0.04624629
1500.61213623,0.04810286
1502.54094360,0.05194657
1504.46975098,0.04889134
1506.39855835,0.03277077
1508.32736572,0.04115345
1510.25617310,0.05047277
1512.18498047,0.04838407
1514.11378784,0.05346031
1516.04259521,0.04717752
1517.97140259,0.04906994
1519.90020996,0.04782123
1521.82901733,0.03963522
1523.75782471,0.05047349
1525.68663208,0.04957792
1527.61543945,0.04891727
1529.54424683,0.05578054
1531.47305420,0.05322060
1533.40186157,0.04762483
1535.33066895,0.05091053
1537.25947632,0.05571328
1539.18828369,0.03718464
1541.11709106,0.03852193
1543.04589844,0.04844446
1544.97470581,0.04574544
1546.90351318,0.05672924
1548.83232056,0.05250262
1550.76112793,0.05387903
1552.68993530,0.05428547
1554.61874268,0.04806690
1556.54755005,0.05224527
1558.47635742,0.03414422
1560.40516479,0.03696932
1562.33397217,0.05727208
1564.26277954,0.05364168
1566.19158691,0.05561172
1568.12039429,0.05480610
1570.04920166,0.04692683
1571.97800903,0.05609140
1573.90681641,0.05714183
1575.83562378,0.04315133
1577.76443115,0.04996468
1579.69323853,0.05779571
1581.62204590,0.05500332
1583.55085327,0.05677209
1585.47966064,0.05565706
1587.40846802,0.05617883
1589.33727539,0.05583403
1591.26608276,0.05572071
1593.19489014,0.05569489
1595.12369751,0.05492212
1597.05250488,0.05589994
1598.98131226,0.05543526
1600.91011963,0.05581698
1602.83892700,0.05441254
1604.76773437,0.05540203
1606.69654175,0.05462924
1608.62534912,0.05434393
1610.55415649,0.05435364
1612.48296387,0.05461352
1614.41177124,0.05562123
1616.34057861,0.04379475
1618.26938599,0.04801653
1620.19819336,0.05798440
1622.12700073,0.05000606
1624.05580811,0.05001345
1625.98461548,0.05343617
1627.91342285,0.05292691
1629.84223022,0.05278307
1631.77103760,0.05724268
1633.69984497,0.05199805
1635.62865234,0.04112622
1637.55745972,0.04926105
1639.48626709,0.05568270
1641.41507446,0.05438050
1643.34388184,0.05608521
1645.27268921,0.04986256
1647.20149658,0.04231956
1649.13030396,0.05500201
1651.05911133,0.05263482
1652.98791870,0.03035862
1654.91672607,0.04402027
1656.84553345,0.05847977
1658.77434082,0.05562632
1660.70314819,0.05764735
1662.63195557,0.05150854
1664.56076294,0.05480134
1666.48957031,0.06026196
1668.41837769,0.05094905
1670.34718506,0.04900576
1672.27599243,0.05744869
1674.20479980,0.05220536
1676.13360718,0.04959799
1678.06241455,0.05907937
1679.99122192,0.05671860
1681.92002930,0.05582037
1683.84883667,0.04382617
1685.77764404,0.04297864
1687.70645142,0.06272563
1689.63525879,0.05339304
1691.56406616,0.05961085
1693.49287354,0.06156454
1695.42168091,0.04202231
1697.35048828,0.05410275
1699.27929565,0.04651215
1701.20810303,0.04033587
1703.13691040,0.05931265
1705.06571777,0.05356982
1706.99452515,0.05393981
1708.92333252,0.05987652
1710.85213989,0.05720873
1712.78094727,0.05833147
1714.70975464,0.05319008
1716.63856201,0.04700718
1718.56736938,0.04583557
1720.49617676,0.05631525
1722.42498413,0.05951164
1724.35379150,0.05416843
1726.28259888,0.06016882
1728.21140625,0.05490357
1730.14021362,0.05489340
1732.06902100,0.05388219
1733.99782837,0.03860550
1735.92663574,0.05013580
1737.85544312,0.05711378
1739.78425049,0.04944736
1741.71305786,0.05441022
1743.64186523,0.05543800
1745.57067261,0.05534584
1747.49947998,0.05571605
1749.42828735,0.05290185
1751.35709473,0.05012723
1753.28590210,0.05672741
1755.21470947,0.05990703
1757.14351685,0.05342181
1759.07232422,0.06005262
1761.00113159,0.05569790
1762.92993896,0.05307805
1764.85874634,0.06282786
1766.78755371,0.05525806
1768.71636108,0.05584528
1770.64516846,0.05556996
1772.57397583,0.04849238
1774.50278320,0.05562357
1776.43159058,0.05951761
1778.36039795,0.05857605
1780.28920532,0.05754975
1782.21801270,0.05807514
1784.14682007,0.05811481
1786.07562744,0.05655970
1788.00443481,0.06041204
1789.93324219,0.05847277
1791.86204956,0.05144485
1793.79085693,0.05437993
1795.71966431,0.05927093
1797.64847168,0.05834343
1799.57727905,0.05717351
1801.50608643,0.05595006
1803.43489380,0.05828142
1805.36370117,0.05982228
1807.29250854,0.05882974
1809.22131592,0.05911669
1811.15012329,0.05712956
1813.07893066,0.05927984
1815.00773804,0.05976591
1816.93654541,0.05881870
1818.86535278,0.05945561
1820.79416016,0.05928763
1822.72296753,0.06026762
1824.65177490,0.05538987
1826.58058228,0.05788203
1828.50938965,0.05804708
1830.43819702,0.05331811
1832.36700439,0.05943871
1834.29581177,0.05929198
1836.22461914,0.05906747
1838.15342651,0.05875654
1840.08223389,0.05907226
1842.01104126,0.05935680
1843.93984863,0.05116367
1845.86865601,0.05535872
1847.79746338,0.05913391
1849.72627075,0.05747742
1851.65507812,0.05988486
1853.58388550,0.05833548
1855.51269287,0.05910163
1857.44150024,0.05866388
1859.37030762,0.05819365
1861.29911499,0.05891708
1863.22792236,0.05793327
1865.15672974,0.05870764
1867.08553711,0.05611371
1869.01434448,0.05319756
1870.94315186,0.05598111
1872.87195923,0.05865211
1874.80076660,0.05781556
1876.72957397,0.05815396
1878.65838135,0.05779234
1880.58718872,0.05739307
1882.51599609,0.05803964
1884.44480347,0.05688591
1886.37361084,0.05801789
1888.30241821,0.05631760
1890.23122559,0.05475054
1892.16003296,0.05774476
1894.08884033,0.05664421
1896.01764771,0.05630435
1897.94645508,0.05742217
1899.87526245,0.05697946
1901.80406982,0.05728950
1903.73287720,0.05668812
1905.66168457,0.05687410
1907.59049194,0.05635243
1909.51929932,0.05585561
1911.44810669,0.05621230
1913.37691406,0.05624966
1915.30572144,0.05706634
1917.23452881,0.05391484
1919.16333618,0.05387967
1921.09214355,0.05668338
1923.02095093,0.05432712
1924.94975830,0.05572702
1926.87856567,0.05660618
1928.80737305,0.05559687
1930.73618042,0.05639990
1932.66498779,0.05547275
1934.59379517,0.05619247
1936.52260254,0.05568279
1938.45140991,0.05600331
1940.38021729,0.05598205
1942.30902466,0.05353518
1944.23783203,0.05493962
1946.16663940,0.05566115
1948.09544678,0.05548882
1950.02425415,0.05581647
1951.95306152,0.05558681
1953.88186890,0.05573557
1955.81067627,0.05531812
1957.73948364,0.05544898
1959.66829102,0.05529838
1961.59709839,0.05524471
1963.52590576,0.05562358
1965.45471313,0.05517263
1967.38352051,0.05444083
1969.31232788,0.05502223
1971.24113525,0.05542597
1973.16994263,0.05477723
1975.09875000,0.05518528
1977.02755737,0.05502902
1978.95636475,0.05515435
1980.88517212,0.05517160
1982.81397949,0.05476422
1984.74278687,0.05522934
1986.67159424,0.05452315
1988.60040161,0.05449910
1990.52920898,0.05412606
1992.45801636,0.05329650
1994.38682373,0.05431983
1996.31563110,0.05455158
1998.24443848,0.05420019
2000.17324585,0.05423607
2002.10205322,0.05410590
2004.03086060,0.05409554
2005.95966797,0.05384152
2007.88847534,0.05347416
2009.81728271,0.05355800
2011.74609009,0.05354976
2013.67489746,0.05349596
2015.60370483,0.05315350
2017.53251221,0.05255121
2019.46131958,0.05278463
2021.39012695,0.05294758
2023.31893433,0.05290122
2025.24774170,0.05279115
2027.17654907,0.05265411
2029.10535645,0.05262746
2031.03416382,0.05241808
2032.96297119,0.05255389
2034.89177856,0.05239557
2036.82058594,0.05223708
2038.74939331,0.05203602
2040.67820068,0.05170913
2042.60700806,0.05190245
2044.53581543,0.05179876
2046.46462280,0.05176979
2048.39343018,0.05178054
2050.32223755,0.05149231
2052.25104492,0.05146466
2054.17985229,0.05145834
2056.10865967,0.05123013
2058.03746704,0.05110755
2059.96627441,0.05109189
2061.89508179,0.05110565
2063.82388916,0.05090288
2065.75269653,0.05056049
2067.68150391,0.05073392
2069.61031128,0.05062880
2071.53911865,0.05048282
2073.46792603,0.05051684
2075.39673340,0.05032357
2077.32554077,0.05041493
2079.25434814,0.05018787
2081.18315552,0.05004667
2083.11196289,0.05002788
2085.04077026,0.04978861
2086.96957764,0.04974481
2088.89838501,0.04973979
2090.82719238,0.04967916
2092.75599976,0.04946220
2094.68480713,0.04947694
2096.61361450,0.04951062
2098.54242187,0.04937395
2100.47122925,0.04928975
2102.40003662,0.04926385
2104.32884399,0.04913087
2106.25765137,0.04903161
2108.18645874,0.04905140
2110.11526611,0.04886425
2112.04407349,0.04892459
2113.97288086,0.04874996
2115.90168823,0.04866701
2117.83049561,0.04872376
2119.75930298,0.04849367
2121.68811035,0.04864888
2123.61691772,0.04848715
2125.54572510,0.04844897
2127.47453247,0.04843769
2129.40333984,0.04825664
2131.33214722,0.04837684
2133.26095459,0.04822611
2135.18976196,0.04810747
2137.11856934,0.04807339
2139.04737671,0.04809510
2140.97618408,0.04791103
2142.90499146,0.04783414
2144.83379883,0.04789337
2146.76260620,0.04768331
2148.69141357,0.04770197
2150.62022095,0.04773085
2152.54902832,0.04762833
2154.47783569,0.04735917
2156.40664307,0.04739303
2158.33545044,0.04755539
2160.26425781,0.04744785
2162.19306519,0.04738159
2164.12187256,0.04730789
2166.05067993,0.04725189
2167.97948730,0.04711127
2169.90829468,0.04721649
2171.83710205,0.04716040
2173.76590942,0.04704741
2175.69471680,0.04702419
2177.62352417,0.04694037
2179.55233154,0.04709068
2181.48113892,0.04682060
2183.40994629,0.04680662
2185.33875366,0.04690508
2187.26756104,0.04665439
2189.19636841,0.04664764
2191.12517578,0.04668170
2193.05398315,0.04666886
2194.98279053,0.04660906
2196.91159790,0.04654606
2198.84040527,0.04645429
2200.76921265,0.04649187
2202.69802002,0.04625059
2204.62682739,0.04621426
2206.55563477,0.04634707
2208.48444214,0.04614360
2210.41324951,0.04625168
2212.34205688,0.04603667
2214.27086426,0.04597121
2216.19967163,0.04598317
2218.12847900,0.04591530
2220.05728638,0.04591776
2221.98609375,0.04576722
2223.91490112,0.04596908
2225.84370850,0.04562809
2227.77251587,0.04557594
2229.70132324,0.04569226
2231.63013062,0.04544862
2233.55893799,0.04549615
2235.48774536,0.04533752
2237.41655273,0.04536582
2239.34536011,0.04531263
2241.27416748,0.04534393
2243.20297485,0.04529865
2245.13178223,0.04509177
2247.06058960,0.04501425
2248.98939697,0.04492451
2250.91820435,0.04502411
2252.84701172,0.04478959
2254.77581909,0.04480577
2256.70462646,0.04478233
2258.63343384,0.04462632
2260.56224121,0.04461709
2262.49104858,0.04450011
2264.41985596,0.04456300
2266.34866333,0.04441682
2268.27747070,0.04451491
2270.20627808,0.04441650
2272.13508545,0.04425943
2274.06389282,0.04429156
2275.99270020,0.04414356
2277.92150757,0.04422619
2279.85031494,0.04411541
2281.77912231,0.04422675
2283.70792969,0.04413228
2285.63673706,0.04382707
2287.56554443,0.04388619
2289.49435181,0.04378313
2291.42315918,0.04373743
2293.35196655,0.04374482
2295.28077393,0.04354868
2297.20958130,0.04328720
2299.13838867,0.04323039
2301.06719604,0.04304101
2302.99600342,0.04294582
2304.92481079,0.04274787
2306.85361816,0.04236116
2308.78242554,0.04222153
2310.71123291,0.04183401
2312.64004028,0.04153227
2314.56884766,0.04112644
2316.49765503,0.04075981
2318.42646240,0.04031142
2320.35526978,0.03981385
2322.28407715,0.03946357
2324.21288452,0.03873815
2326.14169189,0.03851813
2328.07049927,0.03809511
2329.99930664,0.03766097
2331.92811401,0.03754710
2333.85692139,0.03718571
2335.78572876,0.03713159
2337.71453613,0.03710591
2339.64334351,0.03711304
2341.57215088,0.03702999
2343.50095825,0.03759768
2345.42976562,0.03838021
2347.35857300,0.03960504
2349.28738037,0.04089538
2351.21618774,0.03957979
2353.14499512,0.03784943
2355.07380249,0.03668052
2357.00260986,0.03550486
2358.93141724,0.03496514
2360.86022461,0.03453743
2362.78903198,0.03446007
2364.71783936,0.03459323
2366.64664673,0.03504455
2368.57545410,0.03569825
2370.50426147,0.03656545
2372.43306885,0.03744192
2374.36187622,0.03826923
2376.29068359,0.03926200
2378.21949097,0.03991242
2380.14829834,0.04059239
2382.07710571,0.04092413
2384.00591309,0.04113987
2385.93472046,0.04132481
2387.86352783,0.04124467
2389.79233521,0.04141277
2391.72114258,0.04130407
2393.64994995,0.04119847
2395.57875732,0.04123683
2397.50756470,0.04116128
2399.43637207,0.04100885
2401.36517944,0.04099170
2403.29398682,0.04109833
2405.22279419,0.04096030
2407.15160156,0.04092592
2409.08040894,0.04079787
2411.00921631,0.04063581
2412.93802368,0.04077791
2414.86683105,0.04076169
2416.79563843,0.04053839
2418.72444580,0.04055491
2420.65325317,0.04054173
2422.58206055,0.04039401
2424.51086792,0.04045147
2426.43967529,0.04038177
2428.36848267,0.04022683
2430.29729004,0.04014203
2432.22609741,0.04023889
2434.15490479,0.04026096
2436.08371216,0.04010462
2438.01251953,0.04010306
2439.94132690,0.04003157
2441.87013428,0.03997476
2443.79894165,0.03983840
2445.72774902,0.03979168
2447.65655640,0.03979074
2449.58536377,0.03978285
2451.51417114,0.03982051
2453.44297852,0.03964116
2455.37178589,0.03960767
2457.30059326,0.03948519
2459.22940063,0.03951367
2461.15820801,0.03952939
2463.08701538,0.03934528
2465.01582275,0.03932871
2466.94463013,0.03922174
2468.87343750,0.03928938
2470.80224487,0.03915315
2472.73105225,0.03909851
2474.65985962,0.03913264
2476.58866699,0.03903859
2478.51747437,0.03919462
2480.44628174,0.03907178
2482.37508911,0.03900942
2484.30389648,0.03895626
2486.23270386,0.03885473
2488.16151123,0.03877107
2490.09031860,0.03875446
2492.01912598,0.03887592
2493.94793335,0.03861850
2495.87674072,0.03861324
2497.80554810,0.03854664
2499.73435547,0.03832689
2501.66316284,0.03850917
2503.59197021,0.03851689
2505.52077759,0.03834348
2507.44958496,0.03819193
2509.37839233,0.03819757
2511.30719971,0.03818540
2513.23600708,0.03814659
2515.16481445,0.03822011
2517.09362183,0.03811307
2519.02242920,0.03796848
2520.95123657,0.03798066
2522.88004395,0.03792401
2524.80885132,0.03780328
2526.73765869,0.03780633
2528.66646606,0.03778334
2530.59527344,0.03777027
2532.52408081,0.03769369
2534.45288818,0.03763030
2536.38169556,0.03769868
2538.31050293,0.03761491
2540.23931030,0.03751396
2542.16811768,0.03746706
2544.09692505,0.03748259
2546.02573242,0.03746461
2547.95453979,0.03731933
2549.88334717,0.03725030
2551.81215454,0.03730426
2553.74096191,0.03727002
2555.66976929,0.03712013
2557.59857666,0.03704339
2559.52738403,0.03694094
2561.45619141,0.03695574
2563.38499878,0.03696002
2565.31380615,0.03688558
2567.24261353,0.03684686
2569.17142090,0.03673915
2571.10022827,0.03675984
2573.02903564,0.03669806
2574.95784302,0.03660598
2576.88665039,0.03653634
2578.81545776,0.03651274
2580.74426514,0.03655698
2582.67307251,0.03646071
2584.60187988,0.03648109
2586.53068726,0.03638577
2588.45949463,0.03629768
2590.38830200,0.03627056
2592.31710937,0.03615070
2594.24591675,0.03616615
2596.17472412,0.03602795
2598.10353149,0.03603325
2600.03233887,0.03615419
2601.96114624,0.03595170
2603.88995361,0.03585333
2605.81876099,0.03592672
2607.74756836,0.03582331
2609.67637573,0.03567763
2611.60518311,0.03567017
2613.53399048,0.03566733
2615.46279785,0.03557133
2617.39160522,0.03551984
2619.32041260,0.03549467
2621.24921997,0.03541323
2623.17802734,0.03548730
2625.10683472,0.03536069
2627.03564209,0.03526049
2628.96444946,0.03538918
2630.89325684,0.03516757
2632.82206421,0.03513037
2634.75087158,0.03516161
2636.67967895,0.03505521
2638.60848633,0.03499127
2640.53729370,0.03486482
2642.46610107,0.03492494
2644.39490845,0.03480358
2646.32371582,0.03473679
2648.25252319,0.03484701
2650.18133057,0.03476553
2652.11013794,0.03464606
2654.03894531,0.03451800
2655.96775269,0.03449896
2657.89656006,0.03449832
2659.82536743,0.03440809
2661.75417480,0.03439500
2663.68298218,0.03443653
2665.61178955,0.03429161
2667.54059692,0.03426478
2669.46940430,0.03424965
2671.39821167,0.03407965
2673.32701904,0.03413419
2675.25582642,0.03403952
2677.18463379,0.03403608
2679.11344116,0.03402367
2681.04224854,0.03385459
2682.97105591,0.03392268
2684.89986328,0.03382764
2686.82867065,0.03369334
2688.75747803,0.03363305
2690.68628540,0.03370986
2692.61509277,0.03368612
2694.54390015,0.03349786
2696.47270752,0.03353914
2698.40151489,0.03350392
2700.33032227,0.03339745
2702.25912964,0.03323631
2704.18793701,0.03321332
2706.11674438,0.03328567
2708.04555176,0.03317345
2709.97435913,0.03314267
2711.90316650,0.03313357
2713.83197388,0.03305232
2715.76078125,0.03296243
2717.68958862,0.03290695
2719.61839600,0.03289240
2721.54720337,0.03293054
2723.47601074,0.03285072
2725.40481812,0.03276262
2727.33362549,0.03265005
2729.26243286,0.03258050
2731.19124023,0.03274689
2733.12004761,0.03252105
2735.04885498,0.03244401
2736.97766235,0.03249513
2738.90646973,0.03233249
2740.83527710,0.03241509
2742.76408447,0.03228540
2744.69289185,0.03227151
2746.62169922,0.03217573
2748.55050659,0.03203978
2750.47931396,0.03203122
2752.40812134,0.03178430
2754.33692871,0.03194954
2756.26573608,0.03192224
2758.19454346,0.03176701
2760.12335083,0.03184614
2762.05215820,0.03173156
2763.98096558,0.03171007
2765.90977295,0.03162328
2767.83858032,0.03161728
2769.76738770,0.03150678
2771.69619507,0.03134373
2773.62500244,0.03148382
2775.55380981,0.03135213
2777.48261719,0.03117095
2779.41142456,0.03119658
2781.34023193,0.03112203
2783.26903931,0.03104753
2785.19784668,0.03106696
2787.12665405,0.03099488
2789.05546143,0.03089516
2790.98426880,0.03084807
2792.91307617,0.03071681
2794.84188354,0.03071629
2796.77069092,0.03070868
2798.69949829,0.03053869
2800.62830566,0.03050677
2802.55711304,0.03048754
2804.48592041,0.03041668
2806.41472778,0.03037849
2808.34353516,0.03024886
2810.27234253,0.03011198
2812.20114990,0.03012887
2814.12995728,0.03007241
2816.05876465,0.02988413
2817.98757202,0.02985652
2819.91637939,0.02980580
2821.84518677,0.02973768
2823.77399414,0.02973319
2825.70280151,0.02964231
2827.63160889,0.02959643
2829.56041626,0.02941280
2831.48922363,0.02925282
2833.41803101,0.02918703
2835.34683838,0.02909305
2837.27564575,0.02913251
2839.20445312,0.02891166
2841.13326050,0.02869447
2843.06206787,0.02868266
2844.99087524,0.02850726
2846.91968262,0.02820366
2848.84848999,0.02795980
2850.77729736,0.02807975
2852.70610474,0.02818781
2854.63491211,0.02818649
2856.56371948,0.02826229
2858.49252686,0.02822656
2860.42133423,0.02828872
2862.35014160,0.02830482
2864.27894897,0.02816776
2866.20775635,0.02815225
2868.13656372,0.02813386
2870.06537109,0.02799862
2871.99417847,0.02793101
2873.92298584,0.02788636
2875.85179321,0.02786011
2877.78060059,0.02777402
2879.70940796,0.02760519
2881.63821533,0.02769015
2883.56702270,0.02764714
2885.49583008,0.02747918
2887.42463745,0.02750630
2889.35344482,0.02742331
2891.28225220,0.02726455
2893.21105957,0.02715661
2895.13986694,0.02704089
2897.06867432,0.02689171
2898.99748169,0.02697812
2900.92628906,0.02699424
2902.85509644,0.02677453
2904.78390381,0.02672354
2906.71271118,0.02665409
2908.64151855,0.02649467
2910.57032593,0.02621420
2912.49913330,0.02613464
2914.42794067,0.02601821
2916.35674805,0.02572286
2918.28555542,0.02585249
2920.21436279,0.02585522
2922.14317017,0.02591551
2924.07197754,0.02609620
2926.00078491,0.02599047
2927.92959229,0.02608988
2929.85839966,0.02617253
2931.78720703,0.02616432
2933.71601440,0.02619901
2935.64482178,0.02613134
2937.57362915,0.02615223
2939.50243652,0.02627597
2941.43124390,0.02624394
2943.36005127,0.02617688
2945.28885864,0.02618014
2947.21766602,0.02608292
2949.14647339,0.02598602
2951.07528076,0.02586814
2953.00408813,0.02583768
2954.93289551,0.02580496
2956.86170288,0.02566086
2958.79051025,0.02561948
2960.71931763,0.02553772
2962.64812500,0.02559540
2964.57693237,0.02564298
2966.50573975,0.02548164
2968.43454712,0.02550143
2970.36335449,0.02554904
2972.29216187,0.02550189
2974.22096924,0.02547797
2976.14977661,0.02541473
2978.07858398,0.02537541
2980.00739136,0.02542311
2981.93619873,0.02542463
2983.86500610,0.02530026
2985.79381348,0.02523106
2987.72262085,0.02522023
2989.65142822,0.02510799
2991.58023560,0.02514437
2993.50904297,0.02518153
2995.43785034,0.02494875
2997.36665771,0.02484715
2999.29546509,0.02481868
3001.22427246,0.02479548
3003.15307983,0.02475568
3005.08188721,0.02461077
3007.01069458,0.02469260
3008.93950195,0.02463279
3010.86830933,0.02440740
3012.79711670,0.02445013
3014.72592407,0.02432326
3016.65473145,0.02415336
3018.58353882,0.02419590
3020.51234619,0.02410547
3022.44115356,0.02410751
3024.36996094,0.02397053
3026.29876831,0.02376537
3028.22757568,0.02389201
3030.15638306,0.02371207
3032.08519043,0.02360842
3034.01399780,0.02367277
3035.94280518,0.02355389
3037.87161255,0.02346314
3039.80041992,0.02326548
3041.72922729,0.02329462
3043.65803467,0.02329251
3045.58684204,0.02327977
3047.51564941,0.02316013
3049.44445679,0.02290600
3051.37326416,0.02307938
3053.30207153,0.02292343
3055.23087891,0.02277247
3057.15968628,0.02275113
3059.08849365,0.02259969
3061.01730103,0.02272131
3062.94610840,0.02262919
3064.87491577,0.02245490
3066.80372314,0.02233147
3068.73253052,0.02232064
3070.66133789,0.02228263
3072.59014526,0.02213144
3074.51895264,0.02210488
3076.44776001,0.02203926
3078.37656738,0.02198045
3080.30537476,0.02178257
3082.23418213,0.02185529
3084.16298950,0.02194109
3086.09179687,0.02171611
3088.02060425,0.02171784
3089.94941162,0.02160550
3091.87821899,0.02153671
3093.80702637,0.02151792
3095.73583374,0.02134674
3097.66464111,0.02132375
3099.59344849,0.02121520
3101.52225586,0.02109469
3103.45106323,0.02114522
3105.37987061,0.02099353
3107.30867798,0.02089486
3109.23748535,0.02093770
3111.16629272,0.02073718
3113.09510010,0.02075278
3115.02390747,0.02061203
3116.95271484,0.02034619
3118.88152222,0.02048635
3120.81032959,0.02040286
3122.73913696,0.02027334
3124.66794434,0.02023546
3126.59675171,0.02018609
3128.52555908,0.02009111
3130.45436645,0.01997053
3132.38317383,0.01994704
3134.31198120,0.01980145
3136.24078857,0.01969448
3138.16959595,0.01959166
3140.09840332,0.01958735
3142.02721069,0.01957141
3143.95601807,0.01948004
3145.88482544,0.01945873
3147.81363281,0.01926511
3149.74244019,0.01909284
3151.67124756,0.01905566
3153.60005493,0.01907450
3155.52886230,0.01888078
3157.45766968,0.01879936
3159.38647705,0.01890948
3161.31528442,0.01877509
3163.24409180,0.01870490
3165.17289917,0.01864172
3167.10170654,0.01858428
3169.03051392,0.01845573
3170.95932129,0.01834618
3172.88812866,0.01828983
3174.81693604,0.01813888
3176.74574341,0.01809481
3178.67455078,0.01794151
3180.60335815,0.01790654
3182.53216553,0.01788054
3184.46097290,0.01778208
3186.38978027,0.01778023
3188.31858765,0.01774301
3190.24739502,0.01773771
3192.17620239,0.01758356
3194.10500977,0.01750843
3196.03381714,0.01748728
3197.96262451,0.01742188
3199.89143188,0.01737790
3201.82023926,0.01736453
3203.74904663,0.01732565
3205.67785400,0.01714424
3207.60666138,0.01718087
3209.53546875,0.01717788
3211.46427612,0.01714285
3213.39308350,0.01710043
3215.32189087,0.01698723
3217.25069824,0.01706560
3219.17950562,0.01701066
3221.10831299,0.01691658
3223.03712036,0.01682434
3224.96592773,0.01681760
3226.89473511,0.01684989
3228.82354248,0.01675611
3230.75234985,0.01677343
3232.68115723,0.01670433
3234.60996460,0.01655496
3236.53877197,0.01659082
3238.46757935,0.01668685
3240.39638672,0.01658145
3242.32519409,0.01656753
3244.25400146,0.01657152
3246.18280884,0.01650007
3248.11161621,0.01653237
3250.04042358,0.01639241
3251.96923096,0.01642297
3253.89803833,0.01649712
3255.82684570,0.01640846
3257.75565308,0.01647979
3259.68446045,0.01652483
3261.61326782,0.01640697
3263.54207520,0.01638976
3265.47088257,0.01642476
3267.39968994,0.01626568
3269.32849731,0.01635670
3271.25730469,0.01635496
3273.18611206,0.01621343
3275.11491943,0.01629396
3277.04372681,0.01618313
3278.97253418,0.01623953
3280.90134155,0.01634182
3282.83014893,0.01624538
3284.75895630,0.01619714
3286.68776367,0.01620728
3288.61657104,0.01624036
3290.54537842,0.01621312
3292.47418579,0.01616909
3294.40299316,0.01620583
3296.33180054,0.01629778
3298.26060791,0.01617473
3300.18941528,0.01614805
3302.11822266,0.01618620
3304.04703003,0.01613032
3305.97583740,0.01614907
3307.90464478,0.01607536
3309.83345215,0.01605953
3311.76225952,0.01605792
3313.69106689,0.01614451
3315.61987427,0.01611721
3317.54868164,0.01603650
3319.47748901,0.01608682
3321.40629639,0.01603600
3323.33510376,0.01599990
3325.26391113,0.01593038
3327.19271851,0.01606977
3329.12152588,0.01597914
3331.05033325,0.01577692
3332.97914062,0.01589226
3334.90794800,0.01591697
3336.83675537,0.01587332
3338.76556274,0.01580124
3340.69437012,0.01592640
3342.62317749,0.01585681
3344.55198486,0.01587360
3346.48079224,0.01592402
3348.40959961,0.01572070
3350.33840698,0.01580633
3352.26721436,0.01576733
3354.19602173,0.01580753
3356.12482910,0.01571922
3358.05363647,0.01575118
3359.98244385,0.01585340
3361.91125122,0.01558833
3363.84005859,0.01569378
3365.76886597,0.01571750
3367.69767334,0.01566033
3369.62648071,0.01561783
3371.55528809,0.01573040
3373.48409546,0.01579788
3375.41290283,0.01568237
3377.34171020,0.01583781
3379.27051758,0.01577213
3381.19932495,0.01575456
3383.12813232,0.01566319
3385.05693970,0.01562734
3386.98574707,0.01567277
3388.91455444,0.01566595
3390.84336182,0.01572384
3392.77216919,0.01559671
3394.70097656,0.01574302
3396.62978394,0.01560791
3398.55859131,0.01556418
3400.48739868,0.01567963
3402.41620605,0.01561277
3404.34501343,0.01571576
3406.27382080,0.01557135
3408.20262817,0.01561677
3410.13143555,0.01565162
3412.06024292,0.01567109
3413.98905029,0.01567077
3415.91785767,0.01570884
3417.84666504,0.01572728
3419.77547241,0.01545662
3421.70427979,0.01560404
3423.63308716,0.01562530
3425.56189453,0.01562222
3427.49070190,0.01560756
3429.41950928,0.01564610
3431.34831665,0.01575935
3433.27712402,0.01551010
3435.20593140,0.01562413
3437.13473877,0.01572022
3439.06354614,0.01571760
3440.99235352,0.01555230
3442.92116089,0.01552063
3444.84996826,0.01566670
3446.77877563,0.01548663
3448.70758301,0.01558802
3450.63639038,0.01571500
3452.56519775,0.01578347
3454.49400513,0.01566828
3456.42281250,0.01569286
3458.35161987,0.01582145
3460.28042725,0.01571004
3462.20923462,0.01571661
3464.13804199,0.01574718
3466.06684937,0.01586363
3467.99565674,0.01572479
3469.92446411,0.01583313
3471.85327148,0.01588623
3473.78207886,0.01578367
3475.71088623,0.01582763
3477.63969360,0.01571333
3479.56850098,0.01592225
3481.49730835,0.01565514
3483.42611572,0.01568609
3485.35492310,0.01598163
3487.28373047,0.01575164
3489.21253784,0.01578479
3491.14134521,0.01582852
3493.07015259,0.01599583
3494.99895996,0.01592616
3496.92776733,0.01581547
3498.85657471,0.01595083
3500.78538208,0.01597803
3502.71418945,0.01563570
3504.64299683,0.01561642
3506.57180420,0.01609699
3508.50061157,0.01579987
3510.42941895,0.01582016
3512.35822632,0.01601408
3514.28703369,0.01605219
3516.21584106,0.01617790
3518.14464844,0.01598400
3520.07345581,0.01613603
3522.00226318,0.01589726
3523.93107056,0.01577347
3525.85987793,0.01598566
3527.78868530,0.01587389
3529.71749268,0.01591620
3531.64630005,0.01612732
3533.57510742,0.01634473
3535.50391479,0.01617327
3537.43272217,0.01600420
3539.36152954,0.01619916
3541.29033691,0.01634335
3543.21914429,0.01610859
3545.14795166,0.01565570
3547.07675903,0.01539349
3549.00556641,0.01603182
3550.93437378,0.01633942
3552.86318115,0.01579296
3554.79198853,0.01625836
3556.72079590,0.01638842
3558.64960327,0.01626452
3560.57841064,0.01625952
3562.50721802,0.01609068
3564.43602539,0.01621431
3566.36483276,0.01487286
3568.29364014,0.01442101
3570.22244751,0.01588076
3572.15125488,0.01648319
3574.08006226,0.01633270
3576.00886963,0.01626335
3577.93767700,0.01628544
3579.86648437,0.01630925
3581.79529175,0.01637188
3583.72409912,0.01647627
3585.65290649,0.01591905
3587.58171387,0.01435351
3589.51052124,0.01499720
3591.43932861,0.01665158
3593.36813599,0.01599058
3595.29694336,0.01562707
3597.22575073,0.01613418
3599.15455811,0.01627985
3601.08336548,0.01599652
3603.01217285,0.01628089
3604.94098022,0.01664602
3606.86978760,0.01594472
3608.79859497,0.01490775
3610.72740234,0.01520922
3612.65620972,0.01558663
3614.58501709,0.01499792
3616.51382446,0.01642036
3618.44263184,0.01504554
3620.37143921,0.01425950
3622.30024658,0.01664034
3624.22905395,0.01609764
3626.15786133,0.01694518
3628.08666870,0.01407998
3630.01547607,0.01248880
3631.94428345,0.01638111
3633.87309082,0.01588807
3635.80189819,0.01631598
3637.73070557,0.01675027
3639.65951294,0.01643259
3641.58832031,0.01655799
3643.51712769,0.01634622
3645.44593506,0.01664952
3647.37474243,0.01456247
3649.30354980,0.01311094
3651.23235718,0.01322845
3653.16116455,0.01639676
3655.08997192,0.01632979
3657.01877930,0.01417140
3658.94758667,0.01678944
3660.87639404,0.01646135
3662.80520142,0.01681134
3664.73400879,0.01670618
3666.66281616,0.01647096
3668.59162354,0.01601956
3670.52043091,0.01246060
3672.44923828,0.01565516
3674.37804565,0.01487154
3676.30685303,0.01181337
3678.23566040,0.01555084
3680.16446777,0.01599813
3682.09327515,0.01604062
3684.02208252,0.01669198
3685.95088989,0.01636520
3687.87969727,0.01441369
3689.80850464,0.01299108
3691.73731201,0.01506505
3693.66611938,0.01577418
3695.59492676,0.01633882
3697.52373413,0.01617532
3699.45254150,0.01606659
3701.38134888,0.01558167
3703.31015625,0.01478460
3705.23896362,0.01659972
3707.16777100,0.01567670
3709.09657837,0.01511492
3711.02538574,0.01409242
3712.95419312,0.01303859
3714.88300049,0.01580098
3716.81180786,0.01557523
3718.74061523,0.01561537
3720.66942261,0.01531192
3722.59822998,0.01460477
3724.52703735,0.01521652
3726.45584473,0.01398458
3728.38465210,0.01543106
3730.31345947,0.01540066
3732.24226685,0.01379393
3734.17107422,0.01330216
3736.09988159,0.01249085
3738.02868896,0.01347062
3739.95749634,0.01483892
3741.88630371,0.01554968
3743.81511108,0.01172327
3745.74391846,0.01077012
3747.67272583,0.01458795
3749.60153320,0.01236292
3751.53034058,0.01110901
3753.45914795,0.01315130
3755.38795532,0.01442026
3757.31676270,0.01501576
3759.24557007,0.01367651
3761.17437744,0.01435406
3763.10318481,0.01540663
3765.03199219,0.01418348
3766.96079956,0.01452454
3768.88960693,0.01432377
3770.81841431,0.01352202
3772.74722168,0.01481639
3774.67602905,0.01495265
3776.60483643,0.01495759
3778.53364380,0.01447646
3780.46245117,0.01378563
3782.39125854,0.01487226
3784.32006592,0.01451700
3786.24887329,0.01440536
3788.17768066,0.01479760
3790.10648804,0.01456571
3792.03529541,0.01453940
3793.96410278,0.01490860
3795.89291016,0.01376772
3797.82171753,0.01354163
3799.75052490,0.01443833
3801.67933228,0.01101203
3803.60813965,0.01321144
3805.53694702,0.01455135
3807.46575439,0.01139772
3809.39456177,0.01438414
3811.32336914,0.01407277
3813.25217651,0.01453074
3815.18098389,0.01305309
3817.10979126,0.01109721
3819.03859863,0.01461439
3820.96740601,0.01135402
3822.89621338,0.01199634
3824.82502075,0.01454895
3826.75382812,0.01289572
3828.68263550,0.01407535
3830.61144287,0.01339374
3832.54025024,0.01290133
3834.46905762,0.01321956
3836.39786499,0.01242462
3838.32667236,0.01114453
3840.25547974,0.01214133
3842.18428711,0.01329050
3844.11309448,0.01252810
3846.04190186,0.01366628
3847.97070923,0.01353385
3849.89951660,0.01347009
3851.82832397,0.01194895
3853.75713135,0.00858232
3855.68593872,0.01047948
3857.61474609,0.01355708
3859.54355347,0.01312964
3861.47236084,0.01291633
3863.40116821,0.01267581
3865.32997559,0.01158407
3867.25878296,0.01310751
3869.18759033,0.01187372
3871.11639770,0.01083593
3873.04520508,0.01333277
3874.97401245,0.01204435
3876.90281982,0.01320222
3878.83162720,0.01346133
3880.76043457,0.01100677
3882.68924194,0.01318686
3884.61804932,0.01225456
3886.54685669,0.01096039
3888.47566406,0.01330622
3890.40447144,0.01249372
3892.33327881,0.01150293
3894.26208618,0.01286233
3896.19089355,0.01324566
3898.11970093,0.01245375
3900.04850830,0.01154858
3901.97731567,0.01144037
3903.90612305,0.01131129
3905.83493042,0.01149253
3907.76373779,0.01287004
3909.69254517,0.01283184
3911.62135254,0.01267856
3913.55015991,0.01296436
3915.47896728,0.01241223
3917.40777466,0.01209279
3919.33658203,0.01190611
3921.26538940,0.01241583
3923.19419678,0.01238432
3925.12300415,0.01203388
3927.05181152,0.01235036
3928.98061890,0.01242827
3930.90942627,0.01216288
3932.83823364,0.01174379
3934.76704102,0.01235918
3936.69584839,0.01255400
3938.62465576,0.01225113
3940.55346313,0.01240498
3942.48227051,0.01190832
3944.41107788,0.01193324
3946.33988525,0.01225894
3948.26869263,0.01197800
3950.19750000,0.01194205
3952.12630737,0.01217009
3954.05511475,0.01222772
3955.98392212,0.01223137
3957.91272949,0.01212601
3959.84153687,0.01205408
3961.77034424,0.01195846
3963.69915161,0.01193665
3965.62795898,0.01217639
3967.55676636,0.01198901
3969.48557373,0.01196151
3971.41438110,0.01193933
3973.34318848,0.01177254
3975.27199585,0.01185521
3977.20080322,0.01182226
3979.12961060,0.01189048
3981.05841797,0.01173610
3982.98722534,0.01177605
3984.91603271,0.01180700
3986.84484009,0.01173568
3988.77364746,0.01176697
3990.70245483,0.01161893
3992.63126221,0.01178105
3994.56006958,0.01172119
3996.48887695,0.01174675
3998.41768433,0.01168195
4000.34649170,0.01147017
4002.27529907,0.01161577
4004.20410645,0.01155828
4006.13291382,0.01154466
4008.06172119,0.01146416
4009.99052856,0.01146561
4011.91933594,0.01146225
4013.84814331,0.01141226
4015.77695068,0.01143515
4017.70575806,0.01133537
4019.63456543,0.01136028
4021.56337280,0.01134065
4023.49218018,0.01133475
4025.42098755,0.01118161
4027.34979492,0.01120039
4029.27860229,0.01125367
4031.20740967,0.01110780
4033.13621704,0.01122760
4035.06502441,0.01116241
4036.99383179,0.01107420
4038.92263916,0.01115036
4040.85144653,0.01118566
4042.78025391,0.01109960
4044.70906128,0.01105095
4046.63786865,0.01099736
4048.56667603,0.01096313
4050.49548340,0.01101657
4052.42429077,0.01085658
4054.35309814,0.01091125
4056.28190552,0.01092432
4058.21071289,0.01085513
4060.13952026,0.01082118
4062.06832764,0.01079555
4063.99713501,0.01082757
4065.92594238,0.01069209
4067.85474976,0.01077199
4069.78355713,0.01064999
4071.71236450,0.01063854
4073.64117187,0.01068772
4075.56997925,0.01057943
4077.49878662,0.01074716
4079.42759399,0.01058017
4081.35640137,0.01055935
4083.28520874,0.01061259
4085.21401611,0.01051951
4087.14282349,0.01054156
4089.07163086,0.01050605
4091.00043823,0.01051768
4092.92924561,0.01046558
4094.85805298,0.01046495
4096.78686035,0.01036321
4098.71566772,0.01028731
4100.64447510,0.01033347
4102.57328247,0.01032944
4104.50208984,0.01030559
4106.43089722,0.01029416
4108.35970459,0.01024246
4110.28851196,0.01015395
4112.21731934,0.01021107
4114.14612671,0.01013452
4116.07493408,0.01015026
4118.00374145,0.01011263
4119.93254883,0.01010500
4121.86135620,0.01020121
4123.79016357,0.01003584
4125.71897095,0.01008256
4127.64777832,0.01000631
4129.57658569,0.01000137
4131.50539307,0.00999848
4133.43420044,0.00996611
4135.36300781,0.01008959
4137.29181519,0.00990172
4139.22062256,0.00992381
4141.14942993,0.00988507
4143.07823730,0.00987638
4145.00704468,0.00988919
4146.93585205,0.00977263
4148.86465942,0.00981852
4150.79346680,0.00977654
4152.72227417,0.00980125
4154.65108154,0.00964415
4156.57988892,0.00967660
4158.50869629,0.00972649
4160.43750366,0.00963294
4162.36631103,0.00972930
4164.29511841,0.00964403
4166.22392578,0.00960380
4168.15273315,0.00953363
4170.08154053,0.00954433
4172.01034790,0.00949842
4173.93915527,0.00948329
4175.86796265,0.00951019
4177.79677002,0.00936507
4179.72557739,0.00945972
4181.65438477,0.00939646
4183.58319214,0.00940318
4185.51199951,0.00945908
4187.44080688,0.00936509
4189.36961426,0.00932695
4191.29842163,0.00931477
4193.22722900,0.00932004
4195.15603638,0.00919199
4197.08484375,0.00930514
4199.01365112,0.00925818
4200.94245850,0.00917480
4202.87126587,0.00921912
4204.80007324,0.00906073
4206.72888062,0.00913289
4208.65768799,0.00909395
4210.58649536,0.00904923
4212.51530273,0.00911410
4214.44411011,0.00905866
4216.37291748,0.00901342
4218.30172485,0.00903252
4220.23053223,0.00904315
4222.15933960,0.00892642
4224.08814697,0.00889478
4226.01695435,0.00888328
4227.94576172,0.00896069
4229.87456909,0.00897981
4231.80337646,0.00891970
4233.73218384,0.00890406
4235.66099121,0.00878174
4237.58979858,0.00878647
4239.51860596,0.00878897
4241.44741333,0.00880114
4243.37622070,0.00873680
4245.30502808,0.00873100
4247.23383545,0.00880675
4249.16264282,0.00864852
4251.09145020,0.00871848
4253.02025757,0.00870335
4254.94906494,0.00855505
4256.87787231,0.00862516
4258.80667969,0.00859414
4260.73548706,0.00854421
4262.66429443,0.00855474
4264.59310181,0.00855116
4266.52190918,0.00851253
4268.45071655,0.00852838
4270.37952393,0.00848813
4272.30833130,0.00837933
4274.23713867,0.00842228
4276.16594604,0.00842373
4278.09475342,0.00842202
4280.02356079,0.00840801
4281.95236816,0.00832704
4283.88117554,0.00835801
4285.80998291,0.00830059
4287.73879028,0.00827873
4289.66759766,0.00829371
4291.59640503,0.00822202
4293.52521240,0.00830354
4295.45401978,0.00830089
4297.38282715,0.00825319
4299.31163452,0.00819144
4301.24044189,0.00813702
4303.16924927,0.00817546
4305.09805664,0.00808215
4307.02686401,0.00809509
4308.95567139,0.00807250
4310.88447876,0.00805341
4312.81328613,0.00805866
4314.74209351,0.00799167
4316.67090088,0.00808172
4318.59970825,0.00804735
4320.52851562,0.00804422
4322.45732300,0.00800459
4324.38613037,0.00794000
4326.31493774,0.00796645
4328.24374512,0.00788344
4330.17255249,0.00785971
4332.10135986,0.00784221
4334.03016724,0.00791638
4335.95897461,0.00787365
4337.88778198,0.00784022
4339.81658936,0.00789415
4341.74539673,0.00779760
4343.67420410,0.00778861
4345.60301147,0.00770971
4347.53181885,0.00768975
4349.46062622,0.00767997
4351.38943359,0.00763542
4353.31824097,0.00764506
4355.24704834,0.00767294
4357.17585571,0.00775521
4359.10466309,0.00764789
4361.03347046,0.00758865
4362.96227783,0.00761075
4364.89108520,0.00759661
4366.81989258,0.00751896
4368.74869995,0.00751380
4370.67750732,0.00756113
4372.60631470,0.00750665
4374.53512207,0.00755734
4376.46392944,0.00744493
4378.39273682,0.00742148
4380.32154419,0.00744609
4382.25035156,0.00738380
4384.17915894,0.00741825
4386.10796631,0.00733111
4388.03677368,0.00736435
4389.96558105,0.00729521
4391.89438843,0.00724910
4393.82319580,0.00731148
4395.75200317,0.00724517
4397.68081055,0.00731121
4399.60961792,0.00733270
4401.53842529,0.00723056
4403.46723267,0.00717588
4405.39604004,0.00721180
4407.32484741,0.00717027
4409.25365478,0.00721748
4411.18246216,0.00722987
4413.11126953,0.00708631
4415.04007690,0.00710938
4416.96888428,0.00711701
4418.89769165,0.00712568
4420.82649902,0.00709407
4422.75530640,0.00707312
4424.68411377,0.00700396
4426.61292114,0.00697353
4428.54172852,0.00702632
4430.47053589,0.00690602
4432.39934326,0.00703357
4434.32815063,0.00702427
4436.25695801,0.00683191
4438.18576538,0.00685572
4440.11457275,0.00689650
4442.04338013,0.00692417
4443.97218750,0.00687705
4445.90099487,0.00688683
4447.82980225,0.00683543
4449.75860962,0.00675491
4451.68741699,0.00672365
4453.61622437,0.00678914
4455.54503174,0.00679229
4457.47383911,0.00669358
4459.40264648,0.00678546
4461.33145386,0.00671830
4463.26026123,0.00671993
4465.18906860,0.00670914
4467.11787598,0.00665320
4469.04668335,0.00672879
4470.97549072,0.00661657
4472.90429810,0.00666454
4474.83310547,0.00666699
4476.76191284,0.00658590
4478.69072021,0.00656673
4480.61952759,0.00656807
4482.54833496,0.00657886
4484.47714233,0.00646924
4486.40594971,0.00654632
4488.33475708,0.00652131
4490.26356445,0.00648892
4492.19237183,0.00659237
4494.12117920,0.00648533
4496.04998657,0.00635188
4497.97879395,0.00637043
4499.90760132,0.00650399
4501.83640869,0.00645420
4503.76521606,0.00634213
4505.69402344,0.00628271
4507.62283081,0.00625539
4509.55163818,0.00635566
4511.48044556,0.00635102
4513.40925293,0.00631714
4515.33806030,0.00630463
4517.26686768,0.00623958
4519.19567505,0.00622508
4521.12448242,0.00623199
4523.05328979,0.00622413
4524.98209717,0.00622070
4526.91090454,0.00615160
4528.83971191,0.00613986
4530.76851929,0.00621833
4532.69732666,0.00622027
4534.62613403,0.00624223
4536.55494141,0.00617683
4538.48374878,0.00607283
4540.41255615,0.00607243
4542.34136353,0.00607044
4544.27017090,0.00608769
4546.19897827,0.00605760
4548.12778564,0.00604913
4550.05659302,0.00607593
4551.98540039,0.00604044
4553.91420776,0.00599800
4555.84301514,0.00597354
4557.77182251,0.00596231
4559.70062988,0.00595510
4561.62943726,0.00594124
4563.55824463,0.00594139
4565.48705200,0.00589561
4567.41585937,0.00580793
4569.34466675,0.00583746
4571.27347412,0.00582559
4573.20228149,0.00580335
4575.13108887,0.00584491
4577.05989624,0.00581202
4578.98870361,0.00582950
4580.91751099,0.00581159
4582.84631836,0.00573668
4584.77512573,0.00571048
4586.70393311,0.00575542
4588.63274048,0.00572908
4590.56154785,0.00566494
4592.49035522,0.00566478
4594.41916260,0.00559945
4596.34796997,0.00572357
4598.27677734,0.00573568
4600.20558472,0.00558141
4602.13439209,0.00567203
4604.06319946,0.00568809
4605.99200684,0.00558671
4607.92081421,0.00556200
4609.84962158,0.00565666
4611.77842895,0.00560809
4613.70723633,0.00551935
4615.63604370,0.00559886
4617.56485107,0.00550752
4619.49365845,0.00543815
4621.42246582,0.00547624
4623.35127319,0.00545996
4625.28008057,0.00543592
4627.20888794,0.00541599
4629.13769531,0.00546700
4631.06650269,0.00547625
4632.99531006,0.00544804
4634.92411743,0.00543958
4636.85292480,0.00532581
4638.78173218,0.00530899
4640.71053955,0.00535596
4642.63934692,0.00528526
4644.56815430,0.00532406
4646.49696167,0.00528403
4648.42576904,0.00532841
4650.35457642,0.00544609
4652.28338379,0.00523708
4654.21219116,0.00521681
4656.14099853,0.00531165
4658.06980591,0.00527816
4659.99861328,0.00521936
4661.92742065,0.00516253
4663.85622803,0.00518311
4665.78503540,0.00515785
4667.71384277,0.00523861
4669.64265015,0.00520887
4671.57145752,0.00512804
4673.50026489,0.00518290
4675.42907227,0.00511505
4677.35787964,0.00510720
4679.28668701,0.00514847
4681.21549438,0.00514612
4683.14430176,0.00510400
4685.07310913,0.00508192
4687.00191650,0.00507709
4688.93072388,0.00502564
4690.85953125,0.00505953
4692.78833862,0.00505647
4694.71714600,0.00499325
4696.64595337,0.00497298
4698.57476074,0.00496354
4700.50356812,0.00491691
4702.43237549,0.00486273
4704.36118286,0.00487769
4706.28999023,0.00489133
4708.21879761,0.00485036
4710.14760498,0.00486065
4712.07641235,0.00490963
4714.00521973,0.00490449
4715.93402710,0.00485959
4717.86283447,0.00482839
4719.79164185,0.00490729
4721.72044922,0.00484898
4723.64925659,0.00479603
4725.57806396,0.00485642
4727.50687134,0.00472965
4729.43567871,0.00473475
4731.36448608,0.00470739
4733.29329346,0.00471287
4735.22210083,0.00481068
4737.15090820,0.00467761
4739.07971558,0.00468914
4741.00852295,0.00473033
4742.93733032,0.00472379
4744.86613770,0.00471641
4746.79494507,0.00470225
4748.72375244,0.00470570
4750.65255981,0.00464398
4752.58136719,0.00465648
4754.51017456,0.00464993
4756.43898193,0.00465878
4758.36778931,0.00460166
4760.29659668,0.00459849
4762.22540405,0.00463208
4764.15421143,0.00454549
4766.08301880,0.00455101
4768.01182617,0.00451990
4769.94063354,0.00461370
4771.86944092,0.00463559
4773.79824829,0.00450731
4775.72705566,0.00451100
4777.65586304,0.00451162
4779.58467041,0.00449903
4781.51347778,0.00440191
4783.44228516,0.00443225
4785.37109253,0.00449130
4787.29989990,0.00445861
4789.22870728,0.00445227
4791.15751465,0.00438555
4793.08632202,0.00436330
4795.01512939,0.00435370
4796.94393677,0.00442727
4798.87274414,0.00443627
4800.80155151,0.00437177
4802.73035889,0.00438768
4804.65916626,0.00435282
4806.58797363,0.00435914
4808.51678101,0.00434723
4810.44558838,0.00427952
4812.37439575,0.00424878
4814.30320312,0.00430158
4816.23201050,0.00429270
4818.16081787,0.00424696
4820.08962524,0.00430191
4822.01843262,0.00426882
4823.94723999,0.00424451
4825.87604736,0.00422361
4827.80485474,0.00419713
4829.73366211,0.00420095
4831.66246948,0.00415967
4833.59127686,0.00422590
4835.52008423,0.00421800
4837.44889160,0.00414829
4839.37769897,0.00419763
4841.30650635,0.00417373
4843.23531372,0.00415192
4845.16412109,0.00414561
4847.09292847,0.00409161
4849.02173584,0.00413512
4850.95054321,0.00411518
4852.87935059,0.00406252
4854.80815796,0.00410756
4856.73696533,0.00404972
4858.66577270,0.00400386
4860.59458008,0.00408120
4862.52338745,0.00410496
4864.45219482,0.00402029
4866.38100220,0.00395720
4868.30980957,0.00400893
4870.23861694,0.00404831
4872.16742432,0.00399672
4874.09623169,0.00401999
4876.02503906,0.00402412
4877.95384644,0.00389696
4879.88265381,0.00392258
4881.81146118,0.00395353
4883.74026855,0.00389796
4885.66907593,0.00390034
4887.59788330,0.00389681
4889.52669067,0.00388671
4891.45549805,0.00384455
4893.38430542,0.00391062
4895.31311279,0.00388567
4897.24192017,0.00381069
4899.17072754,0.00389091
4901.09953491,0.00387523
4903.02834228,0.00385005
4904.95714966,0.00381326
4906.88595703,0.00381085
4908.81476440,0.00379135
4910.74357178,0.00376774
4912.67237915,0.00382575
4914.60118652,0.00376572
4916.52999390,0.00376226
4918.45880127,0.00376503
4920.38760864,0.00375471
4922.31641602,0.00378650
4924.24522339,0.00373469
4926.17403076,0.00365529
4928.10283813,0.00367436
4930.03164551,0.00374442
4931.96045288,0.00371626
4933.88926025,0.00372566
4935.81806763,0.00366412
4937.74687500,0.00364083
4939.67568237,0.00367029
4941.60448975,0.00360754
4943.53329712,0.00359299
4945.46210449,0.00355324
4947.39091187,0.00362427
4949.31971924,0.00356150
4951.24852661,0.00350943
4953.17733398,0.00362225
4955.10614136,0.00355736
4957.03494873,0.00354086
4958.96375610,0.00353887
4960.89256348,0.00358551
4962.82137085,0.00355261
4964.75017822,0.00345932
4966.67898560,0.00351164
4968.60779297,0.00348321
4970.53660034,0.00342957
4972.46540771,0.00343668
4974.39421509,0.00351618
4976.32302246,0.00344978
4978.25182983,0.00340119
4980.18063721,0.00344765
4982.10944458,0.00340877
4984.03825195,0.00341408
4985.96705933,0.00336684
4987.89586670,0.00344751
4989.82467407,0.00343954
4991.75348145,0.00332789
4993.68228882,0.00336033
4995.61109619,0.00330708
4997.53990356,0.00335356
4999.46871094,0.00338034
5001.39751831,0.00331338
5003.32632568,0.00332114
5005.25513306,0.00330210
5007.18394043,0.00329710
5009.11274780,0.00331246
5011.04155518,0.00328840
5012.97036255,0.00329271
5014.89916992,0.00328299
5016.82797729,0.00323098
5018.75678467,0.00327144
5020.68559204,0.00323043
5022.61439941,0.00320947
5024.54320679,0.00325942
5026.47201416,0.00319576
5028.40082153,0.00321921
5030.32962891,0.00321396
5032.25843628,0.00317464
5034.18724365,0.00318860
5036.11605103,0.00317621
5038.04485840,0.00317693
5039.97366577,0.00315314
5041.90247314,0.00313532
5043.83128052,0.00313164
5045.76008789,0.00315593
5047.68889526,0.00317572
5049.61770264,0.00315620
5051.54651001,0.00312502
5053.47531738,0.00308419
5055.40412476,0.00306341
5057.33293213,0.00308398
5059.26173950,0.00306875
5061.19054687,0.00303491
5063.11935425,0.00311342
5065.04816162,0.00308701
5066.97696899,0.00301948
5068.90577637,0.00312425
5070.83458374,0.00311953
5072.76339111,0.00301788
5074.69219849,0.00306027
5076.62100586,0.00306568
5078.54981323,0.00295526
5080.47862061,0.00299214
5082.40742798,0.00303114
5084.33623535,0.00297810
5086.26504272,0.00299433
5088.19385010,0.00300799
5090.12265747,0.00300695
5092.05146484,0.00300684
5093.98027222,0.00296187
5095.90907959,0.00291308
5097.83788696,0.00293395
5099.76669434,0.00291773
5101.69550171,0.00292527
5103.62430908,0.00291375
5105.55311645,0.00285124
5107.48192383,0.00289221
5109.41073120,0.00289393
5111.33953857,0.00292066
5113.26834595,0.00288677
5115.19715332,0.00290820
5117.12596069,0.00292195
5119.05476807,0.00280646
5120.98357544,0.00287761
5122.91238281,0.00279635
5124.84119019,0.00281360
5126.76999756,0.00284378
5128.69880493,0.00271245
5130.62761230,0.00280862
5132.55641968,0.00276386
5134.48522705,0.00278825
5136.41403442,0.00282724
5138.34284180,0.00272334
5140.27164917,0.00272527
5142.20045654,0.00275087
5144.12926392,0.00277201
5146.05807129,0.00276240
5147.98687866,0.00277927
5149.91568603,0.00270621
5151.84449341,0.00271521
5153.77330078,0.00269255
5155.70210815,0.00262104
5157.63091553,0.00269301
5159.55972290,0.00266148
5161.48853027,0.00273512
5163.41733765,0.00270481
5165.34614502,0.00265168
5167.27495239,0.00270648
5169.20375977,0.00261941
5171.13256714,0.00266635
5173.06137451,0.00267867
5174.99018188,0.00262820
5176.91898926,0.00265192
5178.84779663,0.00266214
5180.77660400,0.00262988
5182.70541138,0.00260809
5184.63421875,0.00259397
5186.56302612,0.00255939
5188.49183350,0.00261471
5190.42064087,0.00256324
5192.34944824,0.00251831
5194.27825562,0.00257725
5196.20706299,0.00256910
5198.13587036,0.00254462
5200.06467773,0.00256707
5201.99348511,0.00263242
5203.92229248,0.00253679
5205.85109985,0.00244749
5207.77990723,0.00248642
5209.70871460,0.00249945
5211.63752197,0.00255000
5213.56632935,0.00255666
5215.49513672,0.00246406
5217.42394409,0.00244362
5219.35275146,0.00245319
5221.28155884,0.00240486
5223.21036621,0.00247037
5225.13917358,0.00245885
5227.06798096,0.00240496
5228.99678833,0.00244716
5230.92559570,0.00236229
5232.85440308,0.00238668
5234.78321045,0.00248670
5236.71201782,0.00242530
5238.64082520,0.00234155
5240.56963257,0.00241690
5242.49843994,0.00248295
5244.42724731,0.00235554
5246.35605469,0.00230525
5248.28486206,0.00233420
5250.21366943,0.00237531
5252.14247681,0.00238364
5254.07128418,0.00235436
5256.00009155,0.00232366
5257.92889893,0.00223833
5259.85770630,0.00231608
5261.78651367,0.00236549
5263.71532104,0.00229014
5265.64412842,0.00228538
5267.57293579,0.00227696
5269.50174316,0.00229991
5271.43055054,0.00227628
5273.35935791,0.00228681
5275.28816528,0.00234302
5277.21697266,0.00232203
5279.14578003,0.00232048
5281.07458740,0.00228423
5283.00339478,0.00235722
5284.93220215,0.00232983
5286.86100952,0.00219171
5288.78981689,0.00230634
5290.71862427,0.00220352
5292.64743164,0.00217934
5294.57623901,0.00234313
5296.50504639,0.00225021
5298.43385376,0.00229340
5300.36266113,0.00222499
5302.29146851,0.00216102
5304.22027588,0.00224210
5306.14908325,0.00216224
5308.07789062,0.00217535
5310.00669800,0.00215136
5311.93550537,0.00220362
5313.86431274,0.00223099
5315.79312012,0.00212883
5317.72192749,0.00220072
5319.65073486,0.00221482
5321.57954224,0.00222529
5323.50834961,0.00221326
5325.43715698,0.00213154
5327.36596436,0.00218260
5329.29477173,0.00219287
5331.22357910,0.00215108
5333.15238647,0.00215072
5335.08119385,0.00210239
5337.01000122,0.00205947
5338.93880859,0.00200002
5340.86761597,0.00199521
5342.79642334,0.00211797
5344.72523071,0.00208942
5346.65403809,0.00206677
5348.58284546,0.00213265
5350.51165283,0.00215407
5352.44046020,0.00214440
5354.36926758,0.00200801
5356.29807495,0.00201220
5358.22688232,0.00209866
5360.15568970,0.00205695
5362.08449707,0.00196848
5364.01330444,0.00195988
5365.94211182,0.00204668
5367.87091919,0.00201761
5369.79972656,0.00200230
5371.72853394,0.00201684
5373.65734131,0.00200781
5375.58614868,0.00200122
5377.51495605,0.00200817
5379.44376343,0.00201196
5381.37257080,0.00195484
5383.30137817,0.00195318
5385.23018555,0.00194278
5387.15899292,0.00198164
5389.08780029,0.00199345
5391.01660767,0.00197959
5392.94541504,0.00192627
5394.87422241,0.00182972
5396.80302978,0.00189749
5398.73183716,0.00184180
5400.66064453,0.00189338
5402.58945190,0.00197624
5404.51825928,0.00192243
5406.44706665,0.00195099
5408.37587402,0.00186232
5410.30468140,0.00189654
5412.23348877,0.00189849
5414.16229614,0.00186033
5416.09110352,0.00190923
5418.01991089,0.00188523
5419.94871826,0.00190942
5421.87752563,0.00185698
5423.80633301,0.00181193
5425.73514038,0.00180986
5427.66394775,0.00186081
5429.59275513,0.00186237
5431.52156250,0.00184559
5433.45036987,0.00185533
5435.37917725,0.00172452
5437.30798462,0.00181385
5439.23679199,0.00184712
5441.16559936,0.00172723
5443.09440674,0.00175832
5445.02321411,0.00177425
5446.95202148,0.00183795
5448.88082886,0.00181145
5450.80963623,0.00176691
5452.73844360,0.00185442
5454.66725098,0.00184162
5456.59605835,0.00176103
5458.52486572,0.00171955
5460.45367310,0.00173210
5462.38248047,0.00177368
5464.31128784,0.00168909
5466.24009521,0.00169921
5468.16890259,0.00177455
5470.09770996,0.00165961
5472.02651733,0.00174984
5473.95532471,0.00177221
5475.88413208,0.00165338
5477.81293945,0.00169346
5479.74174683,0.00165416
5481.67055420,0.00171193
5483.59936157,0.00172169
5485.52816895,0.00170809
5487.45697632,0.00172193
5489.38578369,0.00164752
5491.31459106,0.00170062
5493.24339844,0.00166806
5495.17220581,0.00164592
5497.10101318,0.00166119
5499.02982056,0.00162462
5500.95862793,0.00162878
5502.88743530,0.00161055
5504.81624268,0.00164502
5506.74505005,0.00165056
5508.67385742,0.00168378
5510.60266479,0.00171041
5512.53147217,0.00164396
5514.46027954,0.00165342
5516.38908691,0.00162918
5518.31789429,0.00153969
5520.24670166,0.00156718
5522.17550903,0.00159427
5524.10431641,0.00152881
5526.03312378,0.00158014
5527.96193115,0.00165679
5529.89073853,0.00162317
5531.81954590,0.00160253
5533.74835327,0.00156681
5535.67716064,0.00154169
5537.60596802,0.00162130
5539.53477539,0.00163773
5541.46358276,0.00157372
5543.39239014,0.00158952
5545.32119751,0.00161178
5547.25000488,0.00161479
5549.17881226,0.00156197
5551.10761963,0.00154472
5553.03642700,0.00155267
5554.96523437,0.00148862
5556.89404175,0.00153995
5558.82284912,0.00154597
5560.75165649,0.00153410
5562.68046387,0.00156862
5564.60927124,0.00149277
5566.53807861,0.00146637
5568.46688599,0.00151729
5570.39569336,0.00153479
5572.32450073,0.00149320
5574.25330811,0.00150446
5576.18211548,0.00152393
5578.11092285,0.00152681
5580.03973022,0.00149355
5581.96853760,0.00146529
5583.89734497,0.00151727
5585.82615234,0.00145330
5587.75495972,0.00148121
5589.68376709,0.00147450
5591.61257446,0.00140137
5593.54138184,0.00149948
5595.47018921,0.00143778
5597.39899658,0.00140237
5599.32780395,0.00150253
5601.25661133,0.00146966
5603.18541870,0.00140713
5605.11422607,0.00151014
5607.04303345,0.00153934
5608.97184082,0.00142342
5610.90064819,0.00146388
5612.82945557,0.00147124
5614.75826294,0.00144260
5616.68707031,0.00143427
5618.61587769,0.00140895
5620.54468506,0.00142596
5622.47349243,0.00141567
5624.40229980,0.00143526
5626.33110718,0.00142624
5628.25991455,0.00138292
5630.18872192,0.00136060
5632.11752930,0.00140419
5634.04633667,0.00138549
5635.97514404,0.00134971
5637.90395142,0.00143237
5639.83275879,0.00140483
5641.76156616,0.00138699
5643.69037353,0.00139895
5645.61918091,0.00139194
5647.54798828,0.00138809
5649.47679565,0.00138757
5651.40560303,0.00142802
5653.33441040,0.00134910
5655.26321777,0.00130477
5657.19202515,0.00130918
5659.12083252,0.00132566
5661.04963989,0.00137621
5662.97844727,0.00137081
5664.90725464,0.00133631
5666.83606201,0.00128562
5668.76486938,0.00136351
5670.69367676,0.00138663
5672.62248413,0.00129241
5674.55129150,0.00128645
5676.48009888,0.00131241
5678.40890625,0.00132545
5680.33771362,0.00127889
5682.26652100,0.00124984
5684.19532837,0.00126138
5686.12413574,0.00125737
5688.05294311,0.00132788
5689.98175049,0.00135370
5691.91055786,0.00121904
5693.83936523,0.00124360
5695.76817261,0.00132632
5697.69697998,0.00123688
5699.62578735,0.00122590
5701.55459473,0.00125592
5703.48340210,0.00128363
5705.41220947,0.00126405
5707.34101685,0.00124724
5709.26982422,0.00122131
5711.19863159,0.00116359
5713.12743896,0.00124745
5715.05624634,0.00118011
5716.98505371,0.00113933
5718.91386108,0.00122047
5720.84266846,0.00122329
5722.77147583,0.00123255
5724.70028320,0.00117866
5726.62909058,0.00122636
5728.55789795,0.00123180
5730.48670532,0.00121163
5732.41551270,0.00129247
5734.34432007,0.00128188
5736.27312744,0.00123622
5738.20193481,0.00119407
5740.13074219,0.00121488
5742.05954956,0.00121961
5743.98835693,0.00118679
5745.91716431,0.00117478
5747.84597168,0.00121221
5749.77477905,0.00120731
5751.70358643,0.00115666
5753.63239380,0.00118157
5755.56120117,0.00114307
5757.49000854,0.00121338
5759.41881592,0.00121887
5761.34762329,0.00110415
5763.27643066,0.00112744
5765.20523804,0.00112041
5767.13404541,0.00114630
5769.06285278,0.00113366
5770.99166016,0.00111297
5772.92046753,0.00111133
5774.84927490,0.00114543
5776.77808228,0.00120172
5778.70688965,0.00110756
5780.63569702,0.00108325
5782.56450439,0.00105673
5784.49331177,0.00106990
5786.42211914,0.00111195
5788.35092651,0.00105466
5790.27973389,0.00108352
5792.20854126,0.00110655
5794.13734863,0.00108536
5796.06615601,0.00105824
5797.99496338,0.00103671
5799.92377075,0.00099222
5801.85257812,0.00105042
5803.78138550,0.00108694
5805.71019287,0.00103824
5807.63900024,0.00113376
5809.56780762,0.00109637
5811.49661499,0.00105305
5813.42542236,0.00102096
5815.35422974,0.00100212
5817.28303711,0.00109915
5819.21184448,0.00103474
5821.14065186,0.00103643
5823.06945923,0.00104548
5824.99826660,0.00107511
5826.92707397,0.00106043
5828.85588135,0.00093941
5830.78468872,0.00104982
5832.71349609,0.00106418
5834.64230347,0.00107304
5836.57111084,0.00112509
5838.49991821,0.00100903
5840.42872559,0.00098325
5842.35753296,0.00102505
5844.28634033,0.00102616
5846.21514770,0.00101297
5848.14395508,0.00107782
5850.07276245,0.00104465
5852.00156982,0.00098308
5853.93037720,0.00104681
5855.85918457,0.00097045
5857.78799194,0.00092719
5859.71679932,0.00097896
5861.64560669,0.00099665
5863.57441406,0.00100763
5865.50322144,0.00098018
5867.43202881,0.00096514
5869.36083618,0.00097618
5871.28964355,0.00103068
5873.21845093,0.00097386
5875.14725830,0.00090385
5877.07606567,0.00105009
5879.00487305,0.00107580
5880.93368042,0.00092040
5882.86248779,0.00090085
5884.79129517,0.00098416
5886.72010254,0.00093338
5888.64890991,0.00089653
5890.57771728,0.00100199
5892.50652466,0.00094106
5894.43533203,0.00086664
5896.36413940,0.00091839
5898.29294678,0.00090292
5900.22175415,0.00089754
5902.15056152,0.00091091
5904.07936890,0.00093584
5906.00817627,0.00091483
5907.93698364,0.00091577
5909.86579102,0.00094054
5911.79459839,0.00085230
5913.72340576,0.00087788
5915.65221313,0.00094309
5917.58102051,0.00092880
5919.50982788,0.00091395
5921.43863525,0.00094940
5923.36744263,0.00096432
5925.29625000,0.00088825
5927.22505737,0.00096409
5929.15386475,0.00088304
5931.08267212,0.00078291
5933.01147949,0.00094151
5934.94028686,0.00087704
5936.86909424,0.00086180
5938.79790161,0.00088590
5940.72670898,0.00078993
5942.65551636,0.00086065
5944.58432373,0.00090976
5946.51313110,0.00087893
5948.44193848,0.00087880
5950.37074585,0.00091266
5952.29955322,0.00087173
5954.22836060,0.00084093
5956.15716797,0.00085968
5958.08597534,0.00081776
5960.01478271,0.00085876
5961.94359009,0.00090641
5963.87239746,0.00087013
5965.80120483,0.00081032
5967.73001221,0.00081794
5969.65881958,0.00081869
5971.58762695,0.00078387
5973.51643433,0.00086000
5975.44524170,0.00087516
5977.37404907,0.00086748
5979.30285645,0.00083321
5981.23166382,0.00075591
5983.16047119,0.00080584
5985.08927856,0.00080340
5987.01808594,0.00082137
5988.94689331,0.00083820
5990.87570068,0.00074188
5992.80450806,0.00078857
5994.73331543,0.00083124
5996.66212280,0.00083183
5998.59093018,0.00088540
6000.51973755,0.00080466
