399.26312622,0.00075528
401.19193359,0.00088780
403.12074097,0.00040972
405.04954834,0.00076784
406.97835571,0.00090549
408.90716309,0.00094560
410.83597046,0.00091345
412.76477783,0.00090055
414.69358521,0.00087661
416.62239258,0.00094364
418.55119995,0.00081579
420.48000732,0.00071169
422.40881470,0.00115661
424.33762207,0.00096943
426.26642944,0.00105355
428.19523682,0.00136853
430.12404419,0.00123213
432.05285156,0.00130583
433.98165894,0.00090785
435.91046631,0.00072940
437.83927368,0.00110563
439.76808105,0.00096113
441.69688843,0.00096153
443.62569580,0.00115241
445.55450317,0.00089933
447.48331055,0.00076414
449.41211792,0.00090058
451.34092529,0.00114582
453.26973267,0.00089658
455.19854004,0.00054965
457.12734741,0.00064425
459.05615479,0.00063440
460.98496216,0.00072528
462.91376953,0.00069310
464.84257690,0.00088159
466.77138428,0.00058404
468.70019165,0.00030164
470.62899902,0.00098198
472.55780640,0.00053955
474.48661377,0.00035072
476.41542114,0.00070771
478.34422852,0.00045223
480.27303589,0.00045225
482.20184326,0.00040879
484.13065063,0.00022648
486.05945801,0.00003939
487.98826538,0.00044203
489.91707275,0.00040724
491.84588013,0.00015415
493.77468750,0.00021858
495.70349487,0.00009457
497.63230225,0.00068525
499.56110962,0.00027486
501.48991699,-0.00012238
503.41872437,0.00027367
505.34753174,0.00012084
507.27633911,0.00016064
509.20514648,-0.00003524
511.13395386,0.00007523
513.06276123,-0.00035073
514.99156860,-0.00032084
516.92037598,0.00042161
518.84918335,-0.00005457
520.77799072,0.00049294
522.70679810,0.00075302
524.63560547,0.00027669
526.56441284,0.00024221
528.49322021,0.00017076
530.42202759,0.00053588
532.35083496,0.00021933
534.27964233,0.00033205
536.20844971,0.00039326
538.13725708,-0.00027638
540.06606445,-0.00002933
541.99487183,0.00013541
543.92367920,0.00008246
545.85248657,0.00039293
547.78129395,0.00058335
549.71010132,0.00013853
551.63890869,-0.00007504
553.56771606,0.00021594
555.49652344,0.00035432
557.42533081,0.00017715
559.35413818,0.00011311
561.28294556,0.00052828
563.21175293,0.00007289
565.14056030,0.00004569
567.06936768,0.00039543
568.99817505,-0.00010733
570.92698242,-0.00004220
572.85578979,-0.00008001
574.78459717,-0.00001615
576.71340454,0.00000011
578.64221191,-0.00030571
580.57101929,0.00021596
582.49982666,0.00060555
584.42863403,0.00029986
586.35744141,0.00003443
588.28624878,0.00033330
590.21505615,0.00036808
592.14386353,0.00027030
594.07267090,0.00049889
596.00147827,0.00020458
597.93028564,0.00004622
599.85909302,-0.00002572
601.78790039,-0.00012269
603.71670776,0.00038105
605.64551514,0.00058968
607.57432251,0.00014369
609.50312988,0.00005663
611.43193726,0.00015856
613.36074463,0.00031301
615.28955200,0.00027815
617.21835938,0.00019863
619.14716675,0.00033567
621.07597412,0.00021977
623.00478149,0.00014062
624.93358887,-0.00030007
626.86239624,-0.00004299
628.79120361,0.00047592
630.72001099,0.00045955
632.64881836,0.00076758
634.57762573,0.00076180
636.50643311,0.00063696
638.43524048,0.00067970
640.36404785,0.00086787
642.29285522,0.00103690
644.22166260,0.00115625
646.15046997,0.00141810
648.07927734,0.00172060
650.00808472,0.00173836
651.93689209,0.00120292
653.86569946,0.00145518
655.79450684,0.00181232
657.72331421,0.00145576
659.65212158,0.00179385
661.58092896,0.00171124
663.50973633,0.00145801
665.43854370,0.00187498
667.36735107,0.00181360
669.29615845,0.00187992
671.22496582,0.00210758
673.15377319,0.00231081
675.08258057,0.00241384
677.01138794,0.00256070
678.94019531,0.00279163
680.86900269,0.00247322
682.79781006,0.00275392
684.72661743,0.00274907
686.65542480,0.00245155
688.58423218,0.00264977
690.51303955,0.00257121
692.44184692,0.00289412
694.37065430,0.00285002
696.29946167,0.00318994
698.22826904,0.00377842
700.15707642,0.00372552
702.08588379,0.00388878
704.01469116,0.00356548
705.94349854,0.00318306
707.87230591,0.00270415
709.80111328,0.00232907
711.72992065,0.00151575
713.65872803,0.00066487
715.58753540,0.00078958
717.51634277,0.00009473
719.44515015,0.00003959
721.37395752,0.00046184
723.30276489,0.00022648
725.23157227,0.00030138
727.16037964,0.00015675
729.08918701,-0.00008233
731.01799438,0.00019687
732.94680176,0.00057665
734.87560913,0.00002972
736.80441650,0.00017813
738.73322388,0.00047240
740.66203125,0.00018715
742.59083862,0.00048480
744.51964600,0.00000943
746.44845337,-0.00009205
748.37726074,0.00038063
750.30606812,0.00044514
752.23487549,0.00023984
754.16368286,0.00027420
756.09249023,0.00053234
758.02129761,0.00032334
759.95010498,0.00027805
761.87891235,0.00023757
763.80771973,0.00003257
765.73652710,0.00014934
767.66533447,0.00023691
769.59414185,0.00039556
771.52294922,0.00033149
773.45175659,0.00026147
775.38056396,0.00034000
777.30937134,0.00019543
779.23817871,0.00017751
781.16698608,0.00033232
783.09579346,0.00027821
785.02460083,0.00006079
786.95340820,0.00018627
788.88221558,0.00018335
790.81102295,0.00018539
792.73983032,0.00036508
794.66863770,0.00036595
796.59744507,0.00036664
798.52625244,0.00052759
800.45505981,0.00047201
802.38386719,0.00053124
804.31267456,0.00062045
806.24148193,0.00003832
808.17028931,0.00049974
810.09909668,0.00062583
812.02790405,0.00002319
813.95671143,0.00052219
815.88551880,0.00037082
817.81432617,0.00030179
819.74313354,0.00022415
821.67194092,0.00007083
823.60074829,0.00063938
825.52955566,0.00049495
827.45836304,0.00041568
829.38717041,0.00063710
831.31597778,0.00066608
833.24478516,0.00084577
835.17359253,0.00105778
837.10239990,0.00086536
839.03120728,0.00093601
840.96001465,0.00118035
842.88882202,0.00074567
844.81762939,0.00061366
846.74643677,0.00053774
848.67524414,0.00069740
850.60405151,0.00079291
852.53285889,0.00049072
854.46166626,0.00074110
856.39047363,0.00056388
858.31928101,0.00030188
860.24808838,0.00035234
862.17689575,0.00022062
864.10570313,0.00026188
866.03451050,0.00032884
867.96331787,0.00043951
869.89212524,0.00052062
871.82093262,0.00027106
873.74973999,0.00022015
875.67854736,0.00032005
877.60735474,0.00025229
879.53616211,0.00033432
881.46496948,0.00037581
883.39377686,0.00046840
885.32258423,0.00076737
887.25139160,0.00060130
889.18019897,0.00024100
891.10900635,0.00038890
893.03781372,0.00041611
894.96662109,0.00054702
896.89542847,0.00067586
898.82423584,0.00030837
900.75304321,0.00035785
902.68185059,0.00037255
904.61065796,0.00019127
906.53946533,0.00025655
908.46827271,0.00041954
910.39708008,0.00051719
912.32588745,0.00040564
914.25469482,0.00066652
916.18350220,0.00065482
918.11230957,0.00044038
920.04111694,0.00083281
921.96992432,0.00077058
923.89873169,0.00076595
925.82753906,0.00101534
927.75634644,0.00102788
929.68515381,0.00105709
931.61396118,0.00091253
933.54276855,0.00102187
935.47157593,0.00110480
937.40038330,0.00128523
939.32919067,0.00133540
941.25799805,0.00130133
943.18680542,0.00161520
945.11561279,0.00120214
947.04442017,0.00117375
948.97322754,0.00152750
950.90203491,0.00149168
952.83084229,0.00165867
954.75964966,0.00141511
956.68845703,0.00123253
958.61726440,0.00138599
960.54607178,0.00140457
962.47487915,0.00130706
964.40368652,0.00134847
966.33249390,0.00143567
968.26130127,0.00141401
970.19010864,0.00151790
972.11891602,0.00147541
974.04772339,0.00174599
975.97653076,0.00188501
977.90533813,0.00172722
979.83414551,0.00225355
981.76295288,0.00259950
983.69176025,0.00249368
985.62056763,0.00264859
987.54937500,0.00308100
989.47818237,0.00330808
991.40698975,0.00351042
993.33579712,0.00398181
995.26460449,0.00416269
997.19341187,0.00448309
999.12221924,0.00504983
1001.05102661,0.00538549
1002.97983398,0.00576116
1004.90864136,0.00615020
1006.83744873,0.00642436
1008.76625610,0.00673366
1010.69506348,0.00718045
1012.62387085,0.00751520
1014.55267822,0.00775788
1016.48148560,0.00834301
1018.41029297,0.00892562
1020.33910034,0.00917942
1022.26790771,0.00949979
1024.19671509,0.00992602
1026.12552246,0.01027296
1028.05432983,0.01057277
1029.98313721,0.01098471
1031.91194458,0.01134997
1033.84075195,0.01135089
1035.76955933,0.01144349
1037.69836670,0.01177506
1039.62717407,0.01181312
1041.55598145,0.01168324
1043.48478882,0.01158597
1045.41359619,0.01149971
1047.34240356,0.01152799
1049.27121094,0.01125896
1051.20001831,0.01085061
1053.12882568,0.01083567
1055.05763306,0.01059648
1056.98644043,0.01023230
1058.91524780,0.01024397
1060.84405518,0.00998342
1062.77286255,0.00950795
1064.70166992,0.00924123
1066.63047729,0.00885434
1068.55928467,0.00852630
1070.48809204,0.00829380
1072.41689941,0.00787967
1074.34570679,0.00753981
1076.27451416,0.00708515
1078.20332153,0.00672380
1080.13212891,0.00657262
1082.06093628,0.00610627
1083.98974365,0.00575840
1085.91855103,0.00561198
1087.84735840,0.00532065
1089.77616577,0.00510694
1091.70497314,0.00502020
1093.63378052,0.00472348
1095.56258789,0.00441434
1097.49139526,0.00444376
1099.42020264,0.00436643
1101.34901001,0.00417287
1103.27781738,0.00412277
1105.20662476,0.00412029
1107.13543213,0.00400592
1109.06423950,0.00381407
1110.99304687,0.00383051
1112.92185425,0.00387211
1114.85066162,0.00373617
1116.77946899,0.00383384
1118.70827637,0.00395989
1120.63708374,0.00378211
1122.56589111,0.00401972
1124.49469849,0.00414697
1126.42350586,0.00394628
1128.35231323,0.00400674
1130.28112061,0.00384751
1132.20992798,0.00410419
1134.13873535,0.00467706
1136.06754272,0.00468748
1137.99635010,0.00462202
1139.92515747,0.00507003
1141.85396484,0.00549668
1143.78277222,0.00552754
1145.71157959,0.00595572
1147.64038696,0.00634708
1149.56919434,0.00671996
1151.49800171,0.00714148
1153.42680908,0.00720276
1155.35561646,0.00752411
1157.28442383,0.00792740
1159.21323120,0.00840442
1161.14203857,0.00852408
1163.07084595,0.00870752
1164.99965332,0.00923995
1166.92846069,0.00936595
1168.85726807,0.00981744
1170.78607544,0.01008924
1172.71488281,0.01047394
1174.64369019,0.01110686
1176.57249756,0.01140505
1178.50130493,0.01193586
1180.43011230,0.01215142
1182.35891968,0.01280709
1184.28772705,0.01354697
1186.21653442,0.01382334
1188.14534180,0.01467322
1190.07414917,0.01533776
1192.00295654,0.01592065
1193.93176392,0.01659279
1195.86057129,0.01737002
1197.78937866,0.01835550
1199.71818604,0.01895991
1201.64699341,0.01968762
1203.57580078,0.02057991
1205.50460815,0.02148697
1207.43341553,0.02240147
1209.36222290,0.02301750
1211.29103027,0.02335167
1213.21983765,0.02398705
1215.14864502,0.02492335
1217.07745239,0.02525260
1219.00625977,0.02567542
1220.93506714,0.02603539
1222.86387451,0.02623004
1224.79268188,0.02677866
1226.72148926,0.02669783
1228.65029663,0.02692015
1230.57910400,0.02722053
1232.50791138,0.02705312
1234.43671875,0.02707988
1236.36552612,0.02690535
1238.29433350,0.02705348
1240.22314087,0.02705678
1242.15194824,0.02702846
1244.08075562,0.02690045
1246.00956299,0.02653622
1247.93837036,0.02665274
1249.86717773,0.02633779
1251.79598511,0.02621779
1253.72479248,0.02599777
1255.65359985,0.02548525
1257.58240723,0.02530841
1259.51121460,0.02487561
1261.44002197,0.02463498
1263.36882935,0.02426758
1265.29763672,0.02400087
1267.22644409,0.02365633
1269.15525146,0.02324801
1271.08405884,0.02300446
1273.01286621,0.02229706
1274.94167358,0.02205813
1276.87048096,0.02178529
1278.79928833,0.02137451
1280.72809570,0.02105704
1282.65690308,0.02060647
1284.58571045,0.02033650
1286.51451782,0.01975474
1288.44332520,0.01949666
1290.37213257,0.01941392
1292.30093994,0.01915431
1294.22974731,0.01901787
1296.15855469,0.01873501
1298.08736206,0.01855645
1300.01616943,0.01876275
1301.94497681,0.01902063
1303.87378418,0.01913765
1305.80259155,0.01935033
1307.73139893,0.01944390
1309.66020630,0.01995100
1311.58901367,0.02026908
1313.51782104,0.02033304
1315.44662842,0.02114423
1317.37543579,0.02143364
1319.30424316,0.02177908
1321.23305054,0.02268363
1323.16185791,0.02353278
1325.09066528,0.02425544
1327.01947266,0.02476994
1328.94828003,0.02552152
1330.87708740,0.02602787
1332.80589478,0.02660047
1334.73470215,0.02715171
1336.66350952,0.02720793
1338.59231689,0.02696321
1340.52112427,0.02728781
1342.44993164,0.02855206
1344.37873901,0.02876787
1346.30754639,0.02853629
1348.23635376,0.02857744
1350.16516113,0.02848136
1352.09396851,0.02839746
1354.02277588,0.02795243
1355.95158325,0.02783828
1357.88039062,0.02760888
1359.80919800,0.02718351
1361.73800537,0.02573043
1363.66681274,0.02521587
1365.59562012,0.02701383
1367.52442749,0.02617909
1369.45323486,0.02586867
1371.38204224,0.02648243
1373.31084961,0.02457464
1375.23965698,0.02495815
1377.16846436,0.02606059
1379.09727173,0.02601889
1381.02607910,0.02610474
1382.95488647,0.02593042
1384.88369385,0.02581985
1386.81250122,0.02447350
1388.74130859,0.02471352
1390.67011597,0.02717616
1392.59892334,0.02634611
1394.52773071,0.02416475
1396.45653809,0.02557381
1398.38534546,0.02543832
1400.31415283,0.02535719
1402.24296021,0.02791438
1404.17176758,0.02613573
1406.10057495,0.02625119
1408.02938232,0.02757568
1409.95818970,0.02644417
1411.88699707,0.02692884
1413.81580444,0.02600250
1415.74461182,0.02653223
1417.67341919,0.02346296
1419.60222656,0.02058653
1421.53103394,0.02447836
1423.45984131,0.02378889
1425.38864868,0.02300463
1427.31745605,0.02360461
1429.24626343,0.02160109
1431.17507080,0.02102277
1433.10387817,0.02151296
1435.03268555,0.01927607
1436.96149292,0.01596872
1438.89030029,0.01852057
1440.81910767,0.01924227
1442.74791504,0.01785331
1444.67672241,0.01904003
1446.60552979,0.01731278
1448.53433716,0.01732604
1450.46314453,0.01814957
1452.39195190,0.01846161
1454.32075928,0.01892521
1456.24956665,0.01508565
1458.17837402,0.01565986
1460.10718140,0.02181060
1462.03598877,0.02341583
1463.96479614,0.02280208
1465.89360352,0.02360062
1467.82241089,0.02759133
1469.75121826,0.02959081
1471.68002563,0.02533379
1473.60883301,0.02679430
1475.53764038,0.03083592
1477.46644775,0.03341399
1479.39525513,0.03707761
1481.32406250,0.03729348
1483.25286987,0.03986911
1485.18167725,0.04103441
1487.11048462,0.03998816
1489.03929199,0.03903494
1490.96809937,0.03909928
1492.89690674,0.04703177
1494.82571411,0.04529419
1496.75452148,0.03977487
1498.68332886,0.04576876
1500.61213623,0.04731168
1502.54094360,0.05135226
1504.46975098,0.04778329
1506.39855835,0.03237344
1508.32736572,0.04090048
1510.25617310,0.04949499
1512.18498047,0.04782799
1514.11378784,0.05255561
1516.04259521,0.04626510
1517.97140259,0.04844644
1519.90020996,0.04671650
1521.82901733,0.03886231
1523.75782471,0.04979027
1525.68663208,0.04883122
1527.61543945,0.04821102
1529.54424683,0.05475529
1531.47305420,0.05207241
1533.40186157,0.04654285
1535.33066895,0.05001408
1537.25947632,0.05439502
1539.18828369,0.03637177
1541.11709106,0.03809609
1543.04589844,0.04742445
1544.97470581,0.04529829
1546.90351318,0.05567198
1548.83232056,0.05112789
1550.76112793,0.05294019
1552.68993530,0.05252596
1554.61874268,0.04648242
1556.54755005,0.05066369
1558.47635742,0.03296624
1560.40516479,0.03650524
1562.33397217,0.05583841
1564.26277954,0.05187418
1566.19158691,0.05387941
1568.12039429,0.05313409
1570.04920166,0.04589089
1571.97800903,0.05465965
1573.90681641,0.05525807
1575.83562378,0.04162195
1577.76443115,0.04842385
1579.69323853,0.05623236
1581.62204590,0.05318762
1583.55085327,0.05460007
1585.47966064,0.05373937
1587.40846802,0.05406515
1589.33727539,0.05348936
1591.26608276,0.05350424
1593.19489014,0.05350477
1595.12369751,0.05269383
1597.05250488,0.05358136
1598.98131226,0.05317938
1600.91011963,0.05341585
1602.83892700,0.05206664
1604.76773437,0.05320729
1606.69654175,0.05228985
1608.62534912,0.05197094
1610.55415649,0.05209214
1612.48296387,0.05244256
1614.41177124,0.05342321
1616.34057861,0.04200131
1618.26938599,0.04609730
1620.19819336,0.05548295
1622.12700073,0.04796214
1624.05580811,0.04836600
1625.98461548,0.05152225
1627.91342285,0.05101850
1629.84223022,0.05113261
1631.77103760,0.05540743
1633.69984497,0.05027459
1635.62865234,0.03993490
1637.55745972,0.04813820
1639.48626709,0.05442107
1641.41507446,0.05314979
1643.34388184,0.05501813
1645.27268921,0.04865456
1647.20149658,0.04148538
1649.13030396,0.05421701
1651.05911133,0.05144060
1652.98791870,0.03000732
1654.91672607,0.04362012
1656.84553345,0.05771367
1658.77434082,0.05509781
1660.70314819,0.05682015
1662.63195557,0.05093716
1664.56076294,0.05426458
1666.48957031,0.05962452
1668.41837769,0.05050760
1670.34718506,0.04874965
1672.27599243,0.05729929
1674.20479980,0.05173184
1676.13360718,0.04933307
1678.06241455,0.05867719
1679.99122192,0.05612057
1681.92002930,0.05529808
1683.84883667,0.04316403
1685.77764404,0.04307338
1687.70645142,0.06243911
1689.63525879,0.05277285
1691.56406616,0.05947560
1693.49287354,0.06081066
1695.42168091,0.04184895
1697.35048828,0.05388746
1699.27929565,0.04577551
1701.20810303,0.04048650
1703.13691040,0.05889054
1705.06571777,0.05282247
1706.99452515,0.05381259
1708.92333252,0.05953930
1710.85213989,0.05667987
1712.78094727,0.05788051
1714.70975464,0.05274888
1716.63856201,0.04659067
1718.56736938,0.04570428
1720.49617676,0.05598738
1722.42498413,0.05888092
1724.35379150,0.05369022
1726.28259888,0.05954918
1728.21140625,0.05427776
1730.14021362,0.05448297
1732.06902100,0.05331118
1733.99782837,0.03817658
1735.92663574,0.04991917
1737.85544312,0.05617540
1739.78425049,0.04863193
1741.71305786,0.05411607
1743.64186523,0.05471672
1745.57067261,0.05472293
1747.49947998,0.05498361
1749.42828735,0.05200891
1751.35709473,0.04946228
1753.28590210,0.05590536
1755.21470947,0.05904828
1757.14351685,0.05257743
1759.07232422,0.05916406
1761.00113159,0.05497767
1762.92993896,0.05248870
1764.85874634,0.06189708
1766.78755371,0.05443507
1768.71636108,0.05505137
1770.64516846,0.05445082
1772.57397583,0.04780158
1774.50278320,0.05474176
1776.43159058,0.05821667
1778.36039795,0.05729482
1780.28920532,0.05642140
1782.21801270,0.05711368
1784.14682007,0.05697680
1786.07562744,0.05554727
1788.00443481,0.05925342
1789.93324219,0.05722617
1791.86204956,0.05042040
1793.79085693,0.05329553
1795.71966431,0.05811316
1797.64847168,0.05711794
1799.57727905,0.05604349
1801.50608643,0.05474868
1803.43489380,0.05692973
1805.36370117,0.05845106
1807.29250854,0.05751912
1809.22131592,0.05774344
1811.15012329,0.05569685
1813.07893066,0.05792058
1815.00773804,0.05833267
1816.93654541,0.05737959
1818.86535278,0.05782256
1820.79416016,0.05771667
1822.72296753,0.05875340
1824.65177490,0.05394089
1826.58058228,0.05653101
1828.50938965,0.05651122
1830.43819702,0.05223114
1832.36700439,0.05804997
1834.29581177,0.05751728
1836.22461914,0.05751937
1838.15342651,0.05716578
1840.08223389,0.05758048
1842.01104126,0.05763742
1843.93984863,0.04975580
1845.86865601,0.05393165
1847.79746338,0.05749152
1849.72627075,0.05613359
1851.65507812,0.05814474
1853.58388550,0.05649711
1855.51269287,0.05726584
1857.44150024,0.05694090
1859.37030762,0.05652653
1861.29911499,0.05707120
1863.22792236,0.05619508
1865.15672974,0.05693962
1867.08553711,0.05459555
1869.01434448,0.05164399
1870.94315186,0.05431685
1872.87195923,0.05686809
1874.80076660,0.05578747
1876.72957397,0.05635648
1878.65838135,0.05599454
1880.58718872,0.05555721
1882.51599609,0.05623080
1884.44480347,0.05508130
1886.37361084,0.05600335
1888.30241821,0.05440501
1890.23122559,0.05321947
1892.16003296,0.05579349
1894.08884033,0.05476683
1896.01764771,0.05452449
1897.94645508,0.05531783
1899.87526245,0.05485724
1901.80406982,0.05499582
1903.73287720,0.05469193
1905.66168457,0.05497778
1907.59049194,0.05428003
1909.51929932,0.05385461
1911.44810669,0.05422522
1913.37691406,0.05439789
1915.30572144,0.05484974
1917.23452881,0.05181839
1919.16333618,0.05211348
1921.09214355,0.05443660
1923.02095093,0.05224714
1924.94975830,0.05374576
1926.87856567,0.05437462
1928.80737305,0.05345624
1930.73618042,0.05431356
1932.66498779,0.05349385
1934.59379517,0.05401253
1936.52260254,0.05345654
1938.45140991,0.05382589
1940.38021729,0.05371765
1942.30902466,0.05158545
1944.23783203,0.05297116
1946.16663940,0.05349274
1948.09544678,0.05331639
1950.02425415,0.05359982
1951.95306152,0.05338923
1953.88186890,0.05340201
1955.81067627,0.05293936
1957.73948364,0.05324817
1959.66829102,0.05319329
1961.59709839,0.05312574
1963.52590576,0.05326574
1965.45471313,0.05269873
1967.38352051,0.05213424
1969.31232788,0.05262528
1971.24113525,0.05309132
1973.16994263,0.05261790
1975.09875000,0.05286857
1977.02755737,0.05262334
1978.95636475,0.05260548
1980.88517212,0.05267229
1982.81397949,0.05232254
1984.74278687,0.05254834
1986.67159424,0.05198371
1988.60040161,0.05208861
1990.52920898,0.05164053
1992.45801636,0.05087608
1994.38682373,0.05181014
1996.31563110,0.05195834
1998.24443848,0.05162942
2000.17324585,0.05153678
2002.10205322,0.05145977
2004.03086060,0.05157210
2005.95966797,0.05134179
2007.88847534,0.05111179
2009.81728271,0.05113114
2011.74609009,0.05101202
2013.67489746,0.05086687
2015.60370483,0.05052567
2017.53251221,0.05004008
2019.46131958,0.05028583
2021.39012695,0.05046958
2023.31893433,0.05029614
2025.24774170,0.05026949
2027.17654907,0.05010035
2029.10535645,0.04994978
2031.03416382,0.04987146
2032.96297119,0.04985331
2034.89177856,0.04970387
2036.82058594,0.04958780
2038.74939331,0.04954305
2040.67820068,0.04920667
2042.60700806,0.04899004
2044.53581543,0.04911363
2046.46462280,0.04908206
2048.39343018,0.04888453
2050.32223755,0.04885384
2052.25104492,0.04875468
2054.17985229,0.04861458
2056.10865967,0.04848526
2058.03746704,0.04833169
2059.96627441,0.04824787
2061.89508179,0.04816534
2063.82388916,0.04793547
2065.75269653,0.04779651
2067.68150391,0.04790348
2069.61031128,0.04772646
2071.53911865,0.04766266
2073.46792603,0.04765347
2075.39673340,0.04755324
2077.32554077,0.04750881
2079.25434814,0.04724113
2081.18315552,0.04733582
2083.11196289,0.04721359
2085.04077026,0.04699083
2086.96957764,0.04713371
2088.89838501,0.04683193
2090.82719238,0.04662071
2092.75599976,0.04674526
2094.68480713,0.04670211
2096.61361450,0.04660004
2098.54242187,0.04660068
2100.47122925,0.04645365
2102.40003662,0.04625851
2104.32884399,0.04621396
2106.25765137,0.04623985
2108.18645874,0.04607075
2110.11526611,0.04584176
2112.04407349,0.04601477
2113.97288086,0.04592942
2115.90168823,0.04580409
2117.83049561,0.04584116
2119.75930298,0.04565938
2121.68811035,0.04564929
2123.61691772,0.04561049
2125.54572510,0.04552714
2127.47453247,0.04555058
2129.40333984,0.04554317
2131.33214722,0.04534198
2133.26095459,0.04530473
2135.18976196,0.04530887
2137.11856934,0.04516388
2139.04737671,0.04513830
2140.97618408,0.04494165
2142.90499146,0.04502123
2144.83379883,0.04490613
2146.76260620,0.04469470
2148.69141357,0.04490653
2150.62022095,0.04476091
2152.54902832,0.04466028
2154.47783569,0.04469280
2156.40664307,0.04469730
2158.33545044,0.04467240
2160.26425781,0.04455889
2162.19306519,0.04446958
2164.12187256,0.04443099
2166.05067993,0.04441231
2167.97948730,0.04438595
2169.90829468,0.04437101
2171.83710205,0.04413284
2173.76590942,0.04418660
2175.69471680,0.04421844
2177.62352417,0.04414975
2179.55233154,0.04409593
2181.48113892,0.04387480
2183.40994629,0.04406587
2185.33875366,0.04392235
2187.26756104,0.04385954
2189.19636841,0.04385821
2191.12517578,0.04367609
2193.05398315,0.04381073
2194.98279053,0.04348736
2196.91159790,0.04344435
2198.84040527,0.04354906
2200.76921265,0.04335944
2202.69802002,0.04331657
2204.62682739,0.04335371
2206.55563477,0.04344847
2208.48444214,0.04335256
2210.41324951,0.04327567
2212.34205688,0.04318838
2214.27086426,0.04318303
2216.19967163,0.04314967
2218.12847900,0.04307244
2220.05728638,0.04306650
2221.98609375,0.04290634
2223.91490112,0.04286021
2225.84370850,0.04288716
2227.77251587,0.04285562
2229.70132324,0.04272670
2231.63013062,0.04269016
2233.55893799,0.04263795
2235.48774536,0.04256701
2237.41655273,0.04250520
2239.34536011,0.04243764
2241.27416748,0.04242525
2243.20297485,0.04225586
2245.13178223,0.04231361
2247.06058960,0.04215403
2248.98939697,0.04214244
2250.91820435,0.04221459
2252.84701172,0.04200308
2254.77581909,0.04208311
2256.70462646,0.04177447
2258.63343384,0.04176275
2260.56224121,0.04173925
2262.49104858,0.04157835
2264.41985596,0.04164506
2266.34866333,0.04145133
2268.27747070,0.04164529
2270.20627808,0.04151558
2272.13508545,0.04140805
2274.06389282,0.04133371
2275.99270020,0.04121339
2277.92150757,0.04148382
2279.85031494,0.04132029
2281.77912231,0.04129716
2283.70792969,0.04127686
2285.63673706,0.04112491
2287.56554443,0.04106422
2289.49435181,0.04098471
2291.42315918,0.04084422
2293.35196655,0.04076361
2295.28077393,0.04078516
2297.20958130,0.04048534
2299.13838867,0.04043499
2301.06719604,0.04027719
2302.99600342,0.04007787
2304.92481079,0.03991849
2306.85361816,0.03961521
2308.78242554,0.03952676
2310.71123291,0.03911855
2312.64004028,0.03885676
2314.56884766,0.03859535
2316.49765503,0.03810449
2318.42646240,0.03750581
2320.35526978,0.03716855
2322.28407715,0.03697844
2324.21288452,0.03630270
2326.14169189,0.03601354
2328.07049927,0.03556202
2329.99930664,0.03510828
2331.92811401,0.03491557
2333.85692139,0.03461490
2335.78572876,0.03460926
2337.71453613,0.03450428
2339.64334351,0.03456152
2341.57215088,0.03474713
2343.50095825,0.03517049
2345.42976562,0.03575458
2347.35857300,0.03695029
2349.28738037,0.03802760
2351.21618774,0.03693075
2353.14499512,0.03533244
2355.07380249,0.03420102
2357.00260986,0.03310073
2358.93141724,0.03248997
2360.86022461,0.03232382
2362.78903198,0.03213947
2364.71783936,0.03222276
2366.64664673,0.03278082
2368.57545410,0.03305930
2370.50426147,0.03385361
2372.43306885,0.03486377
2374.36187622,0.03564993
2376.29068359,0.03656611
2378.21949097,0.03713548
2380.14829834,0.03775535
2382.07710571,0.03817079
2384.00591309,0.03841056
2385.93472046,0.03847552
2387.86352783,0.03837340
2389.79233521,0.03845512
2391.72114258,0.03838152
2393.64994995,0.03834447
2395.57875732,0.03834400
2397.50756470,0.03830469
2399.43637207,0.03817128
2401.36517944,0.03808360
2403.29398682,0.03800174
2405.22279419,0.03797415
2407.15160156,0.03804639
2409.08040894,0.03785235
2411.00921631,0.03783169
2412.93802368,0.03777908
2414.86683105,0.03767205
2416.79563843,0.03769565
2418.72444580,0.03768034
2420.65325317,0.03763463
2422.58206055,0.03747872
2424.51086792,0.03755626
2426.43967529,0.03746744
2428.36848267,0.03732728
2430.29729004,0.03733659
2432.22609741,0.03718622
2434.15490479,0.03724985
2436.08371216,0.03718364
2438.01251953,0.03709287
2439.94132690,0.03726906
2441.87013428,0.03708681
2443.79894165,0.03693653
2445.72774902,0.03705700
2447.65655640,0.03688493
2449.58536377,0.03685894
2451.51417114,0.03682474
2453.44297852,0.03678030
2455.37178589,0.03689530
2457.30059326,0.03659867
2459.22940063,0.03661163
2461.15820801,0.03662800
2463.08701538,0.03646965
2465.01582275,0.03651784
2466.94463013,0.03633998
2468.87343750,0.03634115
2470.80224487,0.03634686
2472.73105225,0.03634262
2474.65985962,0.03618700
2476.58866699,0.03606561
2478.51747437,0.03617275
2480.44628174,0.03599449
2482.37508911,0.03612237
2484.30389648,0.03611958
2486.23270386,0.03595088
2488.16151123,0.03596451
2490.09031860,0.03580146
2492.01912598,0.03578688
2493.94793335,0.03572304
2495.87674072,0.03560743
2497.80554810,0.03560932
2499.73435547,0.03559981
2501.66316284,0.03546503
2503.59197021,0.03549109
2505.52077759,0.03557187
2507.44958496,0.03535363
2509.37839233,0.03534615
2511.30719971,0.03528375
2513.23600708,0.03519912
2515.16481445,0.03525247
2517.09362183,0.03512018
2519.02242920,0.03513709
2520.95123657,0.03506297
2522.88004395,0.03488965
2524.80885132,0.03496083
2526.73765869,0.03496579
2528.66646606,0.03482689
2530.59527344,0.03478715
2532.52408081,0.03481529
2534.45288818,0.03473564
2536.38169556,0.03472298
2538.31050293,0.03485828
2540.23931030,0.03473612
2542.16811768,0.03445283
2544.09692505,0.03443359
2546.02573242,0.03446957
2547.95453979,0.03440758
2549.88334717,0.03429419
2551.81215454,0.03418232
2553.74096191,0.03417100
2555.66976929,0.03417233
2557.59857666,0.03413727
2559.52738403,0.03413328
2561.45619141,0.03412470
2563.38499878,0.03398769
2565.31380615,0.03392535
2567.24261353,0.03392234
2569.17142090,0.03387216
2571.10022827,0.03390033
2573.02903564,0.03385969
2574.95784302,0.03372655
2576.88665039,0.03360529
2578.81545776,0.03358534
2580.74426514,0.03353319
2582.67307251,0.03353645
2584.60187988,0.03359704
2586.53068726,0.03344570
2588.45949463,0.03339735
2590.38830200,0.03335760
2592.31710937,0.03321979
2594.24591675,0.03319510
2596.17472412,0.03319542
2598.10353149,0.03313221
2600.03233887,0.03311490
2601.96114624,0.03314005
2603.88995361,0.03296117
2605.81876099,0.03286939
2607.74756836,0.03286408
2609.67637573,0.03285380
2611.60518311,0.03285071
2613.53399048,0.03272184
2615.46279785,0.03271843
2617.39160522,0.03261341
2619.32041260,0.03256561
2621.24921997,0.03261149
2623.17802734,0.03249080
2625.10683472,0.03249337
2627.03564209,0.03243094
2628.96444946,0.03235975
2630.89325684,0.03230530
2632.82206421,0.03216844
2634.75087158,0.03215564
2636.67967895,0.03211161
2638.60848633,0.03200386
2640.53729370,0.03197014
2642.46610107,0.03199309
2644.39490845,0.03197295
2646.32371582,0.03186602
2648.25252319,0.03178743
2650.18133057,0.03184614
2652.11013794,0.03182006
2654.03894531,0.03162532
2655.96775269,0.03162412
2657.89656006,0.03169255
2659.82536743,0.03158461
2661.75417480,0.03150309
2663.68298218,0.03138535
2665.61178955,0.03130075
2667.54059692,0.03134152
2669.46940430,0.03127104
2671.39821167,0.03125980
2673.32701904,0.03118257
2675.25582642,0.03103863
2677.18463379,0.03101473
2679.11344116,0.03090885
2681.04224854,0.03096969
2682.97105591,0.03094758
2684.89986328,0.03076879
2686.82867065,0.03074463
2688.75747803,0.03071110
2690.68628540,0.03068097
2692.61509277,0.03054673
2694.54390015,0.03050211
2696.47270752,0.03064416
2698.40151489,0.03065441
2700.33032227,0.03045220
2702.25912964,0.03037638
2704.18793701,0.03041405
2706.11674438,0.03026701
2708.04555176,0.03027360
2709.97435913,0.03023755
2711.90316650,0.03013677
2713.83197388,0.03008547
2715.76078125,0.02998696
2717.68958862,0.02995986
2719.61839600,0.02978354
2721.54720337,0.02981483
2723.47601074,0.02983128
2725.40481812,0.02971331
2727.33362549,0.02971252
2729.26243286,0.02954920
2731.19124023,0.02960511
2733.12004761,0.02961074
2735.04885498,0.02948442
2736.97766235,0.02945716
2738.90646973,0.02926361
2740.83527710,0.02928702
2742.76408447,0.02932306
2744.69289185,0.02915121
2746.62169922,0.02916755
2748.55050659,0.02906183
2750.47931396,0.02897271
2752.40812134,0.02909759
2754.33692871,0.02891446
2756.26573608,0.02890503
2758.19454346,0.02892670
2760.12335083,0.02859895
2762.05215820,0.02862263
2763.98096558,0.02860652
2765.90977295,0.02850337
2767.83858032,0.02857595
2769.76738770,0.02847204
2771.69619507,0.02845193
2773.62500244,0.02852994
2775.55380981,0.02836808
2777.48261719,0.02817867
2779.41142456,0.02819340
2781.34023193,0.02810293
2783.26903931,0.02808375
2785.19784668,0.02811626
2787.12665405,0.02789956
2789.05546143,0.02788459
2790.98426880,0.02793188
2792.91307617,0.02776410
2794.84188354,0.02768005
2796.77069092,0.02761316
2798.69949829,0.02748548
2800.62830566,0.02751722
2802.55711304,0.02749755
2804.48592041,0.02741645
2806.41472778,0.02734785
2808.34353516,0.02720440
2810.27234253,0.02721077
2812.20114990,0.02705413
2814.12995728,0.02692051
2816.05876465,0.02687289
2817.98757202,0.02676522
2819.91637939,0.02682912
2821.84518677,0.02670350
2823.77399414,0.02666720
2825.70280151,0.02658471
2827.63160889,0.02650042
2829.56041626,0.02655452
2831.48922363,0.02628784
2833.41803101,0.02624812
2835.34683838,0.02626504
2837.27564575,0.02608945
2839.20445312,0.02593519
2841.13326050,0.02583289
2843.06206787,0.02567822
2844.99087524,0.02545176
2846.91968262,0.02542037
2848.84848999,0.02521477
2850.77729736,0.02515592
2852.70610474,0.02529608
2854.63491211,0.02529006
2856.56371948,0.02533836
2858.49252686,0.02533364
2860.42133423,0.02539800
2862.35014160,0.02533009
2864.27894897,0.02519409
2866.20775635,0.02513526
2868.13656372,0.02503458
2870.06537109,0.02503121
2871.99417847,0.02497898
2873.92298584,0.02485901
2875.85179321,0.02480178
2877.78060059,0.02477323
2879.70940796,0.02455244
2881.63821533,0.02447914
2883.56702270,0.02457588
2885.49583008,0.02443899
2887.42463745,0.02431184
2889.35344482,0.02422867
2891.28225220,0.02425349
2893.21105957,0.02416754
2895.13986694,0.02393712
2897.06867432,0.02385588
2898.99748169,0.02384062
2900.92628906,0.02386597
2902.85509644,0.02368606
2904.78390381,0.02358324
2906.71271118,0.02363824
2908.64151855,0.02345725
2910.57032593,0.02331032
2912.49913330,0.02323884
2914.42794067,0.02309651
2916.35674805,0.02299278
2918.28555542,0.02298132
2920.21436279,0.02299051
2922.14317017,0.02299110
2924.07197754,0.02304776
2926.00078491,0.02308695
2927.92959229,0.02314019
2929.85839966,0.02323665
2931.78720703,0.02309898
2933.71601440,0.02300905
2935.64482178,0.02312861
2937.57362915,0.02308604
2939.50243652,0.02307172
2941.43124390,0.02301969
2943.36005127,0.02303001
2945.28885864,0.02301606
2947.21766602,0.02276643
2949.14647339,0.02276944
2951.07528076,0.02259456
2953.00408813,0.02250098
2954.93289551,0.02264313
2956.86170288,0.02240351
2958.79051025,0.02232019
2960.71931763,0.02219915
2962.64812500,0.02212871
2964.57693237,0.02224652
2966.50573975,0.02201923
2968.43454712,0.02205027
2970.36335449,0.02218387
2972.29216187,0.02198786
2974.22096924,0.02193841
2976.14977661,0.02194552
2978.07858398,0.02187298
2980.00739136,0.02190847
2981.93619873,0.02187109
2983.86500610,0.02171603
2985.79381348,0.02170039
2987.72262085,0.02161082
2989.65142822,0.02151976
2991.58023560,0.02153977
2993.50904297,0.02132732
2995.43785034,0.02130061
2997.36665771,0.02138739
2999.29546509,0.02121911
3001.22427246,0.02114673
3003.15307983,0.02098069
3005.08188721,0.02083597
3007.01069458,0.02090156
3008.93950195,0.02077818
3010.86830933,0.02058906
3012.79711670,0.02063632
3014.72592407,0.02055834
3016.65473145,0.02030890
3018.58353882,0.02032437
3020.51234619,0.02020737
3022.44115356,0.02011314
3024.36996094,0.02015406
3026.29876831,0.01995673
3028.22757568,0.01987745
3030.15638306,0.01979853
3032.08519043,0.01980641
3034.01399780,0.01967144
3035.94280518,0.01943778
3037.87161255,0.01948186
3039.80041992,0.01933918
3041.72922729,0.01934766
3043.65803467,0.01932226
3045.58684204,0.01916953
3047.51564941,0.01910611
3049.44445679,0.01891766
3051.37326416,0.01888675
3053.30207153,0.01881349
3055.23087891,0.01870507
3057.15968628,0.01862748
3059.08849365,0.01853535
3061.01730103,0.01847356
3062.94610840,0.01841577
3064.87491577,0.01826715
3066.80372314,0.01806109
3068.73253052,0.01814552
3070.66133789,0.01809155
3072.59014526,0.01794504
3074.51895264,0.01789379
3076.44776001,0.01780049
3078.37656738,0.01765807
3080.30537476,0.01751744
3082.23418213,0.01760273
3084.16298950,0.01740857
3086.09179687,0.01736240
3088.02060425,0.01744913
3089.94941162,0.01716016
3091.87821899,0.01705711
3093.80702637,0.01701401
3095.73583374,0.01694161
3097.66464111,0.01684691
3099.59344849,0.01680515
3101.52225586,0.01664782
3103.45106323,0.01650415
3105.37987061,0.01653527
3107.30867798,0.01638054
3109.23748535,0.01637759
3111.16629272,0.01622059
3113.09510010,0.01611846
3115.02390747,0.01618020
3116.95271484,0.01592061
3118.88152222,0.01583664
3120.81032959,0.01584889
3122.73913696,0.01573810
3124.66794434,0.01565890
3126.59675171,0.01558368
3128.52555908,0.01541990
3130.45436645,0.01544869
3132.38317383,0.01538609
3134.31198120,0.01514283
3136.24078857,0.01523388
3138.16959595,0.01519357
3140.09840332,0.01503033
3142.02721069,0.01484863
3143.95601807,0.01475208
3145.88482544,0.01474471
3147.81363281,0.01463670
3149.74244019,0.01454953
3151.67124756,0.01440754
3153.60005493,0.01450397
3155.52886230,0.01438561
3157.45766968,0.01428960
3159.38647705,0.01440094
3161.31528442,0.01419225
3163.24409180,0.01419501
3165.17289917,0.01412422
3167.10170654,0.01396966
3169.03051392,0.01393601
3170.95932129,0.01379786
3172.88812866,0.01374368
3174.81693604,0.01375357
3176.74574341,0.01362268
3178.67455078,0.01356331
3180.60335815,0.01363121
3182.53216553,0.01344064
3184.46097290,0.01344033
3186.38978027,0.01339125
3188.31858765,0.01331369
3190.24739502,0.01337043
3192.17620239,0.01321109
3194.10500977,0.01330738
3196.03381714,0.01315581
3197.96262451,0.01308976
3199.89143188,0.01322244
3201.82023926,0.01306002
3203.74904663,0.01299976
3205.67785400,0.01294360
3207.60666138,0.01302536
3209.53546875,0.01296618
3211.46427612,0.01294684
3213.39308350,0.01295134
3215.32189087,0.01283218
3217.25069824,0.01283625
3219.17950562,0.01273070
3221.10831299,0.01282731
3223.03712036,0.01283555
3224.96592773,0.01277370
3226.89473511,0.01273401
3228.82354248,0.01268782
3230.75234985,0.01273781
3232.68115723,0.01264958
3234.60996460,0.01269660
3236.53877197,0.01270612
3238.46757935,0.01273859
3240.39638672,0.01267584
3242.32519409,0.01259308
3244.25400146,0.01261538
3246.18280884,0.01256070
3248.11161621,0.01269086
3250.04042358,0.01267083
3251.96923096,0.01267639
3253.89803833,0.01264855
3255.82684570,0.01265173
3257.75565308,0.01270281
3259.68446045,0.01258478
3261.61326782,0.01266220
3263.54207520,0.01260836
3265.47088257,0.01268107
3267.39968994,0.01263360
3269.32849731,0.01257161
3271.25730469,0.01276677
3273.18611206,0.01262097
3275.11491943,0.01268185
3277.04372681,0.01270220
3278.97253418,0.01259921
3280.90134155,0.01262236
3282.83014893,0.01257226
3284.75895630,0.01265500
3286.68776367,0.01264552
3288.61657104,0.01267359
3290.54537842,0.01275168
3292.47418579,0.01266214
3294.40299316,0.01265583
3296.33180054,0.01267267
3298.26060791,0.01260985
3300.18941528,0.01267228
3302.11822266,0.01271749
3304.04703003,0.01270523
3305.97583740,0.01266855
3307.90464478,0.01254761
3309.83345215,0.01254876
3311.76225952,0.01261154
3313.69106689,0.01266940
3315.61987427,0.01264328
3317.54868164,0.01270660
3319.47748901,0.01277081
3321.40629639,0.01274992
3323.33510376,0.01270376
3325.26391113,0.01253097
3327.19271851,0.01266094
3329.12152588,0.01264290
3331.05033325,0.01269097
3332.97914062,0.01275050
3334.90794800,0.01253029
3336.83675537,0.01267484
3338.76556274,0.01256269
3340.69437012,0.01263739
3342.62317749,0.01269974
3344.55198486,0.01262198
3346.48079224,0.01282387
3348.40959961,0.01254688
3350.33840698,0.01260287
3352.26721436,0.01274699
3354.19602173,0.01267655
3356.12482910,0.01277439
3358.05363647,0.01267072
3359.98244385,0.01263079
3361.91125122,0.01264990
3363.84005859,0.01267472
3365.76886597,0.01275466
3367.69767334,0.01280698
3369.62648071,0.01268024
3371.55528809,0.01266901
3373.48409546,0.01271897
3375.41290283,0.01274163
3377.34171020,0.01281597
3379.27051758,0.01272489
3381.19932495,0.01280360
3383.12813232,0.01271674
3385.05693970,0.01273707
3386.98574707,0.01292519
3388.91455444,0.01290086
3390.84336182,0.01289839
3392.77216919,0.01278471
3394.70097656,0.01288351
3396.62978394,0.01287722
3398.55859131,0.01286346
3400.48739868,0.01295477
3402.41620605,0.01291094
3404.34501343,0.01293547
3406.27382080,0.01284275
3408.20262817,0.01291236
3410.13143555,0.01303026
3412.06024292,0.01303366
3413.98905029,0.01296379
3415.91785767,0.01307285
3417.84666504,0.01312202
3419.77547241,0.01293728
3421.70427979,0.01301861
3423.63308716,0.01303442
3425.56189453,0.01315268
3427.49070190,0.01315215
3429.41950928,0.01313034
3431.34831665,0.01322387
3433.27712402,0.01315774
3435.20593140,0.01325697
3437.13473877,0.01320967
3439.06354614,0.01323790
3440.99235352,0.01315060
3442.92116089,0.01314692
3444.84996826,0.01327826
3446.77877563,0.01309629
3448.70758301,0.01316299
3450.63639038,0.01323956
3452.56519775,0.01331299
3454.49400513,0.01336075
3456.42281250,0.01337419
3458.35161987,0.01339951
3460.28042725,0.01342995
3462.20923462,0.01349065
3464.13804199,0.01338725
3466.06684937,0.01348949
3467.99565674,0.01354554
3469.92446411,0.01352641
3471.85327148,0.01350515
3473.78207886,0.01348841
3475.71088623,0.01344071
3477.63969360,0.01351755
3479.56850098,0.01365416
3481.49730835,0.01337226
3483.42611572,0.01356754
3485.35492310,0.01367881
3487.28373047,0.01353335
3489.21253784,0.01368471
3491.14134521,0.01370449
3493.07015259,0.01376308
3494.99895996,0.01370659
3496.92776733,0.01375701
3498.85657471,0.01378306
3500.78538208,0.01381124
3502.71418945,0.01351775
3504.64299683,0.01352508
3506.57180420,0.01410616
3508.50061157,0.01376356
3510.42941895,0.01374429
3512.35822632,0.01391087
3514.28703369,0.01386874
3516.21584106,0.01405857
3518.14464844,0.01396119
3520.07345581,0.01413622
3522.00226318,0.01400440
3523.93107056,0.01370007
3525.85987793,0.01376345
3527.78868530,0.01393769
3529.71749268,0.01396991
3531.64630005,0.01405823
3533.57510742,0.01430614
3535.50391479,0.01406439
3537.43272217,0.01403124
3539.36152954,0.01425112
3541.29033691,0.01424265
3543.21914429,0.01421683
3545.14795166,0.01385947
3547.07675903,0.01359109
3549.00556641,0.01424531
3550.93437378,0.01437364
3552.86318115,0.01384834
3554.79198853,0.01426356
3556.72079590,0.01439667
3558.64960327,0.01432033
3560.57841064,0.01421780
3562.50721802,0.01420796
3564.43602539,0.01436941
3566.36483276,0.01306832
3568.29364014,0.01266825
3570.22244751,0.01403429
3572.15125488,0.01458364
3574.08006226,0.01442701
3576.00886963,0.01448350
3577.93767700,0.01443184
3579.86648437,0.01442081
3581.79529175,0.01451917
3583.72409912,0.01458459
3585.65290649,0.01414238
3587.58171387,0.01265493
3589.51052124,0.01324672
3591.43932861,0.01470126
3593.36813599,0.01410221
3595.29694336,0.01391595
3597.22575073,0.01428665
3599.15455811,0.01439946
3601.08336548,0.01421932
3603.01217285,0.01448726
3604.94098022,0.01480438
3606.86978760,0.01414219
3608.79859497,0.01319304
3610.72740234,0.01349147
3612.65620972,0.01388046
3614.58501709,0.01341221
3616.51382446,0.01463255
3618.44263184,0.01330726
3620.37143921,0.01273762
3622.30024658,0.01484262
3624.22905395,0.01441944
3626.15786133,0.01526408
3628.08666870,0.01245981
3630.01547607,0.01114329
3631.94428345,0.01475937
3633.87309082,0.01431652
3635.80189819,0.01462193
3637.73070557,0.01488894
3639.65951294,0.01476086
3641.58832031,0.01486638
3643.51712769,0.01463427
3645.44593506,0.01492755
3647.37474243,0.01302415
3649.30354980,0.01177369
3651.23235718,0.01198379
3653.16116455,0.01479491
3655.08997192,0.01456682
3657.01877930,0.01278743
3658.94758667,0.01520271
3660.87639404,0.01478080
3662.80520142,0.01516171
3664.73400879,0.01503502
3666.66281616,0.01479766
3668.59162354,0.01438343
3670.52043091,0.01125898
3672.44923828,0.01419484
3674.37804565,0.01327799
3676.30685303,0.01063183
3678.23566040,0.01412437
3680.16446777,0.01437917
3682.09327515,0.01458057
3684.02208252,0.01511852
3685.95088989,0.01469194
3687.87969727,0.01308527
3689.80850464,0.01174095
3691.73731201,0.01364494
3693.66611938,0.01427024
3695.59492676,0.01467643
3697.52373413,0.01460163
3699.45254150,0.01444155
3701.38134888,0.01400132
3703.31015625,0.01337099
3705.23896362,0.01501935
3707.16777100,0.01415242
3709.09657837,0.01362032
3711.02538574,0.01269665
3712.95419312,0.01177698
3714.88300049,0.01425597
3716.81180786,0.01400199
3718.74061523,0.01410675
3720.66942261,0.01380585
3722.59822998,0.01317828
3724.52703735,0.01377259
3726.45584473,0.01262219
3728.38465210,0.01387476
3730.31345947,0.01369545
3732.24226685,0.01232046
3734.17107422,0.01195589
3736.09988159,0.01118884
3738.02868896,0.01206776
3739.95749634,0.01323568
3741.88630371,0.01391339
3743.81511108,0.01048982
3745.74391846,0.00970840
3747.67272583,0.01316673
3749.60153320,0.01104148
3751.53034058,0.00992518
3753.45914795,0.01173171
3755.38795532,0.01282984
3757.31676270,0.01345786
3759.24557007,0.01220216
3761.17437744,0.01281984
3763.10318481,0.01391890
3765.03199219,0.01263760
3766.96079956,0.01293385
3768.88960693,0.01285934
3770.81841431,0.01199985
3772.74722168,0.01325300
3774.67602905,0.01336900
3776.60483643,0.01335628
3778.53364380,0.01289715
3780.46245117,0.01215064
3782.39125854,0.01319411
3784.32006592,0.01281495
3786.24887329,0.01275623
3788.17768066,0.01319358
3790.10648804,0.01300931
3792.03529541,0.01299534
3793.96410278,0.01318324
3795.89291016,0.01228330
3797.82171753,0.01210425
3799.75052490,0.01278710
3801.67933228,0.00977775
3803.60813965,0.01170607
3805.53694702,0.01302592
3807.46575439,0.01022014
3809.39456177,0.01273178
3811.32336914,0.01259791
3813.25217651,0.01297775
3815.18098389,0.01154166
3817.10979126,0.00987873
3819.03859863,0.01296822
3820.96740601,0.01000843
3822.89621338,0.01064408
3824.82502075,0.01295195
3826.75382812,0.01137846
3828.68263550,0.01245067
3830.61144287,0.01191402
3832.54025024,0.01137140
3834.46905762,0.01175911
3836.39786499,0.01112550
3838.32667236,0.00987457
3840.25547974,0.01070881
3842.18428711,0.01172420
3844.11309448,0.01112071
3846.04190186,0.01213212
3847.97070923,0.01202848
3849.89951660,0.01209736
3851.82832397,0.01072679
3853.75713135,0.00753877
3855.68593872,0.00915686
3857.61474609,0.01197360
3859.54355347,0.01169409
3861.47236084,0.01148067
3863.40116821,0.01107380
3865.32997559,0.01023200
3867.25878296,0.01169289
3869.18759033,0.01043277
3871.11639770,0.00951137
3873.04520508,0.01172125
3874.97401245,0.01055441
3876.90281982,0.01159955
3878.83162720,0.01193959
3880.76043457,0.00980819
3882.68924194,0.01160861
3884.61804932,0.01076718
3886.54685669,0.00965078
3888.47566406,0.01169865
3890.40447144,0.01093429
3892.33327881,0.01010478
3894.26208618,0.01134721
3896.19089355,0.01163265
3898.11970093,0.01092811
3900.04850830,0.01013664
3901.97731567,0.00995539
3903.90612305,0.00985757
3905.83493042,0.01016873
3907.76373779,0.01130986
3909.69254517,0.01126804
3911.62135254,0.01118260
3913.55015991,0.01140563
3915.47896728,0.01093555
3917.40777466,0.01058867
3919.33658203,0.01053627
3921.26538940,0.01094097
3923.19419678,0.01087532
3925.12300415,0.01065661
3927.05181152,0.01080742
3928.98061890,0.01099083
3930.90942627,0.01074543
3932.83823364,0.01029301
3934.76704102,0.01084685
3936.69584839,0.01093941
3938.62465576,0.01082109
3940.55346313,0.01093361
3942.48227051,0.01042338
3944.41107788,0.01051576
3946.33988525,0.01071036
3948.26869263,0.01039105
3950.19750000,0.01038700
3952.12630737,0.01063102
3954.05511475,0.01064308
3955.98392212,0.01059227
3957.91272949,0.01054737
3959.84153687,0.01055033
3961.77034424,0.01051953
3963.69915161,0.01043942
3965.62795898,0.01051546
3967.55676636,0.01042390
3969.48557373,0.01043487
3971.41438110,0.01035760
3973.34318848,0.01030805
3975.27199585,0.01036546
3977.20080322,0.01028083
3979.12961060,0.01038447
3981.05841797,0.01031431
3982.98722534,0.01035566
3984.91603271,0.01030793
3986.84484009,0.01020566
3988.77364746,0.01020868
3990.70245483,0.01016178
3992.63126221,0.01027430
3994.56006958,0.01010341
3996.48887695,0.01017105
3998.41768433,0.01019769
4000.34649170,0.01012635
4002.27529907,0.01015700
4004.20410645,0.00998739
4006.13291382,0.01006653
4008.06172119,0.01000755
4009.99052856,0.01003117
4011.91933594,0.00999695
4013.84814331,0.00983365
4015.77695068,0.00987874
4017.70575806,0.00981137
4019.63456543,0.00982339
4021.56337280,0.00985364
4023.49218018,0.00984188
4025.42098755,0.00977981
4027.34979492,0.00980083
4029.27860229,0.00974938
4031.20740967,0.00967054
4033.13621704,0.00969930
4035.06502441,0.00963436
4036.99383179,0.00969547
4038.92263916,0.00966369
4040.85144653,0.00960768
4042.78025391,0.00950363
4044.70906128,0.00944670
4046.63786865,0.00956418
4048.56667603,0.00956203
4050.49548340,0.00951777
4052.42429077,0.00943696
4054.35309814,0.00940002
4056.28190552,0.00934676
4058.21071289,0.00943563
4060.13952026,0.00942195
4062.06832764,0.00931526
4063.99713501,0.00934033
4065.92594238,0.00929160
4067.85474976,0.00935404
4069.78355713,0.00923034
4071.71236450,0.00921803
4073.64117187,0.00925798
4075.56997925,0.00915816
4077.49878662,0.00919954
4079.42759399,0.00914945
4081.35640137,0.00916030
4083.28520874,0.00914828
4085.21401611,0.00917454
4087.14282349,0.00909802
4089.07163086,0.00900845
4091.00043823,0.00900520
4092.92924561,0.00894993
4094.85805298,0.00904557
4096.78686035,0.00894055
4098.71566772,0.00885500
4100.64447510,0.00882053
4102.57328247,0.00879312
4104.50208984,0.00884392
4106.43089722,0.00881182
4108.35970459,0.00881224
4110.28851196,0.00880913
4112.21731934,0.00881247
4114.14612671,0.00872236
4116.07493408,0.00876876
4118.00374145,0.00867754
4119.93254883,0.00863944
4121.86135620,0.00875009
4123.79016357,0.00857118
4125.71897095,0.00867311
4127.64777832,0.00868293
4129.57658569,0.00865264
4131.50539307,0.00864665
4133.43420044,0.00845201
4135.36300781,0.00853795
4137.29181519,0.00864585
4139.22062256,0.00854831
4141.14942993,0.00836072
4143.07823730,0.00845729
4145.00704468,0.00847319
4146.93585205,0.00839573
4148.86465942,0.00845146
4150.79346680,0.00837129
4152.72227417,0.00836835
4154.65108154,0.00830451
4156.57988892,0.00833353
4158.50869629,0.00830897
4160.43750366,0.00822452
4162.36631103,0.00824400
4164.29511841,0.00819914
4166.22392578,0.00818368
4168.15273315,0.00812106
4170.08154053,0.00820301
4172.01034790,0.00816308
4173.93915527,0.00812930
4175.86796265,0.00816911
4177.79677002,0.00805065
4179.72557739,0.00808503
4181.65438477,0.00802411
4183.58319214,0.00794973
4185.51199951,0.00797203
4187.44080688,0.00800380
4189.36961426,0.00800507
4191.29842163,0.00797423
4193.22722900,0.00797912
4195.15603638,0.00794976
4197.08484375,0.00794155
4199.01365112,0.00788659
4200.94245850,0.00781956
4202.87126587,0.00773665
4204.80007324,0.00775200
4206.72888062,0.00775620
4208.65768799,0.00770981
4210.58649536,0.00772423
4212.51530273,0.00768593
4214.44411011,0.00769738
4216.37291748,0.00766883
4218.30172485,0.00772016
4220.23053223,0.00768223
4222.15933960,0.00760014
4224.08814697,0.00758980
4226.01695435,0.00756064
4227.94576172,0.00764763
4229.87456909,0.00754181
4231.80337646,0.00752602
4233.73218384,0.00749703
4235.66099121,0.00745975
4237.58979858,0.00754328
4239.51860596,0.00748399
4241.44741333,0.00751930
4243.37622070,0.00741473
4245.30502808,0.00733701
4247.23383545,0.00734734
4249.16264282,0.00741005
4251.09145020,0.00742833
4253.02025757,0.00737103
4254.94906494,0.00741530
4256.87787231,0.00724606
4258.80667969,0.00725668
4260.73548706,0.00727686
4262.66429443,0.00724961
4264.59310181,0.00726793
4266.52190918,0.00719133
4268.45071655,0.00720773
4270.37952393,0.00711345
4272.30833130,0.00723955
4274.23713867,0.00722337
4276.16594604,0.00707217
4278.09475342,0.00711131
4280.02356079,0.00703313
4281.95236816,0.00705355
4283.88117554,0.00705991
4285.80998291,0.00704327
4287.73879028,0.00701523
4289.66759766,0.00703146
4291.59640503,0.00702164
4293.52521240,0.00700463
4295.45401978,0.00699215
4297.38282715,0.00691134
4299.31163452,0.00702533
4301.24044189,0.00692906
4303.16924927,0.00682273
4305.09805664,0.00685180
4307.02686401,0.00679422
4308.95567139,0.00679093
4310.88447876,0.00681292
4312.81328613,0.00685359
4314.74209351,0.00675678
4316.67090088,0.00675233
4318.59970825,0.00677053
4320.52851562,0.00678016
4322.45732300,0.00673449
4324.38613037,0.00668787
4326.31493774,0.00680898
4328.24374512,0.00664269
4330.17255249,0.00665272
4332.10135986,0.00675307
4334.03016724,0.00665050
4335.95897461,0.00667630
4337.88778198,0.00664255
4339.81658936,0.00661041
4341.74539673,0.00657360
4343.67420410,0.00651603
4345.60301147,0.00649526
4347.53181885,0.00648328
4349.46062622,0.00643775
4351.38943359,0.00647142
4353.31824097,0.00646382
4355.24704834,0.00638871
4357.17585571,0.00641929
4359.10466309,0.00634403
4361.03347046,0.00638221
4362.96227783,0.00638760
4364.89108520,0.00635009
4366.81989258,0.00639298
4368.74869995,0.00636208
4370.67750732,0.00637313
4372.60631470,0.00628061
4374.53512207,0.00631924
4376.46392944,0.00630375
4378.39273682,0.00618486
4380.32154419,0.00622261
4382.25035156,0.00620541
4384.17915894,0.00619692
4386.10796631,0.00621190
4388.03677368,0.00622739
4389.96558105,0.00614618
4391.89438843,0.00613774
4393.82319580,0.00612880
4395.75200317,0.00607892
4397.68081055,0.00608715
4399.60961792,0.00599545
4401.53842529,0.00601545
4403.46723267,0.00601129
4405.39604004,0.00606571
4407.32484741,0.00605344
4409.25365478,0.00591119
4411.18246216,0.00597752
4413.11126953,0.00603707
4415.04007690,0.00604243
4416.96888428,0.00593164
4418.89769165,0.00589571
4420.82649902,0.00590945
4422.75530640,0.00581593
4424.68411377,0.00581542
4426.61292114,0.00586890
4428.54172852,0.00584774
4430.47053589,0.00575746
4432.39934326,0.00578547
4434.32815063,0.00579224
4436.25695801,0.00585103
4438.18576538,0.00585938
4440.11457275,0.00577718
4442.04338013,0.00581123
4443.97218750,0.00577056
4445.90099487,0.00573125
4447.82980225,0.00563414
4449.75860962,0.00571149
4451.68741699,0.00575405
4453.61622437,0.00565306
4455.54503174,0.00567194
4457.47383911,0.00556533
4459.40264648,0.00564080
4461.33145386,0.00562857
4463.26026123,0.00560279
4465.18906860,0.00563483
4467.11787598,0.00549913
4469.04668335,0.00558343
4470.97549072,0.00553897
4472.90429810,0.00551618
4474.83310547,0.00550660
4476.76191284,0.00544327
4478.69072021,0.00556622
4480.61952759,0.00549477
4482.54833496,0.00539875
4484.47714233,0.00539709
4486.40594971,0.00544880
4488.33475708,0.00542224
4490.26356445,0.00532631
4492.19237183,0.00537600
4494.12117920,0.00532759
4496.04998657,0.00528397
4497.97879395,0.00529011
4499.90760132,0.00527446
4501.83640869,0.00529299
4503.76521606,0.00522372
4505.69402344,0.00521313
4507.62283081,0.00523164
4509.55163818,0.00522098
4511.48044556,0.00526122
4513.40925293,0.00520726
4515.33806030,0.00518853
4517.26686768,0.00520850
4519.19567505,0.00517563
4521.12448242,0.00511134
4523.05328979,0.00508378
4524.98209717,0.00520434
4526.91090454,0.00511516
4528.83971191,0.00498727
4530.76851929,0.00508578
4532.69732666,0.00516891
4534.62613403,0.00512617
4536.55494141,0.00499618
4538.48374878,0.00500577
4540.41255615,0.00493050
4542.34136353,0.00491484
4544.27017090,0.00498181
4546.19897827,0.00492636
4548.12778564,0.00497508
4550.05659302,0.00490435
4551.98540039,0.00493904
4553.91420776,0.00497928
4555.84301514,0.00491110
4557.77182251,0.00494526
4559.70062988,0.00485960
4561.62943726,0.00487207
4563.55824463,0.00489176
4565.48705200,0.00485676
4567.41585937,0.00481972
4569.34466675,0.00482665
4571.27347412,0.00489679
4573.20228149,0.00481214
4575.13108887,0.00479983
4577.05989624,0.00476590
4578.98870361,0.00467873
4580.91751099,0.00469418
4582.84631836,0.00470190
4584.77512573,0.00472008
4586.70393311,0.00471168
4588.63274048,0.00464819
4590.56154785,0.00460839
4592.49035522,0.00460682
4594.41916260,0.00460106
4596.34796997,0.00462664
4598.27677734,0.00459988
4600.20558472,0.00461458
4602.13439209,0.00461121
4604.06319946,0.00455175
4605.99200684,0.00462385
4607.92081421,0.00460384
4609.84962158,0.00453830
4611.77842895,0.00448320
4613.70723633,0.00456007
4615.63604370,0.00462102
4617.56485107,0.00447364
4619.49365845,0.00448652
4621.42246582,0.00445289
4623.35127319,0.00441096
4625.28008057,0.00444930
4627.20888794,0.00446961
4629.13769531,0.00448629
4631.06650269,0.00442590
4632.99531006,0.00441048
4634.92411743,0.00435816
4636.85292480,0.00440385
4638.78173218,0.00439143
4640.71053955,0.00432407
4642.63934692,0.00437947
4644.56815430,0.00431548
4646.49696167,0.00432435
4648.42576904,0.00428148
4650.35457642,0.00429152
4652.28338379,0.00439281
4654.21219116,0.00429246
4656.14099853,0.00430203
4658.06980591,0.00429653
4659.99861328,0.00423419
4661.92742065,0.00424794
4663.85622803,0.00424637
4665.78503540,0.00429886
4667.71384277,0.00421168
4669.64265015,0.00410402
4671.57145752,0.00414596
4673.50026489,0.00414789
4675.42907227,0.00414539
4677.35787964,0.00411114
4679.28668701,0.00413537
4681.21549438,0.00419747
4683.14430176,0.00412969
4685.07310913,0.00409672
4687.00191650,0.00412518
4688.93072388,0.00414839
4690.85953125,0.00408856
4692.78833862,0.00403561
4694.71714600,0.00403840
4696.64595337,0.00406800
4698.57476074,0.00408207
4700.50356812,0.00399293
4702.43237549,0.00403380
4704.36118286,0.00401073
4706.28999023,0.00401327
4708.21879761,0.00407903
4710.14760498,0.00400358
4712.07641235,0.00403874
4714.00521973,0.00395985
4715.93402710,0.00396348
4717.86283447,0.00397808
4719.79164185,0.00392900
4721.72044922,0.00396931
4723.64925659,0.00384944
4725.57806396,0.00389840
4727.50687134,0.00390515
4729.43567871,0.00388021
4731.36448608,0.00390195
4733.29329346,0.00387337
4735.22210083,0.00384483
4737.15090820,0.00372132
4739.07971558,0.00386717
4741.00852295,0.00385087
4742.93733032,0.00378097
4744.86613770,0.00382892
4746.79494507,0.00374321
4748.72375244,0.00378628
4750.65255981,0.00374479
4752.58136719,0.00379025
4754.51017456,0.00373063
4756.43898193,0.00371767
4758.36778931,0.00381225
4760.29659668,0.00366399
4762.22540405,0.00368579
4764.15421143,0.00362936
4766.08301880,0.00370152
4768.01182617,0.00373305
4769.94063354,0.00355250
4771.86944092,0.00367825
4773.79824829,0.00363932
4775.72705566,0.00358845
4777.65586304,0.00365258
4779.58467041,0.00361198
4781.51347778,0.00361707
4783.44228516,0.00359580
4785.37109253,0.00356991
4787.29989990,0.00350672
4789.22870728,0.00354434
4791.15751465,0.00363305
4793.08632202,0.00354166
4795.01512939,0.00355173
4796.94393677,0.00366132
4798.87274414,0.00358355
4800.80155151,0.00347437
4802.73035889,0.00343332
4804.65916626,0.00342866
4806.58797363,0.00349592
4808.51678101,0.00352248
4810.44558838,0.00347446
4812.37439575,0.00344092
4814.30320312,0.00344627
4816.23201050,0.00338370
4818.16081787,0.00337236
4820.08962524,0.00344974
4822.01843262,0.00340368
4823.94723999,0.00341585
4825.87604736,0.00342414
4827.80485474,0.00334430
4829.73366211,0.00343420
4831.66246948,0.00343191
4833.59127686,0.00332693
4835.52008423,0.00337832
4837.44889160,0.00332776
4839.37769897,0.00328529
4841.30650635,0.00333294
4843.23531372,0.00328536
4845.16412109,0.00330530
4847.09292847,0.00333925
4849.02173584,0.00330977
4850.95054321,0.00322150
4852.87935059,0.00321432
4854.80815796,0.00330569
4856.73696533,0.00326201
4858.66577270,0.00323106
4860.59458008,0.00323396
4862.52338745,0.00321245
4864.45219482,0.00315954
4866.38100220,0.00316304
4868.30980957,0.00315704
4870.23861694,0.00306550
4872.16742432,0.00313593
4874.09623169,0.00315966
4876.02503906,0.00317917
4877.95384644,0.00316916
4879.88265381,0.00311543
4881.81146118,0.00316358
4883.74026855,0.00304414
4885.66907593,0.00304789
4887.59788330,0.00309802
4889.52669067,0.00307381
4891.45549805,0.00311647
4893.38430542,0.00307561
4895.31311279,0.00307132
4897.24192017,0.00304157
4899.17072754,0.00305297
4901.09953491,0.00302834
4903.02834228,0.00294420
4904.95714966,0.00299076
4906.88595703,0.00299080
4908.81476440,0.00301514
4910.74357178,0.00304919
4912.67237915,0.00297294
4914.60118652,0.00296569
4916.52999390,0.00300457
4918.45880127,0.00296528
4920.38760864,0.00296515
4922.31641602,0.00291591
4924.24522339,0.00287587
4926.17403076,0.00294049
4928.10283813,0.00288943
4930.03164551,0.00291667
4931.96045288,0.00293571
4933.88926025,0.00287534
4935.81806763,0.00288412
4937.74687500,0.00281448
4939.67568237,0.00284276
4941.60448975,0.00284831
4943.53329712,0.00277247
4945.46210449,0.00285944
4947.39091187,0.00286488
4949.31971924,0.00280630
4951.24852661,0.00286424
4953.17733398,0.00285436
4955.10614136,0.00281795
4957.03494873,0.00280401
4958.96375610,0.00276491
4960.89256348,0.00278561
4962.82137085,0.00280114
4964.75017822,0.00280843
4966.67898560,0.00277584
4968.60779297,0.00272643
4970.53660034,0.00274237
4972.46540771,0.00278480
4974.39421509,0.00277426
4976.32302246,0.00270763
4978.25182983,0.00274874
4980.18063721,0.00272032
4982.10944458,0.00263819
4984.03825195,0.00261380
4985.96705933,0.00265201
4987.89586670,0.00272276
4989.82467407,0.00264678
4991.75348145,0.00265509
4993.68228882,0.00264713
4995.61109619,0.00265863
4997.53990356,0.00265392
4999.46871094,0.00260535
5001.39751831,0.00268689
5003.32632568,0.00255902
5005.25513306,0.00261200
5007.18394043,0.00263889
5009.11274780,0.00252104
5011.04155518,0.00259665
5012.97036255,0.00254129
5014.89916992,0.00257513
5016.82797729,0.00250817
5018.75678467,0.00247009
5020.68559204,0.00253171
5022.61439941,0.00245067
5024.54320679,0.00249506
5026.47201416,0.00251974
5028.40082153,0.00253332
5030.32962891,0.00250367
5032.25843628,0.00253377
5034.18724365,0.00250070
5036.11605103,0.00242977
5038.04485840,0.00254856
5039.97366577,0.00247981
5041.90247314,0.00246973
5043.83128052,0.00248302
5045.76008789,0.00241409
5047.68889526,0.00246753
5049.61770264,0.00244054
5051.54651001,0.00238111
5053.47531738,0.00241659
5055.40412476,0.00252423
5057.33293213,0.00249514
5059.26173950,0.00234281
5061.19054687,0.00233601
5063.11935425,0.00244290
5065.04816162,0.00236990
5066.97696899,0.00229941
5068.90577637,0.00237965
5070.83458374,0.00236757
5072.76339111,0.00240638
5074.69219849,0.00239068
5076.62100586,0.00232449
5078.54981323,0.00231406
5080.47862061,0.00231955
5082.40742798,0.00236433
5084.33623535,0.00238130
5086.26504272,0.00238218
5088.19385010,0.00221566
5090.12265747,0.00222222
5092.05146484,0.00231376
5093.98027222,0.00226522
5095.90907959,0.00235130
5097.83788696,0.00229979
5099.76669434,0.00228674
5101.69550171,0.00228123
5103.62430908,0.00218933
5105.55311645,0.00224017
5107.48192383,0.00222283
5109.41073120,0.00218929
5111.33953857,0.00218373
5113.26834595,0.00220131
5115.19715332,0.00223162
5117.12596069,0.00222733
5119.05476807,0.00217966
5120.98357544,0.00208949
5122.91238281,0.00212912
5124.84119019,0.00220897
5126.76999756,0.00213908
5128.69880493,0.00213226
5130.62761230,0.00217474
5132.55641968,0.00205311
5134.48522705,0.00209956
5136.41403442,0.00212111
5138.34284180,0.00206846
5140.27164917,0.00220679
5142.20045654,0.00206980
5144.12926392,0.00203654
5146.05807129,0.00220493
5147.98687866,0.00211989
5149.91568603,0.00203807
5151.84449341,0.00201961
5153.77330078,0.00208252
5155.70210815,0.00209922
5157.63091553,0.00201746
5159.55972290,0.00198678
5161.48853027,0.00199202
5163.41733765,0.00202138
5165.34614502,0.00200224
5167.27495239,0.00203081
5169.20375977,0.00206271
5171.13256714,0.00197480
5173.06137451,0.00199193
5174.99018188,0.00208510
5176.91898926,0.00202810
5178.84779663,0.00195217
5180.77660400,0.00194586
5182.70541138,0.00196998
5184.63421875,0.00194346
5186.56302612,0.00191749
5188.49183350,0.00201023
5190.42064087,0.00191613
5192.34944824,0.00185097
5194.27825562,0.00197089
5196.20706299,0.00191961
5198.13587036,0.00196134
5200.06467773,0.00197243
5201.99348511,0.00183133
5203.92229248,0.00189999
5205.85109985,0.00190974
5207.77990723,0.00182121
5209.70871460,0.00185752
5211.63752197,0.00185717
5213.56632935,0.00188741
5215.49513672,0.00190099
5217.42394409,0.00186369
5219.35275146,0.00188263
5221.28155884,0.00180553
5223.21036621,0.00184383
5225.13917358,0.00189891
5227.06798096,0.00184250
5228.99678833,0.00187596
5230.92559570,0.00180848
5232.85440308,0.00184503
5234.78321045,0.00188326
5236.71201782,0.00180704
5238.64082520,0.00189657
5240.56963257,0.00187162
5242.49843994,0.00176985
5244.42724731,0.00176079
5246.35605469,0.00177752
5248.28486206,0.00177287
5250.21366943,0.00175800
5252.14247681,0.00175252
5254.07128418,0.00165846
5256.00009155,0.00168089
5257.92889893,0.00179452
5259.85770630,0.00175973
5261.78651367,0.00171194
5263.71532104,0.00170176
5265.64412842,0.00170487
5267.57293579,0.00174497
5269.50174316,0.00168536
5271.43055054,0.00168244
5273.35935791,0.00178834
5275.28816528,0.00172808
5277.21697266,0.00172723
5279.14578003,0.00175455
5281.07458740,0.00173092
5283.00339478,0.00176700
5284.93220215,0.00171597
5286.86100952,0.00172315
5288.78981689,0.00165127
5290.71862427,0.00158724
5292.64743164,0.00166128
5294.57623901,0.00164283
5296.50504639,0.00166065
5298.43385376,0.00164213
5300.36266113,0.00165790
5302.29146851,0.00167492
5304.22027588,0.00165487
5306.14908325,0.00168564
5308.07789062,0.00161639
5310.00669800,0.00164154
5311.93550537,0.00165709
5313.86431274,0.00165416
5315.79312012,0.00163054
5317.72192749,0.00153524
5319.65073486,0.00163403
5321.57954224,0.00166885
5323.50834961,0.00165433
5325.43715698,0.00159395
5327.36596436,0.00149916
5329.29477173,0.00155062
5331.22357910,0.00155416
5333.15238647,0.00157287
5335.08119385,0.00156055
5337.01000122,0.00157566
5338.93880859,0.00149842
5340.86761597,0.00147167
5342.79642334,0.00164616
5344.72523071,0.00143959
5346.65403809,0.00142885
5348.58284546,0.00160271
5350.51165283,0.00145945
5352.44046020,0.00145664
5354.36926758,0.00140915
5356.29807495,0.00139227
5358.22688232,0.00148915
5360.15568970,0.00153976
5362.08449707,0.00155438
5364.01330444,0.00147657
5365.94211182,0.00148240
5367.87091919,0.00151288
5369.79972656,0.00154779
5371.72853394,0.00156258
5373.65734131,0.00152341
5375.58614868,0.00140997
5377.51495605,0.00135930
5379.44376343,0.00149399
5381.37257080,0.00149612
5383.30137817,0.00148005
5385.23018555,0.00142257
5387.15899292,0.00140058
5389.08780029,0.00150804
5391.01660767,0.00146026
5392.94541504,0.00144964
5394.87422241,0.00142311
5396.80302978,0.00143161
5398.73183716,0.00141324
5400.66064453,0.00136033
5402.58945190,0.00148426
5404.51825928,0.00140866
5406.44706665,0.00138276
5408.37587402,0.00144278
5410.30468140,0.00136479
5412.23348877,0.00137553
5414.16229614,0.00133587
5416.09110352,0.00134661
5418.01991089,0.00143347
5419.94871826,0.00141707
5421.87752563,0.00138614
5423.80633301,0.00135775
5425.73514038,0.00129823
5427.66394775,0.00130315
5429.59275513,0.00131258
5431.52156250,0.00132510
5433.45036987,0.00139860
5435.37917725,0.00126442
5437.30798462,0.00127007
5439.23679199,0.00140626
5441.16559936,0.00130499
5443.09440674,0.00137037
5445.02321411,0.00133984
5446.95202148,0.00127116
5448.88082886,0.00136709
5450.80963623,0.00129869
5452.73844360,0.00132314
5454.66725098,0.00127802
5456.59605835,0.00124079
5458.52486572,0.00133091
5460.45367310,0.00125951
5462.38248047,0.00130224
5464.31128784,0.00128974
5466.24009521,0.00121895
5468.16890259,0.00130239
5470.09770996,0.00130019
5472.02651733,0.00127387
5473.95532471,0.00125862
5475.88413208,0.00128692
5477.81293945,0.00130863
5479.74174683,0.00125555
5481.67055420,0.00128008
5483.59936157,0.00128289
5485.52816895,0.00121438
5487.45697632,0.00119173
5489.38578369,0.00123988
5491.31459106,0.00125728
5493.24339844,0.00120917
5495.17220581,0.00116797
5497.10101318,0.00116923
5499.02982056,0.00125944
5500.95862793,0.00127155
5502.88743530,0.00119394
5504.81624268,0.00120290
5506.74505005,0.00119388
5508.67385742,0.00117593
5510.60266479,0.00118614
5512.53147217,0.00119147
5514.46027954,0.00123839
5516.38908691,0.00120028
5518.31789429,0.00113872
5520.24670166,0.00119110
5522.17550903,0.00117956
5524.10431641,0.00117491
5526.03312378,0.00121804
5527.96193115,0.00116421
5529.89073853,0.00117501
5531.81954590,0.00119288
5533.74835327,0.00114335
5535.67716064,0.00117082
5537.60596802,0.00115559
5539.53477539,0.00113578
5541.46358276,0.00116588
5543.39239014,0.00113468
5545.32119751,0.00116093
5547.25000488,0.00116377
5549.17881226,0.00112391
5551.10761963,0.00117405
5553.03642700,0.00113274
5554.96523437,0.00111161
5556.89404175,0.00112491
5558.82284912,0.00106536
5560.75165649,0.00110690
5562.68046387,0.00108322
5564.60927124,0.00108986
5566.53807861,0.00118718
5568.46688599,0.00112154
5570.39569336,0.00110697
5572.32450073,0.00113289
5574.25330811,0.00106390
5576.18211548,0.00104273
5578.11092285,0.00104141
5580.03973022,0.00100859
5581.96853760,0.00098691
5583.89734497,0.00099917
5585.82615234,0.00104134
5587.75495972,0.00103217
5589.68376709,0.00100004
5591.61257446,0.00104957
5593.54138184,0.00103796
5595.47018921,0.00102406
5597.39899658,0.00106958
5599.32780395,0.00101202
5601.25661133,0.00105612
5603.18541870,0.00113303
5605.11422607,0.00106701
5607.04303345,0.00108207
5608.97184082,0.00107904
5610.90064819,0.00103304
5612.82945557,0.00105427
5614.75826294,0.00101906
5616.68707031,0.00101450
5618.61587769,0.00103296
5620.54468506,0.00103680
5622.47349243,0.00102994
5624.40229980,0.00096502
5626.33110718,0.00105697
5628.25991455,0.00109679
5630.18872192,0.00097004
5632.11752930,0.00094495
5634.04633667,0.00097050
5635.97514404,0.00102147
5637.90395142,0.00100078
5639.83275879,0.00099061
5641.76156616,0.00096376
5643.69037353,0.00089843
5645.61918091,0.00101553
5647.54798828,0.00103891
5649.47679565,0.00096666
5651.40560303,0.00093444
5653.33441040,0.00093777
5655.26321777,0.00096898
5657.19202515,0.00097411
5659.12083252,0.00101056
5661.04963989,0.00096889
5662.97844727,0.00101146
5664.90725464,0.00100572
5666.83606201,0.00089722
5668.76486938,0.00094450
5670.69367676,0.00091898
5672.62248413,0.00091441
5674.55129150,0.00097010
5676.48009888,0.00092144
5678.40890625,0.00085732
5680.33771362,0.00091833
5682.26652100,0.00093383
5684.19532837,0.00086983
5686.12413574,0.00096802
5688.05294311,0.00092610
5689.98175049,0.00085823
5691.91055786,0.00090965
5693.83936523,0.00094491
5695.76817261,0.00093163
5697.69697998,0.00079482
5699.62578735,0.00089339
5701.55459473,0.00093373
5703.48340210,0.00084669
5705.41220947,0.00090747
5707.34101685,0.00085167
5709.26982422,0.00085236
5711.19863159,0.00084772
5713.12743896,0.00084362
5715.05624634,0.00088131
5716.98505371,0.00086219
5718.91386108,0.00092080
5720.84266846,0.00088585
5722.77147583,0.00087473
5724.70028320,0.00089357
5726.62909058,0.00084381
5728.55789795,0.00086837
5730.48670532,0.00086288
5732.41551270,0.00087228
5734.34432007,0.00088335
5736.27312744,0.00081890
5738.20193481,0.00080333
5740.13074219,0.00086265
5742.05954956,0.00087002
5743.98835693,0.00084486
5745.91716431,0.00085412
5747.84597168,0.00082277
5749.77477905,0.00083388
5751.70358643,0.00083678
5753.63239380,0.00078612
5755.56120117,0.00082779
5757.49000854,0.00085384
5759.41881592,0.00079015
5761.34762329,0.00081123
5763.27643066,0.00090104
5765.20523804,0.00083832
5767.13404541,0.00078950
5769.06285278,0.00080578
5770.99166016,0.00074791
5772.92046753,0.00080657
5774.84927490,0.00085161
5776.77808228,0.00080595
5778.70688965,0.00078974
5780.63569702,0.00077393
5782.56450439,0.00078110
5784.49331177,0.00079878
5786.42211914,0.00081185
5788.35092651,0.00072303
5790.27973389,0.00074627
5792.20854126,0.00081924
5794.13734863,0.00074338
5796.06615601,0.00078867
5797.99496338,0.00071378
5799.92377075,0.00066232
5801.85257812,0.00076896
5803.78138550,0.00074920
5805.71019287,0.00074832
5807.63900024,0.00069923
5809.56780762,0.00075330
5811.49661499,0.00077195
5813.42542236,0.00070774
5815.35422974,0.00079575
5817.28303711,0.00071147
5819.21184448,0.00070001
5821.14065186,0.00073358
5823.06945923,0.00070652
5824.99826660,0.00078685
5826.92707397,0.00070773
5828.85588135,0.00071392
5830.78468872,0.00075504
5832.71349609,0.00068412
5834.64230347,0.00073257
5836.57111084,0.00075862
5838.49991821,0.00072639
5840.42872559,0.00068901
5842.35753296,0.00067690
5844.28634033,0.00064987
5846.21514770,0.00064764
5848.14395508,0.00075197
5850.07276245,0.00071472
5852.00156982,0.00065476
5853.93037720,0.00072482
5855.85918457,0.00068003
5857.78799194,0.00068263
5859.71679932,0.00070011
5861.64560669,0.00062859
5863.57441406,0.00070665
5865.50322144,0.00064533
5867.43202881,0.00058926
5869.36083618,0.00067579
5871.28964355,0.00060041
5873.21845093,0.00068016
5875.14725830,0.00071635
5877.07606567,0.00064686
5879.00487305,0.00066103
5880.93368042,0.00055384
5882.86248779,0.00064562
5884.79129517,0.00073634
5886.72010254,0.00062574
5888.64890991,0.00064279
5890.57771728,0.00063595
5892.50652466,0.00061781
5894.43533203,0.00067941
5896.36413940,0.00069049
5898.29294678,0.00068228
5900.22175415,0.00065859
5902.15056152,0.00061779
5904.07936890,0.00065151
5906.00817627,0.00063449
5907.93698364,0.00058447
5909.86579102,0.00063434
5911.79459839,0.00058649
5913.72340576,0.00056976
5915.65221313,0.00066997
5917.58102051,0.00061066
5919.50982788,0.00056845
5921.43863525,0.00064092
5923.36744263,0.00062671
5925.29625000,0.00064522
5927.22505737,0.00064607
5929.15386475,0.00057435
5931.08267212,0.00064890
5933.01147949,0.00062540
5934.94028686,0.00055865
5936.86909424,0.00063259
5938.79790161,0.00056791
5940.72670898,0.00055519
5942.65551636,0.00060498
5944.58432373,0.00060060
5946.51313110,0.00062451
5948.44193848,0.00057090
5950.37074585,0.00059748
5952.29955322,0.00065175
5954.22836060,0.00058406
5956.15716797,0.00054266
5958.08597534,0.00054466
5960.01478271,0.00055037
5961.94359009,0.00056692
5963.87239746,0.00054890
5965.80120483,0.00056490
5967.73001221,0.00062219
5969.65881958,0.00057773
5971.58762695,0.00062047
5973.51643433,0.00060817
5975.44524170,0.00046609
5977.37404907,0.00052892
5979.30285645,0.00057090
5981.23166382,0.00056176
5983.16047119,0.00052458
5985.08927856,0.00052590
5987.01808594,0.00061597
5988.94689331,0.00052884
5990.87570068,0.00053312
5992.80450806,0.00055798
5994.73331543,0.00049474
5996.66212280,0.00055016
5998.59093018,0.00057598
6000.51973755,0.00053828
