399.26312622,0.00060515
401.19193359,0.00130760
403.12074097,0.00093114
405.04954834,0.00104157
406.97835571,0.00113349
408.90716309,0.00076778
410.83597046,0.00095584
412.76477783,0.00113756
414.69358521,0.00117664
416.62239258,0.00120579
418.55119995,0.00109428
420.48000732,0.00110882
422.40881470,0.00125874
424.33762207,0.00099142
426.26642944,0.00146107
428.19523682,0.00184682
430.12404419,0.00145385
432.05285156,0.00125646
433.98165894,0.00110389
435.91046631,0.00129567
437.83927368,0.00119872
439.76808105,0.00130676
441.69688843,0.00127193
443.62569580,0.00113656
445.55450317,0.00114009
447.48331055,0.00079350
449.41211792,0.00114239
451.34092529,0.00070413
453.26973267,0.00104601
455.19854004,0.00140069
457.12734741,0.00037596
459.05615479,0.00092536
460.98496216,0.00073754
462.91376953,0.00053016
464.84257690,0.00090412
466.77138428,0.00059196
468.70019165,0.00073636
470.62899902,0.00056831
472.55780640,0.00053565
474.48661377,0.00031487
476.41542114,0.00034379
478.34422852,0.00023251
480.27303589,0.00003094
482.20184326,0.00071797
484.13065063,0.00021630
486.05945801,0.00014438
487.98826538,0.00052688
489.91707275,0.00018981
491.84588013,0.00033257
493.77468750,0.00029442
495.70349487,0.00038691
497.63230225,-0.00008848
499.56110962,-0.00024072
501.48991699,0.00053803
503.41872437,0.00032851
505.34753174,0.00051032
507.27633911,0.00064986
509.20514648,-0.00025090
511.13395386,-0.00012485
513.06276123,0.00047135
514.99156860,0.00043343
516.92037598,0.00070581
518.84918335,0.00036028
520.77799072,-0.00011217
522.70679810,0.00027326
524.63560547,-0.00008221
526.56441284,-0.00010083
528.49322021,0.00024206
530.42202759,0.00041173
532.35083496,0.00046390
534.27964233,-0.00001901
536.20844971,0.00006373
538.13725708,0.00002021
540.06606445,-0.00021149
541.99487183,-0.00002911
543.92367920,0.00050677
545.85248657,0.00032360
547.78129395,-0.00007837
549.71010132,0.00023526
551.63890869,0.00022415
553.56771606,0.00014059
555.49652344,0.00010920
557.42533081,0.00015140
559.35413818,0.00055154
561.28294556,0.00031855
563.21175293,-0.00012979
565.14056030,0.00018052
567.06936768,-0.00002473
568.99817505,0.00021552
570.92698242,0.00049295
572.85578979,-0.00000731
574.78459717,0.00027231
576.71340454,0.00011724
578.64221191,-0.00000019
580.57101929,0.00035007
582.49982666,0.00032988
584.42863403,0.00008469
586.35744141,-0.00017706
588.28624878,0.00002307
590.21505615,0.00003322
592.14386353,0.00008544
594.07267090,0.00009455
596.00147827,-0.00011107
597.93028564,0.00037463
599.85909302,0.00023252
601.78790039,-0.00002626
603.71670776,0.00023452
605.64551514,0.00005370
607.57432251,0.00007057
609.50312988,0.00009114
611.43193726,0.00015481
613.36074463,0.00015556
615.28955200,-0.00009288
617.21835938,0.00017713
619.14716675,0.00029319
621.07597412,0.00024761
623.00478149,0.00033853
624.93358887,0.00022187
626.86239624,0.00010448
628.79120361,-0.00005449
630.72001099,0.00026001
632.64881836,0.00084227
634.57762573,0.00089202
636.50643311,0.00101867
638.43524048,0.00115906
640.36404785,0.00096874
642.29285522,0.00103419
644.22166260,0.00122213
646.15046997,0.00139891
648.07927734,0.00157942
650.00808472,0.00156632
651.93689209,0.00167420
653.86569946,0.00167453
655.79450684,0.00158543
657.72331421,0.00169930
659.65212158,0.00177655
661.58092896,0.00197783
663.50973633,0.00228689
665.43854370,0.00227674
667.36735107,0.00188671
669.29615845,0.00210930
671.22496582,0.00277158
673.15377319,0.00267219
675.08258057,0.00253277
677.01138794,0.00282013
678.94019531,0.00291446
680.86900269,0.00262757
682.79781006,0.00256138
684.72661743,0.00270198
686.65542480,0.00239854
688.58423218,0.00229039
690.51303955,0.00260206
692.44184692,0.00291522
694.37065430,0.00294720
696.29946167,0.00314009
698.22826904,0.00387412
700.15707642,0.00406065
702.08588379,0.00372137
704.01469116,0.00347240
705.94349854,0.00336561
707.87230591,0.00289587
709.80111328,0.00203694
711.72992065,0.00161687
713.65872803,0.00095621
715.58753540,0.00055552
717.51634277,0.00077658
719.44515015,0.00042787
721.37395752,0.00035140
723.30276489,0.00046339
725.23157227,0.00018887
727.16037964,0.00017670
729.08918701,0.00021677
731.01799438,0.00036537
732.94680176,0.00038310
734.87560913,0.00028032
736.80441650,0.00033391
738.73322388,0.00028834
740.66203125,0.00052967
742.59083862,0.00046525
744.51964600,0.00043569
746.44845337,0.00045449
748.37726074,0.00017747
750.30606812,0.00058009
752.23487549,0.00038970
754.16368286,0.00024554
756.09249023,0.00071396
758.02129761,0.00047928
759.95010498,0.00045394
761.87891235,0.00070420
763.80771973,0.00080746
765.73652710,0.00055575
767.66533447,0.00023865
769.59414185,0.00046939
771.52294922,0.00046314
773.45175659,0.00040570
775.38056396,0.00046318
777.30937134,0.00024875
779.23817871,0.00038671
781.16698608,0.00050954
783.09579346,0.00014628
785.02460083,0.00005076
786.95340820,0.00027777
788.88221558,0.00041648
790.81102295,0.00029601
792.73983032,0.00014018
794.66863770,0.00037086
796.59744507,0.00038068
798.52625244,0.00038388
800.45505981,0.00071872
802.38386719,0.00058948
804.31267456,0.00059895
806.24148193,0.00045071
808.17028931,0.00011120
810.09909668,0.00069099
812.02790405,0.00058939
813.95671143,0.00013691
815.88551880,0.00050536
817.81432617,0.00043634
819.74313354,0.00021100
821.67194092,0.00000493
823.60074829,0.00017326
825.52955566,0.00044286
827.45836304,0.00018507
829.38717041,0.00061450
831.31597778,0.00067142
833.24478516,0.00045453
835.17359253,0.00078230
837.10239990,0.00075978
839.03120728,0.00089545
840.96001465,0.00082180
842.88882202,0.00085237
844.81762939,0.00087749
846.74643677,0.00059297
848.67524414,0.00086437
850.60405151,0.00073488
852.53285889,0.00050634
854.46166626,0.00051548
856.39047363,0.00046614
858.31928101,0.00050802
860.24808838,0.00037565
862.17689575,0.00044699
864.10570313,0.00014623
866.03451050,0.00002812
867.96331787,0.00049839
869.89212524,0.00040363
871.82093262,0.00035063
873.74973999,0.00039979
875.67854736,0.00029004
877.60735474,0.00038406
879.53616211,0.00042669
881.46496948,0.00046162
883.39377686,0.00051357
885.32258423,0.00055868
887.25139160,0.00047355
889.18019897,0.00038083
891.10900635,0.00055172
893.03781372,0.00072961
894.96662109,0.00057422
896.89542847,0.00027775
898.82423584,0.00058152
900.75304321,0.00066538
902.68185059,0.00049589
904.61065796,0.00082545
906.53946533,0.00054670
908.46827271,0.00051422
910.39708008,0.00092513
912.32588745,0.00078620
914.25469482,0.00082856
916.18350220,0.00090774
918.11230957,0.00089653
920.04111694,0.00080824
921.96992432,0.00088887
923.89873169,0.00107920
925.82753906,0.00094583
927.75634644,0.00111355
929.68515381,0.00117703
931.61396118,0.00099401
933.54276855,0.00124138
935.47157593,0.00148581
937.40038330,0.00137465
939.32919067,0.00158551
941.25799805,0.00185632
943.18680542,0.00156366
945.11561279,0.00150511
947.04442017,0.00159297
948.97322754,0.00156880
950.90203491,0.00147051
952.83084229,0.00138138
954.75964966,0.00161646
956.68845703,0.00158753
958.61726440,0.00139857
960.54607178,0.00133413
962.47487915,0.00140862
964.40368652,0.00157402
966.33249390,0.00174822
968.26130127,0.00174690
970.19010864,0.00158631
972.11891602,0.00195804
974.04772339,0.00203915
975.97653076,0.00189573
977.90533813,0.00216151
979.83414551,0.00226277
981.76295288,0.00240660
983.69176025,0.00263901
985.62056763,0.00291260
987.54937500,0.00292050
989.47818237,0.00324836
991.40698975,0.00387130
993.33579712,0.00403439
995.26460449,0.00448137
997.19341187,0.00478618
999.12221924,0.00516894
1001.05102661,0.00547834
1002.97983398,0.00558122
1004.90864136,0.00627048
1006.83744873,0.00639653
1008.76625610,0.00668341
1010.69506348,0.00739430
1012.62387085,0.00759732
1014.55267822,0.00803119
1016.48148560,0.00844739
1018.41029297,0.00873427
1020.33910034,0.00920809
1022.26790771,0.00965736
1024.19671509,0.00992557
1026.12552246,0.01012238
1028.05432983,0.01032692
1029.98313721,0.01055956
1031.91194458,0.01102363
1033.84075195,0.01136445
1035.76955933,0.01131291
1037.69836670,0.01133420
1039.62717407,0.01158351
1041.55598145,0.01158201
1043.48478882,0.01146024
1045.41359619,0.01145578
1047.34240356,0.01134469
1049.27121094,0.01110347
1051.20001831,0.01074718
1053.12882568,0.01059685
1055.05763306,0.01057540
1056.98644043,0.01030366
1058.91524780,0.00985971
1060.84405518,0.00961134
1062.77286255,0.00948143
1064.70166992,0.00908515
1066.63047729,0.00884302
1068.55928467,0.00855615
1070.48809204,0.00806541
1072.41689941,0.00782207
1074.34570679,0.00751937
1076.27451416,0.00709604
1078.20332153,0.00665468
1080.13212891,0.00640366
1082.06093628,0.00631018
1083.98974365,0.00604623
1085.91855103,0.00581073
1087.84735840,0.00551762
1089.77616577,0.00530253
1091.70497314,0.00516481
1093.63378052,0.00479745
1095.56258789,0.00477378
1097.49139526,0.00484578
1099.42020264,0.00453101
1101.34901001,0.00438010
1103.27781738,0.00425337
1105.20662476,0.00409841
1107.13543213,0.00418713
1109.06423950,0.00417661
1110.99304687,0.00409307
1112.92185425,0.00408963
1114.85066162,0.00395899
1116.77946899,0.00388769
1118.70827637,0.00395004
1120.63708374,0.00389951
1122.56589111,0.00397388
1124.49469849,0.00409416
1126.42350586,0.00400250
1128.35231323,0.00407793
1130.28112061,0.00432706
1132.20992798,0.00433303
1134.13873535,0.00450631
1136.06754272,0.00484992
1137.99635010,0.00483000
1139.92515747,0.00515527
1141.85396484,0.00557049
1143.78277222,0.00569449
1145.71157959,0.00614254
1147.64038696,0.00648141
1149.56919434,0.00680779
1151.49800171,0.00713851
1153.42680908,0.00732682
1155.35561646,0.00785546
1157.28442383,0.00815286
1159.21323120,0.00809991
1161.14203857,0.00856470
1163.07084595,0.00907002
1164.99965332,0.00913533
1166.92846069,0.00956900
1168.85726807,0.01001976
1170.78607544,0.01018024
1172.71488281,0.01043474
1174.64369019,0.01076069
1176.57249756,0.01127587
1178.50130493,0.01158846
1180.43011230,0.01203027
1182.35891968,0.01262109
1184.28772705,0.01303209
1186.21653442,0.01365381
1188.14534180,0.01427175
1190.07414917,0.01506262
1192.00295654,0.01568279
1193.93176392,0.01618500
1195.86057129,0.01700399
1197.78937866,0.01766387
1199.71818604,0.01854965
1201.64699341,0.01933991
1203.57580078,0.01976541
1205.50460815,0.02058311
1207.43341553,0.02148114
1209.36222290,0.02203495
1211.29103027,0.02276091
1213.21983765,0.02360708
1215.14864502,0.02395862
1217.07745239,0.02433053
1219.00625977,0.02486309
1220.93506714,0.02515337
1222.86387451,0.02539711
1224.79268188,0.02556252
1226.72148926,0.02580764
1228.65029663,0.02596053
1230.57910400,0.02594762
1232.50791138,0.02612745
1234.43671875,0.02608341
1236.36552612,0.02609247
1238.29433350,0.02623760
1240.22314087,0.02587820
1242.15194824,0.02565530
1244.08075562,0.02576940
1246.00956299,0.02569259
1247.93837036,0.02539792
1249.86717773,0.02527577
1251.79598511,0.02523044
1253.72479248,0.02477034
1255.65359985,0.02448428
1257.58240723,0.02410731
1259.51121460,0.02352575
1261.44002197,0.02333616
1263.36882935,0.02303508
1265.29763672,0.02284870
1267.22644409,0.02272872
1269.15525146,0.02229982
1271.08405884,0.02185392
1273.01286621,0.02168650
1274.94167358,0.02141964
1276.87048096,0.02062220
1278.79928833,0.02024094
1280.72809570,0.02015117
1282.65690308,0.01981772
1284.58571045,0.01936618
1286.51451782,0.01883615
1288.44332520,0.01858412
1290.37213257,0.01828651
1292.30093994,0.01805093
1294.22974731,0.01804100
1296.15855469,0.01800838
1298.08736206,0.01796418
1300.01616943,0.01798976
1301.94497681,0.01828338
1303.87378418,0.01844653
1305.80259155,0.01846222
1307.73139893,0.01862148
1309.66020630,0.01889288
1311.58901367,0.01918858
1313.51782104,0.01946157
1315.44662842,0.01996960
1317.37543579,0.02033294
1319.30424316,0.02052595
1321.23305054,0.02133603
1323.16185791,0.02226015
1325.09066528,0.02278575
1327.01947266,0.02340945
1328.94828003,0.02387936
1330.87708740,0.02443138
1332.80589478,0.02517994
1334.73470215,0.02533965
1336.66350952,0.02532686
1338.59231689,0.02521127
1340.52112427,0.02564277
1342.44993164,0.02674868
1344.37873901,0.02676119
1346.30754639,0.02662838
1348.23635376,0.02665866
1350.16516113,0.02622312
1352.09396851,0.02629646
1354.02277588,0.02625814
1355.95158325,0.02590088
1357.88039062,0.02563126
1359.80919800,0.02516999
1361.73800537,0.02382594
1363.66681274,0.02372189
1365.59562012,0.02527898
1367.52442749,0.02437762
1369.45323486,0.02414018
1371.38204224,0.02462352
1373.31084961,0.02309278
1375.23965698,0.02336521
1377.16846436,0.02380440
1379.09727173,0.02386029
1381.02607910,0.02406636
1382.95488647,0.02401213
1384.88369385,0.02415850
1386.81250122,0.02268994
1388.74130859,0.02305991
1390.67011597,0.02511148
1392.59892334,0.02409917
1394.52773071,0.02255359
1396.45653809,0.02373385
1398.38534546,0.02345350
1400.31415283,0.02341231
1402.24296021,0.02554539
1404.17176758,0.02388670
1406.10057495,0.02419103
1408.02938232,0.02520178
1409.95818970,0.02405658
1411.88699707,0.02478097
1413.81580444,0.02385470
1415.74461182,0.02432665
1417.67341919,0.02145947
1419.60222656,0.01895245
1421.53103394,0.02260885
1423.45984131,0.02173156
1425.38864868,0.02127203
1427.31745605,0.02187978
1429.24626343,0.01986382
1431.17507080,0.01922573
1433.10387817,0.01981058
1435.03268555,0.01798561
1436.96149292,0.01485607
1438.89030029,0.01742940
1440.81910767,0.01797761
1442.74791504,0.01639612
1444.67672241,0.01755457
1446.60552979,0.01594221
1448.53433716,0.01612621
1450.46314453,0.01701628
1452.39195190,0.01732383
1454.32075928,0.01770112
1456.24956665,0.01414146
1458.17837402,0.01478814
1460.10718140,0.02014324
1462.03598877,0.02137128
1463.96479614,0.02093964
1465.89360352,0.02157112
1467.82241089,0.02486505
1469.75121826,0.02668783
1471.68002563,0.02313051
1473.60883301,0.02432968
1475.53764038,0.02789005
1477.46644775,0.03010922
1479.39525513,0.03309748
1481.32406250,0.03344444
1483.25286987,0.03568529
1485.18167725,0.03664943
1487.11048462,0.03582023
1489.03929199,0.03486149
1490.96809937,0.03505149
1492.89690674,0.04188781
1494.82571411,0.04007574
1496.75452148,0.03540488
1498.68332886,0.04073657
1500.61213623,0.04196963
1502.54094360,0.04553857
1504.46975098,0.04226382
1506.39855835,0.02882490
1508.32736572,0.03663850
1510.25617310,0.04394838
1512.18498047,0.04251467
1514.11378784,0.04652093
1516.04259521,0.04084784
1517.97140259,0.04279484
1519.90020996,0.04104121
1521.82901733,0.03493172
1523.75782471,0.04427012
1525.68663208,0.04304163
1527.61543945,0.04309095
1529.54424683,0.04830895
1531.47305420,0.04592763
1533.40186157,0.04139442
1535.33066895,0.04456498
1537.25947632,0.04804961
1539.18828369,0.03220741
1541.11709106,0.03433125
1543.04589844,0.04207414
1544.97470581,0.04022978
1546.90351318,0.04912500
1548.83232056,0.04487190
1550.76112793,0.04663770
1552.68993530,0.04642492
1554.61874268,0.04160120
1556.54755005,0.04448498
1558.47635742,0.02898408
1560.40516479,0.03275803
1562.33397217,0.04930948
1564.26277954,0.04582757
1566.19158691,0.04756625
1568.12039429,0.04677703
1570.04920166,0.04055554
1571.97800903,0.04820913
1573.90681641,0.04854362
1575.83562378,0.03728323
1577.76443115,0.04344177
1579.69323853,0.04953541
1581.62204590,0.04710674
1583.55085327,0.04837949
1585.47966064,0.04740189
1587.40846802,0.04789838
1589.33727539,0.04740707
1591.26608276,0.04720809
1593.19489014,0.04741406
1595.12369751,0.04692271
1597.05250488,0.04742075
1598.98131226,0.04725010
1600.91011963,0.04755405
1602.83892700,0.04642767
1604.76773437,0.04730915
1606.69654175,0.04640964
1608.62534912,0.04635147
1610.55415649,0.04631572
1612.48296387,0.04691973
1614.41177124,0.04748310
1616.34057861,0.03757311
1618.26938599,0.04180343
1620.19819336,0.04946444
1622.12700073,0.04274929
1624.05580811,0.04318262
1625.98461548,0.04578704
1627.91342285,0.04516733
1629.84223022,0.04537544
1631.77103760,0.04896977
1633.69984497,0.04391113
1635.62865234,0.03541939
1637.55745972,0.04251019
1639.48626709,0.04729022
1641.41507446,0.04607078
1643.34388184,0.04735924
1645.27268921,0.04172645
1647.20149658,0.03579691
1649.13030396,0.04643570
1651.05911133,0.04335838
1652.98791870,0.02561368
1654.91672607,0.03746179
1656.84553345,0.04836821
1658.77434082,0.04592128
1660.70314819,0.04716576
1662.63195557,0.04206803
1664.56076294,0.04492999
1666.48957031,0.04849489
1668.41837769,0.04092537
1670.34718506,0.03979290
1672.27599243,0.04600890
1674.20479980,0.04157931
1676.13360718,0.03980189
1678.06241455,0.04689688
1679.99122192,0.04485986
1681.92002930,0.04375789
1683.84883667,0.03411817
1685.77764404,0.03445830
1687.70645142,0.04893930
1689.63525879,0.04125233
1691.56406616,0.04667949
1693.49287354,0.04700783
1695.42168091,0.03261295
1697.35048828,0.04213972
1699.27929565,0.03564501
1701.20810303,0.03175378
1703.13691040,0.04543533
1705.06571777,0.04074064
1706.99452515,0.04157473
1708.92333252,0.04575733
1710.85213989,0.04361161
1712.78094727,0.04431851
1714.70975464,0.04056739
1716.63856201,0.03580379
1718.56736938,0.03519337
1720.49617676,0.04317027
1722.42498413,0.04490710
1724.35379150,0.04129773
1726.28259888,0.04569717
1728.21140625,0.04162589
1730.14021362,0.04210468
1732.06902100,0.04055588
1733.99782837,0.02953994
1735.92663574,0.03881830
1737.85544312,0.04289632
1739.78425049,0.03741599
1741.71305786,0.04165702
1743.64186523,0.04199192
1745.57067261,0.04195935
1747.49947998,0.04209147
1749.42828735,0.03978631
1751.35709473,0.03803276
1753.28590210,0.04311985
1755.21470947,0.04498963
1757.14351685,0.04050052
1759.07232422,0.04550995
1761.00113159,0.04166394
1762.92993896,0.04034474
1764.85874634,0.04721035
1766.78755371,0.04135565
1768.71636108,0.04205836
1770.64516846,0.04135443
1772.57397583,0.03668677
1774.50278320,0.04196777
1776.43159058,0.04453078
1778.36039795,0.04372335
1780.28920532,0.04285911
1782.21801270,0.04356299
1784.14682007,0.04334169
1786.07562744,0.04239000
1788.00443481,0.04506142
1789.93324219,0.04326095
1791.86204956,0.03847895
1793.79085693,0.04065218
1795.71966431,0.04406539
1797.64847168,0.04321780
1799.57727905,0.04245586
1801.50608643,0.04160359
1803.43489380,0.04321835
1805.36370117,0.04439020
1807.29250854,0.04352678
1809.22131592,0.04354452
1811.15012329,0.04222835
1813.07893066,0.04392364
1815.00773804,0.04401528
1816.93654541,0.04332552
1818.86535278,0.04367552
1820.79416016,0.04341595
1822.72296753,0.04409543
1824.65177490,0.04053683
1826.58058228,0.04249365
1828.50938965,0.04231767
1830.43819702,0.03910637
1832.36700439,0.04363327
1834.29581177,0.04311248
1836.22461914,0.04296763
1838.15342651,0.04286622
1840.08223389,0.04311193
1842.01104126,0.04290846
1843.93984863,0.03716010
1845.86865601,0.04030731
1847.79746338,0.04284280
1849.72627075,0.04181369
1851.65507812,0.04326515
1853.58388550,0.04220633
1855.51269287,0.04269872
1857.44150024,0.04230702
1859.37030762,0.04203568
1861.29911499,0.04230262
1863.22792236,0.04174276
1865.15672974,0.04218583
1867.08553711,0.04037905
1869.01434448,0.03840259
1870.94315186,0.04023150
1872.87195923,0.04211864
1874.80076660,0.04108871
1876.72957397,0.04126377
1878.65838135,0.04131662
1880.58718872,0.04089867
1882.51599609,0.04126441
1884.44480347,0.04057855
1886.37361084,0.04119972
1888.30241821,0.04009139
1890.23122559,0.03917267
1892.16003296,0.04070731
1894.08884033,0.03995134
1896.01764771,0.03988288
1897.94645508,0.04042257
1899.87526245,0.04017659
1901.80406982,0.04023001
1903.73287720,0.03992352
1905.66168457,0.04003047
1907.59049194,0.03944543
1909.51929932,0.03930101
1911.44810669,0.03952821
1913.37691406,0.03959608
1915.30572144,0.03982775
1917.23452881,0.03747455
1919.16333618,0.03785617
1921.09214355,0.03949535
1923.02095093,0.03780781
1924.94975830,0.03888062
1926.87856567,0.03923917
1928.80737305,0.03867855
1930.73618042,0.03923254
1932.66498779,0.03844313
1934.59379517,0.03892735
1936.52260254,0.03862038
1938.45140991,0.03868473
1940.38021729,0.03858265
1942.30902466,0.03714581
1944.23783203,0.03798295
1946.16663940,0.03830529
1948.09544678,0.03822294
1950.02425415,0.03838917
1951.95306152,0.03803081
1953.88186890,0.03810062
1955.81067627,0.03804960
1957.73948364,0.03800155
1959.66829102,0.03782989
1961.59709839,0.03785723
1963.52590576,0.03796904
1965.45471313,0.03758885
1967.38352051,0.03709259
1969.31232788,0.03745825
1971.24113525,0.03763895
1973.16994263,0.03737343
1975.09875000,0.03761337
1977.02755737,0.03727068
1978.95636475,0.03727074
1980.88517212,0.03720369
1982.81397949,0.03702855
1984.74278687,0.03713772
1986.67159424,0.03667115
1988.60040161,0.03682068
1990.52920898,0.03638690
1992.45801636,0.03577742
1994.38682373,0.03642326
1996.31563110,0.03666284
1998.24443848,0.03629291
2000.17324585,0.03629726
2002.10205322,0.03625450
2004.03086060,0.03602147
2005.95966797,0.03607048
2007.88847534,0.03576091
2009.81728271,0.03560212
2011.74609009,0.03563491
2013.67489746,0.03559228
2015.60370483,0.03539453
2017.53251221,0.03495345
2019.46131958,0.03510400
2021.39012695,0.03505748
2023.31893433,0.03503420
2025.24774170,0.03503682
2027.17654907,0.03480891
2029.10535645,0.03471775
2031.03416382,0.03454272
2032.96297119,0.03459634
2034.89177856,0.03426684
2036.82058594,0.03421932
2038.74939331,0.03432956
2040.67820068,0.03395209
2042.60700806,0.03381452
2044.53581543,0.03379715
2046.46462280,0.03383143
2048.39343018,0.03364703
2050.32223755,0.03356356
2052.25104492,0.03344301
2054.17985229,0.03336854
2056.10865967,0.03347258
2058.03746704,0.03326595
2059.96627441,0.03314412
2061.89508179,0.03299862
2063.82388916,0.03282112
2065.75269653,0.03261069
2067.68150391,0.03270948
2069.61031128,0.03281934
2071.53911865,0.03259689
2073.46792603,0.03254648
2075.39673340,0.03242302
2077.32554077,0.03235492
2079.25434814,0.03217882
2081.18315552,0.03214527
2083.11196289,0.03218506
2085.04077026,0.03202114
2086.96957764,0.03191673
2088.89838501,0.03171194
2090.82719238,0.03168698
2092.75599976,0.03161123
2094.68480713,0.03157074
2096.61361450,0.03142574
2098.54242187,0.03124145
2100.47122925,0.03137261
2102.40003662,0.03130409
2104.32884399,0.03118401
2106.25765137,0.03103348
2108.18645874,0.03096711
2110.11526611,0.03098634
2112.04407349,0.03094323
2113.97288086,0.03079713
2115.90168823,0.03069789
2117.83049561,0.03066974
2119.75930298,0.03047792
2121.68811035,0.03045629
2123.61691772,0.03028554
2125.54572510,0.03029489
2127.47453247,0.03028674
2129.40333984,0.02999793
2131.33214722,0.03017891
2133.26095459,0.03021853
2135.18976196,0.02999939
2137.11856934,0.02980639
2139.04737671,0.02987534
2140.97618408,0.02997112
2142.90499146,0.02986564
2144.83379883,0.02983352
2146.76260620,0.02974460
2148.69141357,0.02974019
2150.62022095,0.02962310
2152.54902832,0.02956245
2154.47783569,0.02944120
2156.40664307,0.02935245
2158.33545044,0.02931008
2160.26425781,0.02914697
2162.19306519,0.02937789
2164.12187256,0.02916139
2166.05067993,0.02888171
2167.97948730,0.02900076
2169.90829468,0.02898535
2171.83710205,0.02886989
2173.76590942,0.02869684
2175.69471680,0.02879896
2177.62352417,0.02864914
2179.55233154,0.02862627
2181.48113892,0.02865796
2183.40994629,0.02836801
2185.33875366,0.02841925
2187.26756104,0.02833560
2189.19636841,0.02831186
2191.12517578,0.02831292
2193.05398315,0.02819965
2194.98279053,0.02822680
2196.91159790,0.02809304
2198.84040527,0.02798980
2200.76921265,0.02792583
2202.69802002,0.02790606
2204.62682739,0.02785851
2206.55563477,0.02783064
2208.48444214,0.02777783
2210.41324951,0.02764741
2212.34205688,0.02772896
2214.27086426,0.02756214
2216.19967163,0.02744994
2218.12847900,0.02755420
2220.05728638,0.02729310
2221.98609375,0.02726400
2223.91490112,0.02738334
2225.84370850,0.02717791
2227.77251587,0.02703927
2229.70132324,0.02706933
2231.63013062,0.02711914
2233.55893799,0.02696630
2235.48774536,0.02684441
2237.41655273,0.02686956
2239.34536011,0.02676879
2241.27416748,0.02670332
2243.20297485,0.02670912
2245.13178223,0.02667759
2247.06058960,0.02652648
2248.98939697,0.02644356
2250.91820435,0.02638652
2252.84701172,0.02628468
2254.77581909,0.02624096
2256.70462646,0.02614097
2258.63343384,0.02621610
2260.56224121,0.02608428
2262.49104858,0.02597071
2264.41985596,0.02601529
2266.34866333,0.02576842
2268.27747070,0.02587653
2270.20627808,0.02587813
2272.13508545,0.02565632
2274.06389282,0.02570663
2275.99270020,0.02566614
2277.92150757,0.02550425
2279.85031494,0.02542912
2281.77912231,0.02552000
2283.70792969,0.02540186
2285.63673706,0.02535107
2287.56554443,0.02536487
2289.49435181,0.02522738
2291.42315918,0.02514999
2293.35196655,0.02492955
2295.28077393,0.02494261
2297.20958130,0.02492086
2299.13838867,0.02468041
2301.06719604,0.02455816
2302.99600342,0.02432691
2304.92481079,0.02429447
2306.85361816,0.02426565
2308.78242554,0.02395517
2310.71123291,0.02388254
2312.64004028,0.02372709
2314.56884766,0.02328724
2316.49765503,0.02308777
2318.42646240,0.02282464
2320.35526978,0.02250677
2322.28407715,0.02230699
2324.21288452,0.02199074
2326.14169189,0.02166818
2328.07049927,0.02140658
2329.99930664,0.02127264
2331.92811401,0.02105449
2333.85692139,0.02101813
2335.78572876,0.02098610
2337.71453613,0.02080666
2339.64334351,0.02089522
2341.57215088,0.02084176
2343.50095825,0.02102081
2345.42976562,0.02140981
2347.35857300,0.02213255
2349.28738037,0.02267106
2351.21618774,0.02196243
2353.14499512,0.02115823
2355.07380249,0.02031538
2357.00260986,0.01965595
2358.93141724,0.01944389
2360.86022461,0.01910871
2362.78903198,0.01906395
2364.71783936,0.01919157
2366.64664673,0.01939036
2368.57545410,0.01964741
2370.50426147,0.02014098
2372.43306885,0.02062472
2374.36187622,0.02108230
2376.29068359,0.02159479
2378.21949097,0.02182949
2380.14829834,0.02229649
2382.07710571,0.02243813
2384.00591309,0.02246766
2385.93472046,0.02261943
2387.86352783,0.02248996
2389.79233521,0.02256203
2391.72114258,0.02245188
2393.64994995,0.02240345
2395.57875732,0.02241757
2397.50756470,0.02237988
2399.43637207,0.02235047
2401.36517944,0.02212809
2403.29398682,0.02214219
2405.22279419,0.02208242
2407.15160156,0.02201656
2409.08040894,0.02194109
2411.00921631,0.02185272
2412.93802368,0.02187951
2414.86683105,0.02180832
2416.79563843,0.02187587
2418.72444580,0.02170374
2420.65325317,0.02163367
2422.58206055,0.02172611
2424.51086792,0.02158192
2426.43967529,0.02158791
2428.36848267,0.02150841
2430.29729004,0.02150330
2432.22609741,0.02151362
2434.15490479,0.02131456
2436.08371216,0.02124039
2438.01251953,0.02120478
2439.94132690,0.02124609
2441.87013428,0.02134054
2443.79894165,0.02120399
2445.72774902,0.02099214
2447.65655640,0.02103693
2449.58536377,0.02106451
2451.51417114,0.02094405
2453.44297852,0.02089950
2455.37178589,0.02084242
2457.30059326,0.02078432
2459.22940063,0.02069243
2461.15820801,0.02057875
2463.08701538,0.02063028
2465.01582275,0.02073427
2466.94463013,0.02059952
2468.87343750,0.02041850
2470.80224487,0.02046932
2472.73105225,0.02046813
2474.65985962,0.02037081
2476.58866699,0.02034966
2478.51747437,0.02035698
2480.44628174,0.02031853
2482.37508911,0.02027453
2484.30389648,0.02022202
2486.23270386,0.02011092
2488.16151123,0.02002707
2490.09031860,0.01996080
2492.01912598,0.01999377
2493.94793335,0.02002001
2495.87674072,0.01993901
2497.80554810,0.01984617
2499.73435547,0.01977319
2501.66316284,0.01980443
2503.59197021,0.01972041
2505.52077759,0.01963356
2507.44958496,0.01960080
2509.37839233,0.01954702
2511.30719971,0.01955753
2513.23600708,0.01947377
2515.16481445,0.01950781
2517.09362183,0.01949067
2519.02242920,0.01939998
2520.95123657,0.01933921
2522.88004395,0.01917836
2524.80885132,0.01916473
2526.73765869,0.01913298
2528.66646606,0.01917933
2530.59527344,0.01918189
2532.52408081,0.01903638
2534.45288818,0.01899658
2536.38169556,0.01892441
2538.31050293,0.01896669
2540.23931030,0.01895801
2542.16811768,0.01879645
2544.09692505,0.01872088
2546.02573242,0.01878759
2547.95453979,0.01872675
2549.88334717,0.01862341
2551.81215454,0.01866100
2553.74096191,0.01850175
2555.66976929,0.01850283
2557.59857666,0.01848686
2559.52738403,0.01837108
2561.45619141,0.01843094
2563.38499878,0.01843271
2565.31380615,0.01843138
2567.24261353,0.01827106
2569.17142090,0.01829041
2571.10022827,0.01826267
2573.02903564,0.01814072
2574.95784302,0.01820359
2576.88665039,0.01809470
2578.81545776,0.01808474
2580.74426514,0.01787884
2582.67307251,0.01779914
2584.60187988,0.01791363
2586.53068726,0.01774089
2588.45949463,0.01772725
2590.38830200,0.01775483
2592.31710937,0.01769815
2594.24591675,0.01761605
2596.17472412,0.01772564
2598.10353149,0.01769513
2600.03233887,0.01756832
2601.96114624,0.01760221
2603.88995361,0.01742264
2605.81876099,0.01741606
2607.74756836,0.01731679
2609.67637573,0.01726405
2611.60518311,0.01734515
2613.53399048,0.01722145
2615.46279785,0.01719013
2617.39160522,0.01710784
2619.32041260,0.01715393
2621.24921997,0.01709562
2623.17802734,0.01698133
2625.10683472,0.01703754
2627.03564209,0.01702815
2628.96444946,0.01693202
2630.89325684,0.01684089
2632.82206421,0.01696185
2634.75087158,0.01681606
2636.67967895,0.01677617
2638.60848633,0.01684701
2640.53729370,0.01666965
2642.46610107,0.01671600
2644.39490845,0.01658772
2646.32371582,0.01652797
2648.25252319,0.01657619
2650.18133057,0.01650069
2652.11013794,0.01659387
2654.03894531,0.01650485
2655.96775269,0.01631540
2657.89656006,0.01634547
2659.82536743,0.01631587
2661.75417480,0.01624397
2663.68298218,0.01631637
2665.61178955,0.01620926
2667.54059692,0.01618328
2669.46940430,0.01612296
2671.39821167,0.01593811
2673.32701904,0.01597635
2675.25582642,0.01586699
2677.18463379,0.01594492
2679.11344116,0.01595124
2681.04224854,0.01583529
2682.97105591,0.01585510
2684.89986328,0.01567667
2686.82867065,0.01573076
2688.75747803,0.01573334
2690.68628540,0.01562863
2692.61509277,0.01553992
2694.54390015,0.01555312
2696.47270752,0.01563728
2698.40151489,0.01549460
2700.33032227,0.01556259
2702.25912964,0.01543064
2704.18793701,0.01535156
2706.11674438,0.01546875
2708.04555176,0.01532374
2709.97435913,0.01531958
2711.90316650,0.01526932
2713.83197388,0.01530277
2715.76078125,0.01533132
2717.68958862,0.01516502
2719.61839600,0.01508556
2721.54720337,0.01514304
2723.47601074,0.01515445
2725.40481812,0.01490558
2727.33362549,0.01490651
2729.26243286,0.01498213
2731.19124023,0.01490663
2733.12004761,0.01491564
2735.04885498,0.01484075
2736.97766235,0.01479425
2738.90646973,0.01466538
2740.83527710,0.01459773
2742.76408447,0.01466490
2744.69289185,0.01458989
2746.62169922,0.01457743
2748.55050659,0.01459704
2750.47931396,0.01449014
2752.40812134,0.01437316
2754.33692871,0.01432318
2756.26573608,0.01437541
2758.19454346,0.01446511
2760.12335083,0.01433815
2762.05215820,0.01416842
2763.98096558,0.01426394
2765.90977295,0.01424159
2767.83858032,0.01406199
2769.76738770,0.01407384
2771.69619507,0.01404928
2773.62500244,0.01399072
2775.55380981,0.01401083
2777.48261719,0.01393311
2779.41142456,0.01392419
2781.34023193,0.01388858
2783.26903931,0.01383043
2785.19784668,0.01386845
2787.12665405,0.01371379
2789.05546143,0.01367079
2790.98426880,0.01380565
2792.91307617,0.01373872
2794.84188354,0.01361351
2796.77069092,0.01353905
2798.69949829,0.01350151
2800.62830566,0.01350659
2802.55711304,0.01340660
2804.48592041,0.01335002
2806.41472778,0.01339809
2808.34353516,0.01327094
2810.27234253,0.01327696
2812.20114990,0.01325401
2814.12995728,0.01310021
2816.05876465,0.01325928
2817.98757202,0.01322486
2819.91637939,0.01309203
2821.84518677,0.01300208
2823.77399414,0.01280974
2825.70280151,0.01290359
2827.63160889,0.01297500
2829.56041626,0.01285779
2831.48922363,0.01281462
2833.41803101,0.01290302
2835.34683838,0.01281657
2837.27564575,0.01271435
2839.20445312,0.01277683
2841.13326050,0.01258730
2843.06206787,0.01251269
2844.99087524,0.01249012
2846.91968262,0.01232720
2848.84848999,0.01230577
2850.77729736,0.01234564
2852.70610474,0.01238735
2854.63491211,0.01233938
2856.56371948,0.01239071
2858.49252686,0.01237398
2860.42133423,0.01225586
2862.35014160,0.01223760
2864.27894897,0.01215489
2866.20775635,0.01210763
2868.13656372,0.01204975
2870.06537109,0.01204297
2871.99417847,0.01199962
2873.92298584,0.01196145
2875.85179321,0.01200211
2877.78060059,0.01193427
2879.70940796,0.01194106
2881.63821533,0.01184442
2883.56702270,0.01181019
2885.49583008,0.01187413
2887.42463745,0.01175160
2889.35344482,0.01172060
2891.28225220,0.01176783
2893.21105957,0.01172839
2895.13986694,0.01155330
2897.06867432,0.01158319
2898.99748169,0.01168294
2900.92628906,0.01150397
2902.85509644,0.01146355
2904.78390381,0.01152746
2906.71271118,0.01151963
2908.64151855,0.01140008
2910.57032593,0.01132106
2912.49913330,0.01139982
2914.42794067,0.01129702
2916.35674805,0.01122849
2918.28555542,0.01127972
2920.21436279,0.01120195
2922.14317017,0.01123232
2924.07197754,0.01126482
2926.00078491,0.01122401
2927.92959229,0.01129081
2929.85839966,0.01119894
2931.78720703,0.01115568
2933.71601440,0.01120758
2935.64482178,0.01112811
2937.57362915,0.01115265
2939.50243652,0.01106850
2941.43124390,0.01102211
2943.36005127,0.01105641
2945.28885864,0.01092826
2947.21766602,0.01091680
2949.14647339,0.01091206
2951.07528076,0.01087117
2953.00408813,0.01087198
2954.93289551,0.01087100
2956.86170288,0.01081439
2958.79051025,0.01075446
2960.71931763,0.01071489
2962.64812500,0.01062906
2964.57693237,0.01069209
2966.50573975,0.01068631
2968.43454712,0.01061458
2970.36335449,0.01064246
2972.29216187,0.01064055
2974.22096924,0.01053199
2976.14977661,0.01040418
2978.07858398,0.01051092
2980.00739136,0.01050625
2981.93619873,0.01050230
2983.86500610,0.01051432
2985.79381348,0.01029663
2987.72262085,0.01033761
2989.65142822,0.01040719
2991.58023560,0.01035238
2993.50904297,0.01030023
2995.43785034,0.01020226
2997.36665771,0.01021389
2999.29546509,0.01031298
3001.22427246,0.01031123
3003.15307983,0.01015146
3005.08188721,0.01010809
3007.01069458,0.01008629
3008.93950195,0.01006821
3010.86830933,0.01004641
3012.79711670,0.00998905
3014.72592407,0.01001660
3016.65473145,0.00991045
3018.58353882,0.00995040
3020.51234619,0.00996337
3022.44115356,0.00983459
3024.36996094,0.00988770
3026.29876831,0.00980716
3028.22757568,0.00975469
3030.15638306,0.00978100
3032.08519043,0.00970457
3034.01399780,0.00964131
3035.94280518,0.00962897
3037.87161255,0.00963205
3039.80041992,0.00959713
3041.72922729,0.00959209
3043.65803467,0.00955841
3045.58684204,0.00952030
3047.51564941,0.00947850
3049.44445679,0.00943465
3051.37326416,0.00941181
3053.30207153,0.00939536
3055.23087891,0.00944405
3057.15968628,0.00941302
3059.08849365,0.00939033
3061.01730103,0.00936094
3062.94610840,0.00927454
3064.87491577,0.00928855
3066.80372314,0.00926100
3068.73253052,0.00924128
3070.66133789,0.00929088
3072.59014526,0.00920920
3074.51895264,0.00909014
3076.44776001,0.00916918
3078.37656738,0.00917404
3080.30537476,0.00904783
3082.23418213,0.00909324
3084.16298950,0.00910271
3086.09179687,0.00905810
3088.02060425,0.00900761
3089.94941162,0.00891064
3091.87821899,0.00898164
3093.80702637,0.00906146
3095.73583374,0.00899222
3097.66464111,0.00893347
3099.59344849,0.00891668
3101.52225586,0.00889718
3103.45106323,0.00887623
3105.37987061,0.00884436
3107.30867798,0.00884336
3109.23748535,0.00879933
3111.16629272,0.00873826
3113.09510010,0.00875627
3115.02390747,0.00867173
3116.95271484,0.00866505
3118.88152222,0.00869280
3120.81032959,0.00856716
3122.73913696,0.00861051
3124.66794434,0.00867999
3126.59675171,0.00864502
3128.52555908,0.00856996
3130.45436645,0.00854764
3132.38317383,0.00857754
3134.31198120,0.00844766
3136.24078857,0.00841790
3138.16959595,0.00839656
3140.09840332,0.00845499
3142.02721069,0.00859298
3143.95601807,0.00835955
3145.88482544,0.00831421
3147.81363281,0.00840669
3149.74244019,0.00831262
3151.67124756,0.00830817
3153.60005493,0.00825041
3155.52886230,0.00826602
3157.45766968,0.00832772
3159.38647705,0.00824727
3161.31528442,0.00811716
3163.24409180,0.00812074
3165.17289917,0.00817565
3167.10170654,0.00809145
3169.03051392,0.00813113
3170.95932129,0.00819018
3172.88812866,0.00817737
3174.81693604,0.00816900
3176.74574341,0.00808315
3178.67455078,0.00804576
3180.60335815,0.00806731
3182.53216553,0.00809732
3184.46097290,0.00806607
3186.38978027,0.00802941
3188.31858765,0.00805066
3190.24739502,0.00809619
3192.17620239,0.00804601
3194.10500977,0.00795980
3196.03381714,0.00800905
3197.96262451,0.00801745
3199.89143188,0.00806076
3201.82023926,0.00801361
3203.74904663,0.00794965
3205.67785400,0.00804263
3207.60666138,0.00796686
3209.53546875,0.00791367
3211.46427612,0.00790340
3213.39308350,0.00786416
3215.32189087,0.00786307
3217.25069824,0.00789234
3219.17950562,0.00788125
3221.10831299,0.00783517
3223.03712036,0.00795886
3224.96592773,0.00793040
3226.89473511,0.00784529
3228.82354248,0.00784526
3230.75234985,0.00782868
3232.68115723,0.00780771
3234.60996460,0.00774683
3236.53877197,0.00787238
3238.46757935,0.00786130
3240.39638672,0.00777252
3242.32519409,0.00778430
3244.25400146,0.00781017
3246.18280884,0.00786398
3248.11161621,0.00782533
3250.04042358,0.00789336
3251.96923096,0.00784987
3253.89803833,0.00787098
3255.82684570,0.00787713
3257.75565308,0.00775923
3259.68446045,0.00789216
3261.61326782,0.00784141
3263.54207520,0.00785076
3265.47088257,0.00790416
3267.39968994,0.00780679
3269.32849731,0.00779848
3271.25730469,0.00777771
3273.18611206,0.00777276
3275.11491943,0.00777130
3277.04372681,0.00786106
3278.97253418,0.00775956
3280.90134155,0.00775445
3282.83014893,0.00785388
3284.75895630,0.00774757
3286.68776367,0.00784953
3288.61657104,0.00779324
3290.54537842,0.00778394
3292.47418579,0.00787515
3294.40299316,0.00783695
3296.33180054,0.00783983
3298.26060791,0.00771213
3300.18941528,0.00774974
3302.11822266,0.00775915
3304.04703003,0.00770918
3305.97583740,0.00776142
3307.90464478,0.00773230
3309.83345215,0.00775741
3311.76225952,0.00779999
3313.69106689,0.00777957
3315.61987427,0.00774972
3317.54868164,0.00778596
3319.47748901,0.00773274
3321.40629639,0.00775284
3323.33510376,0.00774617
3325.26391113,0.00763269
3327.19271851,0.00775702
3329.12152588,0.00778675
3331.05033325,0.00771669
3332.97914062,0.00766544
3334.90794800,0.00771722
3336.83675537,0.00774133
3338.76556274,0.00764821
3340.69437012,0.00769872
3342.62317749,0.00767878
3344.55198486,0.00772359
3346.48079224,0.00773572
3348.40959961,0.00771347
3350.33840698,0.00770655
3352.26721436,0.00766768
3354.19602173,0.00770788
3356.12482910,0.00758336
3358.05363647,0.00763068
3359.98244385,0.00767160
3361.91125122,0.00766728
3363.84005859,0.00774966
3365.76886597,0.00767976
3367.69767334,0.00763347
3369.62648071,0.00758557
3371.55528809,0.00771891
3373.48409546,0.00766902
3375.41290283,0.00758969
3377.34171020,0.00763895
3379.27051758,0.00760655
3381.19932495,0.00774478
3383.12813232,0.00760797
3385.05693970,0.00761143
3386.98574707,0.00765785
3388.91455444,0.00762264
3390.84336182,0.00771336
3392.77216919,0.00754135
3394.70097656,0.00763994
3396.62978394,0.00764134
3398.55859131,0.00754946
3400.48739868,0.00759868
3402.41620605,0.00752357
3404.34501343,0.00759170
3406.27382080,0.00757461
3408.20262817,0.00753434
3410.13143555,0.00747714
3412.06024292,0.00752133
3413.98905029,0.00763393
3415.91785767,0.00758769
3417.84666504,0.00753841
3419.77547241,0.00748806
3421.70427979,0.00749512
3423.63308716,0.00746390
3425.56189453,0.00754052
3427.49070190,0.00751344
3429.41950928,0.00741861
3431.34831665,0.00747721
3433.27712402,0.00746107
3435.20593140,0.00748653
3437.13473877,0.00734374
3439.06354614,0.00734820
3440.99235352,0.00745380
3442.92116089,0.00734374
3444.84996826,0.00737224
3446.77877563,0.00735611
3448.70758301,0.00729636
3450.63639038,0.00727888
3452.56519775,0.00732811
3454.49400513,0.00733781
3456.42281250,0.00728372
3458.35161987,0.00734852
3460.28042725,0.00732058
3462.20923462,0.00725234
3464.13804199,0.00730506
3466.06684937,0.00727827
3467.99565674,0.00723092
3469.92446411,0.00738492
3471.85327148,0.00731936
3473.78207886,0.00719695
3475.71088623,0.00719105
3477.63969360,0.00710840
3479.56850098,0.00722191
3481.49730835,0.00708444
3483.42611572,0.00703644
3485.35492310,0.00716712
3487.28373047,0.00706656
3489.21253784,0.00719508
3491.14134521,0.00716357
3493.07015259,0.00709535
3494.99895996,0.00708961
3496.92776733,0.00697955
3498.85657471,0.00711012
3500.78538208,0.00702499
3502.71418945,0.00681152
3504.64299683,0.00695475
3506.57180420,0.00706531
3508.50061157,0.00691928
3510.42941895,0.00685516
3512.35822632,0.00691840
3514.28703369,0.00702493
3516.21584106,0.00703636
3518.14464844,0.00691964
3520.07345581,0.00698046
3522.00226318,0.00695598
3523.93107056,0.00674747
3525.85987793,0.00674542
3527.78868530,0.00683784
3529.71749268,0.00677552
3531.64630005,0.00678931
3533.57510742,0.00688130
3535.50391479,0.00679303
3537.43272217,0.00674561
3539.36152954,0.00682599
3541.29033691,0.00688268
3543.21914429,0.00674323
3545.14795166,0.00650558
3547.07675903,0.00646873
3549.00556641,0.00664430
3550.93437378,0.00671323
3552.86318115,0.00654450
3554.79198853,0.00660790
3556.72079590,0.00669050
3558.64960327,0.00662608
3560.57841064,0.00661381
3562.50721802,0.00657245
3564.43602539,0.00657487
3566.36483276,0.00607580
3568.29364014,0.00578080
3570.22244751,0.00647506
3572.15125488,0.00668772
3574.08006226,0.00644574
3576.00886963,0.00658324
3577.93767700,0.00657700
3579.86648437,0.00646935
3581.79529175,0.00645424
3583.72409912,0.00656521
3585.65290649,0.00630273
3587.58171387,0.00564435
3589.51052124,0.00595146
3591.43932861,0.00641661
3593.36813599,0.00616676
3595.29694336,0.00605522
3597.22575073,0.00610526
3599.15455811,0.00617338
3601.08336548,0.00615796
3603.01217285,0.00626844
3604.94098022,0.00641825
3606.86978760,0.00607733
3608.79859497,0.00558122
3610.72740234,0.00586871
3612.65620972,0.00599128
3614.58501709,0.00566941
3616.51382446,0.00612955
3618.44263184,0.00559247
3620.37143921,0.00543493
3622.30024658,0.00617542
3624.22905395,0.00604301
3626.15786133,0.00638796
3628.08666870,0.00518154
3630.01547607,0.00471050
3631.94428345,0.00611913
3633.87309082,0.00587381
3635.80189819,0.00599344
3637.73070557,0.00617195
3639.65951294,0.00603459
3641.58832031,0.00603618
3643.51712769,0.00600980
3645.44593506,0.00606810
3647.37474243,0.00530732
3649.30354980,0.00481138
3651.23235718,0.00488573
3653.16116455,0.00598514
3655.08997192,0.00596253
3657.01877930,0.00530190
3658.94758667,0.00617489
3660.87639404,0.00594216
3662.80520142,0.00612061
3664.73400879,0.00616201
3666.66281616,0.00600079
3668.59162354,0.00582964
3670.52043091,0.00458923
3672.44923828,0.00575869
3674.37804565,0.00547995
3676.30685303,0.00430725
3678.23566040,0.00572391
3680.16446777,0.00588465
3682.09327515,0.00592832
3684.02208252,0.00614487
3685.95088989,0.00593613
3687.87969727,0.00545215
3689.80850464,0.00491781
3691.73731201,0.00557389
3693.66611938,0.00595025
3695.59492676,0.00605231
3697.52373413,0.00600982
3699.45254150,0.00608686
3701.38134888,0.00580525
3703.31015625,0.00555276
3705.23896362,0.00626412
3707.16777100,0.00582721
3709.09657837,0.00563100
3711.02538574,0.00521776
3712.95419312,0.00483377
3714.88300049,0.00590208
3716.81180786,0.00581314
3718.74061523,0.00582977
3720.66942261,0.00571076
3722.59822998,0.00547374
3724.52703735,0.00565493
3726.45584473,0.00521638
3728.38465210,0.00568921
3730.31345947,0.00564549
3732.24226685,0.00519528
3734.17107422,0.00491993
3736.09988159,0.00462036
3738.02868896,0.00502264
3739.95749634,0.00547495
3741.88630371,0.00577797
3743.81511108,0.00432573
3745.74391846,0.00404958
3747.67272583,0.00543551
3749.60153320,0.00449964
3751.53034058,0.00416119
3753.45914795,0.00488603
3755.38795532,0.00524137
3757.31676270,0.00554421
3759.24557007,0.00501362
3761.17437744,0.00519642
3763.10318481,0.00564957
3765.03199219,0.00513374
3766.96079956,0.00523981
3768.88960693,0.00529852
3770.81841431,0.00502728
3772.74722168,0.00536982
3774.67602905,0.00535015
3776.60483643,0.00543853
3778.53364380,0.00520924
3780.46245117,0.00486179
3782.39125854,0.00533936
3784.32006592,0.00520667
3786.24887329,0.00510281
3788.17768066,0.00528877
3790.10648804,0.00516221
3792.03529541,0.00510399
3793.96410278,0.00532118
3795.89291016,0.00486511
3797.82171753,0.00478769
3799.75052490,0.00523226
3801.67933228,0.00391920
3803.60813965,0.00463959
3805.53694702,0.00509589
3807.46575439,0.00395542
3809.39456177,0.00517789
3811.32336914,0.00505145
3813.25217651,0.00508583
3815.18098389,0.00460450
3817.10979126,0.00394854
3819.03859863,0.00520076
3820.96740601,0.00401312
3822.89621338,0.00416730
3824.82502075,0.00502556
3826.75382812,0.00445167
3828.68263550,0.00493934
3830.61144287,0.00467705
3832.54025024,0.00445766
3834.46905762,0.00465719
3836.39786499,0.00437612
3838.32667236,0.00384793
3840.25547974,0.00421178
3842.18428711,0.00457826
3844.11309448,0.00428989
3846.04190186,0.00469134
3847.97070923,0.00464878
3849.89951660,0.00471778
3851.82832397,0.00415825
3853.75713135,0.00293012
3855.68593872,0.00355607
3857.61474609,0.00458807
3859.54355347,0.00448419
3861.47236084,0.00443096
3863.40116821,0.00434760
3865.32997559,0.00387903
3867.25878296,0.00442704
3869.18759033,0.00402301
3871.11639770,0.00358114
3873.04520508,0.00445183
3874.97401245,0.00395392
3876.90281982,0.00442758
3878.83162720,0.00455841
3880.76043457,0.00372512
3882.68924194,0.00449012
3884.61804932,0.00405974
3886.54685669,0.00365480
3888.47566406,0.00441315
3890.40447144,0.00419075
3892.33327881,0.00384743
3894.26208618,0.00421816
3896.19089355,0.00445453
3898.11970093,0.00408250
3900.04850830,0.00381743
3901.97731567,0.00379772
3903.90612305,0.00368398
3905.83493042,0.00385157
3907.76373779,0.00427262
3909.69254517,0.00423560
3911.62135254,0.00412627
3913.55015991,0.00423643
3915.47896728,0.00414813
3917.40777466,0.00398824
3919.33658203,0.00383897
3921.26538940,0.00398756
3923.19419678,0.00402333
3925.12300415,0.00385643
3927.05181152,0.00395561
3928.98061890,0.00404402
3930.90942627,0.00399199
3932.83823364,0.00384527
3934.76704102,0.00399821
3936.69584839,0.00405487
3938.62465576,0.00397905
3940.55346313,0.00410501
3942.48227051,0.00384707
3944.41107788,0.00381097
3946.33988525,0.00394154
3948.26869263,0.00372068
3950.19750000,0.00378364
3952.12630737,0.00384061
3954.05511475,0.00375594
3955.98392212,0.00387171
3957.91272949,0.00384812
3959.84153687,0.00377078
3961.77034424,0.00383016
3963.69915161,0.00386587
3965.62795898,0.00381052
3967.55676636,0.00372686
3969.48557373,0.00376890
3971.41438110,0.00380064
3973.34318848,0.00380704
3975.27199585,0.00375926
3977.20080322,0.00373254
3979.12961060,0.00377049
3981.05841797,0.00368011
3982.98722534,0.00369483
3984.91603271,0.00369457
3986.84484009,0.00371276
3988.77364746,0.00369669
3990.70245483,0.00359751
3992.63126221,0.00369540
3994.56006958,0.00362186
3996.48887695,0.00358833
3998.41768433,0.00365076
4000.34649170,0.00359272
4002.27529907,0.00356813
4004.20410645,0.00355515
4006.13291382,0.00360159
4008.06172119,0.00358669
4009.99052856,0.00357548
4011.91933594,0.00350954
4013.84814331,0.00345584
4015.77695068,0.00347957
4017.70575806,0.00345026
4019.63456543,0.00349424
4021.56337280,0.00349629
4023.49218018,0.00346834
4025.42098755,0.00335617
4027.34979492,0.00331820
4029.27860229,0.00344595
4031.20740967,0.00344232
4033.13621704,0.00342803
4035.06502441,0.00341294
4036.99383179,0.00335899
4038.92263916,0.00334024
4040.85144653,0.00335516
4042.78025391,0.00337738
4044.70906128,0.00335571
4046.63786865,0.00333006
4048.56667603,0.00338994
4050.49548340,0.00338408
4052.42429077,0.00328160
4054.35309814,0.00328017
4056.28190552,0.00328136
4058.21071289,0.00329839
4060.13952026,0.00325619
4062.06832764,0.00321154
4063.99713501,0.00321491
4065.92594238,0.00314739
4067.85474976,0.00318025
4069.78355713,0.00321518
4071.71236450,0.00320523
4073.64117187,0.00314086
4075.56997925,0.00319939
4077.49878662,0.00327014
4079.42759399,0.00315221
4081.35640137,0.00314445
4083.28520874,0.00315364
4085.21401611,0.00322706
4087.14282349,0.00316900
4089.07163086,0.00303305
4091.00043823,0.00303411
4092.92924561,0.00305462
4094.85805298,0.00313912
4096.78686035,0.00303783
4098.71566772,0.00308471
4100.64447510,0.00313721
4102.57328247,0.00298131
4104.50208984,0.00296831
4106.43089722,0.00297126
4108.35970459,0.00303861
4110.28851196,0.00298503
4112.21731934,0.00291889
4114.14612671,0.00298479
4116.07493408,0.00297712
4118.00374145,0.00291037
4119.93254883,0.00291442
4121.86135620,0.00299016
4123.79016357,0.00291916
4125.71897095,0.00288848
4127.64777832,0.00288115
4129.57658569,0.00291251
4131.50539307,0.00293377
4133.43420044,0.00286587
4135.36300781,0.00290005
4137.29181519,0.00282762
4139.22062256,0.00285079
4141.14942993,0.00288958
4143.07823730,0.00279401
4145.00704468,0.00279729
4146.93585205,0.00281748
4148.86465942,0.00283971
4150.79346680,0.00280499
4152.72227417,0.00277602
4154.65108154,0.00277122
4156.57988892,0.00280903
4158.50869629,0.00281711
4160.43750366,0.00275748
4162.36631103,0.00275021
4164.29511841,0.00269156
4166.22392578,0.00267980
4168.15273315,0.00269883
4170.08154053,0.00267884
4172.01034790,0.00265758
4173.93915527,0.00267745
4175.86796265,0.00268237
4177.79677002,0.00261748
4179.72557739,0.00265907
4181.65438477,0.00264368
4183.58319214,0.00257756
4185.51199951,0.00264098
4187.44080688,0.00264537
4189.36961426,0.00257547
4191.29842163,0.00258358
4193.22722900,0.00255418
4195.15603638,0.00254109
4197.08484375,0.00263757
4199.01365112,0.00260671
4200.94245850,0.00258399
4202.87126587,0.00258415
4204.80007324,0.00254988
4206.72888062,0.00258338
4208.65768799,0.00253600
4210.58649536,0.00250412
4212.51530273,0.00251536
4214.44411011,0.00249233
4216.37291748,0.00248591
4218.30172485,0.00247589
4220.23053223,0.00245280
4222.15933960,0.00246547
4224.08814697,0.00246244
4226.01695435,0.00248392
4227.94576172,0.00252825
4229.87456909,0.00246352
4231.80337646,0.00244797
4233.73218384,0.00241441
4235.66099121,0.00241727
4237.58979858,0.00245105
4239.51860596,0.00241182
4241.44741333,0.00241648
4243.37622070,0.00228991
4245.30502808,0.00227678
4247.23383545,0.00231407
4249.16264282,0.00231063
4251.09145020,0.00235605
4253.02025757,0.00225368
4254.94906494,0.00228164
4256.87787231,0.00234644
4258.80667969,0.00234929
4260.73548706,0.00230092
4262.66429443,0.00229648
4264.59310181,0.00237768
4266.52190918,0.00225010
4268.45071655,0.00223042
4270.37952393,0.00225108
4272.30833130,0.00214723
4274.23713867,0.00221798
4276.16594604,0.00228868
4278.09475342,0.00221516
4280.02356079,0.00224223
4281.95236816,0.00219066
4283.88117554,0.00207337
4285.80998291,0.00221345
4287.73879028,0.00220228
4289.66759766,0.00219387
4291.59640503,0.00222376
4293.52521240,0.00207642
4295.45401978,0.00210819
4297.38282715,0.00211924
4299.31163452,0.00213048
4301.24044189,0.00216869
4303.16924927,0.00217539
4305.09805664,0.00213004
4307.02686401,0.00205933
4308.95567139,0.00215118
4310.88447876,0.00209337
4312.81328613,0.00205738
4314.74209351,0.00208220
4316.67090088,0.00203930
4318.59970825,0.00209106
4320.52851562,0.00205626
4322.45732300,0.00208863
4324.38613037,0.00211853
4326.31493774,0.00200956
4328.24374512,0.00207113
4330.17255249,0.00214463
4332.10135986,0.00203101
4334.03016724,0.00198110
4335.95897461,0.00199592
4337.88778198,0.00198740
4339.81658936,0.00200120
4341.74539673,0.00201868
4343.67420410,0.00202311
4345.60301147,0.00195897
4347.53181885,0.00199705
4349.46062622,0.00204945
4351.38943359,0.00194744
4353.31824097,0.00194247
4355.24704834,0.00202105
4357.17585571,0.00198066
4359.10466309,0.00193738
4361.03347046,0.00200353
4362.96227783,0.00198918
4364.89108520,0.00199198
4366.81989258,0.00195232
4368.74869995,0.00189202
4370.67750732,0.00193723
4372.60631470,0.00186160
4374.53512207,0.00194437
4376.46392944,0.00195468
4378.39273682,0.00185988
4380.32154419,0.00195606
4382.25035156,0.00189384
4384.17915894,0.00184043
4386.10796631,0.00186022
4388.03677368,0.00185738
4389.96558105,0.00181045
4391.89438843,0.00179744
4393.82319580,0.00189534
4395.75200317,0.00191055
4397.68081055,0.00183750
4399.60961792,0.00178033
4401.53842529,0.00184663
4403.46723267,0.00183630
4405.39604004,0.00184530
4407.32484741,0.00183143
4409.25365478,0.00174853
4411.18246216,0.00184102
4413.11126953,0.00180876
4415.04007690,0.00181728
4416.96888428,0.00183198
4418.89769165,0.00176970
4420.82649902,0.00175956
4422.75530640,0.00175649
4424.68411377,0.00186078
4426.61292114,0.00176038
4428.54172852,0.00169071
4430.47053589,0.00168690
4432.39934326,0.00160329
4434.32815063,0.00164265
4436.25695801,0.00165466
4438.18576538,0.00173767
4440.11457275,0.00174162
4442.04338013,0.00166848
4443.97218750,0.00163356
4445.90099487,0.00167787
4447.82980225,0.00178285
4449.75860962,0.00166763
4451.68741699,0.00163374
4453.61622437,0.00167834
4455.54503174,0.00167993
4457.47383911,0.00171095
4459.40264648,0.00162294
4461.33145386,0.00163191
4463.26026123,0.00170770
4465.18906860,0.00164116
4467.11787598,0.00159247
4469.04668335,0.00158468
4470.97549072,0.00151229
4472.90429810,0.00150236
4474.83310547,0.00158080
4476.76191284,0.00161922
4478.69072021,0.00157555
4480.61952759,0.00154953
4482.54833496,0.00158113
4484.47714233,0.00153673
4486.40594971,0.00152633
4488.33475708,0.00154221
4490.26356445,0.00150934
4492.19237183,0.00150331
4494.12117920,0.00150910
4496.04998657,0.00153798
4497.97879395,0.00154780
4499.90760132,0.00154915
4501.83640869,0.00151885
4503.76521606,0.00154512
4505.69402344,0.00154867
4507.62283081,0.00143216
4509.55163818,0.00146095
4511.48044556,0.00148683
4513.40925293,0.00146122
4515.33806030,0.00147720
4517.26686768,0.00147286
4519.19567505,0.00143131
4521.12448242,0.00139342
4523.05328979,0.00149517
4524.98209717,0.00147581
4526.91090454,0.00143656
4528.83971191,0.00143960
4530.76851929,0.00136643
4532.69732666,0.00146429
4534.62613403,0.00143928
4536.55494141,0.00143192
4538.48374878,0.00148101
4540.41255615,0.00135848
4542.34136353,0.00140703
4544.27017090,0.00143484
4546.19897827,0.00146147
4548.12778564,0.00145863
4550.05659302,0.00133693
4551.98540039,0.00136712
4553.91420776,0.00138133
4555.84301514,0.00140605
4557.77182251,0.00135447
4559.70062988,0.00128801
4561.62943726,0.00138237
4563.55824463,0.00138520
4565.48705200,0.00131000
4567.41585937,0.00128826
4569.34466675,0.00138571
4571.27347412,0.00135120
4573.20228149,0.00126978
4575.13108887,0.00134916
4577.05989624,0.00137223
4578.98870361,0.00136685
4580.91751099,0.00128259
4582.84631836,0.00123793
4584.77512573,0.00125948
4586.70393311,0.00127285
4588.63274048,0.00128896
4590.56154785,0.00129212
4592.49035522,0.00140033
4594.41916260,0.00134076
4596.34796997,0.00128687
4598.27677734,0.00135070
4600.20558472,0.00130654
4602.13439209,0.00131933
4604.06319946,0.00126437
4605.99200684,0.00120858
4607.92081421,0.00123279
4609.84962158,0.00123511
4611.77842895,0.00124188
4613.70723633,0.00121198
4615.63604370,0.00117732
4617.56485107,0.00120450
4619.49365845,0.00125216
4621.42246582,0.00124770
4623.35127319,0.00126613
4625.28008057,0.00123907
4627.20888794,0.00121515
4629.13769531,0.00123764
4631.06650269,0.00120000
4632.99531006,0.00115396
4634.92411743,0.00117733
4636.85292480,0.00123797
4638.78173218,0.00112801
4640.71053955,0.00115618
4642.63934692,0.00119919
4644.56815430,0.00109594
4646.49696167,0.00121805
4648.42576904,0.00118884
4650.35457642,0.00114100
4652.28338379,0.00116780
4654.21219116,0.00114855
4656.14099853,0.00116934
4658.06980591,0.00110829
4659.99861328,0.00118164
4661.92742065,0.00113637
4663.85622803,0.00110320
4665.78503540,0.00116455
4667.71384277,0.00109793
4669.64265015,0.00116463
4671.57145752,0.00111214
4673.50026489,0.00107633
4675.42907227,0.00113556
4677.35787964,0.00108774
4679.28668701,0.00111500
4681.21549438,0.00109995
4683.14430176,0.00107524
4685.07310913,0.00115760
4687.00191650,0.00116314
4688.93072388,0.00106082
4690.85953125,0.00108729
4692.78833862,0.00113186
4694.71714600,0.00104977
4696.64595337,0.00104205
4698.57476074,0.00108181
4700.50356812,0.00109050
4702.43237549,0.00111454
4704.36118286,0.00110316
4706.28999023,0.00105186
4708.21879761,0.00107402
4710.14760498,0.00104266
4712.07641235,0.00105696
4714.00521973,0.00114103
4715.93402710,0.00105793
4717.86283447,0.00108842
4719.79164185,0.00104283
4721.72044922,0.00094262
4723.64925659,0.00107633
4725.57806396,0.00102678
4727.50687134,0.00094536
4729.43567871,0.00099216
4731.36448608,0.00104169
4733.29329346,0.00109807
4735.22210083,0.00104495
4737.15090820,0.00101356
4739.07971558,0.00101101
4741.00852295,0.00094893
4742.93733032,0.00094744
4744.86613770,0.00101367
4746.79494507,0.00099677
4748.72375244,0.00092541
4750.65255981,0.00094802
4752.58136719,0.00094585
4754.51017456,0.00091524
4756.43898193,0.00097311
4758.36778931,0.00095607
4760.29659668,0.00093965
4762.22540405,0.00099867
4764.15421143,0.00095886
4766.08301880,0.00095322
4768.01182617,0.00093432
4769.94063354,0.00089786
4771.86944092,0.00098033
4773.79824829,0.00096343
4775.72705566,0.00091249
4777.65586304,0.00093371
4779.58467041,0.00094207
4781.51347778,0.00091088
4783.44228516,0.00090996
4785.37109253,0.00098286
4787.29989990,0.00096747
4789.22870728,0.00093441
4791.15751465,0.00092830
4793.08632202,0.00091137
4795.01512939,0.00091952
4796.94393677,0.00095169
4798.87274414,0.00096529
4800.80155151,0.00084815
4802.73035889,0.00083120
4804.65916626,0.00089618
4806.58797363,0.00085867
4808.51678101,0.00083852
4810.44558838,0.00081893
4812.37439575,0.00085085
4814.30320312,0.00083653
4816.23201050,0.00082341
4818.16081787,0.00088190
4820.08962524,0.00080089
4822.01843262,0.00082826
4823.94723999,0.00092597
4825.87604736,0.00088433
4827.80485474,0.00087923
4829.73366211,0.00084613
4831.66246948,0.00080801
4833.59127686,0.00080750
4835.52008423,0.00083953
4837.44889160,0.00092950
4839.37769897,0.00086064
4841.30650635,0.00077491
4843.23531372,0.00087289
4845.16412109,0.00089529
4847.09292847,0.00080371
4849.02173584,0.00074938
4850.95054321,0.00078498
4852.87935059,0.00089059
4854.80815796,0.00084953
4856.73696533,0.00075586
4858.66577270,0.00080304
4860.59458008,0.00080325
4862.52338745,0.00082981
4864.45219482,0.00085180
4866.38100220,0.00081111
4868.30980957,0.00086477
4870.23861694,0.00081664
4872.16742432,0.00077193
4874.09623169,0.00075170
4876.02503906,0.00068041
4877.95384644,0.00076505
4879.88265381,0.00081320
4881.81146118,0.00081433
4883.74026855,0.00080577
4885.66907593,0.00072107
4887.59788330,0.00066202
4889.52669067,0.00071943
4891.45549805,0.00076952
4893.38430542,0.00066830
4895.31311279,0.00079126
4897.24192017,0.00083909
4899.17072754,0.00064753
4901.09953491,0.00071759
4903.02834228,0.00075474
4904.95714966,0.00069287
4906.88595703,0.00067055
4908.81476440,0.00069397
4910.74357178,0.00073333
4912.67237915,0.00069995
4914.60118652,0.00068870
4916.52999390,0.00064882
4918.45880127,0.00070737
4920.38760864,0.00069119
4922.31641602,0.00061820
4924.24522339,0.00069702
4926.17403076,0.00070168
4928.10283813,0.00072526
4930.03164551,0.00067649
4931.96045288,0.00065889
4933.88926025,0.00071951
4935.81806763,0.00065728
4937.74687500,0.00069143
4939.67568237,0.00069902
4941.60448975,0.00066508
4943.53329712,0.00069247
4945.46210449,0.00073565
4947.39091187,0.00071269
4949.31971924,0.00060690
4951.24852661,0.00065388
4953.17733398,0.00067495
4955.10614136,0.00066650
4957.03494873,0.00070945
4958.96375610,0.00067161
4960.89256348,0.00071169
4962.82137085,0.00067767
4964.75017822,0.00060251
4966.67898560,0.00064154
4968.60779297,0.00061927
4970.53660034,0.00065357
4972.46540771,0.00066703
4974.39421509,0.00064545
4976.32302246,0.00070328
4978.25182983,0.00060568
4980.18063721,0.00057083
4982.10944458,0.00066670
4984.03825195,0.00064882
4985.96705933,0.00061371
4987.89586670,0.00060604
4989.82467407,0.00065899
4991.75348145,0.00062942
4993.68228882,0.00058190
4995.61109619,0.00067562
4997.53990356,0.00067705
4999.46871094,0.00060442
5001.39751831,0.00058232
5003.32632568,0.00058570
5005.25513306,0.00055604
5007.18394043,0.00056542
5009.11274780,0.00059747
5011.04155518,0.00057222
5012.97036255,0.00059081
5014.89916992,0.00062456
5016.82797729,0.00063367
5018.75678467,0.00058225
5020.68559204,0.00057503
5022.61439941,0.00056165
5024.54320679,0.00051068
5026.47201416,0.00054871
5028.40082153,0.00051830
5030.32962891,0.00056930
5032.25843628,0.00060702
5034.18724365,0.00054832
5036.11605103,0.00056295
5038.04485840,0.00053970
5039.97366577,0.00055788
5041.90247314,0.00053342
5043.83128052,0.00052155
5045.76008789,0.00054032
5047.68889526,0.00052614
5049.61770264,0.00057296
5051.54651001,0.00053398
5053.47531738,0.00050896
5055.40412476,0.00051713
5057.33293213,0.00052486
5059.26173950,0.00054989
5061.19054687,0.00057204
5063.11935425,0.00059556
5065.04816162,0.00051473
5066.97696899,0.00048933
5068.90577637,0.00054783
5070.83458374,0.00054885
5072.76339111,0.00051753
5074.69219849,0.00052779
5076.62100586,0.00050951
5078.54981323,0.00049547
5080.47862061,0.00053858
5082.40742798,0.00051051
5084.33623535,0.00053715
5086.26504272,0.00052038
5088.19385010,0.00052667
5090.12265747,0.00058521
5092.05146484,0.00048885
5093.98027222,0.00048558
5095.90907959,0.00049379
5097.83788696,0.00051034
5099.76669434,0.00052664
5101.69550171,0.00046366
5103.62430908,0.00052561
5105.55311645,0.00053785
5107.48192383,0.00050306
5109.41073120,0.00049104
5111.33953857,0.00043799
5113.26834595,0.00047231
5115.19715332,0.00049149
5117.12596069,0.00043209
5119.05476807,0.00049995
5120.98357544,0.00049726
5122.91238281,0.00045981
5124.84119019,0.00058377
5126.76999756,0.00047839
5128.69880493,0.00041127
5130.62761230,0.00051333
5132.55641968,0.00052713
5134.48522705,0.00052214
5136.41403442,0.00044050
5138.34284180,0.00050190
5140.27164917,0.00051009
5142.20045654,0.00045313
5144.12926392,0.00051666
5146.05807129,0.00045599
5147.98687866,0.00046937
5149.91568603,0.00047421
5151.84449341,0.00037493
5153.77330078,0.00039661
5155.70210815,0.00043794
5157.63091553,0.00040102
5159.55972290,0.00047982
5161.48853027,0.00054304
5163.41733765,0.00041312
5165.34614502,0.00042299
5167.27495239,0.00044795
5169.20375977,0.00041532
5171.13256714,0.00041698
5173.06137451,0.00040360
5174.99018188,0.00045138
5176.91898926,0.00040877
5178.84779663,0.00040445
5180.77660400,0.00042436
5182.70541138,0.00041772
5184.63421875,0.00043867
5186.56302612,0.00037586
5188.49183350,0.00043811
5190.42064087,0.00046038
5192.34944824,0.00039065
5194.27825562,0.00043902
5196.20706299,0.00040540
5198.13587036,0.00041597
5200.06467773,0.00047098
5201.99348511,0.00037896
5203.92229248,0.00043246
5205.85109985,0.00046679
5207.77990723,0.00034871
5209.70871460,0.00040147
5211.63752197,0.00040748
5213.56632935,0.00039439
5215.49513672,0.00041816
5217.42394409,0.00037484
5219.35275146,0.00040977
5221.28155884,0.00037745
5223.21036621,0.00040301
5225.13917358,0.00047220
5227.06798096,0.00041226
5228.99678833,0.00038805
5230.92559570,0.00042597
5232.85440308,0.00039440
5234.78321045,0.00031429
5236.71201782,0.00042057
5238.64082520,0.00041932
5240.56963257,0.00031020
5242.49843994,0.00033836
5244.42724731,0.00031469
5246.35605469,0.00035758
5248.28486206,0.00031366
5250.21366943,0.00030389
5252.14247681,0.00042714
5254.07128418,0.00035975
5256.00009155,0.00036058
5257.92889893,0.00038818
5259.85770630,0.00037155
5261.78651367,0.00041686
5263.71532104,0.00036369
5265.64412842,0.00032743
5267.57293579,0.00039158
5269.50174316,0.00040001
5271.43055054,0.00034181
5273.35935791,0.00035810
5275.28816528,0.00036240
5277.21697266,0.00038332
5279.14578003,0.00042095
5281.07458740,0.00035796
5283.00339478,0.00037216
5284.93220215,0.00034601
5286.86100952,0.00037134
5288.78981689,0.00040047
5290.71862427,0.00029352
5292.64743164,0.00040254
5294.57623901,0.00038732
5296.50504639,0.00033281
5298.43385376,0.00039129
5300.36266113,0.00032821
5302.29146851,0.00044500
5304.22027588,0.00044391
5306.14908325,0.00033409
5308.07789062,0.00033067
5310.00669800,0.00033745
5311.93550537,0.00040714
5313.86431274,0.00035146
5315.79312012,0.00032519
5317.72192749,0.00035902
5319.65073486,0.00039357
5321.57954224,0.00038018
5323.50834961,0.00029310
5325.43715698,0.00034745
5327.36596436,0.00037341
5329.29477173,0.00033027
5331.22357910,0.00031785
5333.15238647,0.00035491
5335.08119385,0.00028161
5337.01000122,0.00025292
5338.93880859,0.00036608
5340.86761597,0.00027989
5342.79642334,0.00029393
5344.72523071,0.00029620
5346.65403809,0.00029362
5348.58284546,0.00037496
5350.51165283,0.00026047
5352.44046020,0.00029684
5354.36926758,0.00031014
5356.29807495,0.00028619
5358.22688232,0.00033353
5360.15568970,0.00031191
5362.08449707,0.00032707
5364.01330444,0.00027135
5365.94211182,0.00027479
5367.87091919,0.00030763
5369.79972656,0.00029850
5371.72853394,0.00024750
5373.65734131,0.00025544
5375.58614868,0.00030741
5377.51495605,0.00024379
5379.44376343,0.00033413
5381.37257080,0.00032562
5383.30137817,0.00026394
5385.23018555,0.00031291
5387.15899292,0.00028343
5389.08780029,0.00036095
5391.01660767,0.00031392
5392.94541504,0.00024508
5394.87422241,0.00029782
5396.80302978,0.00029610
5398.73183716,0.00033113
5400.66064453,0.00029126
5402.58945190,0.00029443
5404.51825928,0.00034473
5406.44706665,0.00028937
5408.37587402,0.00028261
5410.30468140,0.00028325
5412.23348877,0.00026104
5414.16229614,0.00025040
5416.09110352,0.00022834
5418.01991089,0.00029749
5419.94871826,0.00032849
5421.87752563,0.00025281
5423.80633301,0.00024109
5425.73514038,0.00025976
5427.66394775,0.00028732
5429.59275513,0.00026302
5431.52156250,0.00026963
5433.45036987,0.00032542
5435.37917725,0.00025948
5437.30798462,0.00027749
5439.23679199,0.00031419
5441.16559936,0.00024813
5443.09440674,0.00026924
5445.02321411,0.00031191
5446.95202148,0.00027710
5448.88082886,0.00026420
5450.80963623,0.00030693
5452.73844360,0.00028310
5454.66725098,0.00024985
5456.59605835,0.00023634
5458.52486572,0.00021116
5460.45367310,0.00024860
5462.38248047,0.00026349
5464.31128784,0.00022512
5466.24009521,0.00019679
5468.16890259,0.00018452
5470.09770996,0.00021237
5472.02651733,0.00025322
5473.95532471,0.00022727
5475.88413208,0.00020676
5477.81293945,0.00024636
5479.74174683,0.00026561
5481.67055420,0.00026271
5483.59936157,0.00022567
5485.52816895,0.00016176
5487.45697632,0.00017896
5489.38578369,0.00023904
5491.31459106,0.00023903
5493.24339844,0.00027023
5495.17220581,0.00024793
5497.10101318,0.00021674
5499.02982056,0.00029403
5500.95862793,0.00025560
5502.88743530,0.00023404
5504.81624268,0.00028321
5506.74505005,0.00027428
5508.67385742,0.00022974
5510.60266479,0.00023136
5512.53147217,0.00030210
5514.46027954,0.00025077
5516.38908691,0.00025438
5518.31789429,0.00026111
5520.24670166,0.00020038
5522.17550903,0.00021796
5524.10431641,0.00021337
5526.03312378,0.00026841
5527.96193115,0.00024456
5529.89073853,0.00023360
5531.81954590,0.00026075
5533.74835327,0.00020326
5535.67716064,0.00020947
5537.60596802,0.00015845
5539.53477539,0.00019742
5541.46358276,0.00022988
5543.39239014,0.00018158
5545.32119751,0.00022739
5547.25000488,0.00020776
5549.17881226,0.00020254
5551.10761963,0.00018097
5553.03642700,0.00018111
5554.96523437,0.00026774
5556.89404175,0.00025934
5558.82284912,0.00021455
5560.75165649,0.00018053
5562.68046387,0.00016534
5564.60927124,0.00024399
5566.53807861,0.00027474
5568.46688599,0.00018752
5570.39569336,0.00020091
5572.32450073,0.00020902
5574.25330811,0.00018779
5576.18211548,0.00022709
5578.11092285,0.00016257
5580.03973022,0.00016088
5581.96853760,0.00020895
5583.89734497,0.00021444
5585.82615234,0.00022114
5587.75495972,0.00018423
5589.68376709,0.00017942
5591.61257446,0.00016332
5593.54138184,0.00021604
5595.47018921,0.00021878
5597.39899658,0.00013592
5599.32780395,0.00020547
5601.25661133,0.00019152
5603.18541870,0.00019953
5605.11422607,0.00029115
5607.04303345,0.00023258
5608.97184082,0.00018801
5610.90064819,0.00015090
5612.82945557,0.00018275
5614.75826294,0.00022084
5616.68707031,0.00014877
5618.61587769,0.00012865
5620.54468506,0.00014002
5622.47349243,0.00020769
5624.40229980,0.00019546
5626.33110718,0.00016555
5628.25991455,0.00020519
5630.18872192,0.00021117
5632.11752930,0.00027207
5634.04633667,0.00020270
5635.97514404,0.00015491
5637.90395142,0.00017953
5639.83275879,0.00014824
5641.76156616,0.00017436
5643.69037353,0.00015308
5645.61918091,0.00018487
5647.54798828,0.00018181
5649.47679565,0.00021503
5651.40560303,0.00027112
5653.33441040,0.00016404
5655.26321777,0.00018918
5657.19202515,0.00021683
5659.12083252,0.00020423
5661.04963989,0.00021981
5662.97844727,0.00018614
5664.90725464,0.00015400
5666.83606201,0.00013602
5668.76486938,0.00015922
5670.69367676,0.00017490
5672.62248413,0.00023411
5674.55129150,0.00016599
5676.48009888,0.00016471
5678.40890625,0.00026370
5680.33771362,0.00016050
5682.26652100,0.00019293
5684.19532837,0.00020871
5686.12413574,0.00020098
5688.05294311,0.00023872
5689.98175049,0.00016707
5691.91055786,0.00018793
5693.83936523,0.00017817
5695.76817261,0.00017929
5697.69697998,0.00016594
5699.62578735,0.00012139
5701.55459473,0.00013186
5703.48340210,0.00015392
5705.41220947,0.00020547
5707.34101685,0.00015675
5709.26982422,0.00018208
5711.19863159,0.00016698
5713.12743896,0.00006918
5715.05624634,0.00015298
5716.98505371,0.00017927
5718.91386108,0.00012919
5720.84266846,0.00012155
5722.77147583,0.00014898
5724.70028320,0.00016839
5726.62909058,0.00014366
5728.55789795,0.00013242
5730.48670532,0.00014924
5732.41551270,0.00017369
5734.34432007,0.00015019
5736.27312744,0.00015398
5738.20193481,0.00015737
5740.13074219,0.00013340
5742.05954956,0.00013584
5743.98835693,0.00013282
5745.91716431,0.00016431
5747.84597168,0.00014109
5749.77477905,0.00011851
5751.70358643,0.00017088
5753.63239380,0.00010924
5755.56120117,0.00005796
5757.49000854,0.00013077
5759.41881592,0.00013879
5761.34762329,0.00016803
5763.27643066,0.00021461
5765.20523804,0.00012877
5767.13404541,0.00014777
5769.06285278,0.00019278
5770.99166016,0.00012373
5772.92046753,0.00012543
5774.84927490,0.00011322
5776.77808228,0.00011198
5778.70688965,0.00016263
5780.63569702,0.00015899
5782.56450439,0.00011383
5784.49331177,0.00009174
5786.42211914,0.00011493
5788.35092651,0.00009516
5790.27973389,0.00005478
5792.20854126,0.00009892
5794.13734863,0.00016359
5796.06615601,0.00014149
5797.99496338,0.00014427
5799.92377075,0.00015821
5801.85257812,0.00013125
5803.78138550,0.00014138
5805.71019287,0.00011045
5807.63900024,0.00011159
5809.56780762,0.00012320
5811.49661499,0.00014732
5813.42542236,0.00022778
5815.35422974,0.00017081
5817.28303711,0.00010504
5819.21184448,0.00007219
5821.14065186,0.00006274
5823.06945923,0.00013418
5824.99826660,0.00013539
5826.92707397,0.00011777
5828.85588135,0.00009444
5830.78468872,0.00010910
5832.71349609,0.00013520
5834.64230347,0.00013465
5836.57111084,0.00018288
5838.49991821,0.00011929
5840.42872559,0.00011924
5842.35753296,0.00016495
5844.28634033,0.00010759
5846.21514770,0.00011278
5848.14395508,0.00006336
5850.07276245,0.00010402
5852.00156982,0.00021959
5853.93037720,0.00017685
5855.85918457,0.00013825
5857.78799194,0.00012789
5859.71679932,0.00010859
5861.64560669,0.00012610
5863.57441406,0.00017042
5865.50322144,0.00013927
5867.43202881,0.00006652
5869.36083618,0.00006701
5871.28964355,0.00010795
5873.21845093,0.00017692
5875.14725830,0.00018967
5877.07606567,0.00012695
5879.00487305,0.00008978
5880.93368042,0.00009143
5882.86248779,0.00009181
5884.79129517,0.00007119
5886.72010254,0.00007661
5888.64890991,0.00010088
5890.57771728,0.00013137
5892.50652466,0.00016693
5894.43533203,0.00013392
5896.36413940,0.00008365
5898.29294678,0.00010986
5900.22175415,0.00014206
5902.15056152,0.00012399
5904.07936890,0.00011744
5906.00817627,0.00015954
5907.93698364,0.00014802
5909.86579102,0.00010904
5911.79459839,0.00018092
5913.72340576,0.00017975
5915.65221313,0.00010232
5917.58102051,0.00010764
5919.50982788,0.00011287
5921.43863525,0.00011271
5923.36744263,0.00008144
5925.29625000,0.00009674
5927.22505737,0.00010107
5929.15386475,0.00006929
5931.08267212,0.00012836
5933.01147949,0.00009334
5934.94028686,0.00005827
5936.86909424,0.00006010
5938.79790161,0.00006724
5940.72670898,0.00011182
5942.65551636,0.00002871
5944.58432373,0.00006962
5946.51313110,0.00016320
5948.44193848,0.00008318
5950.37074585,0.00009571
5952.29955322,0.00012717
5954.22836060,0.00008485
5956.15716797,0.00010956
5958.08597534,0.00009347
5960.01478271,0.00001104
5961.94359009,0.00007201
5963.87239746,0.00014657
5965.80120483,0.00011845
5967.73001221,0.00014479
5969.65881958,0.00017442
5971.58762695,0.00017151
5973.51643433,0.00012444
5975.44524170,0.00011111
5977.37404907,0.00013219
5979.30285645,0.00010678
5981.23166382,0.00015128
5983.16047119,0.00011001
5985.08927856,0.00006721
5987.01808594,0.00011483
5988.94689331,0.00007360
5990.87570068,0.00004282
5992.80450806,0.00000717
5994.73331543,0.00006455
5996.66212280,0.00015123
5998.59093018,0.00009028
6000.51973755,0.00006385
