399.2631262207	0.0000956719
401.1919335938	-0.0001352174
403.1207409668	-0.0002599710
405.0495483398	0.0000999530
406.9783557129	0.0004190740
408.9071630859	0.0006648456
410.8359704590	0.0004344023
412.7647778320	0.0004796549
414.6935852051	0.0006627392
416.6223925781	0.0002240156
418.5511999512	-0.0000939725
420.4800073242	0.0005217942
422.4088146973	0.0008386009
424.3376220703	0.0004867097
426.2664294434	0.0001261117
428.1952368164	0.0001753774
430.1240441895	0.0008413295
432.0528515625	0.0008436368
433.9816589355	0.0003405607
435.9104663086	0.0004652215
437.8392736816	0.0005205169
439.7680810547	0.0002248364
441.6968884277	0.0006464758
443.6256958008	0.0006941509
445.5545031738	0.0000611370
447.4833105469	0.0004401644
449.4121179199	0.0005119294
451.3409252930	0.0000929785
453.2697326660	0.0004888710
455.1985400391	0.0005997028
457.1273474121	0.0001771110
459.0561547852	0.0002654680
460.9849621582	0.0004023360
462.9137695313	0.0003561079
464.8425769043	0.0004940886
466.7713842773	0.0002992372
468.7001916504	0.0000278006
470.6289990234	-0.0002045785
472.5578063965	0.0000536131
474.4866137695	0.0001135197
476.4154211426	-0.0000259741
478.3442285156	0.0003140681
480.2730358887	-0.0002263535
482.2018432617	0.0000359422
484.1306506348	0.0004855300
486.0594580078	-0.0000244904
487.9882653809	0.0004759689
489.9170727539	0.0005398942
491.8458801270	0.0001753205
493.7746875000	0.0003763561
495.7034948730	0.0005235730
497.6323022461	0.0001989960
499.5611096191	-0.0001913596
501.4899169922	0.0000577308
503.4187243652	0.0002713891
505.3475317383	0.0003478960
507.2763391113	0.0002478763
509.2051464844	0.0000458120
511.1339538574	0.0001875445
513.0627612305	0.0004755708
514.9915686035	0.0002561408
516.9203759766	-0.0002471659
518.8491833496	0.0001338915
520.7779907227	0.0004575108
522.7067980957	0.0002714513
524.6356054688	0.0000568050
526.5644128418	0.0000658864
528.4932202148	0.0003007201
530.4220275879	0.0002513812
532.3508349609	0.0004383502
534.2796423340	0.0003171925
536.2084497070	0.0001625567
538.1372570801	0.0003650708
540.0660644531	0.0002443570
541.9948718262	0.0004117136
543.9236791992	0.0002172514
545.8524865723	-0.0000255024
547.7812939453	0.0005013327
549.7101013184	0.0003988438
551.6389086914	0.0000247182
553.5677160645	0.0002123184
555.4965234375	0.0001617033
557.4253308105	-0.0000491769
559.3541381836	0.0001886919
561.2829455566	0.0002653914
563.2117529297	-0.0000057881
565.1405603027	0.0000660785
567.0693676758	0.0000119467
568.9981750488	-0.0002719222
570.9269824219	0.0000533984
572.8557897949	0.0002831009
574.7845971680	0.0000797831
576.7134045410	0.0001382031
578.6422119141	0.0002028857
580.5710192871	0.0002134450
582.4998266602	0.0000354482
584.4286340332	0.0000912486
586.3574414063	0.0001987848
588.2862487793	0.0002040059
590.2150561523	0.0001573256
592.1438635254	0.0001336195
594.0726708984	0.0004021289
596.0014782715	0.0003182189
597.9302856445	0.0000080341
599.8590930176	0.0001086477
601.7879003906	-0.0000651783
603.7167077637	-0.0001160284
605.6455151367	0.0001257909
607.5743225098	-0.0002072240
609.5031298828	0.0002336228
611.4319372559	0.0004838706
613.3607446289	0.0001711530
615.2895520020	0.0003600655
617.2183593750	-0.0000756151
619.1471667480	-0.0001776930
621.0759741211	0.0002208379
623.0047814941	-0.0002104846
624.9335888672	-0.0001576776
626.8623962402	0.0000179642
628.7912036133	-0.0003277754
630.7200109863	0.0000656446
632.6488183594	0.0003034197
634.5776257324	0.0002420372
636.5064331055	0.0004426206
638.4352404785	0.0005572147
640.3640478516	0.0006484368
642.2928552246	0.0007863651
644.2216625977	0.0008184559
646.1504699707	0.0007994067
648.0792773438	0.0009740950
650.0080847168	0.0009163349
651.9368920898	0.0011431626
653.8656994629	0.0011090662
655.7945068359	0.0008908602
657.7233142090	0.0015395823
659.6521215820	0.0013830477
661.5809289551	0.0010664228
663.5097363281	0.0016246291
665.4385437012	0.0014427768
667.3673510742	0.0009984055
669.2961584473	0.0015459063
671.2249658203	0.0018280058
673.1537731934	0.0014478116
675.0825805664	0.0015476511
677.0113879395	0.0017080175
678.9401953125	0.0016923016
680.8690026855	0.0017999301
682.7978100586	0.0019674094
684.7266174316	0.0018505906
686.6554248047	0.0017276013
688.5842321777	0.0017947586
690.5130395508	0.0018197119
692.4418469238	0.0021945946
694.3706542969	0.0022127079
696.2994616699	0.0023453021
698.2282690430	0.0029788632
700.1570764160	0.0032291950
702.0858837891	0.0030293278
704.0146911621	0.0025507323
705.9434985352	0.0024641119
707.8723059082	0.0021420303
709.8011132813	0.0017908482
711.7299206543	0.0014834809
713.6587280273	0.0006470152
715.5875354004	0.0004058976
717.5163427734	0.0002303675
719.4451501465	0.0000609384
721.3739575195	0.0002748884
723.3027648926	0.0003887823
725.2315722656	0.0002398406
727.1603796387	-0.0001061977
729.0891870117	0.0001270490
731.0179943848	0.0003119933
732.9468017578	0.0001041368
734.8756091309	0.0002044030
736.8044165039	0.0000432388
738.7332238770	0.0000607235
740.6620312500	0.0002915342
742.5908386230	0.0001174640
744.5196459961	0.0002990359
746.4484533691	0.0002422464
748.3772607422	0.0002232034
750.3060681152	0.0004198318
752.2348754883	0.0001371692
754.1636828613	0.0003102290
756.0924902344	0.0004404495
758.0212976074	0.0002178436
759.9501049805	0.0001575383
761.8789123535	-0.0000741537
763.8077197266	0.0000853880
765.7365270996	0.0002529607
767.6653344727	-0.0000249553
769.5941418457	0.0004006920
771.5229492188	0.0005151242
773.4517565918	0.0002238915
775.3805639648	0.0004161148
777.3093713379	0.0003936482
779.2381787109	0.0002729391
781.1669860840	0.0001989807
783.0957934570	0.0004127264
785.0246008301	0.0005535083
786.9534082031	0.0001582760
788.8822155762	0.0001922924
790.8110229492	0.0002686467
792.7398303223	0.0001373198
794.6686376953	0.0003542471
796.5974450684	0.0003122216
798.5262524414	0.0004349088
800.4550598145	0.0006746789
802.3838671875	0.0005105519
804.3126745605	0.0004517172
806.2414819336	0.0003012419
808.1702893066	0.0001535862
810.0990966797	0.0001786612
812.0279040527	0.0004000660
813.9567114258	0.0003492183
815.8855187988	0.0002962519
817.8143261719	0.0005326745
819.7431335449	0.0001731647
821.6719409180	0.0001146229
823.6007482910	0.0003439913
825.5295556641	0.0005286022
827.4583630371	0.0006992005
829.3871704102	0.0005119831
831.3159777832	0.0006296035
833.2447851563	0.0007519435
835.1735925293	0.0009000017
837.1023999023	0.0008488604
839.0312072754	0.0008665906
840.9600146484	0.0011202120
842.8888220215	0.0009686977
844.8176293945	0.0007384827
846.7464367676	0.0003826662
848.6752441406	0.0006832805
850.6040515137	0.0007082613
852.5328588867	0.0003519938
854.4616662598	0.0007684548
856.3904736328	0.0005336326
858.3192810059	0.0003484324
860.2480883789	0.0004807379
862.1768957520	0.0002976350
864.1057031250	0.0002937776
866.0345104980	0.0003602208
867.9633178711	0.0005229461
869.8921252441	0.0004673809
871.8209326172	0.0004379283
873.7497399902	0.0003551194
875.6785473633	0.0002840727
877.6073547363	0.0003990555
879.5361621094	0.0003218024
881.4649694824	0.0005802016
883.3937768555	0.0003040984
885.3225842285	0.0000122894
887.2513916016	0.0004951271
889.1801989746	0.0003706507
891.1090063477	0.0002581535
893.0378137207	0.0004645269
894.9666210938	0.0005443576
896.8954284668	0.0003151296
898.8242358398	0.0000702800
900.7530432129	0.0004087611
902.6818505859	0.0004913465
904.6106579590	0.0003148546
906.5394653320	0.0004122997
908.4682727051	0.0005219953
910.3970800781	0.0005022159
912.3258874512	0.0004748959
914.2546948242	0.0005522633
916.1835021973	0.0008861410
918.1123095703	0.0009120796
920.0411169434	0.0006539401
921.9699243164	0.0007670688
923.8987316895	0.0007714754
925.8275390625	0.0007868948
927.7563464355	0.0010501683
929.6851538086	0.0013610392
931.6139611816	0.0012887368
933.5427685547	0.0012111086
935.4715759277	0.0016733495
937.4003833008	0.0015891714
939.3291906738	0.0014442538
941.2579980469	0.0015892434
943.1868054199	0.0015700443
945.1156127930	0.0017187587
947.0444201660	0.0015827050
948.9732275391	0.0013981794
950.9020349121	0.0015571658
952.8308422852	0.0015830100
954.7596496582	0.0014320945
956.6884570313	0.0016428789
958.6172644043	0.0017441177
960.5460717773	0.0015260762
962.4748791504	0.0016112882
964.4036865234	0.0016748994
966.3324938965	0.0018444320
968.2613012695	0.0018021733
970.1901086426	0.0017139476
972.1189160156	0.0019221539
974.0477233887	0.0017161618
975.9765307617	0.0018968182
977.9053381348	0.0024161746
979.8341455078	0.0024356535
981.7629528809	0.0023704502
983.6917602539	0.0027569318
985.6205676270	0.0032518972
987.5493750000	0.0035044102
989.4781823730	0.0038027633
991.4069897461	0.0041798656
993.3357971191	0.0047986112
995.2646044922	0.0050858483
997.1934118652	0.0054829055
999.1222192383	0.0062650945
1001.0510266113	0.0062551037
1002.9798339844	0.0064869556
1004.9086413574	0.0073910626
1006.8374487305	0.0080774426
1008.7662561035	0.0083327983
1010.6950634766	0.0085061211
1012.6238708496	0.0091424305
1014.5526782227	0.0097437333
1016.4814855957	0.0099357823
1018.4102929688	0.0102702072
1020.3391003418	0.0109922085
1022.2679077148	0.0112820864
1024.1967150879	0.0115494933
1026.1255224609	0.0122503666
1028.0543298340	0.0126132863
1029.9831372070	0.0130380290
1031.9119445801	0.0133560244
1033.8407519531	0.0134100877
1035.7695593262	0.0135946255
1037.6983666992	0.0136387143
1039.6271740723	0.0136808846
1041.5559814453	0.0136920847
1043.4847888184	0.0134182870
1045.4135961914	0.0131614674
1047.3424035645	0.0131357014
1049.2712109375	0.0128989145
1051.2000183105	0.0125292400
1053.1288256836	0.0124101173
1055.0576330566	0.0121459309
1056.9864404297	0.0117367534
1058.9152478027	0.0116641875
1060.8440551758	0.0113992114
1062.7728625488	0.0109274425
1064.7016699219	0.0107269790
1066.6304772949	0.0100012068
1068.5592846680	0.0093020499
1070.4880920410	0.0090233814
1072.4168994141	0.0085365409
1074.3457067871	0.0081901103
1076.2745141602	0.0078459233
1078.2033215332	0.0075916406
1080.1321289062	0.0073777149
1082.0609362793	0.0070395423
1083.9897436523	0.0066492311
1085.9185510254	0.0062220469
1087.8473583984	0.0058227042
1089.7761657715	0.0054817759
1091.7049731445	0.0054603936
1093.6337805176	0.0050605554
1095.5625878906	0.0047888826
1097.4913952637	0.0049249791
1099.4202026367	0.0046798410
1101.3490100098	0.0044968319
1103.2778173828	0.0042467047
1105.2066247559	0.0043470738
1107.1354321289	0.0044208393
1109.0642395019	0.0040707830
1110.9930468750	0.0041781799
1112.9218542480	0.0042580264
1114.8506616211	0.0041741282
1116.7794689941	0.0040608677
1118.7082763672	0.0040541245
1120.6370837402	0.0040832106
1122.5658911133	0.0039780182
1124.4946984863	0.0041079079
1126.4235058594	0.0040712487
1128.3523132324	0.0040917639
1130.2811206055	0.0043787081
1132.2099279785	0.0045325421
1134.1387353516	0.0048037986
1136.0675427246	0.0048724818
1137.9963500977	0.0047898502
1139.9251574707	0.0052881073
1141.8539648437	0.0058251577
1143.7827722168	0.0059619034
1145.7115795898	0.0062390650
1147.6403869629	0.0067179706
1149.5691943359	0.0071198912
1151.4980017090	0.0074264929
1153.4268090820	0.0077056712
1155.3556164551	0.0080261640
1157.2844238281	0.0083515123
1159.2132312012	0.0086478684
1161.1420385742	0.0088937338
1163.0708459473	0.0091093015
1164.9996533203	0.0096099451
1166.9284606934	0.0099473409
1168.8572680664	0.0101272110
1170.7860754394	0.0107191382
1172.7148828125	0.0110026151
1174.6436901855	0.0112515390
1176.5724975586	0.0117586404
1178.5013049316	0.0121233296
1180.4301123047	0.0124679711
1182.3589196777	0.0129447822
1184.2877270508	0.0137152262
1186.2165344238	0.0141458418
1188.1453417969	0.0147765325
1190.0741491699	0.0156544745
1192.0029565430	0.0159922149
1193.9317639160	0.0167242326
1195.8605712891	0.0176917594
1197.7893786621	0.0184038002
1199.7181860351	0.0191714019
1201.6469934082	0.0199939106
1203.5758007812	0.0206338800
1205.5046081543	0.0212209933
1207.4334155273	0.0219331495
1209.3622229004	0.0227170344
1211.2910302734	0.0235728510
1213.2198376465	0.0240245685
1215.1486450195	0.0246058665
1217.0774523926	0.0252435300
1219.0062597656	0.0254407004
1220.9350671387	0.0259382352
1222.8638745117	0.0263174120
1224.7926818848	0.0264144074
1226.7214892578	0.0266547799
1228.6502966308	0.0267299004
1230.5791040039	0.0267144796
1232.5079113769	0.0268542729
1234.4367187500	0.0267370939
1236.3655261230	0.0265770927
1238.2943334961	0.0267525055
1240.2231408691	0.0266198032
1242.1519482422	0.0264651626
1244.0807556152	0.0265461132
1246.0095629883	0.0263048150
1247.9383703613	0.0260212645
1249.8671777344	0.0259577446
1251.7959851074	0.0257410295
1253.7247924805	0.0253815874
1255.6535998535	0.0249456130
1257.5824072266	0.0245582983
1259.5112145996	0.0242595132
1261.4400219726	0.0238043051
1263.3688293457	0.0236332249
1265.2976367187	0.0232536756
1267.2264440918	0.0228071567
1269.1552514648	0.0227402896
1271.0840588379	0.0221881606
1273.0128662109	0.0217595659
1274.9416735840	0.0214759074
1276.8704809570	0.0210202150
1278.7992883301	0.0205470286
1280.7280957031	0.0201894157
1282.6569030762	0.0200966392
1284.5857104492	0.0194806736
1286.5145178223	0.0189957209
1288.4433251953	0.0190133713
1290.3721325683	0.0185662098
1292.3009399414	0.0181283392
1294.2297473144	0.0182593502
1296.1585546875	0.0180034414
1298.0873620605	0.0177749731
1300.0161694336	0.0181203820
1301.9449768066	0.0181077812
1303.8737841797	0.0182264484
1305.8025915527	0.0183480754
1307.7313989258	0.0185652152
1309.6602062988	0.0189738981
1311.5890136719	0.0191282593
1313.5178210449	0.0196307991
1315.4466284180	0.0200379379
1317.3754357910	0.0204023179
1319.3042431640	0.0208167974
1321.2330505371	0.0214544348
1323.1618579101	0.0222239196
1325.0906652832	0.0227524266
1327.0194726562	0.0234021842
1328.9482800293	0.0238363743
1330.8770874023	0.0245736968
1332.8058947754	0.0251850076
1334.7347021484	0.0255239196
1336.6635095215	0.0259462893
1338.5923168945	0.0257311966
1340.5211242676	0.0260725021
1342.4499316406	0.0269441660
1344.3787390137	0.0268965717
1346.3075463867	0.0267571788
1348.2363537597	0.0269664731
1350.1651611328	0.0267337002
1352.0939685058	0.0265423842
1354.0227758789	0.0262679867
1355.9515832519	0.0258017592
1357.8803906250	0.0257562213
1359.8091979980	0.0255958401
1361.7380053711	0.0246602315
1363.6668127441	0.0242420696
1365.5956201172	0.0250970740
1367.5244274902	0.0245835893
1369.4532348633	0.0242678672
1371.3820422363	0.0244967025
1373.3108496094	0.0234429259
1375.2396569824	0.0237571597
1377.1684643555	0.0240444466
1379.0972717285	0.0239757672
1381.0260791015	0.0239432342
1382.9548864746	0.0237146318
1384.8836938476	0.0236639045
1386.8125012207	0.0226209853
1388.7413085937	0.0233857296
1390.6701159668	0.0247943457
1392.5989233398	0.0240189526
1394.5277307129	0.0231613833
1396.4565380859	0.0239119753
1398.3853454590	0.0237471648
1400.3141528320	0.0236082021
1402.2429602051	0.0251109712
1404.1717675781	0.0238440372
1406.1005749512	0.0239931755
1408.0293823242	0.0249614380
1409.9581896972	0.0241163410
1411.8869970703	0.0244371071
1413.8158044433	0.0236735046
1415.7446118164	0.0239719506
1417.6734191894	0.0219451543
1419.6022265625	0.0201124474
1421.5310339355	0.0225628279
1423.4598413086	0.0218420438
1425.3886486816	0.0211418644
1427.3174560547	0.0212825313
1429.2462634277	0.0197731219
1431.1750708008	0.0191901848
1433.1038781738	0.0193945616
1435.0326855469	0.0176310167
1436.9614929199	0.0155813852
1438.8903002929	0.0171447583
1440.8191076660	0.0170241110
1442.7479150390	0.0161447525
1444.6767224121	0.0166567862
1446.6055297851	0.0156006534
1448.5343371582	0.0158500969
1450.4631445312	0.0160639286
1452.3919519043	0.0163903870
1454.3207592773	0.0170123130
1456.2495666504	0.0147953406
1458.1783740234	0.0153804654
1460.1071813965	0.0194420852
1462.0359887695	0.0205700193
1463.9647961426	0.0205639750
1465.8936035156	0.0215307958
1467.8224108886	0.0240129493
1469.7512182617	0.0254956074
1471.6800256347	0.0234078970
1473.6088330078	0.0247071311
1475.5376403808	0.0277728867
1477.4664477539	0.0295335799
1479.3952551269	0.0320727639
1481.3240625000	0.0329198353
1483.2528698730	0.0345851928
1485.1816772461	0.0356107578
1487.1104846191	0.0353448316
1489.0392919922	0.0353955664
1490.9680993652	0.0359200761
1492.8969067383	0.0403010249
1494.8257141113	0.0395092368
1496.7545214843	0.0363425538
1498.6833288574	0.0401788503
1500.6121362304	0.0414072648
1502.5409436035	0.0438621677
1504.4697509765	0.0416638032
1506.3985583496	0.0323162936
1508.3273657226	0.0382738709
1510.2561730957	0.0433278494
1512.1849804687	0.0422345549
1514.1137878418	0.0450547747
1516.0425952148	0.0410125628
1517.9714025879	0.0428635627
1519.9002099609	0.0412121601
1521.8290173340	0.0366723388
1523.7578247070	0.0433224514
1525.6866320801	0.0423998758
1527.6154394531	0.0424286798
1529.5442468261	0.0456800237
1531.4730541992	0.0439802855
1533.4018615722	0.0409100540
1535.3306689453	0.0427693948
1537.2594763183	0.0448168218
1539.1882836914	0.0339684114
1541.1170910644	0.0355149619
1543.0458984375	0.0410034582
1544.9747058105	0.0396809876
1546.9035131836	0.0452216454
1548.8323205566	0.0424775034
1550.7611279297	0.0435154326
1552.6899353027	0.0429129079
1554.6187426758	0.0398317948
1556.5475500488	0.0418681204
1558.4763574218	0.0313844122
1560.4051647949	0.0335892215
1562.3339721679	0.0443008468
1564.2627795410	0.0420589596
1566.1915869140	0.0429496877
1568.1203942871	0.0421446525
1570.0492016601	0.0382852480
1571.9780090332	0.0428490341
1573.9068164062	0.0426834412
1575.8356237793	0.0352691188
1577.7644311523	0.0386762805
1579.6932385254	0.0426491834
1581.6220458984	0.0411520824
1583.5508532715	0.0416486412
1585.4796606445	0.0408919305
1587.4084680175	0.0408667922
1589.3372753906	0.0403684229
1591.2660827636	0.0402914062
1593.1948901367	0.0400133729
1595.1236975097	0.0395723209
1597.0525048828	0.0398316085
1598.9813122558	0.0392082036
1600.9101196289	0.0395277888
1602.8389270019	0.0388158783
1604.7677343750	0.0389858559
1606.6965417480	0.0384157076
1608.6253491211	0.0384552479
1610.5541564941	0.0382867865
1612.4829638672	0.0384021774
1614.4117712402	0.0387786031
1616.3405786132	0.0327179842
1618.2693859863	0.0354764350
1620.1981933593	0.0400905088
1622.1270007324	0.0362412520
1624.0558081054	0.0367210582
1625.9846154785	0.0383109935
1627.9134228515	0.0386689007
1629.8422302246	0.0385601111
1631.7710375976	0.0411347412
1633.6998449707	0.0388111621
1635.6286523437	0.0334786251
1637.5574597168	0.0383788049
1639.4862670898	0.0418289453
1641.4150744629	0.0415442251
1643.3438818359	0.0428553149
1645.2726892090	0.0398969576
1647.2014965820	0.0365075618
1649.1303039550	0.0442066416
1651.0591113281	0.0423259959
1652.9879187011	0.0300657116
1654.9167260742	0.0397299901
1656.8455334472	0.0479674265
1658.7743408203	0.0465221740
1660.7031481933	0.0485416353
1662.6319555664	0.0453008786
1664.5607629394	0.0479167588
1666.4895703125	0.0513557121
1668.4183776855	0.0464686602
1670.3471850586	0.0459513664
1672.2759924316	0.0514157601
1674.2047998047	0.0486024655
1676.1336071777	0.0474544391
1678.0624145507	0.0537294038
1679.9912219238	0.0525733829
1681.9200292968	0.0525865369
1683.8488366699	0.0446813032
1685.7776440429	0.0450157374
1687.7064514160	0.0586558208
1689.6352587890	0.0524642877
1691.5640661621	0.0574188009
1693.4928735351	0.0580870956
1695.4216809082	0.0451676995
1697.3504882812	0.0542153791
1699.2792956543	0.0489734486
1701.2081030273	0.0457762778
1703.1369104004	0.0587341189
1705.0657177734	0.0547140129
1706.9945251464	0.0556107424
1708.9233325195	0.0594135374
1710.8521398925	0.0576602742
1712.7809472656	0.0586816818
1714.7097546386	0.0551532954
1716.6385620117	0.0504339784
1718.5673693847	0.0501674153
1720.4961767578	0.0580762923
1722.4249841308	0.0593212470
1724.3537915039	0.0560787097
1726.2825988769	0.0600418262
1728.2114062500	0.0560341552
1730.1402136230	0.0568327382
1732.0690209961	0.0548141673
1733.9978283691	0.0443599969
1735.9266357421	0.0531788841
1737.8554431152	0.0572980121
1739.7842504882	0.0523461252
1741.7130578613	0.0560916662
1743.6418652343	0.0569743440
1745.5706726074	0.0571139716
1747.4994799804	0.0573791787
1749.4282873535	0.0553653538
1751.3570947265	0.0533430167
1753.2859020996	0.0579695329
1755.2147094726	0.0600285232
1757.1435168457	0.0559325516
1759.0723242187	0.0602095649
1761.0011315918	0.0569773838
1762.9299389648	0.0557659492
1764.8587463379	0.0619470589
1766.7875537109	0.0566072986
1768.7163610839	0.0571414232
1770.6451684570	0.0566464961
1772.5739758300	0.0518587977
1774.5027832031	0.0566788241
1776.4315905761	0.0592104867
1778.3603979492	0.0583551228
1780.2892053222	0.0577697009
1782.2180126953	0.0580834076
1784.1468200683	0.0577899925
1786.0756274414	0.0568197146
1788.0044348144	0.0592506900
1789.9332421875	0.0578461811
1791.8620495605	0.0532755852
1793.7908569336	0.0551398508
1795.7196643066	0.0581330508
1797.6484716796	0.0575217009
1799.5772790527	0.0567717701
1801.5060864257	0.0557019226
1803.4348937988	0.0571924075
1805.3637011718	0.0581162125
1807.2925085449	0.0574285276
1809.2213159179	0.0575034544
1811.1501232910	0.0562042519
1813.0789306640	0.0576287657
1815.0077380371	0.0574854761
1816.9365454101	0.0569552481
1818.8653527832	0.0572785214
1820.7941601562	0.0569310226
1822.7229675293	0.0576659516
1824.6517749023	0.0543666109
1826.5805822753	0.0559188277
1828.5093896484	0.0560143068
1830.4381970214	0.0531004295
1832.3670043945	0.0566176251
1834.2958117675	0.0562139377
1836.2246191406	0.0561639629
1838.1534265136	0.0558570102
1840.0822338867	0.0561054870
1842.0110412597	0.0558244735
1843.9398486328	0.0506594405
1845.8686560058	0.0534777716
1847.7974633789	0.0555608347
1849.7262707519	0.0545582548
1851.6550781250	0.0558948182
1853.5838854980	0.0548060015
1855.5126928710	0.0550753772
1857.4415002441	0.0546923652
1859.3703076171	0.0543421768
1861.2991149902	0.0546033308
1863.2279223632	0.0539573543
1865.1567297363	0.0543162599
1867.0855371093	0.0527617484
1869.0143444824	0.0509258881
1870.9431518554	0.0525619090
1872.8719592285	0.0538231656
1874.8007666015	0.0530686602
1876.7295739746	0.0534059294
1878.6583813476	0.0530453101
1880.5871887207	0.0527936183
1882.5159960937	0.0529840998
1884.4448034667	0.0521955043
1886.3736108398	0.0527419895
1888.3024182128	0.0515949652
1890.2312255859	0.0509117246
1892.1600329589	0.0523496978
1894.0888403320	0.0514570773
1896.0176477050	0.0512898155
1897.9464550781	0.0516551323
1899.8752624511	0.0513169542
1901.8040698242	0.0513971075
1903.7328771972	0.0508263111
1905.6616845703	0.0510052219
1907.5904919433	0.0506709367
1909.5192993164	0.0502966493
1911.4481066894	0.0503744148
1913.3769140625	0.0502900891
1915.3057214355	0.0507767275
1917.2345288085	0.0486802757
1919.1633361816	0.0487198904
1921.0921435546	0.0502210297
1923.0209509277	0.0487727001
1924.9497583007	0.0496305972
1926.8785656738	0.0496742427
1928.8073730468	0.0492314547
1930.7361804199	0.0496051759
1932.6649877929	0.0488764793
1934.5937951660	0.0492053851
1936.5226025390	0.0487193614
1938.4514099121	0.0490209796
1940.3802172851	0.0487597734
1942.3090246582	0.0475460105
1944.2378320312	0.0482659265
1946.1666394042	0.0483285710
1948.0954467773	0.0482676402
1950.0242541503	0.0483998172
1951.9530615234	0.0482595637
1953.8818688964	0.0480586812
1955.8106762695	0.0478841364
1957.7394836425	0.0478457548
1959.6682910156	0.0476736724
1961.5970983886	0.0477491468
1963.5259057617	0.0476282835
1965.4547131347	0.0472984985
1967.3835205078	0.0467469245
1969.3123278808	0.0470519364
1971.2411352539	0.0471642986
1973.1699426269	0.0466672443
1975.0987499999	0.0469052792
1977.0275573730	0.0466251522
1978.9563647460	0.0465959311
1980.8851721191	0.0464569330
1982.8139794921	0.0463606715
1984.7427868652	0.0464816093
1986.6715942382	0.0458717644
1988.6004016113	0.0459337085
1990.5292089843	0.0455415025
1992.4580163574	0.0451042429
1994.3868237304	0.0456107333
1996.3156311035	0.0454463400
1998.2444384765	0.0452024043
2000.1732458496	0.0452594832
2002.1020532226	0.0449733734
2004.0308605956	0.0449244455
2005.9596679687	0.0448691770
2007.8884753417	0.0445125625
2009.8172827148	0.0444873050
2011.7460900878	0.0442826450
2013.6748974609	0.0441482291
2015.6037048339	0.0439160131
2017.5325122070	0.0434578210
2019.4613195800	0.0436882488
2021.3901269531	0.0436223298
2023.3189343261	0.0433555357
2025.2477416992	0.0433666259
2027.1765490722	0.0431293398
2029.1053564453	0.0429294296
2031.0341638183	0.0428964868
2032.9629711914	0.0427754261
2034.8917785644	0.0425519086
2036.8205859374	0.0424794555
2038.7493933105	0.0422965735
2040.6782006835	0.0420747250
2042.6070080566	0.0420886166
2044.5358154296	0.0419645905
2046.4646228027	0.0417402238
2048.3934301757	0.0417261794
2050.3222375488	0.0416320711
2052.2510449218	0.0413885564
2054.1798522949	0.0412911661
2056.1086596679	0.0411994010
2058.0374670410	0.0411055498
2059.9662744140	0.0410025194
2061.8950817871	0.0408243909
2063.8238891601	0.0405624360
2065.7526965331	0.0405045673
2067.6815039062	0.0405942090
2069.6103112792	0.0404233634
2071.5391186523	0.0403551683
2073.4679260253	0.0403165743
2075.3967333984	0.0401499830
2077.3255407714	0.0400019288
2079.2543481445	0.0400282890
2081.1831555175	0.0399306044
2083.1119628906	0.0396114849
2085.0407702636	0.0396717861
2086.9695776367	0.0396110229
2088.8983850097	0.0394602865
2090.8271923828	0.0394131765
2092.7559997558	0.0391979665
2094.6848071288	0.0391132981
2096.6136145019	0.0391274840
2098.5424218749	0.0390765183
2100.4712292480	0.0389111489
2102.4000366210	0.0389226153
2104.3288439941	0.0389157832
2106.2576513671	0.0387745276
2108.1864587402	0.0386650637
2110.1152661132	0.0385449380
2112.0440734863	0.0385197736
2113.9728808593	0.0383986831
2115.9016882324	0.0383423008
2117.8304956054	0.0382587090
2119.7593029785	0.0382103473
2121.6881103515	0.0382308476
2123.6169177245	0.0381185412
2125.5457250976	0.0381138325
2127.4745324706	0.0379620716
2129.4033398437	0.0378694981
2131.3321472167	0.0378275141
2133.2609545898	0.0376777723
2135.1897619628	0.0376630090
2137.1185693359	0.0375623703
2139.0473767089	0.0375632197
2140.9761840820	0.0376719385
2142.9049914550	0.0376077890
2144.8337988281	0.0374412537
2146.7626062011	0.0373461992
2148.6914135742	0.0373397693
2150.6202209472	0.0372883603
2152.5490283203	0.0373305269
2154.4778356933	0.0372849330
2156.4066430663	0.0370897055
2158.3354504394	0.0372021049
2160.2642578124	0.0371337868
2162.1930651855	0.0368880332
2164.1218725585	0.0370678119
2166.0506799316	0.0370432176
2167.9794873046	0.0368856862
2169.9082946777	0.0369170681
2171.8371020507	0.0369434804
2173.7659094238	0.0368562043
2175.6947167968	0.0366492718
2177.6235241699	0.0368281752
2179.5523315429	0.0368708409
2181.4811389160	0.0367176682
2183.4099462890	0.0368371457
2185.3387536620	0.0366467088
2187.2675610351	0.0364629664
2189.1963684081	0.0365324318
2191.1251757812	0.0364972353
2193.0539831542	0.0364639461
2194.9827905273	0.0364551693
2196.9115979003	0.0363698974
2198.8404052734	0.0361803472
2200.7692126464	0.0361723080
2202.6980200195	0.0363030024
2204.6268273925	0.0361063480
2206.5556347656	0.0360509679
2208.4844421386	0.0361833163
2210.4132495117	0.0359863415
2212.3420568847	0.0358864963
2214.2708642577	0.0359377712
2216.1996716308	0.0359589234
2218.1284790038	0.0358002894
2220.0572863769	0.0356653892
2221.9860937499	0.0357871018
2223.9149011230	0.0357581526
2225.8437084960	0.0356892124
2227.7725158691	0.0355443433
2229.7013232421	0.0354953259
2231.6301306152	0.0354936272
2233.5589379882	0.0354242101
2235.4877453613	0.0354650542
2237.4165527343	0.0352579951
2239.3453601074	0.0352059156
2241.2741674804	0.0352598391
2243.2029748534	0.0351790860
2245.1317822265	0.0351069532
2247.0605895995	0.0349968597
2248.9893969726	0.0349103287
2250.9182043456	0.0348288789
2252.8470117187	0.0349148773
2254.7758190917	0.0348301716
2256.7046264648	0.0347183309
2258.6334338378	0.0346801728
2260.5622412109	0.0345995538
2262.4910485839	0.0346697234
2264.4198559570	0.0345628560
2266.3486633300	0.0344951712
2268.2774707031	0.0345317051
2270.2062780761	0.0344211869
2272.1350854491	0.0342298672
2274.0638928222	0.0342435949
2275.9927001952	0.0341889039
2277.9215075683	0.0340354331
2279.8503149413	0.0341891348
2281.7791223144	0.0341170765
2283.7079296874	0.0341068991
2285.6367370605	0.0340554565
2287.5655444335	0.0337995328
2289.4943518066	0.0338253304
2291.4231591796	0.0338107869
2293.3519665527	0.0337610617
2295.2807739257	0.0335730240
2297.2095812988	0.0334074497
2299.1383886718	0.0333377719
2301.0671960449	0.0331520811
2302.9960034179	0.0329169258
2304.9248107909	0.0327270813
2306.8536181640	0.0325566009
2308.7824255370	0.0322680362
2310.7112329101	0.0320890136
2312.6400402831	0.0316019207
2314.5688476562	0.0312052928
2316.4976550292	0.0310808830
2318.4264624023	0.0305286869
2320.3552697753	0.0300900117
2322.2840771484	0.0296495333
2324.2128845214	0.0292417090
2326.1416918945	0.0289861616
2328.0704992675	0.0286081526
2329.9993066406	0.0283689722
2331.9281140136	0.0281095430
2333.8569213866	0.0279389210
2335.7857287597	0.0279017985
2337.7145361327	0.0278277174
2339.6433435058	0.0276969746
2341.5721508788	0.0277997330
2343.5009582519	0.0282922182
2345.4297656249	0.0288012978
2347.3585729980	0.0299645197
2349.2873803710	0.0307998843
2351.2161877441	0.0296309907
2353.1449951171	0.0281935520
2355.0738024902	0.0272148624
2357.0026098632	0.0262464918
2358.9314172363	0.0258709881
2360.8602246093	0.0256128889
2362.7890319823	0.0254609603
2364.7178393554	0.0255664531
2366.6466467284	0.0258717313
2368.5754541015	0.0264956802
2370.5042614745	0.0270485282
2372.4330688476	0.0277311504
2374.3618762206	0.0286349542
2376.2906835937	0.0293896236
2378.2194909667	0.0300502740
2380.1482983398	0.0306696892
2382.0771057128	0.0308115035
2384.0059130859	0.0309432615
2385.9347204589	0.0312010534
2387.8635278320	0.0310582332
2389.7923352050	0.0310994685
2391.7211425780	0.0309832655
2393.6499499511	0.0308656506
2395.5787573241	0.0309503861
2397.5075646972	0.0307999142
2399.4363720702	0.0307943951
2401.3651794433	0.0306841675
2403.2939868163	0.0306979902
2405.2227941894	0.0305934362
2407.1516015624	0.0304332636
2409.0804089355	0.0305796005
2411.0092163085	0.0304126814
2412.9380236816	0.0302888900
2414.8668310546	0.0302916244
2416.7956384277	0.0303032212
2418.7244458007	0.0301935263
2420.6532531738	0.0300545730
2422.5820605468	0.0300467275
2424.5108679198	0.0299874470
2426.4396752929	0.0300493538
2428.3684826659	0.0299811717
2430.2972900390	0.0299047939
2432.2260974120	0.0298351645
2434.1549047851	0.0297408290
2436.0837121581	0.0296672173
2438.0125195312	0.0295850448
2439.9413269042	0.0296534188
2441.8701342773	0.0295198038
2443.7989416503	0.0293913260
2445.7277490234	0.0293489695
2447.6565563964	0.0292999372
2449.5853637695	0.0292524882
2451.5141711425	0.0292066075
2453.4429785155	0.0293025188
2455.3717858886	0.0291438792
2457.3005932616	0.0289088301
2459.2294006347	0.0288921632
2461.1582080077	0.0289484356
2463.0870153808	0.0288522355
2465.0158227538	0.0286110453
2466.9446301269	0.0286105443
2468.8734374999	0.0287394673
2470.8022448730	0.0286795367
2472.7310522460	0.0285805687
2474.6598596191	0.0285485573
2476.5886669921	0.0284164585
2478.5174743652	0.0283967853
2480.4462817382	0.0283963867
2482.3750891112	0.0283191856
2484.3038964843	0.0282320045
2486.2327038573	0.0280924644
2488.1615112304	0.0280879606
2490.0903186034	0.0280032828
2492.0191259765	0.0279620383
2493.9479333495	0.0279246550
2495.8767407226	0.0278509185
2497.8055480956	0.0279368144
2499.7343554687	0.0278684907
2501.6631628417	0.0276810229
2503.5919702148	0.0275813378
2505.5207775878	0.0275847502
2507.4495849609	0.0274383500
2509.3783923339	0.0273157004
2511.3071997069	0.0272717848
2513.2360070800	0.0273025520
2515.1648144530	0.0273499768
2517.0936218261	0.0271863658
2519.0224291991	0.0272474177
2520.9512365722	0.0271067210
2522.8800439452	0.0270085074
2524.8088513183	0.0270078778
2526.7376586913	0.0267899353
2528.6664660644	0.0268823057
2530.5952734374	0.0267565064
2532.5240808105	0.0267437883
2534.4528881835	0.0267072245
2536.3816955566	0.0265403241
2538.3105029296	0.0266340412
2540.2393103027	0.0264687072
2542.1681176757	0.0264603980
2544.0969250487	0.0264271833
2546.0257324218	0.0263356976
2547.9545397948	0.0262733474
2549.8833471679	0.0261769854
2551.8121545409	0.0262429267
2553.7409619140	0.0261587203
2555.6697692870	0.0261188205
2557.5985766601	0.0259271897
2559.5273840331	0.0258318260
2561.4561914062	0.0259285644
2563.3849987792	0.0257967599
2565.3138061523	0.0257000029
2567.2426135253	0.0256939977
2569.1714208984	0.0256972425
2571.1002282714	0.0255277120
2573.0290356444	0.0254880562
2574.9578430175	0.0254635960
2576.8866503905	0.0253882837
2578.8154577636	0.0254290625
2580.7442651366	0.0252790861
2582.6730725097	0.0252331048
2584.6018798827	0.0250772312
2586.5306872558	0.0249550585
2588.4594946288	0.0249334406
2590.3883020019	0.0248228256
2592.3171093749	0.0249825902
2594.2459167480	0.0249132738
2596.1747241210	0.0247628763
2598.1035314941	0.0247345604
2600.0323388671	0.0246559493
2601.9611462401	0.0246836822
2603.8899536132	0.0246012062
2605.8187609862	0.0245026611
2607.7475683593	0.0244393405
2609.6763757323	0.0243556984
2611.6051831054	0.0242947228
2613.5339904784	0.0242500808
2615.4627978515	0.0240988359
2617.3916052245	0.0239399225
2619.3204125976	0.0240026675
2621.2492199706	0.0239948891
2623.1780273437	0.0238863602
2625.1068347167	0.0237475671
2627.0356420898	0.0236993562
2628.9644494628	0.0237654708
2630.8932568358	0.0236342810
2632.8220642089	0.0235215724
2634.7508715819	0.0234982632
2636.6796789550	0.0233966149
2638.6084863280	0.0233265013
2640.5372937011	0.0232592933
2642.4661010741	0.0232482329
2644.3949084472	0.0232924037
2646.3237158202	0.0231219158
2648.2525231933	0.0230384208
2650.1813305663	0.0230648369
2652.1101379394	0.0229504034
2654.0389453124	0.0229181629
2655.9677526855	0.0227587968
2657.8965600585	0.0227919165
2659.8253674315	0.0228401795
2661.7541748046	0.0226023719
2663.6829821776	0.0225755312
2665.6117895507	0.0224037301
2667.5405969237	0.0224060602
2669.4694042968	0.0224092789
2671.3982116698	0.0222484712
2673.3270190429	0.0223859288
2675.2558264159	0.0221825633
2677.1846337890	0.0220345072
2679.1134411620	0.0221279189
2681.0422485351	0.0220749453
2682.9710559081	0.0220095962
2684.8998632812	0.0219468065
2686.8286706542	0.0218289122
2688.7574780273	0.0216730013
2690.6862854003	0.0217784736
2692.6150927733	0.0217436962
2694.5439001464	0.0215766132
2696.4727075194	0.0214872137
2698.4015148925	0.0213726405
2700.3303222655	0.0213668607
2702.2591296386	0.0212614629
2704.1879370116	0.0212284140
2706.1167443847	0.0211363696
2708.0455517577	0.0209896266
2709.9743591308	0.0209903978
2711.9031665038	0.0209778566
2713.8319738769	0.0209405664
2715.7607812499	0.0208190568
2717.6895886230	0.0207988396
2719.6183959960	0.0207197983
2721.5472033690	0.0205784589
2723.4760107421	0.0205278471
2725.4048181151	0.0204761364
2727.3336254882	0.0203880388
2729.2624328612	0.0202548206
2731.1912402343	0.0202440992
2733.1200476073	0.0202050433
2735.0488549804	0.0201741569
2736.9776623534	0.0200830549
2738.9064697265	0.0199647807
2740.8352770995	0.0200045910
2742.7640844726	0.0199010149
2744.6928918456	0.0197916664
2746.6216992187	0.0198208205
2748.5505065917	0.0197722130
2750.4793139647	0.0196336042
2752.4081213378	0.0196125861
2754.3369287108	0.0195380710
2756.2657360839	0.0193920992
2758.1945434569	0.0192761496
2760.1233508300	0.0191978216
2762.0521582030	0.0192897618
2763.9809655761	0.0191350356
2765.9097729491	0.0190184768
2767.8385803222	0.0190292262
2769.7673876952	0.0189316124
2771.6961950683	0.0189427696
2773.6250024413	0.0188246127
2775.5538098144	0.0187410042
2777.4826171874	0.0186227001
2779.4114245604	0.0185548551
2781.3402319335	0.0186075829
2783.2690393065	0.0185330063
2785.1978466796	0.0184536576
2787.1266540526	0.0183105841
2789.0554614257	0.0182931684
2790.9842687987	0.0182278119
2792.9130761718	0.0181207955
2794.8418835448	0.0180442650
2796.7706909179	0.0179060120
2798.6994982909	0.0179449469
2800.6283056640	0.0178138018
2802.5571130370	0.0176546015
2804.4859204101	0.0176385865
2806.4147277831	0.0175154693
2808.3435351562	0.0175201017
2810.2723425292	0.0175706111
2812.2011499022	0.0173904914
2814.1299572753	0.0172556285
2816.0587646483	0.0172672272
2817.9875720214	0.0171726961
2819.9163793944	0.0170815997
2821.8451867675	0.0170009620
2823.7739941405	0.0169276297
2825.7028015136	0.0168692730
2827.6316088866	0.0168000981
2829.5604162597	0.0167764127
2831.4892236327	0.0166955758
2833.4180310058	0.0166307539
2835.3468383788	0.0165921599
2837.2756457519	0.0164682847
2839.2044531249	0.0162727721
2841.1332604979	0.0162791423
2843.0620678710	0.0162224658
2844.9908752440	0.0159389600
2846.9196826171	0.0158951636
2848.8484899901	0.0157534257
2850.7772973632	0.0155688683
2852.7061047362	0.0155775435
2854.6349121093	0.0155573208
2856.5637194823	0.0155418143
2858.4925268554	0.0154783335
2860.4213342284	0.0154600907
2862.3501416015	0.0154175237
2864.2789489745	0.0153226294
2866.2077563476	0.0153112812
2868.1365637206	0.0152729321
2870.0653710936	0.0151337478
2871.9941784667	0.0151487039
2873.9229858397	0.0152007919
2875.8517932128	0.0150119811
2877.7806005858	0.0149133448
2879.7094079589	0.0148058627
2881.6382153319	0.0147557976
2883.5670227050	0.0148013299
2885.4958300780	0.0147011839
2887.4246374511	0.0146533167
2889.3534448241	0.0145739345
2891.2822521972	0.0145800943
2893.2110595702	0.0144755915
2895.1398669433	0.0142951626
2897.0686743163	0.0143860970
2898.9974816893	0.0142690782
2900.9262890624	0.0141627071
2902.8550964354	0.0141969342
2904.7839038085	0.0140386410
2906.7127111815	0.0139875952
2908.6415185546	0.0139115546
2910.5703259276	0.0136956964
2912.4991333007	0.0136703141
2914.4279406737	0.0135340281
2916.3567480468	0.0132942051
2918.2855554198	0.0133275110
2920.2143627929	0.0133628035
2922.1431701659	0.0133263245
2924.0719775390	0.0131932823
2926.0007849120	0.0131526720
2927.9295922851	0.0132358056
2929.8583996581	0.0130300801
2931.7872070311	0.0130416881
2933.7160144042	0.0131911524
2935.6448217772	0.0131364763
2937.5736291503	0.0131470859
2939.5024365233	0.0129769547
2941.4312438964	0.0129104480
2943.3600512694	0.0130116418
2945.2888586425	0.0128867142
2947.2176660155	0.0128106363
2949.1464733886	0.0128571820
2951.0752807616	0.0127676921
2953.0040881347	0.0126313791
2954.9328955077	0.0126205971
2956.8617028808	0.0124878008
2958.7905102538	0.0124400668
2960.7193176268	0.0124971773
2962.6481249999	0.0123666991
2964.5769323729	0.0124143204
2966.5057397460	0.0124037508
2968.4345471190	0.0122848507
2970.3633544921	0.0122688366
2972.2921618651	0.0122185815
2974.2209692382	0.0122238770
2976.1497766112	0.0121822916
2978.0785839843	0.0121606681
2980.0073913573	0.0120853260
2981.9361987304	0.0120067690
2983.8650061034	0.0120560713
2985.7938134765	0.0120965559
2987.7226208495	0.0120283403
2989.6514282225	0.0119001344
2991.5802355956	0.0120171215
2993.5090429686	0.0119446637
2995.4378503417	0.0117877610
2997.3666577147	0.0119122658
2999.2954650878	0.0118911956
3001.2242724608	0.0117145861
3003.1530798339	0.0116109345
3005.0818872069	0.0116896331
3007.0106945800	0.0115496349
3008.9395019530	0.0115105249
3010.8683093261	0.0116405953
3012.7971166991	0.0114594102
3014.7259240722	0.0114076333
3016.6547314452	0.0113923531
3018.5835388182	0.0114218174
3020.5123461913	0.0113553964
3022.4411535643	0.0112543646
3024.3699609374	0.0112258233
3026.2987683104	0.0109867137
3028.2275756835	0.0110911727
3030.1563830565	0.0111020766
3032.0851904296	0.0109508242
3034.0139978026	0.0109639540
3035.9428051757	0.0108333379
3037.8716125487	0.0108817741
3039.8004199218	0.0108576417
3041.7292272948	0.0106955711
3043.6580346679	0.0106467828
3045.5868420409	0.0106485700
3047.5156494139	0.0107197221
3049.4444567870	0.0106845535
3051.3732641600	0.0105518624
3053.3020715331	0.0104883239
3055.2308789061	0.0104771042
3057.1596862792	0.0104323905
3059.0884936522	0.0104109105
3061.0173010253	0.0103828125
3062.9461083983	0.0103327269
3064.8749157714	0.0102768987
3066.8037231444	0.0102151204
3068.7325305175	0.0101944394
3070.6613378905	0.0101814251
3072.5901452636	0.0101990886
3074.5189526366	0.0101311877
3076.4477600097	0.0100324694
3078.3765673827	0.0100395158
3080.3053747557	0.0100539885
3082.2341821288	0.0100147240
3084.1629895018	0.0099348435
3086.0917968749	0.0099147083
3088.0206042479	0.0098804235
3089.9494116210	0.0097992430
3091.8782189940	0.0098355403
3093.8070263671	0.0098327938
3095.7358337401	0.0097089261
3097.6646411132	0.0097328508
3099.5934484862	0.0096833371
3101.5222558593	0.0096215401
3103.4510632323	0.0097321253
3105.3798706054	0.0095699374
3107.3086779784	0.0094578788
3109.2374853514	0.0094857048
3111.1662927245	0.0094435867
3113.0951000975	0.0094896490
3115.0239074706	0.0094426312
3116.9527148436	0.0094397217
3118.8815222167	0.0093267150
3120.8103295897	0.0091406852
3122.7391369628	0.0091978712
3124.6679443358	0.0092186937
3126.5967517089	0.0092011914
3128.5255590819	0.0091668759
3130.4543664550	0.0091386363
3132.3831738280	0.0091453241
3134.3119812011	0.0091248360
3136.2407885741	0.0090959948
3138.1695959471	0.0089948317
3140.0984033202	0.0089594256
3142.0272106932	0.0089063887
3143.9560180663	0.0089111440
3145.8848254393	0.0090268981
3147.8136328124	0.0089229317
3149.7424401854	0.0088944957
3151.6712475585	0.0088489521
3153.6000549315	0.0087335771
3155.5288623046	0.0088003539
3157.4576696776	0.0086819967
3159.3864770507	0.0086344648
3161.3152844237	0.0086850580
3163.2440917968	0.0086813401
3165.1728991698	0.0086668469
3167.1017065428	0.0085578896
3169.0305139159	0.0086503718
3170.9593212889	0.0086153196
3172.8881286620	0.0085558258
3174.8169360350	0.0086129792
3176.7457434081	0.0085141640
3178.6745507811	0.0084774420
3180.6033581542	0.0084165530
3182.5321655272	0.0084511982
3184.4609729003	0.0084438082
3186.3897802733	0.0084010810
3188.3185876464	0.0084675886
3190.2473950194	0.0084018037
3192.1762023925	0.0083439201
3194.1050097655	0.0082758069
3196.0338171386	0.0083185071
3197.9626245116	0.0084258709
3199.8914318846	0.0084168361
3201.8202392577	0.0083892522
3203.7490466307	0.0084459856
3205.6778540038	0.0084745772
3207.6066613768	0.0083287423
3209.5354687499	0.0083340313
3211.4642761229	0.0084015317
3213.3930834960	0.0084053446
3215.3218908690	0.0083289100
3217.2506982421	0.0083244257
3219.1795056151	0.0083754119
3221.1083129882	0.0081953667
3223.0371203612	0.0083827600
3224.9659277343	0.0084857102
3226.8947351073	0.0082468763
3228.8235424803	0.0083685629
3230.7523498534	0.0083625261
3232.6811572264	0.0083200168
3234.6099645995	0.0084420843
3236.5387719725	0.0083640330
3238.4675793456	0.0083720107
3240.3963867186	0.0084454855
3242.3251940917	0.0083990591
3244.2540014647	0.0084206117
3246.1828088378	0.0084917881
3248.1116162108	0.0085203853
3250.0404235839	0.0084535684
3251.9692309569	0.0084931515
3253.8980383300	0.0086230002
3255.8268457030	0.0085120965
3257.7556530760	0.0085061528
3259.6844604491	0.0086270338
3261.6132678221	0.0086132716
3263.5420751952	0.0086037032
3265.4708825682	0.0086090118
3267.3996899413	0.0086241737
3269.3284973143	0.0085797682
3271.2573046874	0.0086255986
3273.1861120604	0.0087259216
3275.1149194335	0.0086038858
3277.0437268065	0.0085564870
3278.9725341796	0.0086809006
3280.9013415526	0.0086556794
3282.8301489257	0.0086785741
3284.7589562987	0.0087511782
3286.6877636717	0.0087242033
3288.6165710448	0.0087582078
3290.5453784178	0.0086495113
3292.4741857909	0.0086729974
3294.4029931639	0.0087770829
3296.3318005370	0.0087630078
3298.2606079100	0.0088461060
3300.1894152831	0.0087493695
3302.1182226561	0.0087697618
3304.0470300292	0.0088153202
3305.9758374022	0.0087971557
3307.9046447753	0.0088460594
3309.8334521483	0.0088030063
3311.7622595214	0.0088864444
3313.6910668944	0.0088256784
3315.6198742675	0.0088919196
3317.5486816405	0.0090144165
3319.4774890135	0.0089133121
3321.4062963866	0.0089775417
3323.3351037596	0.0089789238
3325.2639111327	0.0089982534
3327.1927185057	0.0090335216
3329.1215258788	0.0089804213
3331.0503332518	0.0089687835
3332.9791406249	0.0089677367
3334.9079479979	0.0089576486
3336.8367553710	0.0089218011
3338.7655627440	0.0090206983
3340.6943701171	0.0091321599
3342.6231774901	0.0090946537
3344.5519848632	0.0090726623
3346.4807922362	0.0091726258
3348.4095996092	0.0092334300
3350.3384069823	0.0092278486
3352.2672143553	0.0092717428
3354.1960217284	0.0092955315
3356.1248291014	0.0092275348
3358.0536364745	0.0092627686
3359.9824438475	0.0094308145
3361.9112512206	0.0092793144
3363.8400585936	0.0091592036
3365.7688659667	0.0093266759
3367.6976733397	0.0093809767
3369.6264807128	0.0093981791
3371.5552880858	0.0094597712
3373.4840954589	0.0095138643
3375.4129028319	0.0095226858
3377.3417102049	0.0096108336
3379.2705175780	0.0096092932
3381.1993249510	0.0096012484
3383.1281323241	0.0096539529
3385.0569396971	0.0096146800
3386.9857470702	0.0097741513
3388.9145544432	0.0097217560
3390.8433618163	0.0096461941
3392.7721691893	0.0097690597
3394.7009765624	0.0097557800
3396.6297839354	0.0098482622
3398.5585913085	0.0098766368
3400.4873986815	0.0099334065
3402.4162060546	0.0100134425
3404.3450134276	0.0099464264
3406.2738208006	0.0100388685
3408.2026281737	0.0102515426
3410.1314355467	0.0102450773
3412.0602429198	0.0101683810
3413.9890502928	0.0102876173
3415.9178576659	0.0103153326
3417.8466650389	0.0103465142
3419.7754724120	0.0104041751
3421.7042797850	0.0104235113
3423.6330871581	0.0105249211
3425.5618945311	0.0105327461
3427.4907019042	0.0105667766
3429.4195092772	0.0106863985
3431.3483166503	0.0107708964
3433.2771240233	0.0107419658
3435.2059313963	0.0108003300
3437.1347387694	0.0109472442
3439.0635461424	0.0108620804
3440.9923535155	0.0108675119
3442.9211608885	0.0109998249
3444.8499682616	0.0109588597
3446.7787756346	0.0109757688
3448.7075830077	0.0110998992
3450.6363903807	0.0111227743
3452.5651977538	0.0110725984
3454.4940051268	0.0111653749
3456.4228124999	0.0113674337
3458.3516198729	0.0113995057
3460.2804272460	0.0114722438
3462.2092346190	0.0115205850
3464.1380419921	0.0114802588
3466.0668493651	0.0115943439
3467.9956567381	0.0115449019
3469.9244641112	0.0116384793
3471.8532714842	0.0117876381
3473.7820788573	0.0117282644
3475.7108862303	0.0118368771
3477.6396936034	0.0119126700
3479.5685009764	0.0119207185
3481.4973083495	0.0118588489
3483.4261157225	0.0119689535
3485.3549230956	0.0121000139
3487.2837304686	0.0120192040
3489.2125378417	0.0121337641
3491.1413452147	0.0122598186
3493.0701525878	0.0122627523
3494.9989599608	0.0122462865
3496.9277673338	0.0123722628
3498.8565747069	0.0124381129
3500.7853820799	0.0124406870
3502.7141894530	0.0124534871
3504.6429968260	0.0124721956
3506.5718041991	0.0126767419
3508.5006115721	0.0126267001
3510.4294189452	0.0126798982
3512.3582263182	0.0128382966
3514.2870336913	0.0128929997
3516.2158410643	0.0130231297
3518.1446484374	0.0129839098
3520.0734558104	0.0130422451
3522.0022631835	0.0130503578
3523.9310705565	0.0130397622
3525.8598779295	0.0130338892
3527.7886853026	0.0130779110
3529.7174926756	0.0132696498
3531.6463000487	0.0133669572
3533.5751074217	0.0134939700
3535.5039147948	0.0134591442
3537.4327221678	0.0135352127
3539.3615295409	0.0136647318
3541.2903369139	0.0136386007
3543.2191442870	0.0136473980
3545.1479516600	0.0134573635
3547.0767590331	0.0134505257
3549.0055664061	0.0138600226
3550.9343737792	0.0139643941
3552.8631811522	0.0137451282
3554.7919885252	0.0139782187
3556.7207958983	0.0141484383
3558.6496032713	0.0140095381
3560.5784106444	0.0139812510
3562.5072180174	0.0140868835
3564.4360253905	0.0141468262
3566.3648327635	0.0135134738
3568.2936401366	0.0133107007
3570.2224475096	0.0142048541
3572.1512548827	0.0146246282
3574.0800622557	0.0144246425
3576.0088696288	0.0145278964
3577.9376770018	0.0146213435
3579.8664843749	0.0145980455
3581.7952917479	0.0146997944
3583.7240991210	0.0147465989
3585.6529064940	0.0144887436
3587.5817138670	0.0136343706
3589.5105212401	0.0140126720
3591.4393286131	0.0150566529
3593.3681359862	0.0147211589
3595.2969433592	0.0146054197
3597.2257507323	0.0148496050
3599.1545581053	0.0149533655
3601.0833654784	0.0150227612
3603.0121728514	0.0150859701
3604.9409802245	0.0152655290
3606.8697875975	0.0149290040
3608.7985949706	0.0143200234
3610.7274023436	0.0146604292
3612.6562097167	0.0149453618
3614.5850170897	0.0147603154
3616.5138244627	0.0155996634
3618.4426318358	0.0145628955
3620.3714392088	0.0142577048
3622.3002465819	0.0157797709
3624.2290539549	0.0155128688
3626.1578613280	0.0161051489
3628.0866687010	0.0141253490
3630.0154760741	0.0132517442
3631.9442834471	0.0159398895
3633.8730908202	0.0156756900
3635.8018981932	0.0159780532
3637.7307055663	0.0162225813
3639.6595129393	0.0161659680
3641.5883203124	0.0164118707
3643.5171276854	0.0161894001
3645.4459350584	0.0164699256
3647.3747424315	0.0151753277
3649.3035498045	0.0142105166
3651.2323571776	0.0145561332
3653.1611645506	0.0166994482
3655.0899719237	0.0164958388
3657.0187792967	0.0152074695
3658.9475866698	0.0170882605
3660.8763940428	0.0168696214
3662.8052014159	0.0171506312
3664.7340087889	0.0171299092
3666.6628161620	0.0171038210
3668.5916235350	0.0167686418
3670.5204309081	0.0143970437
3672.4492382811	0.0168245304
3674.3780456541	0.0161358938
3676.3068530272	0.0140287224
3678.2356604002	0.0168514028
3680.1644677733	0.0172270201
3682.0932751463	0.0172502920
3684.0220825194	0.0176360682
3685.9508898924	0.0173968300
3687.8796972655	0.0159329996
3689.8085046385	0.0150712244
3691.7373120116	0.0167203881
3693.6661193846	0.0170231871
3695.5949267577	0.0174033530
3697.5237341307	0.0173971839
3699.4525415038	0.0172310602
3701.3813488768	0.0168366022
3703.3101562499	0.0164108425
3705.2389636229	0.0176190883
3707.1677709959	0.0169404931
3709.0965783690	0.0165904742
3711.0253857420	0.0156515539
3712.9541931151	0.0149846785
3714.8830004881	0.0168968868
3716.8118078612	0.0167154595
3718.7406152342	0.0167516489
3720.6694226073	0.0163839832
3722.5982299803	0.0160288811
3724.5270373534	0.0162546001
3726.4558447264	0.0154375518
3728.3846520995	0.0165218972
3730.3134594725	0.0161417089
3732.2422668456	0.0150537835
3734.1710742186	0.0147027895
3736.0998815916	0.0141629893
3738.0286889647	0.0147120608
3739.9574963377	0.0157011673
3741.8863037108	0.0162826926
3743.8151110838	0.0130818505
3745.7439184569	0.0126048531
3747.6727258299	0.0154815791
3749.6015332030	0.0136167351
3751.5303405760	0.0128285196
3753.4591479491	0.0142377261
3755.3879553221	0.0150959138
3757.3167626952	0.0155455517
3759.2455700682	0.0145458430
3761.1743774413	0.0149877192
3763.1031848143	0.0155049190
3765.0319921873	0.0146699706
3766.9607995604	0.0150235575
3768.8896069334	0.0147112133
3770.8184143065	0.0142560853
3772.7472216795	0.0151149202
3774.6760290526	0.0149941398
3776.6048364256	0.0150545016
3778.5336437987	0.0147176068
3780.4624511717	0.0142429415
3782.3912585448	0.0148875313
3784.3200659178	0.0146223474
3786.2488732909	0.0145375822
3788.1776806639	0.0146822808
3790.1064880370	0.0145522635
3792.0352954100	0.0144354282
3793.9641027830	0.0146519449
3795.8929101561	0.0139187844
3797.8217175291	0.0138107445
3799.7505249022	0.0142094549
3801.6793322752	0.0117240315
3803.6081396483	0.0134410979
3805.5369470213	0.0142655149
3807.4657543944	0.0121548828
3809.3945617674	0.0141203580
3811.3233691405	0.0138585232
3813.2521765135	0.0141952429
3815.1809838866	0.0129514076
3817.1097912596	0.0118303932
3819.0385986327	0.0141740358
3820.9674060057	0.0119409729
3822.8962133787	0.0125158392
3824.8250207518	0.0139857978
3826.7538281248	0.0128387678
3828.6826354979	0.0136500672
3830.6114428709	0.0131335389
3832.5402502440	0.0127598681
3834.4690576170	0.0130423717
3836.3978649901	0.0124402279
3838.3266723631	0.0114222895
3840.2554797362	0.0121687632
3842.1842871092	0.0129203396
3844.1130944823	0.0124128051
3846.0419018553	0.0130965421
3847.9707092284	0.0129979067
3849.8995166014	0.0130801834
3851.8283239745	0.0119085759
3853.7571313475	0.0094270324
3855.6859387205	0.0108008869
3857.6147460936	0.0129789943
3859.5435534666	0.0125208609
3861.4723608397	0.0124241449
3863.4011682127	0.0122222416
3865.3299755858	0.0115004666
3867.2587829588	0.0125905555
3869.1875903319	0.0115856938
3871.1163977049	0.0109892152
3873.0452050780	0.0125632919
3874.9740124510	0.0116911009
3876.9028198241	0.0125154424
3878.8316271971	0.0124834096
3880.7604345702	0.0110608842
3882.6892419432	0.0124792634
3884.6180493162	0.0117008751
3886.5468566893	0.0109755443
3888.4756640623	0.0123366723
3890.4044714354	0.0117553137
3892.3332788084	0.0112779718
3894.2620861815	0.0120607056
3896.1908935545	0.0121657625
3898.1197009276	0.0116559174
3900.0485083006	0.0111861229
3901.9773156737	0.0110245068
3903.9061230467	0.0109222950
3905.8349304198	0.0111616561
3907.7637377928	0.0118461121
3909.6925451659	0.0117762368
3911.6213525389	0.0116386861
3913.5501599119	0.0118518490
3915.4789672850	0.0115828784
3917.4077746580	0.0112159979
3919.3365820311	0.0111909024
3921.2653894041	0.0114888921
3923.1941967772	0.0114408033
3925.1230041502	0.0112506505
3927.0518115233	0.0113787055
3928.9806188963	0.0114234844
3930.9094262694	0.0111973071
3932.8382336424	0.0109354323
3934.7670410155	0.0111365709
3936.6958483885	0.0112735964
3938.6246557616	0.0111549571
3940.5534631346	0.0111598857
3942.4822705076	0.0109042171
3944.4110778807	0.0108452719
3946.3398852537	0.0110829510
3948.2686926268	0.0108455997
3950.1974999998	0.0107761323
3952.1263073729	0.0109677911
3954.0551147459	0.0108724758
3955.9839221190	0.0108918799
3957.9127294920	0.0109026395
3959.8415368651	0.0108066890
3961.7703442381	0.0107143391
3963.6991516112	0.0107576167
3965.6279589842	0.0107495198
3967.5567663573	0.0106338803
3969.4855737303	0.0106722955
3971.4143811034	0.0105227269
3973.3431884764	0.0105544664
3975.2719958494	0.0105481241
3977.2008032225	0.0104861539
3979.1296105955	0.0106292199
3981.0584179686	0.0104342615
3982.9872253416	0.0104146516
3984.9160327147	0.0104117729
3986.8448400877	0.0103555527
3988.7736474608	0.0104284603
3990.7024548338	0.0103090890
3992.6312622069	0.0102955308
3994.5600695799	0.0102526248
3996.4888769530	0.0101526622
3998.4176843260	0.0101717655
4000.3464916991	0.0102487840
4002.2752990721	0.0102028186
4004.2041064451	0.0100718560
4006.1329138182	0.0100882482
4008.0617211912	0.0101158619
4009.9905285643	0.0100663733
4011.9193359373	0.0100098681
4013.8481433104	0.0100071505
4015.7769506834	0.0099787051
4017.7057580565	0.0099374652
4019.6345654295	0.0099118054
4021.5633728026	0.0098878341
4023.4921801756	0.0098245060
4025.4209875487	0.0098437509
4027.3497949217	0.0098785358
4029.2786022948	0.0097061060
4031.2074096678	0.0096963160
4033.1362170408	0.0097074648
4035.0650244139	0.0096641378
4036.9938317869	0.0096670035
4038.9226391600	0.0096137794
4040.8514465330	0.0096398983
4042.7802539061	0.0095676035
4044.7090612791	0.0095213763
4046.6378686522	0.0095326249
4048.5666760252	0.0095019331
4050.4954833983	0.0094387811
4052.4242907713	0.0094523560
4054.3530981444	0.0094565628
4056.2819055174	0.0093153156
4058.2107128905	0.0093685556
4060.1395202635	0.0093055917
4062.0683276365	0.0092945732
4063.9971350096	0.0093429592
4065.9259423826	0.0091848848
4067.8547497557	0.0092366189
4069.7835571287	0.0092101209
4071.7123645018	0.0092149265
4073.6411718748	0.0092167743
4075.5699792479	0.0091186455
4077.4987866209	0.0091286693
4079.4275939940	0.0090460600
4081.3564013670	0.0090815295
4083.2852087401	0.0090689557
4085.2140161131	0.0090063633
4087.1428234862	0.0090162940
4089.0716308592	0.0089372862
4091.0004382323	0.0088894274
4092.9292456053	0.0088045932
4094.8580529783	0.0088212416
4096.7868603514	0.0088619255
4098.7156677244	0.0087800650
4100.6444750975	0.0087591456
4102.5732824705	0.0087675657
4104.5020898436	0.0088020191
4106.4308972166	0.0087441150
4108.3597045897	0.0086319540
4110.2885119627	0.0086422712
4112.2173193358	0.0086469427
4114.1461267088	0.0086165592
4116.0749340819	0.0085954675
4118.0037414549	0.0085554076
4119.9325488280	0.0085044987
4121.8613562010	0.0085202996
4123.7901635740	0.0085309567
4125.7189709471	0.0084743947
4127.6477783201	0.0084415479
4129.5765856932	0.0083966367
4131.5053930662	0.0084052105
4133.4342004393	0.0084195826
4135.3630078123	0.0083519705
4137.2918151854	0.0082953433
4139.2206225584	0.0082880836
4141.1494299315	0.0082979724
4143.0782373045	0.0083019566
4145.0070446776	0.0083362255
4146.9358520506	0.0082410034
4148.8646594237	0.0081629585
4150.7934667967	0.0081529282
4152.7222741697	0.0080980174
4154.6510815428	0.0081710331
4156.5798889158	0.0081238318
4158.5086962889	0.0080325976
4160.4375036619	0.0080491286
4162.3663110350	0.0080651548
4164.2951184080	0.0080554169
4166.2239257811	0.0079568066
4168.1527331541	0.0079279840
4170.0815405272	0.0079242745
4172.0103479002	0.0079338169
4173.9391552733	0.0079262350
4175.8679626463	0.0078756660
4177.7967700194	0.0078365142
4179.7255773924	0.0077680056
4181.6543847654	0.0077588554
4183.5831921385	0.0078065395
4185.5119995115	0.0078048292
4187.4408068846	0.0076485928
4189.3696142576	0.0076364465
4191.2984216307	0.0077492679
4193.2272290037	0.0076890253
4195.1560363768	0.0075948024
4197.0848437498	0.0075598862
4199.0136511229	0.0075544198
4200.9424584959	0.0075113140
4202.8712658690	0.0075795343
4204.8000732420	0.0075762779
4206.7288806151	0.0074908957
4208.6576879881	0.0075140046
4210.5864953611	0.0074942987
4212.5153027342	0.0074895923
4214.4441101072	0.0074188728
4216.3729174803	0.0073666386
4218.3017248533	0.0073570265
4220.2305322264	0.0073509016
4222.1593395994	0.0072978316
4224.0881469725	0.0072887414
4226.0169543455	0.0073595876
4227.9457617186	0.0072548725
4229.8745690916	0.0072886199
4231.8033764647	0.0072578778
4233.7321838377	0.0071796384
4235.6609912108	0.0072196024
4237.5897985838	0.0072219409
4239.5186059569	0.0072776554
4241.4474133299	0.0071321297
4243.3762207029	0.0071351272
4245.3050280760	0.0071771340
4247.2338354490	0.0070529282
4249.1626428221	0.0070124818
4251.0914501951	0.0069920458
4253.0202575682	0.0069635510
4254.9490649412	0.0068605701
4256.8778723143	0.0070221680
4258.8066796873	0.0070580631
4260.7354870604	0.0069145029
4262.6642944334	0.0069868388
4264.5931018065	0.0069429819
4266.5219091795	0.0069367057
4268.4507165526	0.0069159237
4270.3795239256	0.0068597663
4272.3083312986	0.0068833050
4274.2371386717	0.0068258867
4276.1659460447	0.0068110470
4278.0947534178	0.0068802685
4280.0235607908	0.0067871306
4281.9523681639	0.0067143086
4283.8811755369	0.0067532058
4285.8099829100	0.0066288048
4287.7387902830	0.0066799452
4289.6675976561	0.0066897976
4291.5964050291	0.0065594302
4293.5252124022	0.0066537322
4295.4540197752	0.0066042943
4297.3828271483	0.0065181544
4299.3116345213	0.0065632416
4301.2404418943	0.0065031801
4303.1692492674	0.0064889123
4305.0980566404	0.0065416582
4307.0268640135	0.0064512221
4308.9556713865	0.0064828321
4310.8844787596	0.0064652376
4312.8132861326	0.0062994612
4314.7420935057	0.0064018094
4316.6709008787	0.0064054560
4318.5997082518	0.0063830954
4320.5285156248	0.0064199911
4322.4573229979	0.0062701339
4324.3861303709	0.0062721446
4326.3149377440	0.0063715605
4328.2437451170	0.0062829950
4330.1725524900	0.0061944691
4332.1013598631	0.0062779980
4334.0301672361	0.0063263318
4335.9589746092	0.0062650405
4337.8877819822	0.0061750393
4339.8165893553	0.0062552346
4341.7453967283	0.0062918812
4343.6742041014	0.0062238099
4345.6030114744	0.0062217754
4347.5318188475	0.0060601002
4349.4606262205	0.0060744029
4351.3894335936	0.0060986239
4353.3182409666	0.0060683340
4355.2470483397	0.0060611358
4357.1758557127	0.0059425822
4359.1046630858	0.0059889359
4361.0334704588	0.0059434641
4362.9622778318	0.0059428723
4364.8910852049	0.0059645846
4366.8198925779	0.0059939520
4368.7486999510	0.0059899446
4370.6775073240	0.0058996347
4372.6063146971	0.0059584202
4374.5351220701	0.0058373935
4376.4639294432	0.0058702910
4378.3927368162	0.0058851889
4380.3215441893	0.0058315848
4382.2503515623	0.0058650640
4384.1791589354	0.0057957703
4386.1079663084	0.0058463048
4388.0367736815	0.0057551544
4389.9655810545	0.0057907249
4391.8943884275	0.0057630176
4393.8231958006	0.0056974785
4395.7520031736	0.0057500522
4397.6808105467	0.0056392457
4399.6096179197	0.0056991023
4401.5384252928	0.0056361416
4403.4672326658	0.0055987602
4405.3960400389	0.0055709397
4407.3248474119	0.0055404408
4409.2536547850	0.0056097899
4411.1824621580	0.0055403430
4413.1112695311	0.0055569084
4415.0400769041	0.0054615922
4416.9688842772	0.0055176886
4418.8976916502	0.0055876374
4420.8264990232	0.0054965392
4422.7553063963	0.0055038924
4424.6841137693	0.0054722475
4426.6129211424	0.0055411612
4428.5417285154	0.0054803430
4430.4705358885	0.0053994348
4432.3993432615	0.0054061385
4434.3281506346	0.0053843250
4436.2569580076	0.0053815059
4438.1857653807	0.0053754784
4440.1145727537	0.0054301508
4442.0433801268	0.0053136502
4443.9721874998	0.0052826107
4445.9009948729	0.0053817136
4447.8298022459	0.0052828714
4449.7586096189	0.0052993475
4451.6874169920	0.0053458614
4453.6162243650	0.0051743519
4455.5450317381	0.0051561017
4457.4738391111	0.0051944926
4459.4026464842	0.0051700994
4461.3314538572	0.0052663544
4463.2602612303	0.0051386710
4465.1890686033	0.0051014866
4467.1178759764	0.0052383901
4469.0466833494	0.0051260223
4470.9754907225	0.0050825449
4472.9042980955	0.0050794827
4474.8331054686	0.0050289114
4476.7619128416	0.0050239889
4478.6907202147	0.0050369385
4480.6195275877	0.0050704880
4482.5483349607	0.0050310981
4484.4771423338	0.0049867546
4486.4059497068	0.0050024535
4488.3347570799	0.0049927058
4490.2635644529	0.0049650725
4492.1923718260	0.0049517388
4494.1211791990	0.0049704006
4496.0499865721	0.0049579246
4497.9787939451	0.0048770541
4499.9076013182	0.0049189692
4501.8364086912	0.0049349144
4503.7652160643	0.0049382988
4505.6940234373	0.0048737139
4507.6228308104	0.0047109458
4509.5516381834	0.0048482902
4511.4804455564	0.0048158402
4513.4092529295	0.0047536762
4515.3380603025	0.0048064310
4517.2668676756	0.0046641361
4519.1956750486	0.0046843942
4521.1244824217	0.0046571097
4523.0532897947	0.0046705580
4524.9820971678	0.0047062864
4526.9109045408	0.0047045974
4528.8397119139	0.0047772918
4530.7685192869	0.0046979086
4532.6973266600	0.0046871323
4534.6261340330	0.0046897605
4536.5549414061	0.0046993904
4538.4837487791	0.0046815472
4540.4125561521	0.0045850435
4542.3413635252	0.0045511816
4544.2701708982	0.0045628226
4546.1989782713	0.0045753825
4548.1277856443	0.0045134453
4550.0565930174	0.0045145834
4551.9854003904	0.0044892421
4553.9142077635	0.0044802111
4555.8430151365	0.0044630566
4557.7718225096	0.0044766199
4559.7006298826	0.0045368774
4561.6294372557	0.0044640349
4563.5582446287	0.0045128567
4565.4870520018	0.0044611148
4567.4158593748	0.0044241995
4569.3446667478	0.0044505736
4571.2734741209	0.0044440944
4573.2022814939	0.0044710971
4575.1310888670	0.0043230806
4577.0598962400	0.0043820245
4578.9887036131	0.0043547428
4580.9175109861	0.0042990139
4582.8463183592	0.0043441337
4584.7751257322	0.0042353924
4586.7039331053	0.0043465276
4588.6327404783	0.0043464303
4590.5615478514	0.0043431181
4592.4903552244	0.0043143658
4594.4191625975	0.0041858898
4596.3479699705	0.0042388695
4598.2767773435	0.0041735824
4600.2055847166	0.0042117299
4602.1343920896	0.0042372979
4604.0631994627	0.0041749002
4605.9920068357	0.0042225849
4607.9208142088	0.0041842824
4609.8496215818	0.0041313474
4611.7784289549	0.0041472586
4613.7072363279	0.0041318350
4615.6360437010	0.0040486297
4617.5648510740	0.0040955963
4619.4936584471	0.0040775528
4621.4224658201	0.0040097535
4623.3512731932	0.0041019041
4625.2800805662	0.0040853126
4627.2088879393	0.0040331306
4629.1376953123	0.0040309667
4631.0665026853	0.0040393332
4632.9953100584	0.0040025734
4634.9241174314	0.0040167654
4636.8529248045	0.0040228306
4638.7817321775	0.0039165327
4640.7105395506	0.0039933631
4642.6393469236	0.0039559314
4644.5681542967	0.0038678504
4646.4969616697	0.0039961692
4648.4257690428	0.0039936006
4650.3545764158	0.0038900494
4652.2833837889	0.0038063377
4654.2121911619	0.0038303214
4656.1409985350	0.0039160685
4658.0698059080	0.0039075250
4659.9986132810	0.0038395862
4661.9274206541	0.0038100299
4663.8562280271	0.0038370639
4665.7850354002	0.0038407533
4667.7138427732	0.0038530829
4669.6426501463	0.0038031456
4671.5714575193	0.0037429114
4673.5002648924	0.0037616845
4675.4290722654	0.0037287581
4677.3578796385	0.0037161259
4679.2866870115	0.0037622899
4681.2154943846	0.0037087426
4683.1443017576	0.0036453428
4685.0731091307	0.0036905208
4687.0019165037	0.0036954065
4688.9307238767	0.0037099421
4690.8595312498	0.0037202109
4692.7883386228	0.0036540623
4694.7171459959	0.0036488683
4696.6459533689	0.0036726431
4698.5747607420	0.0036721418
4700.5035681150	0.0036625010
4702.4323754881	0.0036271149
4704.3611828611	0.0035688374
4706.2899902342	0.0036288430
4708.2187976072	0.0036872174
4710.1476049803	0.0036609380
4712.0764123533	0.0036151621
4714.0052197264	0.0035189432
4715.9340270994	0.0035930751
4717.8628344724	0.0035869847
4719.7916418455	0.0035280772
4721.7204492185	0.0035287202
4723.6492565916	0.0034328890
4725.5780639646	0.0034844107
4727.5068713377	0.0034697016
4729.4356787107	0.0034453673
4731.3644860838	0.0034428467
4733.2932934568	0.0034610338
4735.2221008299	0.0034888186
4737.1509082029	0.0033644554
4739.0797155760	0.0034560082
4741.0085229490	0.0034707249
4742.9373303221	0.0033614780
4744.8661376951	0.0033746688
4746.7949450682	0.0034501036
4748.7237524412	0.0034301316
4750.6525598142	0.0033377991
4752.5813671873	0.0034213024
4754.5101745603	0.0032761185
4756.4389819334	0.0033117461
4758.3677893064	0.0034444616
4760.2965966795	0.0032673017
4762.2254040525	0.0032992202
4764.1542114256	0.0033175303
4766.0830187986	0.0033093435
4768.0118261717	0.0032672810
4769.9406335447	0.0032724445
4771.8694409178	0.0033151759
4773.7982482908	0.0032306060
4775.7270556639	0.0032538029
4777.6558630369	0.0031946208
4779.5846704099	0.0031748950
4781.5134777830	0.0032048267
4783.4422851560	0.0031989589
4785.3710925291	0.0031633663
4787.2998999021	0.0031333924
4789.2287072752	0.0032328265
4791.1575146482	0.0031660111
4793.0863220213	0.0031032674
4795.0151293943	0.0031833283
4796.9439367674	0.0031864359
4798.8727441404	0.0031001517
4800.8015515135	0.0030697342
4802.7303588865	0.0030542426
4804.6591662596	0.0030132006
4806.5879736326	0.0030723545
4808.5167810056	0.0030626976
4810.4455883787	0.0030193701
4812.3743957517	0.0029863527
4814.3032031248	0.0030630748
4816.2320104978	0.0031254222
4818.1608178709	0.0029857093
4820.0896252439	0.0030234018
4822.0184326170	0.0030675819
4823.9472399900	0.0030079265
4825.8760473631	0.0030342969
4827.8048547361	0.0030325148
4829.7336621092	0.0030058785
4831.6624694822	0.0029652151
4833.5912768553	0.0029272977
4835.5200842283	0.0029494376
4837.4488916013	0.0029397381
4839.3776989744	0.0029424690
4841.3065063474	0.0029933050
4843.2353137205	0.0028672731
4845.1641210935	0.0028239696
4847.0929284666	0.0028863286
4849.0217358396	0.0028395413
4850.9505432127	0.0028702589
4852.8793505857	0.0029030493
4854.8081579588	0.0029372792
4856.7369653318	0.0028787116
4858.6657727049	0.0028099683
4860.5945800779	0.0028697159
4862.5233874510	0.0028266101
4864.4521948240	0.0027482270
4866.3810021971	0.0027595521
4868.3098095701	0.0027889386
4870.2386169431	0.0027236105
4872.1674243162	0.0027368795
4874.0962316892	0.0028000516
4876.0250390623	0.0027593146
4877.9538464353	0.0027409317
4879.8826538084	0.0027394406
4881.8114611814	0.0027703228
4883.7402685545	0.0027657123
4885.6690759275	0.0027229707
4887.5978833006	0.0027106879
4889.5266906736	0.0027154004
4891.4554980467	0.0027124032
4893.3843054197	0.0027426882
4895.3131127928	0.0027469192
4897.2419201658	0.0026565755
4899.1707275388	0.0026629805
4901.0995349119	0.0026465175
4903.0283422849	0.0026095221
4904.9571496580	0.0026392518
4906.8859570310	0.0026269879
4908.8147644041	0.0025839217
4910.7435717771	0.0025692198
4912.6723791502	0.0026076220
4914.6011865232	0.0025984747
4916.5299938963	0.0026538824
4918.4588012693	0.0026381630
4920.3876086424	0.0025920728
4922.3164160154	0.0026319574
4924.2452233885	0.0025288241
4926.1740307615	0.0024943436
4928.1028381345	0.0025406238
4930.0316455076	0.0025608959
4931.9604528806	0.0025268667
4933.8892602537	0.0025290430
4935.8180676267	0.0025721188
4937.7468749998	0.0025082908
4939.6756823728	0.0024869510
4941.6044897459	0.0024517796
4943.5332971189	0.0024344679
4945.4621044920	0.0024458589
4947.3909118650	0.0024794729
4949.3197192381	0.0025074687
4951.2485266111	0.0024460426
4953.1773339842	0.0023765457
4955.1061413572	0.0023404886
4957.0349487302	0.0024008607
4958.9637561033	0.0024331058
4960.8925634763	0.0025163307
4962.8213708494	0.0024507833
4964.7501782224	0.0023668339
4966.6789855955	0.0024927631
4968.6077929685	0.0023825776
4970.5366003416	0.0023825497
4972.4654077146	0.0023882103
4974.3942150877	0.0023027624
4976.3230224607	0.0023780840
4978.2518298338	0.0023704811
4980.1806372068	0.0023750728
4982.1094445799	0.0023465992
4984.0382519529	0.0023952839
4985.9670593259	0.0023782582
4987.8958666990	0.0023004762
4989.8246740720	0.0023845432
4991.7534814451	0.0023508084
4993.6822888181	0.0023179534
4995.6110961912	0.0023028245
4997.5399035642	0.0022609672
4999.4687109373	0.0022120120
5001.3975183103	0.0022452315
5003.3263256834	0.0023541299
5005.2551330564	0.0022886707
5007.1839404295	0.0022701926
5009.1127478025	0.0023057400
5011.0415551756	0.0022537410
5012.9703625486	0.0022024368
5014.8991699217	0.0021843736
5016.8279772947	0.0022303304
5018.7567846677	0.0022501519
5020.6855920408	0.0022105197
5022.6143994138	0.0022168066
5024.5432067869	0.0022038571
5026.4720141599	0.0021425085
5028.4008215330	0.0021563508
5030.3296289060	0.0021624612
5032.2584362791	0.0021907126
5034.1872436521	0.0021944554
5036.1160510252	0.0021556520
5038.0448583982	0.0021930612
5039.9736657713	0.0021502902
5041.9024731443	0.0021286798
5043.8312805174	0.0021421697
5045.7600878904	0.0020870399
5047.6888952634	0.0020505032
5049.6177026365	0.0020942055
5051.5465100095	0.0021179302
5053.4753173826	0.0021007869
5055.4041247556	0.0021753819
5057.3329321287	0.0020647123
5059.2617395017	0.0019826191
5061.1905468748	0.0020718635
5063.1193542478	0.0020588080
5065.0481616209	0.0021110768
5066.9769689939	0.0020970141
5068.9057763670	0.0020375815
5070.8345837400	0.0020313773
5072.7633911131	0.0020551328
5074.6921984861	0.0020589044
5076.6210058591	0.0020121054
5078.5498132322	0.0020208750
5080.4786206052	0.0019575958
5082.4074279783	0.0020008457
5084.3362353513	0.0019744653
5086.2650427244	0.0018667857
5088.1938500974	0.0019766996
5090.1226574705	0.0019909996
5092.0514648435	0.0019502304
5093.9802722166	0.0019618734
5095.9090795896	0.0020074795
5097.8378869627	0.0019450719
5099.7666943357	0.0019020435
5101.6955017088	0.0019134487
5103.6243090818	0.0017845985
5105.5531164548	0.0019005426
5107.4819238279	0.0019407489
5109.4107312009	0.0018860581
5111.3395385740	0.0018968848
5113.2683459470	0.0018285601
5115.1971533201	0.0019590857
5117.1259606931	0.0019051940
5119.0547680662	0.0018569217
5120.9835754392	0.0019170423
5122.9123828123	0.0018393463
5124.8411901853	0.0018856185
5126.7699975584	0.0018655896
5128.6988049314	0.0018832346
5130.6276123045	0.0018732531
5132.5564196775	0.0018081299
5134.4852270506	0.0018490723
5136.4140344236	0.0018101952
5138.3428417966	0.0018616694
5140.2716491697	0.0018936354
5142.2004565427	0.0018149834
5144.1292639158	0.0017898467
5146.0580712888	0.0017607883
5147.9868786619	0.0017880378
5149.9156860349	0.0018547857
5151.8444934080	0.0018610650
5153.7733007810	0.0017956323
5155.7021081541	0.0017164708
5157.6309155271	0.0017765679
5159.5597229002	0.0018201524
5161.4885302732	0.0017339655
5163.4173376463	0.0017077860
5165.3461450193	0.0016382122
5167.2749523923	0.0016798809
5169.2037597654	0.0017767439
5171.1325671384	0.0016995515
5173.0613745115	0.0017392385
5174.9901818845	0.0016980836
5176.9189892576	0.0016354679
5178.8477966306	0.0017129256
5180.7766040037	0.0016986182
5182.7054113767	0.0017010034
5184.6342187498	0.0016855877
5186.5630261228	0.0016957773
5188.4918334959	0.0017418853
5190.4206408689	0.0016939943
5192.3494482420	0.0016559202
5194.2782556150	0.0017031565
5196.2070629880	0.0017291426
5198.1358703611	0.0016873066
5200.0646777341	0.0016882381
5201.9934851072	0.0016542219
5203.9222924802	0.0016131172
5205.8510998533	0.0016361902
5207.7799072263	0.0016422702
5209.7087145994	0.0016433969
5211.6375219724	0.0016606483
5213.5663293455	0.0016683701
5215.4951367185	0.0016213951
5217.4239440916	0.0015857760
5219.3527514646	0.0016197280
5221.2815588377	0.0016699662
5223.2103662107	0.0016254495
5225.1391735837	0.0015622545
5227.0679809568	0.0015702255
5228.9967883298	0.0015477398
5230.9255957029	0.0015338067
5232.8544030759	0.0015416599
5234.7832104490	0.0015687887
5236.7120178220	0.0015984525
5238.6408251951	0.0015556270
5240.5696325681	0.0014973581
5242.4984399412	0.0015594049
5244.4272473142	0.0016100935
5246.3560546873	0.0015520786
5248.2848620603	0.0016053452
5250.2136694334	0.0016089228
5252.1424768064	0.0015594306
5254.0712841795	0.0015454991
5256.0000915525	0.0014819165
5257.9288989255	0.0015687270
5259.8577062986	0.0015877405
5261.7865136716	0.0015066725
5263.7153210447	0.0015384161
5265.6441284177	0.0014950514
5267.5729357908	0.0014513945
5269.5017431638	0.0014742857
5271.4305505369	0.0014892905
5273.3593579099	0.0015301203
5275.2881652830	0.0014868896
5277.2169726560	0.0014381430
5279.1457800291	0.0014587410
5281.0745874021	0.0014301386
5283.0033947752	0.0014271603
5284.9322021482	0.0014224770
5286.8610095212	0.0014814951
5288.7898168943	0.0015096718
5290.7186242673	0.0014380215
5292.6474316404	0.0014658669
5294.5762390134	0.0014177323
5296.5050463865	0.0014876968
5298.4338537595	0.0015205618
5300.3626611326	0.0013794070
5302.2914685056	0.0014825691
5304.2202758787	0.0014522595
5306.1490832517	0.0013645960
5308.0778906248	0.0014095502
5310.0066979978	0.0013640814
5311.9355053709	0.0013886299
5313.8643127439	0.0013918488
5315.7931201169	0.0013838570
5317.7219274900	0.0014276672
5319.6507348630	0.0013935277
5321.5795422361	0.0013849979
5323.5083496091	0.0013968279
5325.4371569822	0.0014119904
5327.3659643552	0.0014422846
5329.2947717283	0.0013423369
5331.2235791013	0.0013842068
5333.1523864744	0.0014179768
5335.0811938474	0.0012851799
5337.0100012205	0.0013843416
5338.9388085935	0.0013125970
5340.8676159666	0.0012902814
5342.7964233396	0.0014218676
5344.7252307126	0.0012533503
5346.6540380857	0.0012825059
5348.5828454587	0.0013295012
5350.5116528318	0.0012835555
5352.4404602048	0.0013439450
5354.3692675779	0.0013081748
5356.2980749509	0.0012986681
5358.2268823240	0.0013251767
5360.1556896970	0.0013297315
5362.0844970701	0.0012786060
5364.0133044431	0.0013034722
5365.9421118162	0.0013238268
5367.8709191892	0.0012790847
5369.7997265623	0.0013437194
5371.7285339353	0.0012938264
5373.6573413083	0.0012580294
5375.5861486814	0.0012649607
5377.5149560544	0.0012158019
5379.4437634275	0.0013354293
5381.3725708005	0.0013685192
5383.3013781736	0.0012788577
5385.2301855466	0.0012062483
5387.1589929197	0.0011699896
5389.0878002927	0.0013266433
5391.0166076658	0.0013444831
5392.9454150388	0.0012578117
5394.8742224119	0.0012890062
5396.8030297849	0.0012068556
5398.7318371580	0.0011441024
5400.6606445310	0.0011882226
5402.5894519041	0.0012585560
5404.5182592771	0.0012324956
5406.4470666501	0.0012135267
5408.3758740232	0.0012341996
5410.3046813962	0.0011562732
5412.2334887693	0.0012054930
5414.1622961423	0.0011951952
5416.0911035154	0.0012106374
5418.0199108884	0.0012705754
5419.9487182615	0.0011632200
5421.8775256345	0.0011752020
5423.8063330076	0.0011766508
5425.7351403806	0.0011943586
5427.6639477537	0.0011920382
5429.5927551267	0.0011584809
5431.5215624998	0.0012065140
5433.4503698728	0.0011303923
5435.3791772458	0.0011444760
5437.3079846189	0.0012114958
5439.2367919919	0.0011578186
5441.1655993650	0.0010964911
5443.0944067380	0.0010981365
5445.0232141111	0.0011489851
5446.9520214841	0.0011926794
5448.8808288572	0.0011460633
5450.8096362302	0.0010896621
5452.7384436033	0.0011890403
5454.6672509763	0.0011711161
5456.5960583494	0.0011493553
5458.5248657224	0.0011735903
5460.4536730955	0.0010860609
5462.3824804685	0.0010999792
5464.3112878415	0.0011166320
5466.2400952146	0.0011436942
5468.1689025876	0.0011052634
5470.0977099607	0.0010385989
5472.0265173337	0.0010966845
5473.9553247068	0.0011000227
5475.8841320798	0.0010654037
5477.8129394529	0.0010488753
5479.7417468259	0.0010798764
5481.6705541990	0.0011140100
5483.5993615720	0.0011142348
5485.5281689451	0.0010532555
5487.4569763181	0.0010223745
5489.3857836912	0.0010660244
5491.3145910642	0.0010502078
5493.2433984372	0.0010890480
5495.1722058103	0.0011342494
5497.1010131833	0.0010679550
5499.0298205564	0.0010052647
5500.9586279294	0.0010712498
5502.8874353025	0.0010510278
5504.8162426755	0.0009543602
5506.7450500486	0.0010279699
5508.6738574216	0.0010263704
5510.6026647947	0.0009984961
5512.5314721677	0.0010235689
5514.4602795408	0.0010057320
5516.3890869138	0.0009933700
5518.3178942869	0.0010101261
5520.2467016599	0.0010195596
5522.1755090330	0.0009662630
5524.1043164060	0.0010007734
5526.0331237790	0.0009930602
5527.9619311521	0.0009691191
5529.8907385251	0.0010086943
5531.8195458982	0.0009864477
5533.7483532712	0.0009965748
5535.6771606443	0.0009889503
5537.6059680173	0.0009758663
5539.5347753904	0.0009581042
5541.4635827634	0.0009922587
5543.3923901365	0.0009977086
5545.3211975095	0.0009577223
5547.2500048826	0.0009712373
5549.1788122556	0.0009298758
5551.1076196287	0.0010025827
5553.0364270017	0.0009679790
5554.9652343747	0.0008957318
5556.8940417478	0.0009708299
5558.8228491208	0.0009168058
5560.7516564939	0.0009209266
5562.6804638669	0.0009622418
5564.6092712400	0.0009888860
5566.5380786130	0.0009667726
5568.4668859861	0.0009532513
5570.3956933591	0.0010288795
5572.3245007322	0.0009230694
5574.2533081052	0.0008353340
5576.1821154783	0.0008841248
5578.1109228513	0.0009067117
5580.0397302244	0.0009137343
5581.9685375974	0.0009196746
5583.8973449704	0.0008806727
5585.8261523435	0.0009003031
5587.7549597165	0.0009220365
5589.6837670896	0.0008142317
5591.6125744626	0.0008557182
5593.5413818357	0.0008732991
5595.4701892087	0.0008587937
5597.3989965818	0.0009365759
5599.3278039548	0.0009121897
5601.2566113279	0.0009466970
5603.1854187009	0.0009148845
5605.1142260740	0.0008759430
5607.0430334470	0.0008756481
5608.9718408201	0.0008227411
5610.9006481931	0.0008774025
5612.8294555661	0.0008418794
5614.7582629392	0.0008145403
5616.6870703122	0.0008698858
5618.6158776853	0.0008596596
5620.5446850583	0.0008882206
5622.4734924314	0.0008589193
5624.4022998044	0.0008225938
5626.3311071775	0.0009290186
5628.2599145505	0.0009033815
5630.1887219236	0.0007918118
5632.1175292966	0.0008063298
5634.0463366697	0.0008014729
5635.9751440427	0.0008216645
5637.9039514158	0.0007740117
5639.8327587888	0.0008068410
5641.7615661619	0.0009230273
5643.6903735349	0.0007910664
5645.6191809079	0.0007949615
5647.5479882810	0.0008510885
5649.4767956540	0.0008329059
5651.4056030271	0.0008663115
5653.3344104001	0.0008036355
5655.2632177732	0.0008242883
5657.1920251462	0.0008601552
5659.1208325193	0.0008235393
5661.0496398923	0.0007743804
5662.9784472654	0.0008160075
5664.9072546384	0.0008179466
5666.8360620115	0.0007237633
5668.7648693845	0.0008088782
5670.6936767576	0.0008166287
5672.6224841306	0.0008292494
5674.5512915036	0.0008508823
5676.4800988767	0.0007257448
5678.4089062497	0.0007766034
5680.3377136228	0.0008212156
5682.2665209958	0.0007873281
5684.1953283689	0.0007969945
5686.1241357419	0.0008042458
5688.0529431150	0.0007840655
5689.9817504880	0.0007162160
5691.9105578611	0.0007592756
5693.8393652341	0.0008069843
5695.7681726072	0.0007500674
5697.6969799802	0.0007323090
5699.6257873533	0.0007280328
5701.5545947263	0.0007268157
5703.4834020993	0.0007366279
5705.4122094724	0.0007631427
5707.3410168454	0.0007816440
5709.2698242185	0.0006943323
5711.1986315915	0.0007229323
5713.1274389646	0.0007975491
5715.0562463376	0.0007191456
5716.9850537107	0.0007190320
5718.9138610837	0.0007312192
5720.8426684568	0.0007372052
5722.7714758298	0.0007363891
5724.7002832029	0.0007335875
5726.6290905759	0.0007850084
5728.5578979490	0.0006941091
5730.4867053220	0.0006858745
5732.4155126950	0.0007481593
5734.3443200681	0.0006750124
5736.2731274411	0.0006998770
5738.2019348142	0.0007354720
5740.1307421872	0.0006703067
5742.0595495603	0.0006999836
5743.9883569333	0.0007251344
5745.9171643064	0.0006951335
5747.8459716794	0.0007583966
5749.7747790525	0.0007290315
5751.7035864255	0.0006954710
5753.6323937986	0.0007051815
5755.5612011716	0.0006406729
5757.4900085447	0.0006777829
5759.4188159177	0.0006693995
5761.3476232907	0.0006675770
5763.2764306638	0.0007324453
5765.2052380368	0.0007055841
5767.1340454099	0.0006526032
5769.0628527829	0.0006040271
5770.9916601560	0.0006514998
5772.9204675290	0.0006998776
5774.8492749021	0.0006759016
5776.7780822751	0.0006776933
5778.7068896482	0.0006837075
5780.6356970212	0.0006841978
5782.5645043943	0.0006548273
5784.4933117673	0.0006081121
5786.4221191404	0.0006187542
5788.3509265134	0.0006637950
5790.2797338865	0.0006568294
5792.2085412595	0.0006090335
5794.1373486325	0.0006061385
5796.0661560056	0.0006979291
5797.9949633786	0.0007069926
5799.9237707517	0.0006167573
5801.8525781247	0.0006091461
5803.7813854978	0.0006121297
5805.7101928708	0.0006140139
5807.6390002439	0.0006190351
5809.5678076169	0.0006319443
5811.4966149900	0.0006357130
5813.4254223630	0.0005784268
5815.3542297361	0.0005955502
5817.2830371091	0.0006401714
5819.2118444822	0.0006136285
5821.1406518552	0.0006020890
5823.0694592282	0.0005749173
5824.9982666013	0.0006068994
5826.9270739743	0.0007136831
5828.8558813474	0.0006221636
5830.7846887204	0.0005626689
5832.7134960935	0.0006142929
5834.6423034665	0.0005828221
5836.5711108396	0.0006039881
5838.4999182126	0.0005695843
5840.4287255857	0.0006094163
5842.3575329587	0.0006235907
5844.2863403318	0.0005515792
5846.2151477048	0.0006239210
5848.1439550779	0.0006245021
5850.0727624509	0.0006294487
5852.0015698239	0.0005695963
5853.9303771970	0.0005213741
5855.8591845700	0.0005830541
5857.7879919431	0.0005347563
5859.7167993161	0.0005357836
5861.6456066892	0.0005804021
5863.5744140622	0.0005898415
5865.5032214353	0.0005875966
5867.4320288083	0.0006357777
5869.3608361814	0.0006049406
5871.2896435544	0.0005501410
5873.2184509275	0.0005697609
5875.1472583005	0.0005293796
5877.0760656736	0.0005617992
5879.0048730466	0.0005590830
5880.9336804196	0.0005907097
5882.8624877927	0.0005398096
5884.7912951657	0.0004389750
5886.7201025388	0.0005745672
5888.6489099118	0.0005789195
5890.5777172849	0.0005566161
5892.5065246579	0.0005621266
5894.4353320310	0.0005444011
5896.3641394040	0.0005857738
5898.2929467771	0.0005151939
5900.2217541501	0.0004504866
5902.1505615232	0.0005025900
5904.0793688962	0.0005662021
5906.0081762693	0.0005110557
5907.9369836423	0.0005279483
5909.8657910154	0.0005614391
5911.7945983884	0.0004957527
5913.7234057614	0.0005325261
5915.6522131345	0.0005536742
5917.5810205075	0.0005566287
5919.5098278806	0.0005531730
5921.4386352536	0.0005363576
5923.3674426267	0.0005337743
5925.2962499997	0.0004783693
5927.2250573728	0.0005231948
5929.1538647458	0.0005515908
5931.0826721189	0.0004816370
5933.0114794919	0.0005659130
5934.9402868650	0.0005613893
5936.8690942380	0.0004895598
5938.7979016111	0.0005468917
5940.7267089841	0.0004427795
5942.6555163571	0.0004822258
5944.5843237302	0.0005538499
5946.5131311032	0.0004358283
5948.4419384763	0.0005307299
5950.3707458493	0.0005288438
5952.2995532224	0.0004243450
5954.2283605954	0.0004557027
5956.1571679685	0.0004745092
5958.0859753415	0.0004369465
5960.0147827146	0.0004283374
5961.9435900876	0.0004805477
5963.8723974607	0.0004539131
5965.8012048337	0.0004675276
5967.7300122068	0.0005004662
5969.6588195798	0.0004358228
5971.5876269528	0.0003916372
5973.5164343259	0.0004524642
5975.4452416989	0.0004914274
5977.3740490720	0.0004906129
5979.3028564450	0.0004853526
5981.2316638181	0.0004273849
5983.1604711911	0.0005102541
5985.0892785642	0.0004831357
5987.0180859372	0.0004633656
5988.9468933103	0.0005341513
5990.8757006833	0.0004011764
5992.8045080564	0.0004179136
5994.7333154294	0.0004281707
5996.6621228025	0.0004387338
5998.5909301755	0.0004712077
6000.5197375485	0.0003788628
