399.2631262207	1.2140194178
401.1919335938	0.8480647206
403.1207409668	0.2706347406
405.0495483398	0.6417461634
406.9783557129	2.0458972454
408.9071630859	0.4824400246
410.8359704590	1.7988460064
412.7647778320	0.5832306147
414.6935852051	-0.4667708576
416.6223925781	1.5957429409
418.5511999512	0.7371076345
420.4800073242	0.4221774936
422.4088146973	1.5448210239
424.3376220703	0.5061920881
426.2664294434	0.8904250264
428.1952368164	0.4619584978
430.1240441895	0.5559450984
432.0528515625	1.5255035162
433.9816589355	0.3645009696
435.9104663086	1.1136814356
437.8392736816	-7.2716255188
439.7680810547	0.4785248041
441.6968884277	0.4015362263
443.6256958008	1.1636637449
445.5545031738	0.5573823452
447.4833105469	-5.0590581894
449.4121179199	8.3717498779
451.3409252930	-0.1223351732
453.2697326660	2.7529234886
455.1985400391	9.9748926163
457.1273474121	0.7889910340
459.0561547852	0.9437924623
460.9849621582	1.4203678370
462.9137695313	0.6745588183
464.8425769043	0.4811421633
466.7713842773	2.2249698639
468.7001916504	-0.4867723584
470.6289990234	-1.0332362652
472.5578063965	0.5427044034
474.4866137695	0.2576036453
476.4154211426	-3.7706861496
478.3442285156	1.9439104795
480.2730358887	0.7748060822
482.2018432617	0.7301599383
484.1306506348	1.4761258364
486.0594580078	22.3142127991
487.9882653809	1.2322932482
489.9170727539	2.2610256672
491.8458801270	2.2961406708
493.7746875000	0.9306474924
495.7034948730	1.5761743784
497.6323022461	1.5675941706
499.5611096191	2.6699573994
501.4899169922	0.1521234363
503.4187243652	-0.6110419035
505.3475317383	0.1142850220
507.2763391113	-0.4778499603
509.2051464844	10.1013011932
511.1339538574	17.2155628204
513.0627612305	-11.6035041809
514.9915686035	-5.6750421524
516.9203759766	4.6711378098
518.8491833496	0.8580251932
520.7779907227	0.1678528339
522.7067980957	0.6769163013
524.6356054688	0.9583097100
526.5644128418	0.1764587760
528.4932202148	0.5112593770
530.4220275879	0.5920011997
532.3508349609	-0.6508491635
534.2796423340	1.2971364260
536.2084497070	1.9443678856
538.1372570801	0.1408654302
540.0660644531	0.5813530087
541.9948718262	-1.3146799803
543.9236791992	0.5396953821
545.8524865723	0.0873732939
547.7812939453	0.7516657710
549.7101013184	0.4134615958
551.6389086914	-0.1624962986
553.5677160645	-4.3490405083
555.4965234375	0.4544767439
557.4253308105	0.6580976844
559.3541381836	0.8607063293
561.2829455566	-0.0810245574
563.2117529297	1.2111412287
565.1405603027	-0.1497483999
567.0693676758	-0.0263242666
568.9981750488	0.4918052852
570.9269824219	-0.1222197488
572.8557897949	0.3359258473
574.7845971680	0.5338641405
576.7134045410	-2.0135450363
578.6422119141	0.6379452944
580.5710192871	1.7434368134
582.4998266602	-4.5747852325
584.4286340332	3.5968923569
586.3574414063	2.4378874302
588.2862487793	-0.9347046018
590.2150561523	1.9727635384
592.1438635254	1.2975274324
594.0726708984	1.8854907751
596.0014782715	5.5838170052
597.9302856445	0.8329916000
599.8590930176	0.6223878860
601.7879003906	0.7329685688
603.7167077637	0.6251809597
605.6455151367	1.0726246834
607.5743225098	0.5926867127
609.5031298828	0.2660759389
611.4319372559	0.0388017781
613.3607446289	1.2510176897
615.2895520020	1.3275743723
617.2183593750	1.2931095362
619.1471667480	8.3338384628
621.0759741211	7.7535576820
623.0047814941	0.6088610291
624.9335888672	-0.4059057534
626.8623962402	-1.0563592911
628.7912036133	1.3304387331
630.7200109863	1.1497466564
632.6488183594	0.9211590290
634.5776257324	0.2847219706
636.5064331055	1.0573693514
638.4352404785	1.7024036646
640.3640478516	0.6062249541
642.2928552246	0.7744328380
644.2216625977	0.3268649280
646.1504699707	0.3811245859
648.0792773438	0.5413308740
650.0080847168	0.3533252478
651.9368920898	0.5508733392
653.8656994629	0.6555793881
655.7945068359	0.3595513403
657.7233142090	0.8768717647
659.6521215820	1.0534291267
661.5809289551	0.6508809328
663.5097363281	0.9990702868
665.4385437012	1.2088587284
667.3673510742	0.8373560309
669.2961584473	0.5721216202
671.2249658203	0.7044711709
673.1537731934	0.7271721363
675.0825805664	0.7213870287
677.0113879395	0.6987190247
678.9401953125	0.3511556983
680.8690026855	1.1404730082
682.7978100586	1.0361503363
684.7266174316	0.7736908197
686.6554248047	1.0684978962
688.5842321777	0.8031809330
690.5130395508	0.9313244820
692.4418469238	0.6929563880
694.3706542969	0.7975603938
696.2994616699	1.0730148554
698.2282690430	0.8527213931
700.1570764160	0.9970283508
702.0858837891	0.8972341418
704.0146911621	1.1929037571
705.9434985352	1.0657579899
707.8723059082	0.7406263351
709.8011132813	0.9377505779
711.7299206543	0.6099874973
713.6587280273	0.9467812181
715.5875354004	2.2050340176
717.5163427734	1.5048322678
719.4451501465	0.4683533013
721.3739575195	1.2266035080
723.3027648926	1.7797075510
725.2315722656	-0.1643055677
727.1603796387	-0.0976405665
729.0891870117	0.2251758575
731.0179943848	-18.5462303162
732.9468017578	0.9959100485
734.8756091309	0.2929176688
736.8044165039	0.9623246193
738.7332238770	0.5156003237
740.6620312500	1.6873160601
742.5908386230	2.0890266895
744.5196459961	0.7433441281
746.4484533691	0.4569948614
748.3772607422	2.1580984592
750.3060681152	5.9259672165
752.2348754883	1.6804691553
754.1636828613	1.3448582888
756.0924902344	0.4337677956
758.0212976074	0.6487348080
759.9501049805	1.3353747129
761.8789123535	0.4448177218
763.8077197266	-3.3879258633
765.7365270996	-2.7284092903
767.6653344727	0.6948221922
769.5941418457	0.5949879885
771.5229492188	1.0731281042
773.4517565918	0.5730759501
775.3805639648	1.1332857609
777.3093713379	0.5555046201
779.2381787109	0.4119583368
781.1669860840	1.2291548252
783.0957934570	1.1841284037
785.0246008301	0.9290341139
786.9534082031	0.3796897531
788.8822155762	-12.1814451218
790.8110229492	2.2316658497
792.7398303223	0.6058250070
794.6686376953	3.3774452209
796.5974450684	1.9299901724
798.5262524414	0.7772092223
800.4550598145	4.3188519478
802.3838671875	16.7013320923
804.3126745605	1.2946572304
806.2414819336	1.7808775902
808.1702893066	1.1676725149
810.0990966797	0.7936491370
812.0279040527	1.8919931650
813.9567114258	1.5732109547
815.8855187988	4.4896988869
817.8143261719	1.8798559904
819.7431335449	1.1359106302
821.6719409180	4.2718048096
823.6007482910	5.7458467484
825.5295556641	2.7727904320
827.4583630371	1.0866653919
829.3871704102	0.0419975929
831.3159777832	0.8809598684
833.2447851563	1.0301525593
835.1735925293	0.6784442663
837.1023999023	1.2963128090
839.0312072754	0.9089900851
840.9600146484	0.4551474452
842.8888220215	1.4795185328
844.8176293945	1.0700937510
846.7464367676	0.6077134609
848.6752441406	1.1613856554
850.6040515137	1.4661662579
852.5328588867	1.8189970255
854.4616662598	1.1371705532
856.3904736328	0.7962893248
858.3192810059	1.1094253063
860.2480883789	1.0328572989
862.1768957520	0.7918145061
864.1057031250	1.2702339888
866.0345104980	3.5888307095
867.9633178711	1.6005001068
869.8921252441	0.9001750946
871.8209326172	0.9804521799
873.7497399902	1.0751247406
875.6785473633	0.9073363543
877.6073547363	0.7781807184
879.5361621094	0.7907955647
881.4649694824	1.8157843351
883.3937768555	2.0479671955
885.3225842285	0.7685152888
887.2513916016	1.1847504377
889.1801989746	1.8014382124
891.1090063477	1.3855533600
893.0378137207	0.8625776172
894.9666210938	1.0784978867
896.8954284668	0.8273290396
898.8242358398	0.7504435778
900.7530432129	1.3595103025
902.6818505859	0.8536044955
904.6106579590	0.8171319962
906.5394653320	0.9665647745
908.4682727051	1.6640957594
910.3970800781	1.2408852577
912.3258874512	0.8270667791
914.2546948242	0.9125626683
916.1835021973	0.7179343104
918.1123095703	0.7424968481
920.0411169434	1.2138876915
921.9699243164	1.5035115480
923.8987316895	1.2797358036
925.8275390625	0.9710677266
927.7563464355	0.7232728004
929.6851538086	0.7448426485
931.6139611816	1.2335623503
933.5427685547	1.1145551205
935.4715759277	0.8992021680
937.4003833008	0.8569971323
939.3291906738	1.0241378546
941.2579980469	0.9718637466
943.1868054199	0.8126662970
945.1156127930	1.3215723038
947.0444201660	1.2187241316
948.9732275391	0.8765466213
950.9020349121	0.8800015450
952.8308422852	0.7863096595
954.7596496582	0.8221791387
956.6884570313	0.7403267622
958.6172644043	0.7779117823
960.5460717773	0.8728531599
962.4748791504	0.9338526726
964.4036865234	0.8240510821
966.3324938965	0.5526416302
968.2613012695	0.8641325235
970.1901086426	1.1067638397
972.1189160156	0.9029435515
974.0477233887	0.7458598614
975.9765307617	0.9836292267
977.9053381348	0.9657338262
979.8341455078	0.8007531762
981.7629528809	0.7988827229
983.6917602539	0.8329182863
985.6205676270	0.9056868553
987.5493750000	0.8089099526
989.4781823730	0.7800656557
991.4069897461	0.8287611604
993.3357971191	0.8203071952
995.2646044922	0.8990392089
997.1934118652	0.9264529347
999.1222192383	0.8459287882
1001.0510266113	0.7247018814
1002.9798339844	0.7524215579
1004.9086413574	0.8079180121
1006.8374487305	0.8013901711
1008.7662561035	0.8132808805
1010.6950634766	0.8104117513
1012.6238708496	0.8172920942
1014.5526782227	0.7616900206
1016.4814855957	0.7352397442
1018.4102929688	0.7323900461
1020.3391003418	0.7176552415
1022.2679077148	0.7369342446
1024.1967150879	0.8033133745
1026.1255224609	0.8029961586
1028.0543298340	0.7082518935
1029.9831372070	0.7470309138
1031.9119445801	0.7330898643
1033.8407519531	0.7234809995
1035.7695593262	0.8060674667
1037.6983666992	0.7607410550
1039.6271740723	0.8318190575
1041.5559814453	0.8109645247
1043.4847888184	0.6970447898
1045.4135961914	0.7855622768
1047.3424035645	0.7657061219
1049.2712109375	0.7303361297
1051.2000183105	0.7229045630
1053.1288256836	0.6840588450
1055.0576330566	0.7420440316
1056.9864404297	0.7478093505
1058.9152478027	0.7473582029
1060.8440551758	0.7603290081
1062.7728625488	0.7361236215
1064.7016699219	0.8171467781
1066.6304772949	0.9059104919
1068.5592846680	0.7902950644
1070.4880920410	0.7225750685
1072.4168994141	0.7892587781
1074.3457067871	0.7564190030
1076.2745141602	0.7754916549
1078.2033215332	0.8398863673
1080.1321289062	0.8030663133
1082.0609362793	0.7475844622
1083.9897436523	0.7009641528
1085.9185510254	0.7593968511
1087.8473583984	0.7299119234
1089.7761657715	0.6817103028
1091.7049731445	0.7664124370
1093.6337805176	0.8508883715
1095.5625878906	0.7368989587
1097.4913952637	0.7005569339
1099.4202026367	0.8306466937
1101.3490100098	0.7550759912
1103.2778173828	0.7287483811
1105.2066247559	0.8522763252
1107.1354321289	0.9036086798
1109.0642395019	0.8835334182
1110.9930468750	0.7945966721
1112.9218542480	0.7359386683
1114.8506616211	0.7223940492
1116.7794689941	0.7759662867
1118.7082763672	0.8561271429
1120.6370837402	0.7841164470
1122.5658911133	0.6828734875
1124.4946984863	0.7717111111
1126.4235058594	0.8520424962
1128.3523132324	0.7742138505
1130.2811206055	0.6833009720
1132.2099279785	0.7084683180
1134.1387353516	0.8152337074
1136.0675427246	0.7099466324
1137.9963500977	0.7346031070
1139.9251574707	0.7452931404
1141.8539648437	0.6822473407
1143.7827722168	0.7781454921
1145.7115795898	0.7165482044
1147.6403869629	0.7584034204
1149.5691943359	0.7925747633
1151.4980017090	0.7204977870
1153.4268090820	0.6950873733
1155.3556164551	0.7389178872
1157.2844238281	0.7945858836
1159.2132312012	0.6739063263
1161.1420385742	0.7084167004
1163.0708459473	0.7430351377
1164.9996533203	0.7321922779
1166.9284606934	0.8030324578
1168.8572680664	0.7365899086
1170.7860754394	0.7283478379
1172.7148828125	0.7308450341
1174.6436901855	0.6834049821
1176.5724975586	0.6847565770
1178.5013049316	0.7005863190
1180.4301123047	0.7049883008
1182.3589196777	0.7195774913
1184.2877270508	0.7026971579
1186.2165344238	0.6725404263
1188.1453417969	0.6872681379
1190.0741491699	0.6928687692
1192.0029565430	0.7386378050
1193.9317639160	0.7088682652
1195.8605712891	0.6803168654
1197.7893786621	0.6980274320
1199.7181860351	0.6672391295
1201.6469934082	0.7110222578
1203.5758007812	0.7090192437
1205.5046081543	0.6898025274
1207.4334155273	0.6988798380
1209.3622229004	0.6775444746
1211.2910302734	0.6819506288
1213.2198376465	0.6757839918
1215.1486450195	0.6906544566
1217.0774523926	0.6948829293
1219.0062597656	0.6797089577
1220.9350671387	0.6787430048
1222.8638745117	0.6742907166
1224.7926818848	0.6775856018
1226.7214892578	0.6829564571
1228.6502966308	0.6764774919
1230.5791040039	0.6670349836
1232.5079113769	0.6761500835
1234.4367187500	0.6766736507
1236.3655261230	0.6999271512
1238.2943334961	0.7014911175
1240.2231408691	0.6894860864
1242.1519482422	0.7065259218
1244.0807556152	0.6823601127
1246.0095629883	0.6797713637
1247.9383703613	0.6751917005
1249.8671777344	0.6754487157
1251.7959851074	0.6937528849
1253.7247924805	0.6911710501
1255.6535998535	0.6916312575
1257.5824072266	0.6670246720
1259.5112145996	0.6735740304
1261.4400219726	0.6734147072
1263.3688293457	0.6586247683
1265.2976367187	0.6755651832
1267.2264440918	0.6811584234
1269.1552514648	0.6792564988
1271.0840588379	0.6746239662
1273.0128662109	0.6841232181
1274.9416735840	0.6996464729
1276.8704809570	0.7019100189
1278.7992883301	0.6724464893
1280.7280957031	0.6750263572
1282.6569030762	0.7009153366
1284.5857104492	0.7022184134
1286.5145178223	0.6940743327
1288.4433251953	0.6590785384
1290.3721325683	0.6623896360
1292.3009399414	0.6837434769
1294.2297473144	0.6876014471
1296.1585546875	0.6637272835
1298.0873620605	0.6750898361
1300.0161694336	0.6851497293
1301.9449768066	0.6537193656
1303.8737841797	0.7011041641
1305.8025915527	0.6621828675
1307.7313989258	0.6522691250
1309.6602062988	0.6914123893
1311.5890136719	0.6723775268
1313.5178210449	0.7031828165
1315.4466284180	0.6629714966
1317.3754357910	0.6689434648
1319.3042431640	0.7041954398
1321.2330505371	0.6658933163
1323.1618579101	0.6876998544
1325.0906652832	0.6882883906
1327.0194726562	0.6545316577
1328.9482800293	0.6762743592
1330.8770874023	0.6773263216
1332.8058947754	0.6617732048
1334.7347021484	0.6931737065
1336.6635095215	0.6618122458
1338.5923168945	0.6589197516
1340.5211242676	0.6944893003
1342.4499316406	0.6562278271
1344.3787390137	0.6584534645
1346.3075463867	0.6661366224
1348.2363537597	0.6687931418
1350.1651611328	0.6673986316
1352.0939685058	0.6666859388
1354.0227758789	0.6773623824
1355.9515832519	0.6631795168
1357.8803906250	0.6704391241
1359.8091979980	0.6614246368
1361.7380053711	0.6718689203
1363.6668127441	0.6742409468
1365.5956201172	0.6740529537
1367.5244274902	0.6849159002
1369.4532348633	0.6500036120
1371.3820422363	0.6596957445
1373.3108496094	0.6589024067
1375.2396569824	0.6589090824
1377.1684643555	0.6733914614
1379.0972717285	0.6691400409
1381.0260791015	0.6771489382
1382.9548864746	0.6689367890
1384.8836938476	0.6676135063
1386.8125012207	0.6764690876
1388.7413085937	0.6906757355
1390.6701159668	0.6748105884
1392.5989233398	0.6729661822
1394.5277307129	0.6768313646
1396.4565380859	0.6561224461
1398.3853454590	0.6750954390
1400.3141528320	0.6803274751
1402.2429602051	0.6599873900
1404.1717675781	0.6500405073
1406.1005749512	0.6737070084
1408.0293823242	0.6615899205
1409.9581896972	0.6542967558
1411.8869970703	0.6855822802
1413.8158044433	0.6634079814
1415.7446118164	0.6681981087
1417.6734191894	0.6681121588
1419.6022265625	0.6714648604
1421.5310339355	0.6751674414
1423.4598413086	0.6588621736
1425.3886486816	0.6754901409
1427.3174560547	0.6626412272
1429.2462634277	0.6825453043
1431.1750708008	0.6699721217
1433.1038781738	0.6657490134
1435.0326855469	0.6729015112
1436.9614929199	0.6158667803
1438.8903002929	0.6745035648
1440.8191076660	0.6926995516
1442.7479150390	0.6767259240
1444.6767224121	0.6733838916
1446.6055297851	0.6483099461
1448.5343371582	0.6728932858
1450.4631445312	0.6707181334
1452.3919519043	0.6786731482
1454.3207592773	0.6408476233
1456.2495666504	0.6305015683
1458.1783740234	0.6949987411
1460.1071813965	0.6521127224
1462.0359887695	0.6481055021
1463.9647961426	0.6500102878
1465.8936035156	0.6210895777
1467.8224108886	0.6571005583
1469.7512182617	0.6587468386
1471.6800256347	0.6401185393
1473.6088330078	0.6606228352
1475.5376403808	0.6612132788
1477.4664477539	0.6664504409
1479.3952551269	0.6605775952
1481.3240625000	0.6433261633
1483.2528698730	0.6541757584
1485.1816772461	0.6597395539
1487.1104846191	0.6592911482
1489.0392919922	0.6687151194
1490.9680993652	0.6623346806
1492.8969067383	0.6519334912
1494.8257141113	0.6553792953
1496.7545214843	0.6460638046
1498.6833288574	0.6412140131
1500.6121362304	0.6524171233
1502.5409436035	0.6560304165
1504.4697509765	0.6457817554
1506.3985583496	0.6290042400
1508.3273657226	0.6509453654
1510.2561730957	0.6512539983
1512.1849804687	0.6408198476
1514.1137878418	0.6539046168
1516.0425952148	0.6425579190
1517.9714025879	0.6417721510
1519.9002099609	0.6462423801
1521.8290173340	0.6386443973
1523.7578247070	0.6441872120
1525.6866320801	0.6369228959
1527.6154394531	0.6366249919
1529.5442468261	0.6383532882
1531.4730541992	0.6376109123
1533.4018615722	0.6403682828
1535.3306689453	0.6399014592
1537.2594763183	0.6432523131
1539.1882836914	0.6307755709
1541.1170910644	0.6227394342
1543.0458984375	0.6304302812
1544.9747058105	0.6283747554
1546.9035131836	0.6323623061
1548.8323205566	0.6332516670
1550.7611279297	0.6287660003
1552.6899353027	0.6321888566
1554.6187426758	0.6399040222
1556.5475500488	0.6447245479
1558.4763574218	0.6384445429
1560.4051647949	0.6259917617
1562.3339721679	0.6297677159
1564.2627795410	0.6320021152
1566.1915869140	0.6338686943
1568.1203942871	0.6335787773
1570.0492016601	0.6358571053
1571.9780090332	0.6363220811
1573.9068164062	0.6330379248
1575.8356237793	0.6272422671
1577.7644311523	0.6218544841
1579.6932385254	0.6315183043
1581.6220458984	0.6282544732
1583.5508532715	0.6213202477
1585.4796606445	0.6215054989
1587.4084680175	0.6240962744
1589.3372753906	0.6357280016
1591.2660827636	0.6248443723
1593.1948901367	0.6224808693
1595.1236975097	0.6290527582
1597.0525048828	0.6288833022
1598.9813122558	0.6236839294
1600.9101196289	0.6125920415
1602.8389270019	0.6237004399
1604.7677343750	0.6167045236
1606.6965417480	0.6179687381
1608.6253491211	0.6231464148
1610.5541564941	0.6099658608
1612.4829638672	0.6224452257
1614.4117712402	0.6191697717
1616.3405786132	0.6182298660
1618.2693859863	0.6272430420
1620.1981933593	0.6335938573
1622.1270007324	0.6364415884
1624.0558081054	0.6194105148
1625.9846154785	0.6317389607
1627.9134228515	0.6354328990
1629.8422302246	0.6390520334
1631.7710375976	0.6453937888
1633.6998449707	0.6382390857
1635.6286523437	0.6479102373
1637.5574597168	0.6468445659
1639.4862670898	0.6564444304
1641.4150744629	0.6631225348
1643.3438818359	0.6671688557
1645.2726892090	0.6757634282
1647.2014965820	0.6645168066
1649.1303039550	0.6751184464
1651.0591113281	0.6804857850
1652.9879187011	0.6813426614
1654.9167260742	0.6875190735
1656.8455334472	0.6905142665
1658.7743408203	0.6984664798
1660.7031481933	0.6967540979
1662.6319555664	0.6985309124
1664.5607629394	0.6999613643
1666.4895703125	0.7050632238
1668.4183776855	0.7007778883
1670.3471850586	0.6946442723
1672.2759924316	0.7110068798
1674.2047998047	0.7116900682
1676.1336071777	0.7119143605
1678.0624145507	0.7215537429
1679.9912219238	0.7213903069
1681.9200292968	0.7186582685
1683.8488366699	0.7146064043
1685.7776440429	0.7200004458
1687.7064514160	0.7280027866
1689.6352587890	0.7209870219
1691.5640661621	0.7166563272
1693.4928735351	0.7238311172
1695.4216809082	0.7143312693
1697.3504882812	0.7041570544
1699.2792956543	0.7025293112
1701.2081030273	0.7116996646
1703.1369104004	0.7171826363
1705.0657177734	0.7104036808
1706.9945251464	0.7132343054
1708.9233325195	0.7134670019
1710.8521398925	0.7102133036
1712.7809472656	0.7009007335
1714.7097546386	0.6998643279
1716.6385620117	0.7046458721
1718.5673693847	0.6915748119
1720.4961767578	0.7101847529
1722.4249841308	0.7118077278
1724.3537915039	0.7014654875
1726.2825988769	0.7127855420
1728.2114062500	0.7009351850
1730.1402136230	0.7007945776
1732.0690209961	0.6979233027
1733.9978283691	0.6820092201
1735.9266357421	0.6949153543
1737.8554431152	0.7028883696
1739.7842504882	0.6990503073
1741.7130578613	0.6891806126
1743.6418652343	0.6986019015
1745.5706726074	0.6971483231
1747.4994799804	0.6899933219
1749.4282873535	0.6883575320
1751.3570947265	0.6826608777
1753.2859020996	0.7016097307
1755.2147094726	0.7004936337
1757.1435168457	0.6888953447
1759.0723242187	0.6898635030
1761.0011315918	0.6850129962
1762.9299389648	0.6789681315
1764.8587463379	0.6799590588
1766.7875537109	0.6889550090
1768.7163610839	0.6846177578
1770.6451684570	0.6809570789
1772.5739758300	0.6823017597
1774.5027832031	0.6849071980
1776.4315905761	0.6870742440
1778.3603979492	0.6855626702
1780.2892053222	0.6908475161
1782.2180126953	0.6763274670
1784.1468200683	0.6738451719
1786.0756274414	0.6869785190
1788.0044348144	0.6808375120
1789.9332421875	0.6785852909
1791.8620495605	0.6782621741
1793.7908569336	0.6753351092
1795.7196643066	0.6722768545
1797.6484716796	0.6705721617
1799.5772790527	0.6751463413
1801.5060864257	0.6813529134
1803.4348937988	0.6718293428
1805.3637011718	0.6716850996
1807.2925085449	0.6773178577
1809.2213159179	0.6620062590
1811.1501232910	0.6722555757
1813.0789306640	0.6794233322
1815.0077380371	0.6694278121
1816.9365454101	0.6668400764
1818.8653527832	0.6649071574
1820.7941601562	0.6729409099
1822.7229675293	0.6709076762
1824.6517749023	0.6771908402
1826.5805822753	0.6763489246
1828.5093896484	0.6687600017
1830.4381970214	0.6692601442
1832.3670043945	0.6575736403
1834.2958117675	0.6680675149
1836.2246191406	0.6710752249
1838.1534265136	0.6617239714
1840.0822338867	0.6634700298
1842.0110412597	0.6572277546
1843.9398486328	0.6596946716
1845.8686560058	0.6643356681
1847.7974633789	0.6685879230
1849.7262707519	0.6754634976
1851.6550781250	0.6665596962
1853.5838854980	0.6653432846
1855.5126928710	0.6727917194
1857.4415002441	0.6554266810
1859.3703076171	0.6539331675
1861.2991149902	0.6671066284
1863.2279223632	0.6578286886
1865.1567297363	0.6675981879
1867.0855371093	0.6666501164
1869.0143444824	0.6587413549
1870.9431518554	0.6723351479
1872.8719592285	0.6653703451
1874.8007666015	0.6643531919
1876.7295739746	0.6675220728
1878.6583813476	0.6573702693
1880.5871887207	0.6585474610
1882.5159960937	0.6661040783
1884.4448034667	0.6657085419
1886.3736108398	0.6638134718
1888.3024182128	0.6636362672
1890.2312255859	0.6614571810
1892.1600329589	0.6585062742
1894.0888403320	0.6574785113
1896.0176477050	0.6643132567
1897.9464550781	0.6620719433
1899.8752624511	0.6568109989
1901.8040698242	0.6546204090
1903.7328771972	0.6531969309
1905.6616845703	0.6601936817
1907.5904919433	0.6586270332
1909.5192993164	0.6582853794
1911.4481066894	0.6524890661
1913.3769140625	0.6522132754
1915.3057214355	0.6557309628
1917.2345288085	0.6459664106
1919.1633361816	0.6610164642
1921.0921435546	0.6569253802
1923.0209509277	0.6439090371
1924.9497583007	0.6567103267
1926.8785656738	0.6518638730
1928.8073730468	0.6456304193
1930.7361804199	0.6447195411
1932.6649877929	0.6548468471
1934.5937951660	0.6620836258
1936.5226025390	0.6495006680
1938.4514099121	0.6515379548
1940.3802172851	0.6535590291
1942.3090246582	0.6566203237
1944.2378320312	0.6657298207
1946.1666394042	0.6576774120
1948.0954467773	0.6469615102
1950.0242541503	0.6485252976
1951.9530615234	0.6586794257
1953.8818688964	0.6555475593
1955.8106762695	0.6478415728
1957.7394836425	0.6539033055
1959.6682910156	0.6533260345
1961.5970983886	0.6527441740
1963.5259057617	0.6556175947
1965.4547131347	0.6538195610
1967.3835205078	0.6515822411
1969.3123278808	0.6506546140
1971.2411352539	0.6546889544
1973.1699426269	0.6507084966
1975.0987499999	0.6479219198
1977.0275573730	0.6529083252
1978.9563647460	0.6548365951
1980.8851721191	0.6555683613
1982.8139794921	0.6501954794
1984.7427868652	0.6493524909
1986.6715942382	0.6504041553
1988.6004016113	0.6481560469
1990.5292089843	0.6487345099
1992.4580163574	0.6498073936
1994.3868237304	0.6495708823
1996.3156311035	0.6442899108
1998.2444384765	0.6503119469
2000.1732458496	0.6561572552
2002.1020532226	0.6456912756
2004.0308605956	0.6437311769
2005.9596679687	0.6457280517
2007.8884753417	0.6440253854
2009.8172827148	0.6494612694
2011.7460900878	0.6474384665
2013.6748974609	0.6462154388
2015.6037048339	0.6520397067
2017.5325122070	0.6427767277
2019.4613195800	0.6447510719
2021.3901269531	0.6449025273
2023.3189343261	0.6389594078
2025.2477416992	0.6534575820
2027.1765490722	0.6495928764
2029.1053564453	0.6492773294
2031.0341638183	0.6554892063
2032.9629711914	0.6485188603
2034.8917785644	0.6466920972
2036.8205859374	0.6462237835
2038.7493933105	0.6606212258
2040.6782006835	0.6543844342
2042.6070080566	0.6382960081
2044.5358154296	0.6462647915
2046.4646228027	0.6467301846
2048.3934301757	0.6474993229
2050.3222375488	0.6476932168
2052.2510449218	0.6458581090
2054.1798522949	0.6462680697
2056.1086596679	0.6490955949
2058.0374670410	0.6544565558
2059.9662744140	0.6514080763
2061.8950817871	0.6478291154
2063.8238891601	0.6464372277
2065.7526965331	0.6446921229
2067.6815039062	0.6417049766
2069.6103112792	0.6458278298
2071.5391186523	0.6529455185
2073.4679260253	0.6505011916
2075.3967333984	0.6405885220
2077.3255407714	0.6444748044
2079.2543481445	0.6563649774
2081.1831555175	0.6412940025
2083.1119628906	0.6379644871
2085.0407702636	0.6434969902
2086.9695776367	0.6363070011
2088.8983850097	0.6398742199
2090.8271923828	0.6373782158
2092.7559997558	0.6400804520
2094.6848071288	0.6399390101
2096.6136145019	0.6386510730
2098.5424218749	0.6468058825
2100.4712292480	0.6416243315
2102.4000366210	0.6420761943
2104.3288439941	0.6431650519
2106.2576513671	0.6449444890
2108.1864587402	0.6510343552
2110.1152661132	0.6462718844
2112.0440734863	0.6427041292
2113.9728808593	0.6515603662
2115.9016882324	0.6538990736
2117.8304956054	0.6433928013
2119.7593029785	0.6555127501
2121.6881103515	0.6537979245
2123.6169177245	0.6367826462
2125.5457250976	0.6463612318
2127.4745324706	0.6462543607
2129.4033398437	0.6426768899
2131.3321472167	0.6449425220
2133.2609545898	0.6472899318
2135.1897619628	0.6533406377
2137.1185693359	0.6540463567
2139.0473767089	0.6435748935
2140.9761840820	0.6403381824
2142.9049914550	0.6605862975
2144.8337988281	0.6497771740
2146.7626062011	0.6336362958
2148.6914135742	0.6435026526
2150.6202209472	0.6456948519
2152.5490283203	0.6478439569
2154.4778356933	0.6398579478
2156.4066430663	0.6462107897
2158.3354504394	0.6524192095
2160.2642578124	0.6405674815
2162.1930651855	0.6466751695
2164.1218725585	0.6493299603
2166.0506799316	0.6488782763
2167.9794873046	0.6434904933
2169.9082946777	0.6435860395
2171.8371020507	0.6483883858
2173.7659094238	0.6441999078
2175.6947167968	0.6531432867
2177.6235241699	0.6520807743
2179.5523315429	0.6485689878
2181.4811389160	0.6492813230
2183.4099462890	0.6499714851
2185.3387536620	0.6491636634
2187.2675610351	0.6412670612
2189.1963684081	0.6544796228
2191.1251757812	0.6501708031
2193.0539831542	0.6400546432
2194.9827905273	0.6509748101
2196.9115979003	0.6484535336
2198.8404052734	0.6475128531
2200.7692126464	0.6399877667
2202.6980200195	0.6397241950
2204.6268273925	0.6484019160
2206.5556347656	0.6440581679
2208.4844421386	0.6436708570
2210.4132495117	0.6386676431
2212.3420568847	0.6381596923
2214.2708642577	0.6385041475
2216.1996716308	0.6421379447
2218.1284790038	0.6518394351
2220.0572863769	0.6458301544
2221.9860937499	0.6434032917
2223.9149011230	0.6394133568
2225.8437084960	0.6395364404
2227.7725158691	0.6441683769
2229.7013232421	0.6397694349
2231.6301306152	0.6410971284
2233.5589379882	0.6414545774
2235.4877453613	0.6527000070
2237.4165527343	0.6552777290
2239.3453601074	0.6436127424
2241.2741674804	0.6412389874
2243.2029748534	0.6349667311
2245.1317822265	0.6398807764
2247.0605895995	0.6469594836
2248.9893969726	0.6461839080
2250.9182043456	0.6396788359
2252.8470117187	0.6345387697
2254.7758190917	0.6400057673
2256.7046264648	0.6388647556
2258.6334338378	0.6473616362
2260.5622412109	0.6486107707
2262.4910485839	0.6466003060
2264.4198559570	0.6455419660
2266.3486633300	0.6309998631
2268.2774707031	0.6438440681
2270.2062780761	0.6441041231
2272.1350854491	0.6364861727
2274.0638928222	0.6449054480
2275.9927001952	0.6371043324
2277.9215075683	0.6388039589
2279.8503149413	0.6331979036
2281.7791223144	0.6347528100
2283.7079296874	0.6445913315
2285.6367370605	0.6328572035
2287.5655444335	0.6406420469
2289.4943518066	0.6446858048
2291.4231591796	0.6362705231
2293.3519665527	0.6413704157
2295.2807739257	0.6440280080
2297.2095812988	0.6447468400
2299.1383886718	0.6471111178
2301.0671960449	0.6487427950
2302.9960034179	0.6359149814
2304.9248107909	0.6365737319
2306.8536181640	0.6548472643
2308.7824255370	0.6468323469
2310.7112329101	0.6512340903
2312.6400402831	0.6572275162
2314.5688476562	0.6451741457
2316.4976550292	0.6541419029
2318.4264624023	0.6565443873
2320.3552697753	0.6600532532
2322.2840771484	0.6590863466
2324.2128845214	0.6510061622
2326.1416918945	0.6657123566
2328.0704992675	0.6694182754
2329.9993066406	0.6788882017
2331.9281140136	0.6799613237
2333.8569213866	0.6656103134
2335.7857287597	0.6684889793
2337.7145361327	0.6660088301
2339.6433435058	0.6808893681
2341.5721508788	0.6828612089
2343.5009582519	0.6674080491
2345.4297656249	0.6691591740
2347.3585729980	0.6588712931
2349.2873803710	0.6523978114
2351.2161877441	0.6521568894
2353.1449951171	0.6690036654
2355.0738024902	0.6845420003
2357.0026098632	0.6806662083
2358.9314172363	0.6965028644
2360.8602246093	0.6902899742
2362.7890319823	0.6883950233
2364.7178393554	0.6949331760
2366.6466467284	0.6764888167
2368.5754541015	0.6821687818
2370.5042614745	0.6658964157
2372.4330688476	0.6531307697
2374.3618762206	0.6665040851
2376.2906835937	0.6508249044
2378.2194909667	0.6446567774
2380.1482983398	0.6424514651
2382.0771057128	0.6424271464
2384.0059130859	0.6469649673
2385.9347204589	0.6287343502
2387.8635278320	0.6263173819
2389.7923352050	0.6376380324
2391.7211425780	0.6390961409
2393.6499499511	0.6311104894
2395.5787573241	0.6284597516
2397.5075646972	0.6341802478
2399.4363720702	0.6252881289
2401.3651794433	0.6250303984
2403.2939868163	0.6333845854
2405.2227941894	0.6420135498
2407.1516015624	0.6464928985
2409.0804089355	0.6285429001
2411.0092163085	0.6311503649
2412.9380236816	0.6425588131
2414.8668310546	0.6297436357
2416.7956384277	0.6303992271
2418.7244458007	0.6307180524
2420.6532531738	0.6233027577
2422.5820605468	0.6263884902
2424.5108679198	0.6317428350
2426.4396752929	0.6403735280
2428.3684826659	0.6322588921
2430.2972900390	0.6268854141
2432.2260974120	0.6368364692
2434.1549047851	0.6401621699
2436.0837121581	0.6390536427
2438.0125195312	0.6267351508
2439.9413269042	0.6352107525
2441.8701342773	0.6346886158
2443.7989416503	0.6228500605
2445.7277490234	0.6379246712
2447.6565563964	0.6226351857
2449.5853637695	0.6237586141
2451.5141711425	0.6384099126
2453.4429785155	0.6261862516
2455.3717858886	0.6314949393
2457.3005932616	0.6333263516
2459.2294006347	0.6362036467
2461.1582080077	0.6272880435
2463.0870153808	0.6245259047
2465.0158227538	0.6410027742
2466.9446301269	0.6219906211
2468.8734374999	0.6151247621
2470.8022448730	0.6294476986
2472.7310522460	0.6302515864
2474.6598596191	0.6376441121
2476.5886669921	0.6313980818
2478.5174743652	0.6190876961
2480.4462817382	0.6271110177
2482.3750891112	0.6191999912
2484.3038964843	0.6184780002
2486.2327038573	0.6371964812
2488.1615112304	0.6272947788
2490.0903186034	0.6205788255
2492.0191259765	0.6211404800
2493.9479333495	0.6297023892
2495.8767407226	0.6370428205
2497.8055480956	0.6186835170
2499.7343554687	0.6262125373
2501.6631628417	0.6302519441
2503.5919702148	0.6220806241
2505.5207775878	0.6278908849
2507.4495849609	0.6227996349
2509.3783923339	0.6237643957
2511.3071997069	0.6276242137
2513.2360070800	0.6250008941
2515.1648144530	0.6186496615
2517.0936218261	0.6220612526
2519.0224291991	0.6232670546
2520.9512365722	0.6176508665
2522.8800439452	0.6256553531
2524.8088513183	0.6134986281
2526.7376586913	0.6141152978
2528.6664660644	0.6263091564
2530.5952734374	0.6191484928
2532.5240808105	0.6271839738
2534.4528881835	0.6226537228
2536.3816955566	0.6218294501
2538.3105029296	0.6246634126
2540.2393103027	0.6151431799
2542.1681176757	0.6233275533
2544.0969250487	0.6199756861
2546.0257324218	0.6214430332
2547.9545397948	0.6236176491
2549.8833471679	0.6199520230
2551.8121545409	0.6317160726
2553.7409619140	0.6191862822
2555.6697692870	0.6094723344
2557.5985766601	0.6206192374
2559.5273840331	0.6289624572
2561.4561914062	0.6306051612
2563.3849987792	0.6208446026
2565.3138061523	0.6165899634
2567.2426135253	0.6209271550
2569.1714208984	0.6239091158
2571.1002282714	0.6192401052
2573.0290356444	0.6154571772
2574.9578430175	0.6098244786
2576.8866503905	0.6112873554
2578.8154577636	0.6190243363
2580.7442651366	0.6152870059
2582.6730725097	0.6220705509
2584.6018798827	0.6202946305
2586.5306872558	0.6214038134
2588.4594946288	0.6281528473
2590.3883020019	0.6183363199
2592.3171093749	0.6244747639
2594.2459167480	0.6241328716
2596.1747241210	0.6183258891
2598.1035314941	0.6203022003
2600.0323388671	0.6193742752
2601.9611462401	0.6213429570
2603.8899536132	0.6211251020
2605.8187609862	0.6176632643
2607.7475683593	0.6181242466
2609.6763757323	0.6289532185
2611.6051831054	0.6193303466
2613.5339904784	0.6103007197
2615.4627978515	0.6162526608
2617.3916052245	0.6184108257
2619.3204125976	0.6187968850
2621.2492199706	0.6028425694
2623.1780273437	0.6103291512
2625.1068347167	0.6198363900
2627.0356420898	0.6140287519
2628.9644494628	0.6197149754
2630.8932568358	0.6172655821
2632.8220642089	0.6234087348
2634.7508715819	0.6233269572
2636.6796789550	0.6195807457
2638.6084863280	0.6098555326
2640.5372937011	0.6030087471
2642.4661010741	0.6202993989
2644.3949084472	0.6165303588
2646.3237158202	0.6183882356
2648.2525231933	0.6157546639
2650.1813305663	0.6014493704
2652.1101379394	0.6127805710
2654.0389453124	0.6051474214
2655.9677526855	0.6008986235
2657.8965600585	0.6162881255
2659.8253674315	0.6127853394
2661.7541748046	0.6090783477
2663.6829821776	0.6114307046
2665.6117895507	0.6183063984
2667.5405969237	0.6157694459
2669.4694042968	0.6004059911
2671.3982116698	0.6086528301
2673.3270190429	0.6145428419
2675.2558264159	0.6033928990
2677.1846337890	0.6097469926
2679.1134411620	0.6143179536
2681.0422485351	0.6034724712
2682.9710559081	0.6012127399
2684.8998632812	0.6049907804
2686.8286706542	0.6016916037
2688.7574780273	0.6010203362
2690.6862854003	0.5972212553
2692.6150927733	0.6033145189
2694.5439001464	0.6174557209
2696.4727075194	0.6109098792
2698.4015148925	0.6063464880
2700.3303222655	0.5944095850
2702.2591296386	0.5905130506
2704.1879370116	0.6127991080
2706.1167443847	0.6144013405
2708.0455517577	0.5965621471
2709.9743591308	0.5982639194
2711.9031665038	0.6137512922
2713.8319738769	0.6028738618
2715.7607812499	0.6003358364
2717.6895886230	0.6072177291
2719.6183959960	0.6088925004
2721.5472033690	0.6158666015
2723.4760107421	0.5993564725
2725.4048181151	0.5933559537
2727.3336254882	0.5854592919
2729.2624328612	0.5912874341
2731.1912402343	0.6106280684
2733.1200476073	0.6017676592
2735.0488549804	0.6036387086
2736.9776623534	0.5903674364
2738.9064697265	0.5945534706
2740.8352770995	0.5972737074
2742.7640844726	0.5824588537
2744.6928918456	0.6018980145
2746.6216992187	0.5954731703
2748.5505065917	0.5974796414
2750.4793139647	0.6069713831
2752.4081213378	0.6027593017
2754.3369287108	0.6067601442
2756.2657360839	0.5896905065
2758.1945434569	0.5897264481
2760.1233508300	0.5901421905
2762.0521582030	0.5844343305
2763.9809655761	0.5904735923
2765.9097729491	0.5905581117
2767.8385803222	0.5955496430
2769.7673876952	0.5928525925
2771.6961950683	0.5917463899
2773.6250024413	0.5935927033
2775.5538098144	0.6008777022
2777.4826171874	0.6062541008
2779.4114245604	0.5826014280
2781.3402319335	0.5895412564
2783.2690393065	0.6049088240
2785.1978466796	0.5859917402
2787.1266540526	0.5894657969
2789.0554614257	0.5935899615
2790.9842687987	0.5982573628
2792.9130761718	0.6103883982
2794.8418835448	0.5979008675
2796.7706909179	0.5832699537
2798.6994982909	0.5829341412
2800.6283056640	0.6086065173
2802.5571130370	0.6061530113
2804.4859204101	0.5865079165
2806.4147277831	0.6016643047
2808.3435351562	0.5955910683
2810.2723425292	0.5848003030
2812.2011499022	0.5850041509
2814.1299572753	0.5841535926
2816.0587646483	0.5882218480
2817.9875720214	0.6005920172
2819.9163793944	0.6004197598
2821.8451867675	0.5780256987
2823.7739941405	0.5946882367
2825.7028015136	0.5992639661
2827.6316088866	0.5839824677
2829.5604162597	0.5929875970
2831.4892236327	0.5812550187
2833.4180310058	0.5790827870
2835.3468383788	0.5884678364
2837.2756457519	0.5816724896
2839.2044531249	0.5791215897
2841.1332604979	0.5909609199
2843.0620678710	0.5899065137
2844.9908752440	0.5842410922
2846.9196826171	0.5928038359
2848.8484899901	0.5789872408
2850.7772973632	0.5793187022
2852.7061047362	0.5853852630
2854.6349121093	0.5720431209
2856.5637194823	0.5765329599
2858.4925268554	0.5777162910
2860.4213342284	0.5826953650
2862.3501416015	0.5971849561
2864.2789489745	0.5796861053
2866.2077563476	0.5654943585
2868.1365637206	0.5929069519
2870.0653710936	0.5845750570
2871.9941784667	0.5682010651
2873.9229858397	0.5816290379
2875.8517932128	0.5665990710
2877.7806005858	0.5725876093
2879.7094079589	0.5833982229
2881.6382153319	0.5860189795
2883.5670227050	0.5925048590
2885.4958300780	0.5809386969
2887.4246374511	0.5874459147
2889.3534448241	0.5848974586
2891.2822521972	0.5793478489
2893.2110595702	0.5714082122
2895.1398669433	0.5774580240
2897.0686743163	0.5875110626
2898.9974816893	0.5585485697
2900.9262890624	0.5652341247
2902.8550964354	0.5775777698
2904.7839038085	0.5740193725
2906.7127111815	0.5663065910
2908.6415185546	0.5625982285
2910.5703259276	0.5817680955
2912.4991333007	0.5688806772
2914.4279406737	0.5629454255
2916.3567480468	0.5715259910
2918.2855554198	0.5781438947
2920.2143627929	0.5762676001
2922.1431701659	0.5763205290
2924.0719775390	0.5816881061
2926.0007849120	0.5574280620
2927.9295922851	0.5699735284
2929.8583996581	0.5759239197
2931.7872070311	0.5658775568
2933.7160144042	0.5636414886
2935.6448217772	0.5690081716
2937.5736291503	0.5932911634
2939.5024365233	0.5552268028
2941.4312438964	0.5668759942
2943.3600512694	0.5892416239
2945.2888586425	0.5590825677
2947.2176660155	0.5769881606
2949.1464733886	0.5682641268
2951.0752807616	0.5645232201
2953.0040881347	0.5748154521
2954.9328955077	0.5752943158
2956.8617028808	0.5738222599
2958.7905102538	0.5609710217
2960.7193176268	0.5603812933
2962.6481249999	0.5527555943
2964.5769323729	0.5622661710
2966.5057397460	0.5697427392
2968.4345471190	0.5845807791
2970.3633544921	0.5743449926
2972.2921618651	0.5469403863
2974.2209692382	0.5576109886
2976.1497766112	0.5468516946
2978.0785839843	0.5699586272
2980.0073913573	0.5818109512
2981.9361987304	0.5606098175
2983.8650061034	0.5514571071
2985.7938134765	0.5411648154
2987.7226208495	0.5730530620
2989.6514282225	0.5726884007
2991.5802355956	0.5545919538
2993.5090429686	0.5582851768
2995.4378503417	0.5576316714
2997.3666577147	0.5554792881
2999.2954650878	0.5447602868
3001.2242724608	0.5502077341
3003.1530798339	0.5512993932
3005.0818872069	0.5600619316
3007.0106945800	0.5571122169
3008.9395019530	0.5416170955
3010.8683093261	0.5498894453
3012.7971166991	0.5492398143
3014.7259240722	0.5434427261
3016.6547314452	0.5421574712
3018.5835388182	0.5569243431
3020.5123461913	0.5575285554
3022.4411535643	0.5476040840
3024.3699609374	0.5566088557
3026.2987683104	0.5482425094
3028.2275756835	0.5465266705
3030.1563830565	0.5562440753
3032.0851904296	0.5451979041
3034.0139978026	0.5339059234
3035.9428051757	0.5413587689
3037.8716125487	0.5487430096
3039.8004199218	0.5522477627
3041.7292272948	0.5501390100
3043.6580346679	0.5396554470
3045.5868420409	0.5374670625
3047.5156494139	0.5392216444
3049.4444567870	0.5377329588
3051.3732641600	0.5404560566
3053.3020715331	0.5500863194
3055.2308789061	0.5453150272
3057.1596862792	0.5444090366
3059.0884936522	0.5317744613
3061.0173010253	0.5247586370
3062.9461083983	0.5483550429
3064.8749157714	0.5338600874
3066.8037231444	0.5325733423
3068.7325305175	0.5303007960
3070.6613378905	0.5265139937
3072.5901452636	0.5457932949
3074.5189526366	0.5361760855
3076.4477600097	0.5541474819
3078.3765673827	0.5503958464
3080.3053747557	0.5353230834
3082.2341821288	0.5284913778
3084.1629895018	0.5171434283
3086.0917968749	0.5508968234
3088.0206042479	0.5481095910
3089.9494116210	0.5394856334
3091.8782189940	0.5435734987
3093.8070263671	0.5401467681
3095.7358337401	0.5433062911
3097.6646411132	0.5359197259
3099.5934484862	0.5356311202
3101.5222558593	0.5217784643
3103.4510632323	0.5312514305
3105.3798706054	0.5313041806
3107.3086779784	0.5208010674
3109.2374853514	0.5488048792
3111.1662927245	0.5437707901
3113.0951000975	0.5269243717
3115.0239074706	0.5232053995
3116.9527148436	0.5203433633
3118.8815222167	0.5326739550
3120.8103295897	0.5368745327
3122.7391369628	0.5250316858
3124.6679443358	0.5401999354
3126.5967517089	0.5487030745
3128.5255590819	0.5314716101
3130.4543664550	0.5375906229
3132.3831738280	0.5330101252
3134.3119812011	0.5339665413
3136.2407885741	0.5360671282
3138.1695959471	0.5333228111
3140.0984033202	0.5407482386
3142.0272106932	0.5195653439
3143.9560180663	0.5224660039
3145.8848254393	0.5416830182
3147.8136328124	0.5371183753
3149.7424401854	0.5238930583
3151.6712475585	0.5229529738
3153.6000549315	0.5417048335
3155.5288623046	0.5373426676
3157.4576696776	0.5254827142
3159.3864770507	0.5334256291
3161.3152844237	0.5455696583
3163.2440917968	0.5390156507
3165.1728991698	0.5245766044
3167.1017065428	0.5227017999
3169.0305139159	0.5288385749
3170.9593212889	0.5247998238
3172.8881286620	0.5169091821
3174.8169360350	0.5415919423
3176.7457434081	0.5479335189
3178.6745507811	0.5305780172
3180.6033581542	0.5288966894
3182.5321655272	0.5275751352
3184.4609729003	0.5381217599
3186.3897802733	0.5370496511
3188.3185876464	0.5404854417
3190.2473950194	0.5481029749
3192.1762023925	0.5293858051
3194.1050097655	0.5320146084
3196.0338171386	0.5345476866
3197.9626245116	0.5203562975
3199.8914318846	0.5411297083
3201.8202392577	0.5563967228
3203.7490466307	0.5300932527
3205.6778540038	0.5333466530
3207.6066613768	0.5484393835
3209.5354687499	0.5328990817
3211.4642761229	0.5342022777
3213.3930834960	0.5379638076
3215.3218908690	0.5384917855
3217.2506982421	0.5502884388
3219.1795056151	0.5356114507
3221.1083129882	0.5417541265
3223.0371203612	0.5601140857
3224.9659277343	0.5398832560
3226.8947351073	0.5446889997
3228.8235424803	0.5540630817
3230.7523498534	0.5535964966
3232.6811572264	0.5582578778
3234.6099645995	0.5521002412
3236.5387719725	0.5762208104
3238.4675793456	0.5763016939
3240.3963867186	0.5553853512
3242.3251940917	0.5666909814
3244.2540014647	0.5626760125
3246.1828088378	0.5626825094
3248.1116162108	0.5644674301
3250.0404235839	0.5714790225
3251.9692309569	0.5908125639
3253.8980383300	0.5684719682
3255.8268457030	0.5688368082
3257.7556530760	0.5944346786
3259.6844604491	0.5757687092
3261.6132678221	0.5752434134
3263.5420751952	0.5852479935
3265.4708825682	0.5768362284
3267.3996899413	0.5802969933
3269.3284973143	0.5750156045
3271.2573046874	0.5778558850
3273.1861120604	0.5789183974
3275.1149194335	0.5722758174
3277.0437268065	0.5840671659
3278.9725341796	0.5816985965
3280.9013415526	0.5804280639
3282.8301489257	0.5885421038
3284.7589562987	0.5900551081
3286.6877636717	0.5889125466
3288.6165710448	0.5932254195
3290.5453784178	0.5982328057
3292.4741857909	0.5834100246
3294.4029931639	0.5972933769
3296.3318005370	0.6095190644
3298.2606079100	0.5840570927
3300.1894152831	0.5936799645
3302.1182226561	0.6014208198
3304.0470300292	0.5998204350
3305.9758374022	0.6168831587
3307.9046447753	0.5984473228
3309.8334521483	0.5980766416
3311.7622595214	0.6128760576
3313.6910668944	0.5964442492
3315.6198742675	0.6090046763
3317.5486816405	0.6223732233
3319.4774890135	0.6231967807
3321.4062963866	0.6301010847
3323.3351037596	0.6219578385
3325.2639111327	0.6241217852
3327.1927185057	0.6282991171
3329.1215258788	0.6261320114
3331.0503332518	0.6280512214
3332.9791406249	0.6411024928
3334.9079479979	0.6447606683
3336.8367553710	0.6316784620
3338.7655627440	0.6464197040
3340.6943701171	0.6488820314
3342.6231774901	0.6311386824
3344.5519848632	0.6421263814
3346.4807922362	0.6377143860
3348.4095996092	0.6356409788
3350.3384069823	0.6611786485
3352.2672143553	0.6467981935
3354.1960217284	0.6385434270
3356.1248291014	0.6504220963
3358.0536364745	0.6490490437
3359.9824438475	0.6673381925
3361.9112512206	0.6528437138
3363.8400585936	0.6517127752
3365.7688659667	0.6703935862
3367.6976733397	0.6534810662
3369.6264807128	0.6677215695
3371.5552880858	0.6757195592
3373.4840954589	0.6746477485
3375.4129028319	0.6725263596
3377.3417102049	0.6626798511
3379.2705175780	0.6735390425
3381.1993249510	0.6709516048
3383.1281323241	0.6846616864
3385.0569396971	0.6868456006
3386.9857470702	0.6725460291
3388.9145544432	0.6946647763
3390.8433618163	0.7070354223
3392.7721691893	0.7205645442
3394.7009765624	0.7271224856
3396.6297839354	0.7130219340
3398.5585913085	0.7232357264
3400.4873986815	0.7058485746
3402.4162060546	0.6888880730
3404.3450134276	0.7191398740
3406.2738208006	0.7270207405
3408.2026281737	0.7378150225
3410.1314355467	0.7347873449
3412.0602429198	0.7147752047
3413.9890502928	0.7284275293
3415.9178576659	0.7341737151
3417.8466650389	0.7399144769
3419.7754724120	0.7407759428
3421.7042797850	0.7432501316
3423.6330871581	0.7394484878
3425.5618945311	0.7364276648
3427.4907019042	0.7503372431
3429.4195092772	0.7456756830
3431.3483166503	0.7641525865
3433.2771240233	0.7427745461
3435.2059313963	0.7397655845
3437.1347387694	0.7793017626
3439.0635461424	0.7443126440
3440.9923535155	0.7582551241
3442.9211608885	0.7929380536
3444.8499682616	0.7895674109
3446.7787756346	0.7953971624
3448.7075830077	0.7888694406
3450.6363903807	0.7969141006
3452.5651977538	0.7923468947
3454.4940051268	0.7774324417
3456.4228124999	0.7851862311
3458.3516198729	0.7896544933
3460.2804272460	0.7891698480
3462.2092346190	0.8057293296
3464.1380419921	0.8046429753
3466.0668493651	0.8053973317
3467.9956567381	0.8221417665
3469.9244641112	0.8125174046
3471.8532714842	0.8152292967
3473.7820788573	0.8051720262
3475.7108862303	0.8157054782
3477.6396936034	0.8143538237
3479.5685009764	0.7834388614
3481.4973083495	0.8164135218
3483.4261157225	0.8096037507
3485.3549230956	0.8140163422
3487.2837304686	0.8298006058
3489.2125378417	0.8113747239
3491.1413452147	0.8357797861
3493.0701525878	0.8227245808
3494.9989599608	0.8330916166
3496.9277673338	0.8337457180
3498.8565747069	0.8222613931
3500.7853820799	0.8637245893
3502.7141894530	0.8408101201
3504.6429968260	0.8292897940
3506.5718041991	0.8277769089
3508.5006115721	0.8348304033
3510.4294189452	0.8610835075
3512.3582263182	0.8361737728
3514.2870336913	0.8620290756
3516.2158410643	0.8685707450
3518.1446484374	0.8438777924
3520.0734558104	0.8441190720
3522.0022631835	0.8170702457
3523.9310705565	0.8234969378
3525.8598779295	0.8404060602
3527.7886853026	0.8527183533
3529.7174926756	0.8511335850
3531.6463000487	0.8446710110
3533.5751074217	0.8736352921
3535.5039147948	0.8625559211
3537.4327221678	0.8522149920
3539.3615295409	0.8500339985
3541.2903369139	0.8405181766
3543.2191442870	0.8619772196
3545.1479516600	0.8543256521
3547.0767590331	0.8539253473
3549.0055664061	0.8841091394
3550.9343737792	0.8724566102
3552.8631811522	0.8497873545
3554.7919885252	0.8602461815
3556.7207958983	0.8431766033
3558.6496032713	0.8240999579
3560.5784106444	0.8723241687
3562.5072180174	0.8947516680
3564.4360253905	0.8710232973
3566.3648327635	0.8805716038
3568.2936401366	0.8863999844
3570.2224475096	0.8675041199
3572.1512548827	0.8574469686
3574.0800622557	0.8515873551
3576.0088696288	0.8649160266
3577.9376770018	0.8957030773
3579.8664843749	0.8949823380
3581.7952917479	0.8648977876
3583.7240991210	0.8550845981
3585.6529064940	0.8721697927
3587.5817138670	0.8622913957
3589.5105212401	0.8444905877
3591.4393286131	0.8497855067
3593.3681359862	0.8508393168
3595.2969433592	0.8515202999
3597.2257507323	0.8424777985
3599.1545581053	0.8523949385
3601.0833654784	0.8447908759
3603.0121728514	0.8432958126
3604.9409802245	0.8786856532
3606.8697875975	0.8506724238
3608.7985949706	0.8392539620
3610.7274023436	0.8565601110
3612.6562097167	0.8504593968
3614.5850170897	0.8539743423
3616.5138244627	0.8466448188
3618.4426318358	0.8571911454
3620.3714392088	0.8698168397
3622.3002465819	0.8675776124
3624.2290539549	0.8689129949
3626.1578613280	0.8496554494
3628.0866687010	0.8301514387
3630.0154760741	0.8664261103
3631.9442834471	0.8622620702
3633.8730908202	0.8305335045
3635.8018981932	0.8533262014
3637.7307055663	0.8370529413
3639.6595129393	0.8450298309
3641.5883203124	0.8771752119
3643.5171276854	0.8553146720
3645.4459350584	0.8462429643
3647.3747424315	0.8360191584
3649.3035498045	0.8559288979
3651.2323571776	0.8511505127
3653.1611645506	0.8320409656
3655.0899719237	0.8348645568
3657.0187792967	0.8309563398
3658.9475866698	0.8323631883
3660.8763940428	0.8234710097
3662.8052014159	0.8576903939
3664.7340087889	0.8446741104
3666.6628161620	0.8156504631
3668.5916235350	0.8343332410
3670.5204309081	0.7987020612
3672.4492382811	0.8047167063
3674.3780456541	0.8392184973
3676.3068530272	0.8487877250
3678.2356604002	0.8202137351
3680.1644677733	0.8069502115
3682.0932751463	0.8218429089
3684.0220825194	0.8356866837
3685.9508898924	0.8372544050
3687.8796972655	0.8010827899
3689.8085046385	0.8197944760
3691.7373120116	0.8327071071
3693.6661193846	0.8063461781
3695.5949267577	0.7964677215
3697.5237341307	0.7846379280
3699.4525415038	0.8059787154
3701.3813488768	0.8003851771
3703.3101562499	0.7921739817
3705.2389636229	0.7934759259
3707.1677709959	0.7871806026
3709.0965783690	0.8210473657
3711.0253857420	0.8087679148
3712.9541931151	0.7934832573
3714.8830004881	0.8072050810
3716.8118078612	0.7943140268
3718.7406152342	0.7937127948
3720.6694226073	0.7988523841
3722.5982299803	0.7995099425
3724.5270373534	0.7875114679
3726.4558447264	0.7753875852
3728.3846520995	0.8069456816
3730.3134594725	0.8009047508
3732.2422668456	0.7598820925
3734.1710742186	0.7769137621
3736.0998815916	0.7692011595
3738.0286889647	0.7595879436
3739.9574963377	0.7817847729
3741.8863037108	0.7729125023
3743.8151110838	0.7660862207
3745.7439184569	0.7665973902
3747.6727258299	0.7964003682
3749.6015332030	0.7946843505
3751.5303405760	0.7428495884
3753.4591479491	0.7665878534
3755.3879553221	0.7690027356
3757.3167626952	0.7634272575
3759.2455700682	0.7860946655
3761.1743774413	0.7694315314
3763.1031848143	0.7702761292
3765.0319921873	0.7758052945
3766.9607995604	0.7622931600
3768.8896069334	0.7674854398
3770.8184143065	0.7610641718
3772.7472216795	0.7619816065
3774.6760290526	0.7562748790
3776.6048364256	0.7461080551
3778.5336437987	0.7658922076
3780.4624511717	0.7550270557
3782.3912585448	0.7482503653
3784.3200659178	0.7500786185
3786.2488732909	0.7313742638
3788.1776806639	0.7534579635
3790.1064880370	0.7843333483
3792.0352954100	0.7803630233
3793.9641027830	0.7521446347
3795.8929101561	0.7314962745
3797.8217175291	0.7237247825
3799.7505249022	0.7296767831
3801.6793322752	0.7457571030
3803.6081396483	0.7419112921
3805.5369470213	0.7206085324
3807.4657543944	0.7138011456
3809.3945617674	0.7456029654
3811.3233691405	0.7631738782
3813.2521765135	0.7662920356
3815.1809838866	0.7380561829
3817.1097912596	0.7298868299
3819.0385986327	0.7524220347
3820.9674060057	0.7152612209
3822.8962133787	0.7456458807
3824.8250207518	0.7661901116
3826.7538281248	0.7370965481
3828.6826354979	0.7504365444
3830.6114428709	0.7457306385
3832.5402502440	0.7559299469
3834.4690576170	0.7431787848
3836.3978649901	0.7329120636
3838.3266723631	0.7412848473
3840.2554797362	0.7325989604
3842.1842871092	0.7501169443
3844.1130944823	0.7228237391
3846.0419018553	0.7023726702
3847.9707092284	0.7039998174
3849.8995166014	0.7289757133
3851.8283239745	0.7619233131
3853.7571313475	0.7381952405
3855.6859387205	0.7219772935
3857.6147460936	0.7213564515
3859.5435534666	0.7474937439
3861.4723608397	0.7316311002
3863.4011682127	0.7105672359
3865.3299755858	0.7339255214
3867.2587829588	0.7285232544
3869.1875903319	0.7396050692
3871.1163977049	0.7333815694
3873.0452050780	0.7323538065
3874.9740124510	0.7153903246
3876.9028198241	0.7188709378
3878.8316271971	0.7581068277
3880.7604345702	0.7209243774
3882.6892419432	0.7184411287
3884.6180493162	0.7269245982
3886.5468566893	0.7179208398
3888.4756640623	0.7308858037
3890.4044714354	0.7139320374
3892.3332788084	0.7335426211
3894.2620861815	0.7404157519
3896.1908935545	0.7254796624
3898.1197009276	0.7317401171
3900.0485083006	0.7257316709
3901.9773156737	0.7113355398
3903.9061230467	0.7114154100
3905.8349304198	0.7186053395
3907.7637377928	0.7246829867
3909.6925451659	0.7325514555
3911.6213525389	0.7173433900
3913.5501599119	0.7222418785
3915.4789672850	0.7388502359
3917.4077746580	0.7289907932
3919.3365820311	0.7183227539
3921.2653894041	0.7132398486
3923.1941967772	0.7207711935
3925.1230041502	0.7130297422
3927.0518115233	0.7162584066
3928.9806188963	0.7242926955
3930.9094262694	0.7205350995
3932.8382336424	0.7254068851
3934.7670410155	0.7122294307
3936.6958483885	0.7058458328
3938.6246557616	0.7182645798
3940.5534631346	0.7359354496
3942.4822705076	0.7295623422
3944.4110778807	0.7358434796
3946.3398852537	0.7335987091
3948.2686926268	0.6990256310
3950.1974999998	0.7247714996
3952.1263073729	0.7098563910
3954.0551147459	0.6952773333
3955.9839221190	0.7309005260
3957.9127294920	0.7019158006
3959.8415368651	0.7004631162
3961.7703442381	0.7099041939
3963.6991516112	0.6900622249
3965.6279589842	0.7110857964
3967.5567663573	0.7356966734
3969.4855737303	0.7516348362
3971.4143811034	0.7445257306
3973.3431884764	0.7012943029
3975.2719958494	0.7218015194
3977.2008032225	0.7398003340
3979.1296105955	0.6928386092
3981.0584179686	0.7124884129
3982.9872253416	0.7147264481
3984.9160327147	0.7271441817
3986.8448400877	0.7476754189
3988.7736474608	0.6841996908
3990.7024548338	0.7259549499
3992.6312622069	0.7450506091
3994.5600695799	0.7118731141
3996.4888769530	0.7256304622
3998.4176843260	0.6918599606
4000.3464916991	0.6989930272
4002.2752990721	0.7074189782
4004.2041064451	0.7195756435
4006.1329138182	0.7233828902
4008.0617211912	0.6962332129
4009.9905285643	0.6934548020
4011.9193359373	0.6831377149
4013.8481433104	0.7263812423
4015.7769506834	0.7226115465
4017.7057580565	0.7331846356
4019.6345654295	0.7477546334
4021.5633728026	0.6809619665
4023.4921801756	0.7290869951
4025.4209875487	0.7228353024
4027.3497949217	0.7020764947
4029.2786022948	0.7358549833
4031.2074096678	0.6860996485
4033.1362170408	0.7079057097
4035.0650244139	0.7198238969
4036.9938317869	0.7093875408
4038.9226391600	0.7372613549
4040.8514465330	0.7114594579
4042.7802539061	0.7093424797
4044.7090612791	0.7266110182
4046.6378686522	0.6939166784
4048.5666760252	0.7095935345
4050.4954833983	0.7589591146
4052.4242907713	0.7140265107
4054.3530981444	0.7155489326
4056.2819055174	0.7444732785
4058.2107128905	0.6943679452
4060.1395202635	0.6733560562
4062.0683276365	0.6641894579
4063.9971350096	0.6798051000
4065.9259423826	0.7088027000
4067.8547497557	0.7159332037
4069.7835571287	0.7112914920
4071.7123645018	0.6934155226
4073.6411718748	0.7000679374
4075.5699792479	0.6943940520
4077.4987866209	0.7135972381
4079.4275939940	0.7167252898
4081.3564013670	0.6712616682
4083.2852087401	0.7024384737
4085.2140161131	0.7196583748
4087.1428234862	0.6887198091
4089.0716308592	0.7169584036
4091.0004382323	0.7521544695
4092.9292456053	0.7393349409
4094.8580529783	0.6990923882
4096.7868603514	0.6983821392
4098.7156677244	0.7091051340
4100.6444750975	0.6785995960
4102.5732824705	0.7093952298
4104.5020898436	0.7220456600
4106.4308972166	0.6757919788
4108.3597045897	0.6864459515
4110.2885119627	0.6891988516
4112.2173193358	0.7036275864
4114.1461267088	0.7061577439
4116.0749340819	0.7013740540
4118.0037414549	0.7451695800
4119.9325488280	0.7132906318
4121.8613562010	0.6916411519
4123.7901635740	0.7035889030
4125.7189709471	0.6805975437
4127.6477783201	0.7075706124
4129.5765856932	0.7255351543
4131.5053930662	0.7036243081
4133.4342004393	0.6903320551
4135.3630078123	0.6762235165
4137.2918151854	0.7156858444
4139.2206225584	0.7231481075
4141.1494299315	0.6914985776
4143.0782373045	0.7209138870
4145.0070446776	0.7086163163
4146.9358520506	0.7147194743
4148.8646594237	0.7075933814
4150.7934667967	0.6629872322
4152.7222741697	0.6858357787
4154.6510815428	0.6724163294
4156.5798889158	0.6989471316
4158.5086962889	0.7301579118
4160.4375036619	0.7160708904
4162.3663110350	0.7074838281
4164.2951184080	0.6705529094
4166.2239257811	0.7039778233
4168.1527331541	0.6798469424
4170.0815405272	0.6684492230
4172.0103479002	0.7268674970
4173.9391552733	0.7354770303
4175.8679626463	0.7175257802
4177.7967700194	0.6717416644
4179.7255773924	0.7126107216
4181.6543847654	0.6921178102
4183.5831921385	0.6834782362
4185.5119995115	0.7434001565
4187.4408068846	0.6561421752
4189.3696142576	0.6684325337
4191.2984216307	0.7167846560
4193.2272290037	0.6714900732
4195.1560363768	0.7032834291
4197.0848437498	0.7316142917
4199.0136511229	0.6869211197
4200.9424584959	0.6835036874
4202.8712658690	0.7244930267
4204.8000732420	0.7026480436
4206.7288806151	0.6968630552
4208.6576879881	0.7195436358
4210.5864953611	0.6877815723
4212.5153027342	0.6908140182
4214.4441101072	0.7593309879
4216.3729174803	0.7331491709
4218.3017248533	0.7039968371
4220.2305322264	0.7220575809
4222.1593395994	0.6620267034
4224.0881469725	0.6933930516
4226.0169543455	0.7205723524
4227.9457617186	0.6756871939
4229.8745690916	0.7015934587
4231.8033764647	0.7049978971
4233.7321838377	0.7066454291
4235.6609912108	0.6872345209
4237.5897985838	0.6885274649
4239.5186059569	0.7011903524
4241.4474133299	0.6862562895
4243.3762207029	0.7266233563
4245.3050280760	0.7031326294
4247.2338354490	0.6754938364
4249.1626428221	0.7111699581
4251.0914501951	0.6933515072
4253.0202575682	0.6907294393
4254.9490649412	0.7270617485
4256.8778723143	0.6876915693
4258.8066796873	0.6735153794
4260.7354870604	0.7264519930
4262.6642944334	0.7194880843
4264.5931018065	0.6916188598
4266.5219091795	0.6934953928
4268.4507165526	0.7125249505
4270.3795239256	0.7078779340
4272.3083312986	0.6990323663
4274.2371386717	0.7108263969
4276.1659460447	0.6845425963
4278.0947534178	0.6637985706
4280.0235607908	0.7028138041
4281.9523681639	0.7315257192
4283.8811755369	0.6932352781
4285.8099829100	0.6828241944
4287.7387902830	0.6804507375
4289.6675976561	0.6730217338
4291.5964050291	0.6844792366
4293.5252124022	0.6975883842
4295.4540197752	0.6955996752
4297.3828271483	0.6522569656
4299.3116345213	0.6943521500
4301.2404418943	0.6934989691
4303.1692492674	0.6524158716
4305.0980566404	0.7083108425
4307.0268640135	0.7244873047
4308.9556713865	0.7155250311
4310.8844787596	0.6751120687
4312.8132861326	0.7118369341
4314.7420935057	0.7169145346
4316.6709008787	0.6778007150
4318.5997082518	0.7554655075
4320.5285156248	0.7107284665
4322.4573229979	0.7018592954
4324.3861303709	0.7216054797
4326.3149377440	0.6947301626
4328.2437451170	0.7165106535
4330.1725524900	0.6878701448
4332.1013598631	0.7139409781
4334.0301672361	0.7185415626
4335.9589746092	0.6653214097
4337.8877819822	0.6970058084
4339.8165893553	0.7248865962
4341.7453967283	0.6767785549
4343.6742041014	0.6952779293
4345.6030114744	0.7554236054
4347.5318188475	0.7277545929
4349.4606262205	0.7079814672
4351.3894335936	0.7249885201
4353.3182409666	0.6982863545
4355.2470483397	0.6640709639
4357.1758557127	0.7224452496
4359.1046630858	0.7331060171
4361.0334704588	0.7036516070
4362.9622778318	0.7341808081
4364.8910852049	0.7199885845
4366.8198925779	0.7267525196
4368.7486999510	0.7025550008
4370.6775073240	0.6963806748
4372.6063146971	0.7193268538
4374.5351220701	0.7420637012
4376.4639294432	0.7378602624
4378.3927368162	0.6755755544
4380.3215441893	0.6926012039
4382.2503515623	0.6622337103
4384.1791589354	0.7008715868
4386.1079663084	0.7292077541
4388.0367736815	0.7090863585
4389.9655810545	0.7498749495
4391.8943884275	0.6683005691
4393.8231958006	0.6931981444
4395.7520031736	0.6923749447
4397.6808105467	0.6642728448
4399.6096179197	0.6947900057
4401.5384252928	0.6559746265
4403.4672326658	0.6923903823
4405.3960400389	0.7090253830
4407.3248474119	0.7397353649
4409.2536547850	0.7255076170
4411.1824621580	0.7394734025
4413.1112695311	0.7374202609
4415.0400769041	0.6448160410
4416.9688842772	0.6952979565
4418.8976916502	0.7039275765
4420.8264990232	0.7285896540
4422.7553063963	0.7330447435
4424.6841137693	0.7186254263
4426.6129211424	0.7179200649
4428.5417285154	0.6510165334
4430.4705358885	0.7148441076
4432.3993432615	0.6768465042
4434.3281506346	0.6477407813
4436.2569580076	0.7101439238
4438.1857653807	0.6789147854
4440.1145727537	0.6684625745
4442.0433801268	0.6729038954
4443.9721874998	0.7066336870
4445.9009948729	0.6963067055
4447.8298022459	0.6794746518
4449.7586096189	0.6611934900
4451.6874169920	0.6738055944
4453.6162243650	0.7496117353
4455.5450317381	0.7039294243
4457.4738391111	0.6934074759
4459.4026464842	0.7112057805
4461.3314538572	0.6746050715
4463.2602612303	0.6857457161
4465.1890686033	0.6832990050
4467.1178759764	0.6652762890
4469.0466833494	0.7063654065
4470.9754907225	0.7074404955
4472.9042980955	0.6689603329
4474.8331054686	0.6798672676
4476.7619128416	0.6534077525
4478.6907202147	0.6739516854
4480.6195275877	0.7257545590
4482.5483349607	0.6965364218
4484.4771423338	0.6858968139
4486.4059497068	0.7072018385
4488.3347570799	0.7112784386
4490.2635644529	0.6679538488
4492.1923718260	0.6952574849
4494.1211791990	0.7428635955
4496.0499865721	0.7035638690
4497.9787939451	0.6865860820
4499.9076013182	0.7317840457
4501.8364086912	0.7103186846
4503.7652160643	0.6456504464
4505.6940234373	0.6880081892
4507.6228308104	0.7011767030
4509.5516381834	0.7013608217
4511.4804455564	0.7391312718
4513.4092529295	0.7340140939
4515.3380603025	0.7049031854
4517.2668676756	0.6749843955
4519.1956750486	0.7094550133
4521.1244824217	0.7099921703
4523.0532897947	0.7151260972
4524.9820971678	0.6714009643
4526.9109045408	0.6294368505
4528.8397119139	0.7365830541
4530.7685192869	0.7504685521
4532.6973266600	0.7078778744
4534.6261340330	0.6918221116
4536.5549414061	0.6888899803
4538.4837487791	0.6951761842
4540.4125561521	0.6887459755
4542.3413635252	0.7097388506
4544.2701708982	0.6775073409
4546.1989782713	0.7009927630
4548.1277856443	0.7093070149
4550.0565930174	0.7037996054
4551.9854003904	0.7005694509
4553.9142077635	0.7012981772
4555.8430151365	0.7725102305
4557.7718225096	0.7155686021
4559.7006298826	0.7260676026
4561.6294372557	0.7174780369
4563.5582446287	0.6632915735
4565.4870520018	0.7223957777
4567.4158593748	0.7090056539
4569.3446667478	0.6778444052
4571.2734741209	0.6560564637
4573.2022814939	0.7126949430
4575.1310888670	0.7311820984
4577.0598962400	0.7057459354
4578.9887036131	0.7272664309
4580.9175109861	0.6697129607
4582.8463183592	0.6967820525
4584.7751257322	0.7000728250
4586.7039331053	0.7021421194
4588.6327404783	0.6925901175
4590.5615478514	0.6495690346
4592.4903552244	0.7406318188
4594.4191625975	0.6820884943
4596.3479699705	0.6562889218
4598.2767773435	0.7476284504
4600.2055847166	0.6825864315
4602.1343920896	0.6887273192
4604.0631994627	0.7245115042
4605.9920068357	0.6712847948
4607.9208142088	0.7043807507
4609.8496215818	0.7171270847
4611.7784289549	0.6800022721
4613.7072363279	0.7010139823
4615.6360437010	0.7377472520
4617.5648510740	0.7238365412
4619.4936584471	0.6504599452
4621.4224658201	0.6815097928
4623.3512731932	0.7169283032
4625.2800805662	0.7041319609
4627.2088879393	0.7302462459
4629.1376953123	0.6768118143
4631.0665026853	0.7099159360
4632.9953100584	0.6765468717
4634.9241174314	0.6575883031
4636.8529248045	0.7231467962
4638.7817321775	0.7174265981
4640.7105395506	0.7902104259
4642.6393469236	0.6891918182
4644.5681542967	0.6293234229
4646.4969616697	0.6651574373
4648.4257690428	0.6489834189
4650.3545764158	0.6911394596
4652.2833837889	0.6676215529
4654.2121911619	0.6895551085
4656.1409985350	0.7231909633
4658.0698059080	0.7554256320
4659.9986132810	0.6714097261
4661.9274206541	0.6627697349
4663.8562280271	0.7362132668
4665.7850354002	0.6459698081
4667.7138427732	0.7224864364
4669.6426501463	0.7231259346
4671.5714575193	0.7466078401
4673.5002648924	0.8054636717
4675.4290722654	0.6819087863
4677.3578796385	0.7144218087
4679.2866870115	0.6668367982
4681.2154943846	0.6708404422
4683.1443017576	0.7619415522
4685.0731091307	0.7333459258
4687.0019165037	0.6938575506
4688.9307238767	0.7251785994
4690.8595312498	0.7077471018
4692.7883386228	0.6138125062
4694.7171459959	0.7050777674
4696.6459533689	0.7255973220
4698.5747607420	0.7395535707
4700.5035681150	0.7295063138
4702.4323754881	0.6648973227
4704.3611828611	0.7379844785
4706.2899902342	0.6820226312
4708.2187976072	0.7414975762
4710.1476049803	0.7721810937
4712.0764123533	0.6729176044
4714.0052197264	0.6955781579
4715.9340270994	0.7484827638
4717.8628344724	0.7473735213
4719.7916418455	0.6827118993
4721.7204492185	0.7730296254
4723.6492565916	0.7461147308
4725.5780639646	0.6852613091
4727.5068713377	0.7117218971
4729.4356787107	0.6454471946
4731.3644860838	0.6792005897
4733.2932934568	0.6954406500
4735.2221008299	0.7664540410
4737.1509082029	0.7953721285
4739.0797155760	0.6956251860
4741.0085229490	0.6803140640
4742.9373303221	0.7072948813
4744.8661376951	0.6983213425
4746.7949450682	0.6722535491
4748.7237524412	0.6752858162
4750.6525598142	0.6231270432
4752.5813671873	0.7453212738
4754.5101745603	0.7441729307
4756.4389819334	0.6755862236
4758.3677893064	0.7773731947
4760.2965966795	0.6058534384
4762.2254040525	0.6445353627
4764.1542114256	0.7085847855
4766.0830187986	0.6587105989
4768.0118261717	0.7585207820
4769.9406335447	0.6716215014
4771.8694409178	0.7028746605
4773.7982482908	0.7645047307
4775.7270556639	0.6793475151
4777.6558630369	0.6330928206
4779.5846704099	0.6708574891
4781.5134777830	0.6694754362
4783.4422851560	0.6465892196
4785.3710925291	0.7973279953
4787.2998999021	0.7247296572
4789.2287072752	0.6088747382
4791.1575146482	0.6821721196
4793.0863220213	0.6524863839
4795.0151293943	0.6952053308
4796.9439367674	0.7264491320
4798.8727441404	0.6521327496
4800.8015515135	0.6822240353
4802.7303588865	0.7011821866
4804.6591662596	0.7040686607
4806.5879736326	0.7790096998
4808.5167810056	0.6757678390
4810.4455883787	0.6643228531
4812.3743957517	0.6985093355
4814.3032031248	0.5754572153
4816.2320104978	0.6767911911
4818.1608178709	0.7050063014
4820.0896252439	0.6835919023
4822.0184326170	0.7386812568
4823.9472399900	0.6610330939
4825.8760473631	0.6888918281
4827.8048547361	0.6674271226
4829.7336621092	0.6732633114
4831.6624694822	0.7379272580
4833.5912768553	0.7336704135
4835.5200842283	0.7261565328
4837.4488916013	0.6957368255
4839.3776989744	0.6634880304
4841.3065063474	0.6387695074
4843.2353137205	0.7231215835
4845.1641210935	0.6870635748
4847.0929284666	0.6850181222
4849.0217358396	0.7102540135
4850.9505432127	0.6513238549
4852.8793505857	0.7725782990
4854.8081579588	0.7446137071
4856.7369653318	0.7261367440
4858.6657727049	0.7776650786
4860.5945800779	0.7829726338
4862.5233874510	0.7501357794
4864.4521948240	0.6403096318
4866.3810021971	0.7025864124
4868.3098095701	0.7416487336
4870.2386169431	0.8463063836
4872.1674243162	0.7977397442
4874.0962316892	0.6189347506
4876.0250390623	0.6559417844
4877.9538464353	0.6429926157
4879.8826538084	0.6974983215
4881.8114611814	0.6480970383
4883.7402685545	0.5806323886
4885.6690759275	0.6975934505
4887.5978833006	0.6902733445
4889.5266906736	0.6367023587
4891.4554980467	0.5905549526
4893.3843054197	0.7160333395
4895.3131127928	0.7907721400
4897.2419201658	0.6725380421
4899.1707275388	0.7390061021
4901.0995349119	0.7651868463
4903.0283422849	0.7034307122
4904.9571496580	0.7662062049
4906.8859570310	0.7917947173
4908.8147644041	0.6933323145
4910.7435717771	0.7096075416
4912.6723791502	0.6933360696
4914.6011865232	0.7411069274
4916.5299938963	0.8007638454
4918.4588012693	0.6658193469
4920.3876086424	0.6670349836
4922.3164160154	0.6623874307
4924.2452233885	0.7322480083
4926.1740307615	0.7593499422
4928.1028381345	0.6646155119
4930.0316455076	0.7715835571
4931.9604528806	0.7295624614
4933.8892602537	0.6284628510
4935.8180676267	0.6671966910
4937.7468749998	0.7601954937
4939.6756823728	0.7433420420
4941.6044897459	0.6325078011
4943.5332971189	0.6438828707
4945.4621044920	0.7293862700
4947.3909118650	0.8258944154
4949.3197192381	0.7091712356
4951.2485266111	0.6634931564
4953.1773339842	0.7078856230
4955.1061413572	0.6563158035
4957.0349487302	0.6944311857
4958.9637561033	0.7125009298
4960.8925634763	0.6967580318
4962.8213708494	0.6799062490
4964.7501782224	0.7762188315
4966.6789855955	0.7577542663
4968.6077929685	0.6618888974
4970.5366003416	0.7688457370
4972.4654077146	0.7293536067
4974.3942150877	0.6941694617
4976.3230224607	0.6582103968
4978.2518298338	0.6911221147
4980.1806372068	0.7654885054
4982.1094445799	0.6250272393
4984.0382519529	0.6686471105
4985.9670593259	0.6938106418
4987.8958666990	0.6758388877
4989.8246740720	0.7038241625
4991.7534814451	0.6419448853
4993.6822888181	0.6654211879
4995.6110961912	0.7367555499
4997.5399035642	0.7511909604
4999.4687109373	0.7143278718
5001.3975183103	0.6928514242
5003.3263256834	0.6473047733
5005.2551330564	0.6702547073
5007.1839404295	0.7570063472
5009.1127478025	0.7549314499
5011.0415551756	0.7267479897
5012.9703625486	0.6550588608
5014.8991699217	0.6964689493
5016.8279772947	0.7595044374
5018.7567846677	0.7486464381
5020.6855920408	0.6878880262
5022.6143994138	0.6487792730
5024.5432067869	0.7305052280
5026.4720141599	0.6658437252
5028.4008215330	0.6445152760
5030.3296289060	0.6922080517
5032.2584362791	0.7523796558
5034.1872436521	0.7997810245
5036.1160510252	0.6475155950
5038.0448583982	0.6732078195
5039.9736657713	0.8207206726
5041.9024731443	0.7071725726
5043.8312805174	0.6000313163
5045.7600878904	0.6405390501
5047.6888952634	0.6252260804
5049.6177026365	0.5953696966
5051.5465100095	0.6302259564
5053.4753173826	0.6435257792
5055.4041247556	0.6867406368
5057.3329321287	0.5670765042
5059.2617395017	0.6305010915
5061.1905468748	0.7814144492
5063.1193542478	0.6353251934
5065.0481616209	0.6373995543
5066.9769689939	0.7572180033
5068.9057763670	0.8553662300
5070.8345837400	0.7410629392
5072.7633911131	0.6669940948
5074.6921984861	0.7228264809
5076.6210058591	0.6773223281
5078.5498132322	0.7580468655
5080.4786206052	0.7136915326
5082.4074279783	0.6623840332
5084.3362353513	0.6031918526
5086.2650427244	0.6669527888
5088.1938500974	0.8249812126
5090.1226574705	0.6854038835
5092.0514648435	0.7471581697
5093.9802722166	0.7116585970
5095.9090795896	0.6495171189
5097.8378869627	0.7312307954
5099.7666943357	0.6478158832
5101.6955017088	0.7151346207
5103.6243090818	0.7313022614
5105.5531164548	0.7634139657
5107.4819238279	0.7144593596
5109.4107312009	0.7006646991
5111.3395385740	0.7729233503
5113.2683459470	0.6386392117
5115.1971533201	0.7104734778
5117.1259606931	0.6484684944
5119.0547680662	0.6158409715
5120.9835754392	0.7528774738
5122.9123828123	0.7047330737
5124.8411901853	0.7877812386
5126.7699975584	0.7230002284
5128.6988049314	0.6900658607
5130.6276123045	0.8187619448
5132.5564196775	0.7556509376
5134.4852270506	0.8019831181
5136.4140344236	0.8270698190
5138.3428417966	0.6938505173
5140.2716491697	0.7296811938
5142.2004565427	0.7336667180
5144.1292639158	0.7794907093
5146.0580712888	0.7909721732
5147.9868786619	0.7179853320
5149.9156860349	0.8363854885
5151.8444934080	0.6714365482
5153.7733007810	0.6292405128
5155.7021081541	0.7786064148
5157.6309155271	0.6796785593
5159.5597229002	0.7560085654
5161.4885302732	0.7875506878
5163.4173376463	0.6658827066
5165.3461450193	0.6669871211
5167.2749523923	0.7610243559
5169.2037597654	0.7452846169
5171.1325671384	0.7599906921
5173.0613745115	0.8054094911
5174.9901818845	0.6729292870
5176.9189892576	0.6731892824
5178.8477966306	0.6886243820
5180.7766040037	0.7598514557
5182.7054113767	0.7088744044
5184.6342187498	0.7266905904
5186.5630261228	0.8721284866
5188.4918334959	0.6177513003
5190.4206408689	0.7217835188
5192.3494482420	0.8155961633
5194.2782556150	0.7930079699
5196.2070629880	0.8158580065
5198.1358703611	0.6673970222
5200.0646777341	0.7787932158
5201.9934851072	0.7396097183
5203.9222924802	0.7086874247
5205.8510998533	0.6795689464
5207.7799072263	0.6992360353
5209.7087145994	0.8171182871
5211.6375219724	0.7319850326
5213.5663293455	0.8289331198
5215.4951367185	0.7037640810
5217.4239440916	0.7245076299
5219.3527514646	0.7577874064
5221.2815588377	0.7257786989
5223.2103662107	0.7737076879
5225.1391735837	0.6029151678
5227.0679809568	0.7955625653
5228.9967883298	0.7494064569
5230.9255957029	0.6547000408
5232.8544030759	0.7514289618
5234.7832104490	0.6021193862
5236.7120178220	0.6756193638
5238.6408251951	0.7208253741
5240.5696325681	0.7122176290
5242.4984399412	0.6852479577
5244.4272473142	0.7806889415
5246.3560546873	0.8206745386
5248.2848620603	0.6191061735
5250.2136694334	0.7257352471
5252.1424768064	0.7631776929
5254.0712841795	0.7835584879
5256.0000915525	0.7976272702
5257.9288989255	0.6738064289
5259.8577062986	0.7132407427
5261.7865136716	0.6473650932
5263.7153210447	0.6258668303
5265.6441284177	0.7499510646
5267.5729357908	0.7440779209
5269.5017431638	0.6493039131
5271.4305505369	0.7207449675
5273.3593579099	0.7822030187
5275.2881652830	0.6581754088
5277.2169726560	0.7435725927
5279.1457800291	0.8817344904
5281.0745874021	0.8264086246
5283.0033947752	0.7614400983
5284.9322021482	0.6318876147
5286.8610095212	0.7050381899
5288.7898168943	0.8818781972
5290.7186242673	0.7592248917
5292.6474316404	0.7714830041
5294.5762390134	0.8501220345
5296.5050463865	0.6847615242
5298.4338537595	0.6994825602
5300.3626611326	0.7123028636
5302.2914685056	0.6746944189
5304.2202758787	0.6352841854
5306.1490832517	0.6988328099
5308.0778906248	0.8198919296
5310.0066979978	0.5845379233
5311.9355053709	0.5359823704
5313.8643127439	0.6864091158
5315.7931201169	0.7990490198
5317.7219274900	0.8260434270
5319.6507348630	0.6207410097
5321.5795422361	0.7019033432
5323.5083496091	0.7505426407
5325.4371569822	0.6904236078
5327.3659643552	0.7484103441
5329.2947717283	0.6741539240
5331.2235791013	0.8805947900
5333.1523864744	0.9514372945
5335.0811938474	0.6957579851
5337.0100012205	0.6220730543
5338.9388085935	0.5791931748
5340.8676159666	0.7144299746
5342.7964233396	0.7680678964
5344.7252307126	0.6528570056
5346.6540380857	0.7651848197
5348.5828454587	0.7161237001
5350.5116528318	0.6761969924
5352.4404602048	0.6344458461
5354.3692675779	0.7576411963
5356.2980749509	1.0672162771
5358.2268823240	0.6577543616
5360.1556896970	0.6413553357
5362.0844970701	0.9044059515
5364.0133044431	0.7234956622
5365.9421118162	0.8567140698
5367.8709191892	0.7388655543
5369.7997265623	0.7103472352
5371.7285339353	0.7604606152
5373.6573413083	0.5783070922
5375.5861486814	0.6865436435
5377.5149560544	0.6858279705
5379.4437634275	0.7378271222
5381.3725708005	0.6745254397
5383.3013781736	0.6114735007
5385.2301855466	0.8021398187
5387.1589929197	0.6507365108
5389.0878002927	0.6670819521
5391.0166076658	0.7800830603
5392.9454150388	0.6828888655
5394.8742224119	0.7788258195
5396.8030297849	0.7659704685
5398.7318371580	0.6929988861
5400.6606445310	0.8887071609
5402.5894519041	0.6785454154
5404.5182592771	0.5683184862
5406.4470666501	0.9262725711
5408.3758740232	0.8116291761
5410.3046813962	0.7504071593
5412.2334887693	0.6404232383
5414.1622961423	0.5943667293
5416.0911035154	0.8504136205
5418.0199108884	0.8014588356
5419.9487182615	0.7610229254
5421.8775256345	0.5245771408
5423.8063330076	0.7422066331
5425.7351403806	1.0539046526
5427.6639477537	0.7106375098
5429.5927551267	0.6912071109
5431.5215624998	0.5937222242
5433.4503698728	0.7782962322
5435.3791772458	0.7108975053
5437.3079846189	0.6634086967
5439.2367919919	0.8965985775
5441.1655993650	0.5166580081
5443.0944067380	0.5529671907
5445.0232141111	0.7092524171
5446.9520214841	0.8297193646
5448.8808288572	0.7301545143
5450.8096362302	0.6423778534
5452.7384436033	0.8208154440
5454.6672509763	0.6367031336
5456.5960583494	0.6181232333
5458.5248657224	0.8211761117
5460.4536730955	1.0195708275
5462.3824804685	0.5852010250
5464.3112878415	0.6518585086
5466.2400952146	1.1403305531
5468.1689025876	0.9627522230
5470.0977099607	0.9351937175
5472.0265173337	0.5913261771
5473.9553247068	0.5799586177
5475.8841320798	0.6552091837
5477.8129394529	0.8201688528
5479.7417468259	1.0850299597
5481.6705541990	0.6285787821
5483.5993615720	0.6760184765
5485.5281689451	0.7937728763
5487.4569763181	0.7120503783
5489.3857836912	0.7304065824
5491.3145910642	0.9223224521
5493.2433984372	0.9064426422
5495.1722058103	0.7405598164
5497.1010131833	0.9851332903
5499.0298205564	0.6332359314
5500.9586279294	0.8204199672
5502.8874353025	1.0517053604
5504.8162426755	0.6877781749
5506.7450500486	0.9173463583
5508.6738574216	0.8150241375
5510.6026647947	0.7397067547
5512.5314721677	0.6951801181
5514.4602795408	0.5659099221
5516.3890869138	0.6693633795
5518.3178942869	0.9583926797
5520.2467016599	0.8708157539
5522.1755090330	0.6185213327
5524.1043164060	0.7911678553
5526.0331237790	0.7738296390
5527.9619311521	0.5651458502
5529.8907385251	0.8435627818
5531.8195458982	0.8728748560
5533.7483532712	0.6859442592
5535.6771606443	0.9286037683
5537.6059680173	1.0226849318
5539.5347753904	0.8436702490
5541.4635827634	0.8763230443
5543.3923901365	0.7712934017
5545.3211975095	0.8033483624
5547.2500048826	0.7538027167
5549.1788122556	0.7768620849
5551.1076196287	0.6587519050
5553.0364270017	0.5681449771
5554.9652343747	0.8404557705
5556.8940417478	0.6159564853
5558.8228491208	0.7137890458
5560.7516564939	0.9005001783
5562.6804638669	0.6327487826
5564.6092712400	0.8213586807
5566.5380786130	0.9627559781
5568.4668859861	0.8776590824
5570.3956933591	0.9038793445
5572.3245007322	0.7838478684
5574.2533081052	0.6007130742
5576.1821154783	0.6576062441
5578.1109228513	0.8565911651
5580.0397302244	0.8092095852
5581.9685375974	0.7923504710
5583.8973449704	0.7010543942
5585.8261523435	0.6438841224
5587.7549597165	0.7412940860
5589.6837670896	0.7347108722
5591.6125744626	0.6263190508
5593.5413818357	0.7257918119
5595.4701892087	0.8057875037
5597.3989965818	1.0021038055
5599.3278039548	1.0848109722
5601.2566113279	0.6938778758
5603.1854187009	0.8311011195
5605.1142260740	0.7872709632
5607.0430334470	0.7418081760
5608.9718408201	0.7700650692
5610.9006481931	0.5840653181
5612.8294555661	0.9600310326
5614.7582629392	0.6585769653
5616.6870703122	0.6011727452
5618.6158776853	0.7766134143
5620.5446850583	0.6672654152
5622.4734924314	0.9174367785
5624.4022998044	0.6944308877
5626.3311071775	0.6629893780
5628.2599145505	0.7637311816
5630.1887219236	0.6271185875
5632.1175292966	0.8163328171
5634.0463366697	0.8328230381
5635.9751440427	0.7990229726
5637.9039514158	0.8247622252
5639.8327587888	0.7186039090
5641.7615661619	0.7134535313
5643.6903735349	0.9206063747
5645.6191809079	0.7873312235
5647.5479882810	0.9513651729
5649.4767956540	1.0490746498
5651.4056030271	0.7174515128
5653.3344104001	0.8008156419
5655.2632177732	0.7751044035
5657.1920251462	0.8142629266
5659.1208325193	0.9703552127
5661.0496398923	0.5781382918
5662.9784472654	0.4878189266
5664.9072546384	0.8798916936
5666.8360620115	0.8202244639
5668.7648693845	0.5507967472
5670.6936767576	0.8026111722
5672.6224841306	0.7425909638
5674.5512915036	0.6692660451
5676.4800988767	1.0056786537
5678.4089062497	0.7629728913
5680.3377136228	0.7710748315
5682.2665209958	0.7499575019
5684.1953283689	0.5056117177
5686.1241357419	0.8922453523
5688.0529431150	0.9939656854
5689.9817504880	0.5898423195
5691.9105578611	0.7679455280
5693.8393652341	1.0592895746
5695.7681726072	1.1432976723
5697.6969799802	0.9377763271
5699.6257873533	0.7966018915
5701.5545947263	0.9399530888
5703.4834020993	0.6965106726
5705.4122094724	0.8534922600
5707.3410168454	1.1625229120
5709.2698242185	0.8482106328
5711.1986315915	0.8131513596
5713.1274389646	0.6115661860
5715.0562463376	0.5314986110
5716.9850537107	1.0413491726
5718.9138610837	1.2481437922
5720.8426684568	0.9030837417
5722.7714758298	0.9562185407
5724.7002832029	1.1073008776
5726.6290905759	0.6755439043
5728.5578979490	0.7494394183
5730.4867053220	0.7131710052
5732.4155126950	0.3741368651
5734.3443200681	0.7104381919
5736.2731274411	0.9520986676
5738.2019348142	0.9034757018
5740.1307421872	1.2297284603
5742.0595495603	0.9821341038
5743.9883569333	0.8053016067
5745.9171643064	0.9535859823
5747.8459716794	0.6667523980
5749.7747790525	0.5486187339
5751.7035864255	0.7279467583
5753.6323937986	0.8995519280
5755.5612011716	1.0205106735
5757.4900085447	0.9782790542
5759.4188159177	0.9370650053
5761.3476232907	1.1757481098
5763.2764306638	0.8365709782
5765.2052380368	0.6332404017
5767.1340454099	0.8563577533
5769.0628527829	0.9675231576
5770.9916601560	1.1018613577
5772.9204675290	0.7977539301
5774.8492749021	0.5847200751
5776.7780822751	0.9638187289
5778.7068896482	1.1382895708
5780.6356970212	0.8593046069
5782.5645043943	0.8156053424
5784.4933117673	0.8782122731
5786.4221191404	0.8894633055
5788.3509265134	0.8128843307
5790.2797338865	0.8443325758
5792.2085412595	0.8360124230
5794.1373486325	0.8166173697
5796.0661560056	0.6463052034
5797.9949633786	0.9129365087
5799.9237707517	1.1462028027
5801.8525781247	0.6764364243
5803.7813854978	0.6736639738
5805.7101928708	0.7568714619
5807.6390002439	0.8339700699
5809.5678076169	0.8914052248
5811.4966149900	0.6108984351
5813.4254223630	0.6183964014
5815.3542297361	0.8178605437
5817.2830371091	0.8330844045
5819.2118444822	0.4757133126
5821.1406518552	0.6339073181
5823.0694592282	0.9564135075
5824.9982666013	0.9922630191
5826.9270739743	1.0871372223
5828.8558813474	0.7836051583
5830.7846887204	0.7963923216
5832.7134960935	1.0189940929
5834.6423034665	0.6841529012
5836.5711108396	0.8022747040
5838.4999182126	0.8878940344
5840.4287255857	0.9071707726
5842.3575329587	1.0249913931
5844.2863403318	0.8065931201
5846.2151477048	0.6824437380
5848.1439550779	0.7879692316
5850.0727624509	0.8753755093
5852.0015698239	0.7283467650
5853.9303771970	0.7966829538
5855.8591845700	0.5974349380
5857.7879919431	0.6237130761
5859.7167993161	1.1651573181
5861.6456066892	0.8411190510
5863.5744140622	0.9034399390
5865.5032214353	1.2413313389
5867.4320288083	0.6375489235
5869.3608361814	0.8758015633
5871.2896435544	0.7076374888
5873.2184509275	0.7749429345
5875.1472583005	1.0439485312
5877.0760656736	0.6050343513
5879.0048730466	0.6875960231
5880.9336804196	0.6186801195
5882.8624877927	0.7397443652
5884.7912951657	0.8443809748
5886.7201025388	0.7530375719
5888.6489099118	1.3065254688
5890.5777172849	0.6211904883
5892.5065246579	0.6528449655
5894.4353320310	1.2392830849
5896.3641394040	0.6393889189
5898.2929467771	0.7559541464
5900.2217541501	0.8252785802
5902.1505615232	0.7592784166
5904.0793688962	0.8199579120
5906.0081762693	0.9898478985
5907.9369836423	0.8351869583
5909.8657910154	0.4897260666
5911.7945983884	0.5947690010
5913.7234057614	0.5049175024
5915.6522131345	0.6764590740
5917.5810205075	0.8481086493
5919.5098278806	0.9159947634
5921.4386352536	1.2900526524
5923.3674426267	0.9089462161
5925.2962499997	0.7960175872
5927.2250573728	0.9263667464
5929.1538647458	0.8752322793
5931.0826721189	0.5525549054
5933.0114794919	1.1875324249
5934.9402868650	1.4459718466
5936.8690942380	0.3113136590
5938.7979016111	0.6141772866
5940.7267089841	0.7063549161
5942.6555163571	0.6385338902
5944.5843237302	0.9546872973
5946.5131311032	1.3705154657
5948.4419384763	0.9921646714
5950.3707458493	0.7965091467
5952.2995532224	1.0056524277
5954.2283605954	0.6057524085
5956.1571679685	0.7858642340
5958.0859753415	0.8722119927
5960.0147827146	0.8078734875
5961.9435900876	0.8775828481
5963.8723974607	0.7334606051
5965.8012048337	1.4185217619
5967.7300122068	0.9773442149
5969.6588195798	0.6071498990
5971.5876269528	0.6239368916
5973.5164343259	0.7107962370
5975.4452416989	0.7573540211
5977.3740490720	0.8291293383
5979.3028564450	0.7686505914
5981.2316638181	0.4743274748
5983.1604711911	1.3791072369
5985.0892785642	0.8865357041
5987.0180859372	0.6208291650
5988.9468933103	1.0608824492
5990.8757006833	0.4813562930
5992.8045080564	1.2641308308
5994.7333154294	0.7747846246
5996.6621228025	0.4746013880
5998.5909301755	1.0517994165
6000.5197375485	0.8317493796
