399.2631262207	0.6145961285
401.1919335938	0.2480489314
403.1207409668	0.4388054907
405.0495483398	0.2277345359
406.9783557129	-0.0220687855
408.9071630859	0.3101595640
410.8359704590	0.2722563148
412.7647778320	0.1439755857
414.6935852051	0.4244839847
416.6223925781	0.1728741378
418.5511999512	0.1067547128
420.4800073242	0.2457474768
422.4088146973	0.3208090067
424.3376220703	0.3823972046
426.2664294434	0.1685170531
428.1952368164	0.2971881926
430.1240441895	0.2121005356
432.0528515625	0.2636685669
433.9816589355	0.4607737064
435.9104663086	0.4271709323
437.8392736816	0.3754433990
439.7680810547	0.2762210369
441.6968884277	0.4854500294
443.6256958008	0.2077535987
445.5545031738	0.1752335727
447.4833105469	0.1827840507
449.4121179199	0.2687951326
451.3409252930	0.5960240960
453.2697326660	0.0802267715
455.1985400391	0.4043014348
457.1273474121	0.6093780994
459.0561547852	0.1822296828
460.9849621582	0.3856188655
462.9137695313	0.1115935445
464.8425769043	0.1755702496
466.7713842773	-0.0722285882
468.7001916504	0.3180953264
470.6289990234	0.6538406014
472.5578063965	0.1787517965
474.4866137695	0.6901282668
476.4154211426	0.0465565883
478.3442285156	-0.2593785822
480.2730358887	0.1512238234
482.2018432617	0.2622811198
484.1306506348	1.0639017820
486.0594580078	0.3713956177
487.9882653809	0.2903744280
489.9170727539	1.0250002146
491.8458801270	0.6255499721
493.7746875000	0.4842396379
495.7034948730	0.6426311731
497.6323022461	-0.0096270535
499.5611096191	0.0309583917
501.4899169922	-2.4191675186
503.4187243652	-0.0189211462
505.3475317383	-0.0294276346
507.2763391113	-0.6966474652
509.2051464844	1.5995841026
511.1339538574	0.6122223139
513.0627612305	0.4101116657
514.9915686035	1.2359853983
516.9203759766	0.4052635133
518.8491833496	0.0389316939
520.7779907227	-0.8490834832
522.7067980957	1.0411665440
524.6356054688	2.0105543137
526.5644128418	0.1555439085
528.4932202148	1.2089664936
530.4220275879	0.7663009763
532.3508349609	1.5486227274
534.2796423340	-4.3642840385
536.2084497070	0.1454511285
538.1372570801	2.5969672203
540.0660644531	2.5969672203
541.9948718262	0.8729185462
543.9236791992	0.8075710535
545.8524865723	0.6575726271
547.7812939453	0.9217712879
549.7101013184	0.1112720072
551.6389086914	-0.2719073594
553.5677160645	0.7724544406
555.4965234375	-3.2778496742
557.4253308105	-3.6472823620
559.3541381836	0.0218040310
561.2829455566	289.8113098145
563.2117529297	0.2129128128
565.1405603027	0.2752262652
567.0693676758	0.0602876432
568.9981750488	-2.3450832367
570.9269824219	0.8081945777
572.8557897949	0.2121536136
574.7845971680	-1.1011583805
576.7134045410	-0.8155863881
578.6422119141	0.4914772809
580.5710192871	4.7006664276
582.4998266602	-0.0481020026
584.4286340332	3.0028138161
586.3574414063	0.5380722284
588.2862487793	0.0730764568
590.2150561523	1.1716341972
592.1438635254	0.7825207114
594.0726708984	0.3395860195
596.0014782715	0.9093020558
597.9302856445	4.6179838181
599.8590930176	-3.7572197914
601.7879003906	16.7527198792
603.7167077637	1.0946183205
605.6455151367	0.4937661886
607.5743225098	0.5627229810
609.5031298828	3.2245614529
611.4319372559	3.4453365803
613.3607446289	-1.5980896950
615.2895520020	-19.7475795746
617.2183593750	-0.8187398314
619.1471667480	1.4321175814
621.0759741211	-0.3546930254
623.0047814941	0.3510766029
624.9335888672	0.2620396018
626.8623962402	1.0816333294
628.7912036133	0.2943109572
630.7200109863	0.1375733763
632.6488183594	0.3485507071
634.5776257324	0.6001695991
636.5064331055	0.5242478251
638.4352404785	0.5146537423
640.3640478516	0.3481080830
642.2928552246	0.3180463314
644.2216625977	0.7042552233
646.1504699707	0.4801565409
648.0792773438	0.3448749483
650.0080847168	0.3080101311
651.9368920898	0.2147795409
653.8656994629	0.3718235195
655.7945068359	0.4353474677
657.7233142090	0.4390487969
659.6521215820	0.4477077127
661.5809289551	0.4196548462
663.5097363281	0.3922362924
665.4385437012	0.4198979437
667.3673510742	0.3990054727
669.2961584473	0.3849275708
671.2249658203	0.3542457521
673.1537731934	0.3189542592
675.0825805664	0.4218042195
677.0113879395	0.4061754346
678.9401953125	0.3981276155
680.8690026855	0.4332578778
682.7978100586	0.4409597516
684.7266174316	0.4067988098
686.6554248047	0.3488513827
688.5842321777	0.5071280003
690.5130395508	0.4426141083
692.4418469238	0.3946124017
694.3706542969	0.4817065001
696.2994616699	0.3928731978
698.2282690430	0.4161000848
700.1570764160	0.4216825664
702.0858837891	0.4179591537
704.0146911621	0.4092557132
705.9434985352	0.3956360519
707.8723059082	0.5384832621
709.8011132813	0.5715279579
711.7299206543	0.4884109199
713.6587280273	0.6027757525
715.5875354004	0.6807975173
717.5163427734	0.3073300123
719.4451501465	0.0888556764
721.3739575195	0.6121372581
723.3027648926	1.4727616310
725.2315722656	-0.0491852798
727.1603796387	0.2471770644
729.0891870117	1.1876904964
731.0179943848	0.4381610453
732.9468017578	0.3728624880
734.8756091309	0.8486222029
736.8044165039	0.1214372069
738.7332238770	1.0045186281
740.6620312500	-2.9227638245
742.5908386230	-5.2878837585
744.5196459961	2.4451441765
746.4484533691	17.6716079712
748.3772607422	0.1956051439
750.3060681152	1.0951458216
752.2348754883	0.5965773463
754.1636828613	0.1942674369
756.0924902344	48.8740806580
758.0212976074	1.0293788910
759.9501049805	0.7416447997
761.8789123535	1.6781710386
763.8077197266	-0.1260370314
765.7365270996	1.4417668581
767.6653344727	0.7189149261
769.5941418457	1.0889647007
771.5229492188	0.8219899535
773.4517565918	1.0446629524
775.3805639648	3.3594102859
777.3093713379	1.1944792271
779.2381787109	1.1716905832
781.1669860840	0.2400086969
783.0957934570	0.8596254587
785.0246008301	3.0434858799
786.9534082031	1.2882854939
788.8822155762	0.7454701662
790.8110229492	0.7941153049
792.7398303223	1.0814512968
794.6686376953	0.9940621257
796.5974450684	0.9154303074
798.5262524414	0.6405491829
800.4550598145	1.0194904804
802.3838671875	0.6156225204
804.3126745605	0.5429031253
806.2414819336	1.4815113544
808.1702893066	0.5278368592
810.0990966797	0.6568027139
812.0279040527	0.7876198292
813.9567114258	0.4958079159
815.8855187988	3.3588874340
817.8143261719	3.0065169334
819.7431335449	1.4616134167
821.6719409180	0.6662299633
823.6007482910	1.0411962271
825.5295556641	1.9838627577
827.4583630371	0.8262642026
829.3871704102	0.7568040490
831.3159777832	0.6171855330
833.2447851563	0.7040773630
835.1735925293	0.7079517841
837.1023999023	0.4198889732
839.0312072754	0.4453741014
840.9600146484	0.7195254564
842.8888220215	0.6403533220
844.8176293945	0.5228382945
846.7464367676	0.4467270076
848.6752441406	0.4897657633
850.6040515137	0.8825249672
852.5328588867	0.7730165124
854.4616662598	0.6864551902
856.3904736328	0.7989967465
858.3192810059	0.5991404057
860.2480883789	1.1997863054
862.1768957520	1.3580664396
864.1057031250	0.3516053557
866.0345104980	1.1721030474
867.9633178711	0.9237250090
869.8921252441	0.5340521336
871.8209326172	1.6565717459
873.7497399902	0.3827721179
875.6785473633	0.9248802066
877.6073547363	2.1172931194
879.5361621094	0.9137489796
881.4649694824	3.4269375801
883.3937768555	0.7990258932
885.3225842285	1.3900858164
887.2513916016	1.3902686834
889.1801989746	0.6600401402
891.1090063477	1.1245830059
893.0378137207	0.3176305592
894.9666210938	0.6380630732
896.8954284668	1.3369536400
898.8242358398	0.6324918866
900.7530432129	1.2086611986
902.6818505859	1.2037483454
904.6106579590	1.0437867641
906.5394653320	0.8803052902
908.4682727051	0.7457464337
910.3970800781	0.6818060875
912.3258874512	1.2629047632
914.2546948242	0.8572717309
916.1835021973	0.6358199716
918.1123095703	1.1397843361
920.0411169434	0.6514586210
921.9699243164	0.4990342855
923.8987316895	0.7065842748
925.8275390625	0.6630762219
927.7563464355	0.9492611885
929.6851538086	0.7900930047
931.6139611816	0.8525342941
933.5427685547	0.7618800998
935.4715759277	0.5358549953
937.4003833008	0.7627405524
939.3291906738	0.6765375733
941.2579980469	0.5787439942
943.1868054199	0.5261188149
945.1156127930	0.4742434621
947.0444201660	0.6090222001
948.9732275391	0.5715915561
950.9020349121	0.6975148320
952.8308422852	0.5630464554
954.7596496582	0.4603883922
956.6884570313	0.6676162481
958.6172644043	0.6575661898
960.5460717773	0.6450674534
962.4748791504	0.5678873658
964.4036865234	0.4950126708
966.3324938965	0.5279096961
968.2613012695	0.5848373175
970.1901086426	0.4181462228
972.1189160156	0.4547538459
974.0477233887	0.5986245871
975.9765307617	0.4484079182
977.9053381348	0.5607922077
979.8341455078	0.5986819863
981.7629528809	0.5208160877
983.6917602539	0.4912816882
985.6205676270	0.4151861966
987.5493750000	0.4818689227
989.4781823730	0.4931212366
991.4069897461	0.4838450253
993.3357971191	0.4905543029
995.2646044922	0.4559762478
997.1934118652	0.4331251383
999.1222192383	0.4151404500
1001.0510266113	0.4493677914
1002.9798339844	0.4825845659
1004.9086413574	0.4556315839
1006.8374487305	0.4428710639
1008.7662561035	0.4353149533
1010.6950634766	0.4211713970
1012.6238708496	0.4457142055
1014.5526782227	0.4392300546
1016.4814855957	0.4376918972
1018.4102929688	0.4456573427
1020.3391003418	0.4231398404
1022.2679077148	0.4401463866
1024.1967150879	0.4396966100
1026.1255224609	0.4341598153
1028.0543298340	0.4301311374
1029.9831372070	0.4252765179
1031.9119445801	0.4399236441
1033.8407519531	0.4258084893
1035.7695593262	0.4280839562
1037.6983666992	0.4256859720
1039.6271740723	0.4232466817
1041.5559814453	0.4421245754
1043.4847888184	0.4314921796
1045.4135961914	0.4237597883
1047.3424035645	0.4369914234
1049.2712109375	0.4326257110
1051.2000183105	0.4163709283
1053.1288256836	0.4320560992
1055.0576330566	0.4258024096
1056.9864404297	0.4212773144
1058.9152478027	0.4395825565
1060.8440551758	0.4181003869
1062.7728625488	0.4197209775
1064.7016699219	0.4299615920
1066.6304772949	0.4182460308
1068.5592846680	0.4210646152
1070.4880920410	0.4374456406
1072.4168994141	0.4308606684
1074.3457067871	0.4106130600
1076.2745141602	0.4215146005
1078.2033215332	0.4425931573
1080.1321289062	0.4468776286
1082.0609362793	0.4138244092
1083.9897436523	0.4246238470
1085.9185510254	0.4356282651
1087.8473583984	0.4247232676
1089.7761657715	0.4455051720
1091.7049731445	0.4268370271
1093.6337805176	0.4286136031
1095.5625878906	0.4454191029
1097.4913952637	0.4580617249
1099.4202026367	0.4316070378
1101.3490100098	0.4500487745
1103.2778173828	0.4994852543
1105.2066247559	0.4541215301
1107.1354321289	0.4690194130
1109.0642395019	0.4398790002
1110.9930468750	0.4373306930
1112.9218542480	0.4752509594
1114.8506616211	0.4519022405
1116.7794689941	0.4957060814
1118.7082763672	0.4682236910
1120.6370837402	0.4276390970
1122.5658911133	0.4518097639
1124.4946984863	0.4596162438
1126.4235058594	0.4623751938
1128.3523132324	0.4705856740
1130.2811206055	0.4874106050
1132.2099279785	0.4733375609
1134.1387353516	0.4559772611
1136.0675427246	0.4630882442
1137.9963500977	0.4555749595
1139.9251574707	0.4425152540
1141.8539648437	0.4643483162
1143.7827722168	0.4499009550
1145.7115795898	0.4330399036
1147.6403869629	0.4363999069
1149.5691943359	0.4193287790
1151.4980017090	0.4209488928
1153.4268090820	0.4197382927
1155.3556164551	0.4318479300
1157.2844238281	0.4236594737
1159.2132312012	0.4026640654
1161.1420385742	0.4190041721
1163.0708459473	0.4215717614
1164.9996533203	0.4304079413
1166.9284606934	0.4330282211
1168.8572680664	0.4149605334
1170.7860754394	0.4017620981
1172.7148828125	0.3990846574
1174.6436901855	0.4138894379
1176.5724975586	0.4171762764
1178.5013049316	0.4011174738
1180.4301123047	0.3987686336
1182.3589196777	0.4129835367
1184.2877270508	0.4070778489
1186.2165344238	0.4040960073
1188.1453417969	0.4129974544
1190.0741491699	0.4057444036
1192.0029565430	0.3966483176
1193.9317639160	0.3978051245
1195.8605712891	0.4063354731
1197.7893786621	0.4038157463
1199.7181860351	0.3963277936
1201.6469934082	0.3917665482
1203.5758007812	0.3964037001
1205.5046081543	0.4075406790
1207.4334155273	0.4015738368
1209.3622229004	0.4004188180
1211.2910302734	0.4022763073
1213.2198376465	0.3991806805
1215.1486450195	0.3999611437
1217.0774523926	0.3935800493
1219.0062597656	0.3945092261
1220.9350671387	0.3972779512
1222.8638745117	0.3957106173
1224.7926818848	0.3961200714
1226.7214892578	0.3921438754
1228.6502966308	0.3980473876
1230.5791040039	0.3979026377
1232.5079113769	0.3879809082
1234.4367187500	0.3942276835
1236.3655261230	0.3966590166
1238.2943334961	0.3931194544
1240.2231408691	0.3913014829
1242.1519482422	0.3890193999
1244.0807556152	0.3932696581
1246.0095629883	0.3881668746
1247.9383703613	0.3893711865
1249.8671777344	0.4000532627
1251.7959851074	0.3945106268
1253.7247924805	0.3891298175
1255.6535998535	0.3933016658
1257.5824072266	0.3997035921
1259.5112145996	0.3980453908
1261.4400219726	0.3959713578
1263.3688293457	0.4005137086
1265.2976367187	0.3993864954
1267.2264440918	0.3974290490
1269.1552514648	0.3943180144
1271.0840588379	0.3943063021
1273.0128662109	0.3981664479
1274.9416735840	0.3957554698
1276.8704809570	0.3918251395
1278.7992883301	0.3950295448
1280.7280957031	0.3998837471
1282.6569030762	0.3958938718
1284.5857104492	0.3956350088
1286.5145178223	0.3960666060
1288.4433251953	0.3958079517
1290.3721325683	0.4040543437
1292.3009399414	0.4014151990
1294.2297473144	0.3953191638
1296.1585546875	0.4023912251
1298.0873620605	0.4046263993
1300.0161694336	0.3999158740
1301.9449768066	0.4002507329
1303.8737841797	0.4001744092
1305.8025915527	0.3996475339
1307.7313989258	0.3939477205
1309.6602062988	0.3918368816
1311.5890136719	0.3998323679
1313.5178210449	0.3976403177
1315.4466284180	0.3961149752
1317.3754357910	0.3959699869
1319.3042431640	0.3948106170
1321.2330505371	0.3975829780
1323.1618579101	0.3951852620
1325.0906652832	0.3967667818
1327.0194726562	0.3945079744
1328.9482800293	0.3911790550
1330.8770874023	0.3923943341
1332.8058947754	0.3913150728
1334.7347021484	0.3935185671
1336.6635095215	0.3912453949
1338.5923168945	0.3909387589
1340.5211242676	0.3926509023
1342.4499316406	0.3902278841
1344.3787390137	0.3910215795
1346.3075463867	0.3898454607
1348.2363537597	0.3875722289
1350.1651611328	0.3889122605
1352.0939685058	0.3922072053
1354.0227758789	0.3883849680
1355.9515832519	0.3867022991
1357.8803906250	0.3923361003
1359.8091979980	0.3925547600
1361.7380053711	0.3912012577
1363.6668127441	0.3857390285
1365.5956201172	0.3879021108
1367.5244274902	0.3890253007
1369.4532348633	0.3860767186
1371.3820422363	0.3972953260
1373.3108496094	0.3957657218
1375.2396569824	0.3923230171
1377.1684643555	0.3935081661
1379.0972717285	0.3878205419
1381.0260791015	0.3887080550
1382.9548864746	0.3836732209
1384.8836938476	0.3864918351
1386.8125012207	0.3951257169
1388.7413085937	0.3914712667
1390.6701159668	0.3883911073
1392.5989233398	0.3907330632
1394.5277307129	0.3907944858
1396.4565380859	0.3861686289
1398.3853454590	0.3906747103
1400.3141528320	0.3907672167
1402.2429602051	0.3873822093
1404.1717675781	0.3875849843
1406.1005749512	0.3873146772
1408.0293823242	0.3928147554
1409.9581896972	0.3857329786
1411.8869970703	0.3855793178
1413.8158044433	0.3961305320
1415.7446118164	0.3912904561
1417.6734191894	0.3903248608
1419.6022265625	0.3891523778
1421.5310339355	0.3891984224
1423.4598413086	0.3944310248
1425.3886486816	0.3915178776
1427.3174560547	0.3927677870
1429.2462634277	0.3931039572
1431.1750708008	0.3892036676
1433.1038781738	0.3957147002
1435.0326855469	0.3968145251
1436.9614929199	0.3934794366
1438.8903002929	0.4013037980
1440.8191076660	0.4029982984
1442.7479150390	0.3988035619
1444.6767224121	0.3976014555
1446.6055297851	0.3997189105
1448.5343371582	0.3956021369
1450.4631445312	0.3913521767
1452.3919519043	0.3965896964
1454.3207592773	0.3975880742
1456.2495666504	0.4028617442
1458.1783740234	0.3974544108
1460.1071813965	0.3875236213
1462.0359887695	0.3908372521
1463.9647961426	0.3885155618
1465.8936035156	0.3874012828
1467.8224108886	0.3875381351
1469.7512182617	0.3836095631
1471.6800256347	0.3855817318
1473.6088330078	0.3854568899
1475.5376403808	0.3810749948
1477.4664477539	0.3833946586
1479.3952551269	0.3845731914
1481.3240625000	0.3796621561
1483.2528698730	0.3792106509
1485.1816772461	0.3787028193
1487.1104846191	0.3760964870
1489.0392919922	0.3757044375
1490.9680993652	0.3749121428
1492.8969067383	0.3760713637
1494.8257141113	0.3758928478
1496.7545214843	0.3740972877
1498.6833288574	0.3740078211
1500.6121362304	0.3725669682
1502.5409436035	0.3726691902
1504.4697509765	0.3745071292
1506.3985583496	0.3698490262
1508.3273657226	0.3691740632
1510.2561730957	0.3723757267
1512.1849804687	0.3703420162
1514.1137878418	0.3720509708
1516.0425952148	0.3705873191
1517.9714025879	0.3707468212
1519.9002099609	0.3727900982
1521.8290173340	0.3642292917
1523.7578247070	0.3655403852
1525.6866320801	0.3675369918
1527.6154394531	0.3681158125
1529.5442468261	0.3699974418
1531.4730541992	0.3669478595
1533.4018615722	0.3669154644
1535.3306689453	0.3657689393
1537.2594763183	0.3664356768
1539.1882836914	0.3654109836
1541.1170910644	0.3619962037
1543.0458984375	0.3651305139
1544.9747058105	0.3654091656
1546.9035131836	0.3647229970
1548.8323205566	0.3646716475
1550.7611279297	0.3657056391
1552.6899353027	0.3639539480
1554.6187426758	0.3614291847
1556.5475500488	0.3647481501
1558.4763574218	0.3638558388
1560.4051647949	0.3586901426
1562.3339721679	0.3623870015
1564.2627795410	0.3665553629
1566.1915869140	0.3639750481
1568.1203942871	0.3619526327
1570.0492016601	0.3593006432
1571.9780090332	0.3600708246
1573.9068164062	0.3626410067
1575.8356237793	0.3585919738
1577.7644311523	0.3584955335
1579.6932385254	0.3574486673
1581.6220458984	0.3576448858
1583.5508532715	0.3602980971
1585.4796606445	0.3573302627
1587.4084680175	0.3578588963
1589.3372753906	0.3593419492
1591.2660827636	0.3587611914
1593.1948901367	0.3576151133
1595.1236975097	0.3577555418
1597.0525048828	0.3562607765
1598.9813122558	0.3568383753
1600.9101196289	0.3598088622
1602.8389270019	0.3559395969
1604.7677343750	0.3559437394
1606.6965417480	0.3556278646
1608.6253491211	0.3554648161
1610.5541564941	0.3573280275
1612.4829638672	0.3566518724
1614.4117712402	0.3597870469
1616.3405786132	0.3564416170
1618.2693859863	0.3563025594
1620.1981933593	0.3614640534
1622.1270007324	0.3612287045
1624.0558081054	0.3630841672
1625.9846154785	0.3656099737
1627.9134228515	0.3676060736
1629.8422302246	0.3686706424
1631.7710375976	0.3690315783
1633.6998449707	0.3725797832
1635.6286523437	0.3760110438
1637.5574597168	0.3763851523
1639.4862670898	0.3805911839
1641.4150744629	0.3830366731
1643.3438818359	0.3861815333
1645.2726892090	0.3917202055
1647.2014965820	0.3915320635
1649.1303039550	0.3952682912
1651.0591113281	0.3969921470
1652.9879187011	0.3973969519
1654.9167260742	0.4015094042
1656.8455334472	0.4039156139
1658.7743408203	0.4082744122
1660.7031481933	0.4084072113
1662.6319555664	0.4101747870
1664.5607629394	0.4132025838
1666.4895703125	0.4147382081
1668.4183776855	0.4140293896
1670.3471850586	0.4130738676
1672.2759924316	0.4180764556
1674.2047998047	0.4177839756
1676.1336071777	0.4176013768
1678.0624145507	0.4201501906
1679.9912219238	0.4209324121
1681.9200292968	0.4229906499
1683.8488366699	0.4205406308
1685.7776440429	0.4191400409
1687.7064514160	0.4224810600
1689.6352587890	0.4224701226
1691.5640661621	0.4223909974
1693.4928735351	0.4224798679
1695.4216809082	0.4200889766
1697.3504882812	0.4210954607
1699.2792956543	0.4201664925
1701.2081030273	0.4194084108
1703.1369104004	0.4226324856
1705.0657177734	0.4206163287
1706.9945251464	0.4186259210
1708.9233325195	0.4197868705
1710.8521398925	0.4196041226
1712.7809472656	0.4172144234
1714.7097546386	0.4159931839
1716.6385620117	0.4171656966
1718.5673693847	0.4159937501
1720.4961767578	0.4162419140
1722.4249841308	0.4152245522
1724.3537915039	0.4150553942
1726.2825988769	0.4141944051
1728.2114062500	0.4108493328
1730.1402136230	0.4129846692
1732.0690209961	0.4098594487
1733.9978283691	0.4062069952
1735.9266357421	0.4100208879
1737.8554431152	0.4077158570
1739.7842504882	0.4070643783
1741.7130578613	0.4087939858
1743.6418652343	0.4058558941
1745.5706726074	0.4037565887
1747.4994799804	0.4074264467
1749.4282873535	0.4064904451
1751.3570947265	0.4026651978
1753.2859020996	0.4034327567
1755.2147094726	0.4007841051
1757.1435168457	0.4018086791
1759.0723242187	0.4044180810
1761.0011315918	0.4019454122
1762.9299389648	0.4020141959
1764.8587463379	0.4024068415
1766.7875537109	0.4019044936
1768.7163610839	0.4009159803
1770.6451684570	0.3993312716
1772.5739758300	0.3995289207
1774.5027832031	0.4004918337
1776.4315905761	0.3989663124
1778.3603979492	0.3978147507
1780.2892053222	0.3977825940
1782.2180126953	0.3967111409
1784.1468200683	0.3972285390
1786.0756274414	0.3964803815
1788.0044348144	0.3962512910
1789.9332421875	0.3961319327
1791.8620495605	0.3942315876
1793.7908569336	0.3951285183
1795.7196643066	0.3936384618
1797.6484716796	0.3936981559
1799.5772790527	0.3946684003
1801.5060864257	0.3926559687
1803.4348937988	0.3937797546
1805.3637011718	0.3925875127
1807.2925085449	0.3919272125
1809.2213159179	0.3937757313
1811.1501232910	0.3923243880
1813.0789306640	0.3901564777
1815.0077380371	0.3901947737
1816.9365454101	0.3924278915
1818.8653527832	0.3908005357
1820.7941601562	0.3906449080
1822.7229675293	0.3930034935
1824.6517749023	0.3890821040
1826.5805822753	0.3887637556
1828.5093896484	0.3910030127
1830.4381970214	0.3887021542
1832.3670043945	0.3889747262
1834.2958117675	0.3900088966
1836.2246191406	0.3892707229
1838.1534265136	0.3896319270
1840.0822338867	0.3893751502
1842.0110412597	0.3875616491
1843.9398486328	0.3857792914
1845.8686560058	0.3862773478
1847.7974633789	0.3889494836
1849.7262707519	0.3876090348
1851.6550781250	0.3857957423
1853.5838854980	0.3882225156
1855.5126928710	0.3866163194
1857.4415002441	0.3870035708
1859.3703076171	0.3882813752
1861.2991149902	0.3839181960
1863.2279223632	0.3840991855
1865.1567297363	0.3846834302
1867.0855371093	0.3835819066
1869.0143444824	0.3849945366
1870.9431518554	0.3844536245
1872.8719592285	0.3833100796
1874.8007666015	0.3830662072
1876.7295739746	0.3849916756
1878.6583813476	0.3851986527
1880.5871887207	0.3835870922
1882.5159960937	0.3833972812
1884.4448034667	0.3818467855
1886.3736108398	0.3836652339
1888.3024182128	0.3843070269
1890.2312255859	0.3825600743
1892.1600329589	0.3837793171
1894.0888403320	0.3815816045
1896.0176477050	0.3813283443
1897.9464550781	0.3824076355
1899.8752624511	0.3810218871
1901.8040698242	0.3814265430
1903.7328771972	0.3811312318
1905.6616845703	0.3813088536
1907.5904919433	0.3809408545
1909.5192993164	0.3824460208
1911.4481066894	0.3816407621
1913.3769140625	0.3779213130
1915.3057214355	0.3812161386
1917.2345288085	0.3811964691
1919.1633361816	0.3794339299
1921.0921435546	0.3809662759
1923.0209509277	0.3804084957
1924.9497583007	0.3806743920
1926.8785656738	0.3794772625
1928.8073730468	0.3791039884
1930.7361804199	0.3797472417
1932.6649877929	0.3798439801
1934.5937951660	0.3791527450
1936.5226025390	0.3785780370
1938.4514099121	0.3812604845
1940.3802172851	0.3804359138
1942.3090246582	0.3786119223
1944.2378320312	0.3794980347
1946.1666394042	0.3798941672
1948.0954467773	0.3795756102
1950.0242541503	0.3785993457
1951.9530615234	0.3798742294
1953.8818688964	0.3795088828
1955.8106762695	0.3777678311
1957.7394836425	0.3791437149
1959.6682910156	0.3783433139
1961.5970983886	0.3773038089
1963.5259057617	0.3793137968
1965.4547131347	0.3771983683
1967.3835205078	0.3758195639
1969.3123278808	0.3781817555
1971.2411352539	0.3762951791
1973.1699426269	0.3764617443
1975.0987499999	0.3781461120
1977.0275573730	0.3767791688
1978.9563647460	0.3758671284
1980.8851721191	0.3749212623
1982.8139794921	0.3757492900
1984.7427868652	0.3768047392
1986.6715942382	0.3776893318
1988.6004016113	0.3777715564
1990.5292089843	0.3765585423
1992.4580163574	0.3758394122
1994.3868237304	0.3741767406
1996.3156311035	0.3744149208
1998.2444384765	0.3737697601
2000.1732458496	0.3741253316
2002.1020532226	0.3782830834
2004.0308605956	0.3767273426
2005.9596679687	0.3740753531
2007.8884753417	0.3758012354
2009.8172827148	0.3760431707
2011.7460900878	0.3757754564
2013.6748974609	0.3740118742
2015.6037048339	0.3737108409
2017.5325122070	0.3772934973
2019.4613195800	0.3747357428
2021.3901269531	0.3736225963
2023.3189343261	0.3770123124
2025.2477416992	0.3749166429
2027.1765490722	0.3744365573
2029.1053564453	0.3756528795
2031.0341638183	0.3745343089
2032.9629711914	0.3721913993
2034.8917785644	0.3728494644
2036.8205859374	0.3769154251
2038.7493933105	0.3761816919
2040.6782006835	0.3750472367
2042.6070080566	0.3740598559
2044.5358154296	0.3727319241
2046.4646228027	0.3746557534
2048.3934301757	0.3759180903
2050.3222375488	0.3755387366
2052.2510449218	0.3735511005
2054.1798522949	0.3728163242
2056.1086596679	0.3738472462
2058.0374670410	0.3756568730
2059.9662744140	0.3747172654
2061.8950817871	0.3728978038
2063.8238891601	0.3762266040
2065.7526965331	0.3760283887
2067.6815039062	0.3738354445
2069.6103112792	0.3733316958
2071.5391186523	0.3728220761
2073.4679260253	0.3737840950
2075.3967333984	0.3722395897
2077.3255407714	0.3723535240
2079.2543481445	0.3745526075
2081.1831555175	0.3748355508
2083.1119628906	0.3728231490
2085.0407702636	0.3707577586
2086.9695776367	0.3730235398
2088.8983850097	0.3743831217
2090.8271923828	0.3745183945
2092.7559997558	0.3756409883
2094.6848071288	0.3742182851
2096.6136145019	0.3736964166
2098.5424218749	0.3746602833
2100.4712292480	0.3721082807
2102.4000366210	0.3723808527
2104.3288439941	0.3753797710
2106.2576513671	0.3732668757
2108.1864587402	0.3742537200
2110.1152661132	0.3746746182
2112.0440734863	0.3709992170
2113.9728808593	0.3730188310
2115.9016882324	0.3747917116
2117.8304956054	0.3738214672
2119.7593029785	0.3719297349
2121.6881103515	0.3706670105
2123.6169177245	0.3729447722
2125.5457250976	0.3734425008
2127.4745324706	0.3726580441
2129.4033398437	0.3731690347
2131.3321472167	0.3717214167
2133.2609545898	0.3698918521
2135.1897619628	0.3724951446
2137.1185693359	0.3749972880
2139.0473767089	0.3739915192
2140.9761840820	0.3731997311
2142.9049914550	0.3733084202
2144.8337988281	0.3737324178
2146.7626062011	0.3723577559
2148.6914135742	0.3717599809
2150.6202209472	0.3749392629
2152.5490283203	0.3759365678
2154.4778356933	0.3721418977
2156.4066430663	0.3708124459
2158.3354504394	0.3727475405
2160.2642578124	0.3731420934
2162.1930651855	0.3721301854
2164.1218725585	0.3708265126
2166.0506799316	0.3734818995
2167.9794873046	0.3734964132
2169.9082946777	0.3720534146
2171.8371020507	0.3738526702
2173.7659094238	0.3700632751
2175.6947167968	0.3718280792
2177.6235241699	0.3729844093
2179.5523315429	0.3688152134
2181.4811389160	0.3725741506
2183.4099462890	0.3719614446
2185.3387536620	0.3715491593
2187.2675610351	0.3736561537
2189.1963684081	0.3711263239
2191.1251757812	0.3722322583
2193.0539831542	0.3717012703
2194.9827905273	0.3702184260
2196.9115979003	0.3719784021
2198.8404052734	0.3721846044
2200.7692126464	0.3729887903
2202.6980200195	0.3729973137
2204.6268273925	0.3717826307
2206.5556347656	0.3723001182
2208.4844421386	0.3715220094
2210.4132495117	0.3722434044
2212.3420568847	0.3730597198
2214.2708642577	0.3713785410
2216.1996716308	0.3708543479
2218.1284790038	0.3699454367
2220.0572863769	0.3717455566
2221.9860937499	0.3718896806
2223.9149011230	0.3715183139
2225.8437084960	0.3738814592
2227.7725158691	0.3715853989
2229.7013232421	0.3727452159
2231.6301306152	0.3725102246
2233.5589379882	0.3686150610
2235.4877453613	0.3720299602
2237.4165527343	0.3736472726
2239.3453601074	0.3698769808
2241.2741674804	0.3692345321
2243.2029748534	0.3710488081
2245.1317822265	0.3693205714
2247.0605895995	0.3683716953
2248.9893969726	0.3694806397
2250.9182043456	0.3699502349
2252.8470117187	0.3695668280
2254.7758190917	0.3673461974
2256.7046264648	0.3682027757
2258.6334338378	0.3686557710
2260.5622412109	0.3685363233
2262.4910485839	0.3697237670
2264.4198559570	0.3687090278
2266.3486633300	0.3688909411
2268.2774707031	0.3691881597
2270.2062780761	0.3693306744
2272.1350854491	0.3693712652
2274.0638928222	0.3696555197
2275.9927001952	0.3709557354
2277.9215075683	0.3692831099
2279.8503149413	0.3693681955
2281.7791223144	0.3705939949
2283.7079296874	0.3677801192
2285.6367370605	0.3682567775
2287.5655444335	0.3690577149
2289.4943518066	0.3681879342
2291.4231591796	0.3710355759
2293.3519665527	0.3714534342
2295.2807739257	0.3707189560
2297.2095812988	0.3690071106
2299.1383886718	0.3671558797
2301.0671960449	0.3688576519
2302.9960034179	0.3703697622
2304.9248107909	0.3691779375
2306.8536181640	0.3657724857
2308.7824255370	0.3684431016
2310.7112329101	0.3675441742
2312.6400402831	0.3647145927
2314.5688476562	0.3678241074
2316.4976550292	0.3661359549
2318.4264624023	0.3678040802
2320.3552697753	0.3683424294
2322.2840771484	0.3678629100
2324.2128845214	0.3681086302
2326.1416918945	0.3672369123
2328.0704992675	0.3687695265
2329.9993066406	0.3653990328
2331.9281140136	0.3676431477
2333.8569213866	0.3658577502
2335.7857287597	0.3646705449
2337.7145361327	0.3686006367
2339.6433435058	0.3654134572
2341.5721508788	0.3671698868
2343.5009582519	0.3662572205
2345.4297656249	0.3683296144
2347.3585729980	0.3677262068
2349.2873803710	0.3651022017
2351.2161877441	0.3683595955
2353.1449951171	0.3630339503
2355.0738024902	0.3652569056
2357.0026098632	0.3690567315
2358.9314172363	0.3653919399
2360.8602246093	0.3637103438
2362.7890319823	0.3654848933
2364.7178393554	0.3690843880
2366.6466467284	0.3644200861
2368.5754541015	0.3650522530
2370.5042614745	0.3672498465
2372.4330688476	0.3639997840
2374.3618762206	0.3652710021
2376.2906835937	0.3679554760
2378.2194909667	0.3661703467
2380.1482983398	0.3634323776
2382.0771057128	0.3634062111
2384.0059130859	0.3605311811
2385.9347204589	0.3609187901
2387.8635278320	0.3611816168
2389.7923352050	0.3613348305
2391.7211425780	0.3650148511
2393.6499499511	0.3627077043
2395.5787573241	0.3632134497
2397.5075646972	0.3635769486
2399.4363720702	0.3625070751
2401.3651794433	0.3648464084
2403.2939868163	0.3641667366
2405.2227941894	0.3642100096
2407.1516015624	0.3627960980
2409.0804089355	0.3613712490
2411.0092163085	0.3627530336
2412.9380236816	0.3622217476
2414.8668310546	0.3620575070
2416.7956384277	0.3629160523
2418.7244458007	0.3621152937
2420.6532531738	0.3623900414
2422.5820605468	0.3632685542
2424.5108679198	0.3600921929
2426.4396752929	0.3594543338
2428.3684826659	0.3605446517
2430.2972900390	0.3598109484
2432.2260974120	0.3624606133
2434.1549047851	0.3614026606
2436.0837121581	0.3601560891
2438.0125195312	0.3640584648
2439.9413269042	0.3633422256
2441.8701342773	0.3605911136
2443.7989416503	0.3594873846
2445.7277490234	0.3614687622
2447.6565563964	0.3632273972
2449.5853637695	0.3599071801
2451.5141711425	0.3614149094
2453.4429785155	0.3639229834
2455.3717858886	0.3606126904
2457.3005932616	0.3603921533
2459.2294006347	0.3623760939
2461.1582080077	0.3603764176
2463.0870153808	0.3595709205
2465.0158227538	0.3614490032
2466.9446301269	0.3607275784
2468.8734374999	0.3604602218
2470.8022448730	0.3598166704
2472.7310522460	0.3596514463
2474.6598596191	0.3605265021
2476.5886669921	0.3610911071
2478.5174743652	0.3614502549
2480.4462817382	0.3588874638
2482.3750891112	0.3612075746
2484.3038964843	0.3611692786
2486.2327038573	0.3589484096
2488.1615112304	0.3596491218
2490.0903186034	0.3581634760
2492.0191259765	0.3617543578
2493.9479333495	0.3586910665
2495.8767407226	0.3573970795
2497.8055480956	0.3613595366
2499.7343554687	0.3576593697
2501.6631628417	0.3598501682
2503.5919702148	0.3597266674
2505.5207775878	0.3565159440
2507.4495849609	0.3575195670
2509.3783923339	0.3593032658
2511.3071997069	0.3588336110
2513.2360070800	0.3566701412
2515.1648144530	0.3589984775
2517.0936218261	0.3581779599
2519.0224291991	0.3594229817
2520.9512365722	0.3606190085
2522.8800439452	0.3572087586
2524.8088513183	0.3582985103
2526.7376586913	0.3585345447
2528.6664660644	0.3579996824
2530.5952734374	0.3571665287
2532.5240808105	0.3583115339
2534.4528881835	0.3588732481
2536.3816955566	0.3550134599
2538.3105029296	0.3565973938
2540.2393103027	0.3579232991
2542.1681176757	0.3550570309
2544.0969250487	0.3572253287
2546.0257324218	0.3600791097
2547.9545397948	0.3574150503
2549.8833471679	0.3553753495
2551.8121545409	0.3579702377
2553.7409619140	0.3593934476
2555.6697692870	0.3565423489
2557.5985766601	0.3573766947
2559.5273840331	0.3587113619
2561.4561914062	0.3571939468
2563.3849987792	0.3575393260
2565.3138061523	0.3553941250
2567.2426135253	0.3575339615
2569.1714208984	0.3572098911
2571.1002282714	0.3513100445
2573.0290356444	0.3552646935
2574.9578430175	0.3576466441
2576.8866503905	0.3555088043
2578.8154577636	0.3568908572
2580.7442651366	0.3558285534
2582.6730725097	0.3517048955
2584.6018798827	0.3531387746
2586.5306872558	0.3559057713
2588.4594946288	0.3520470560
2590.3883020019	0.3512491882
2592.3171093749	0.3533132374
2594.2459167480	0.3534772098
2596.1747241210	0.3541888297
2598.1035314941	0.3548659980
2600.0323388671	0.3528674245
2601.9611462401	0.3524433374
2603.8899536132	0.3537120223
2605.8187609862	0.3535479307
2607.7475683593	0.3565514982
2609.6763757323	0.3537225127
2611.6051831054	0.3521127999
2613.5339904784	0.3531187177
2615.4627978515	0.3496158123
2617.3916052245	0.3546908498
2619.3204125976	0.3548642099
2621.2492199706	0.3504245877
2623.1780273437	0.3511032462
2625.1068347167	0.3507630229
2627.0356420898	0.3521052301
2628.9644494628	0.3519827724
2630.8932568358	0.3515519202
2632.8220642089	0.3515556753
2634.7508715819	0.3513365686
2636.6796789550	0.3517554104
2638.6084863280	0.3523918986
2640.5372937011	0.3513918519
2642.4661010741	0.3507881165
2644.3949084472	0.3521928489
2646.3237158202	0.3492398560
2648.2525231933	0.3506091535
2650.1813305663	0.3533740342
2652.1101379394	0.3507188857
2654.0389453124	0.3518760502
2655.9677526855	0.3528132141
2657.8965600585	0.3511701226
2659.8253674315	0.3505775332
2661.7541748046	0.3497861326
2663.6829821776	0.3496715724
2665.6117895507	0.3512963355
2667.5405969237	0.3509227037
2669.4694042968	0.3499562442
2671.3982116698	0.3506000042
2673.3270190429	0.3505117595
2675.2558264159	0.3479077816
2677.1846337890	0.3476763070
2679.1134411620	0.3510372937
2681.0422485351	0.3479410112
2682.9710559081	0.3491407037
2684.8998632812	0.3500554562
2686.8286706542	0.3447348475
2688.7574780273	0.3488182425
2690.6862854003	0.3478275537
2692.6150927733	0.3450669944
2694.5439001464	0.3479489088
2696.4727075194	0.3458874822
2698.4015148925	0.3441158533
2700.3303222655	0.3457697630
2702.2591296386	0.3487535119
2704.1879370116	0.3489553630
2706.1167443847	0.3463408947
2708.0455517577	0.3430625200
2709.9743591308	0.3443390131
2711.9031665038	0.3443915546
2713.8319738769	0.3448700905
2715.7607812499	0.3496542871
2717.6895886230	0.3465203643
2719.6183959960	0.3460430503
2721.5472033690	0.3456107676
2723.4760107421	0.3443132639
2725.4048181151	0.3456236720
2727.3336254882	0.3444611430
2729.2624328612	0.3472294211
2731.1912402343	0.3424313962
2733.1200476073	0.3410673440
2735.0488549804	0.3461053371
2736.9776623534	0.3460013866
2738.9064697265	0.3465470076
2740.8352770995	0.3421034515
2742.7640844726	0.3425762951
2744.6928918456	0.3452290893
2746.6216992187	0.3412697911
2748.5505065917	0.3426102698
2750.4793139647	0.3445258439
2752.4081213378	0.3418771625
2754.3369287108	0.3423772752
2756.2657360839	0.3396260440
2758.1945434569	0.3390763998
2760.1233508300	0.3451920748
2762.0521582030	0.3407142758
2763.9809655761	0.3431264758
2765.9097729491	0.3459244668
2767.8385803222	0.3397462666
2769.7673876952	0.3431399167
2771.6961950683	0.3411776423
2773.6250024413	0.3404838443
2775.5538098144	0.3403802514
2777.4826171874	0.3390084803
2779.4114245604	0.3419650793
2781.3402319335	0.3397207856
2783.2690393065	0.3424619734
2785.1978466796	0.3409221470
2787.1266540526	0.3367236555
2789.0554614257	0.3384384811
2790.9842687987	0.3385064006
2792.9130761718	0.3368963301
2794.8418835448	0.3360283077
2796.7706909179	0.3381572664
2798.6994982909	0.3381893635
2800.6283056640	0.3386429548
2802.5571130370	0.3376139998
2804.4859204101	0.3386535048
2806.4147277831	0.3382852674
2808.3435351562	0.3356463313
2810.2723425292	0.3381538093
2812.2011499022	0.3355669975
2814.1299572753	0.3368167579
2816.0587646483	0.3363905847
2817.9875720214	0.3348183930
2819.9163793944	0.3336679041
2821.8451867675	0.3301731646
2823.7739941405	0.3382460177
2825.7028015136	0.3381601572
2827.6316088866	0.3352125883
2829.5604162597	0.3326531053
2831.4892236327	0.3308960497
2833.4180310058	0.3385343552
2835.3468383788	0.3342376947
2837.2756457519	0.3308538198
2839.2044531249	0.3311600685
2841.1332604979	0.3299584091
2843.0620678710	0.3335143328
2844.9908752440	0.3341069520
2846.9196826171	0.3326670527
2848.8484899901	0.3315615058
2850.7772973632	0.3322508037
2852.7061047362	0.3330847025
2854.6349121093	0.3339637816
2856.5637194823	0.3315446377
2858.4925268554	0.3313234448
2860.4213342284	0.3312527835
2862.3501416015	0.3300341666
2864.2789489745	0.3338440955
2866.2077563476	0.3321266770
2868.1365637206	0.3333787918
2870.0653710936	0.3312501609
2871.9941784667	0.3298377097
2873.9229858397	0.3331373334
2875.8517932128	0.3263410926
2877.7806005858	0.3290941119
2879.7094079589	0.3293849826
2881.6382153319	0.3270613849
2883.5670227050	0.3324178457
2885.4958300780	0.3296238780
2887.4246374511	0.3291588724
2889.3534448241	0.3284186125
2891.2822521972	0.3251923621
2893.2110595702	0.3261611462
2895.1398669433	0.3274681866
2897.0686743163	0.3266369104
2898.9974816893	0.3276264071
2900.9262890624	0.3287784457
2902.8550964354	0.3228024244
2904.7839038085	0.3229265511
2906.7127111815	0.3254439831
2908.6415185546	0.3249164522
2910.5703259276	0.3283514380
2912.4991333007	0.3254438639
2914.4279406737	0.3235164285
2916.3567480468	0.3241675496
2918.2855554198	0.3211695254
2920.2143627929	0.3251949847
2922.1431701659	0.3272601366
2924.0719775390	0.3235075474
2926.0007849120	0.3216647804
2927.9295922851	0.3209814727
2929.8583996581	0.3227951825
2931.7872070311	0.3227203190
2933.7160144042	0.3226873279
2935.6448217772	0.3235609531
2937.5736291503	0.3222407699
2939.5024365233	0.3216963708
2941.4312438964	0.3218578696
2943.3600512694	0.3228287399
2945.2888586425	0.3218076229
2947.2176660155	0.3207347095
2949.1464733886	0.3203039765
2951.0752807616	0.3208025098
2953.0040881347	0.3204852045
2954.9328955077	0.3199900091
2956.8617028808	0.3219109178
2958.7905102538	0.3191607296
2960.7193176268	0.3217086494
2962.6481249999	0.3204923272
2964.5769323729	0.3166849911
2966.5057397460	0.3205203414
2968.4345471190	0.3140643239
2970.3633544921	0.3156571388
2972.2921618651	0.3201754093
2974.2209692382	0.3169954121
2976.1497766112	0.3177770376
2978.0785839843	0.3183673620
2980.0073913573	0.3234317601
2981.9361987304	0.3189518154
2983.8650061034	0.3145024776
2985.7938134765	0.3187285364
2987.7226208495	0.3156180680
2989.6514282225	0.3139612973
2991.5802355956	0.3138252497
2993.5090429686	0.3134110272
2995.4378503417	0.3130541444
2997.3666577147	0.3149223030
2999.2954650878	0.3168304861
3001.2242724608	0.3121154010
3003.1530798339	0.3115948737
3005.0818872069	0.3132751584
3007.0106945800	0.3129092455
3008.9395019530	0.3138233423
3010.8683093261	0.3113325834
3012.7971166991	0.3094394803
3014.7259240722	0.3112951815
3016.6547314452	0.3143149018
3018.5835388182	0.3166111112
3020.5123461913	0.3130793869
3022.4411535643	0.3105728030
3024.3699609374	0.3106293678
3026.2987683104	0.3083454370
3028.2275756835	0.3079822659
3030.1563830565	0.3093419075
3032.0851904296	0.3110905290
3034.0139978026	0.3081492782
3035.9428051757	0.3089030683
3037.8716125487	0.3124256134
3039.8004199218	0.3092780709
3041.7292272948	0.3092083037
3043.6580346679	0.3049599230
3045.5868420409	0.3043330610
3047.5156494139	0.3103253841
3049.4444567870	0.3075920045
3051.3732641600	0.3047179282
3053.3020715331	0.3056317866
3055.2308789061	0.3076328933
3057.1596862792	0.3067401052
3059.0884936522	0.3057310879
3061.0173010253	0.3057428002
3062.9461083983	0.3035894036
3064.8749157714	0.3036460876
3066.8037231444	0.3049479127
3068.7325305175	0.3031482697
3070.6613378905	0.3005633950
3072.5901452636	0.3033067286
3074.5189526366	0.3038381338
3076.4477600097	0.3055637181
3078.3765673827	0.3022686541
3080.3053747557	0.2950964272
3082.2341821288	0.3031800687
3084.1629895018	0.3033494949
3086.0917968749	0.3007712364
3088.0206042479	0.3029485345
3089.9494116210	0.3011690676
3091.8782189940	0.3029458225
3093.8070263671	0.2957440019
3095.7358337401	0.2962976098
3097.6646411132	0.3019810915
3099.5934484862	0.2999362946
3101.5222558593	0.3032449484
3103.4510632323	0.2998414934
3105.3798706054	0.2968835831
3107.3086779784	0.2984976470
3109.2374853514	0.2986637950
3111.1662927245	0.2987463772
3113.0951000975	0.2957335711
3115.0239074706	0.2985664904
3116.9527148436	0.3002234697
3118.8815222167	0.2987626195
3120.8103295897	0.2993830144
3122.7391369628	0.2961655557
3124.6679443358	0.2958092093
3126.5967517089	0.2962614298
3128.5255590819	0.2941113412
3130.4543664550	0.2943860292
3132.3831738280	0.2951457500
3134.3119812011	0.2943970561
3136.2407885741	0.2972389758
3138.1695959471	0.3016406298
3140.0984033202	0.2976905107
3142.0272106932	0.2959375381
3143.9560180663	0.2985616624
3145.8848254393	0.2987120748
3147.8136328124	0.2987825274
3149.7424401854	0.2970854640
3151.6712475585	0.2964253724
3153.6000549315	0.2962133288
3155.5288623046	0.2994962633
3157.4576696776	0.2979445755
3159.3864770507	0.2944076359
3161.3152844237	0.2978883088
3163.2440917968	0.2981953919
3165.1728991698	0.3024156988
3167.1017065428	0.2965689898
3169.0305139159	0.2951835990
3170.9593212889	0.3046848178
3172.8881286620	0.2965770364
3174.8169360350	0.3017782569
3176.7457434081	0.3066577017
3178.6745507811	0.2984701395
3180.6033581542	0.2996387780
3182.5321655272	0.2978967726
3184.4609729003	0.3004499972
3186.3897802733	0.3033095598
3188.3185876464	0.2996627688
3190.2473950194	0.2979508638
3192.1762023925	0.2996685505
3194.1050097655	0.3007704616
3196.0338171386	0.2995759845
3197.9626245116	0.3035930693
3199.8914318846	0.3070744872
3201.8202392577	0.3048201203
3203.7490466307	0.3015231192
3205.6778540038	0.3017502129
3207.6066613768	0.3034963608
3209.5354687499	0.3074664474
3211.4642761229	0.3076009452
3213.3930834960	0.3045829237
3215.3218908690	0.3108008504
3217.2506982421	0.3119551539
3219.1795056151	0.3102378547
3221.1083129882	0.3075881898
3223.0371203612	0.3068108559
3224.9659277343	0.3155823946
3226.8947351073	0.3114507198
3228.8235424803	0.3081731498
3230.7523498534	0.3139954805
3232.6811572264	0.3176707327
3234.6099645995	0.3185935020
3236.5387719725	0.3089705706
3238.4675793456	0.3085404932
3240.3963867186	0.3161478341
3242.3251940917	0.3154973388
3244.2540014647	0.3178576529
3246.1828088378	0.3180077374
3248.1116162108	0.3165087402
3250.0404235839	0.3240448534
3251.9692309569	0.3255111575
3253.8980383300	0.3203500211
3255.8268457030	0.3229618371
3257.7556530760	0.3231730461
3259.6844604491	0.3194795251
3261.6132678221	0.3228720725
3263.5420751952	0.3260129988
3265.4708825682	0.3225672543
3267.3996899413	0.3249743283
3269.3284973143	0.3302444816
3271.2573046874	0.3254201114
3273.1861120604	0.3280415237
3275.1149194335	0.3351015151
3277.0437268065	0.3322398067
3278.9725341796	0.3335062861
3280.9013415526	0.3334139884
3282.8301489257	0.3355324864
3284.7589562987	0.3400131762
3286.6877636717	0.3356901407
3288.6165710448	0.3394922018
3290.5453784178	0.3363074362
3292.4741857909	0.3311839104
3294.4029931639	0.3412324190
3296.3318005370	0.3393912315
3298.2606079100	0.3385244608
3300.1894152831	0.3406219482
3302.1182226561	0.3368631303
3304.0470300292	0.3390261829
3305.9758374022	0.3397193849
3307.9046447753	0.3429172635
3309.8334521483	0.3432711959
3311.7622595214	0.3433664739
3313.6910668944	0.3480336368
3315.6198742675	0.3470614254
3317.5486816405	0.3467800915
3319.4774890135	0.3481343687
3321.4062963866	0.3513836563
3323.3351037596	0.3530334830
3325.2639111327	0.3522953987
3327.1927185057	0.3518399596
3329.1215258788	0.3532586992
3331.0503332518	0.3576876223
3332.9791406249	0.3570569456
3334.9079479979	0.3563661873
3336.8367553710	0.3563072085
3338.7655627440	0.3590146303
3340.6943701171	0.3619276881
3342.6231774901	0.3625103831
3344.5519848632	0.3652690351
3346.4807922362	0.3623165488
3348.4095996092	0.3648792207
3350.3384069823	0.3663783967
3352.2672143553	0.3645294309
3354.1960217284	0.3653923869
3356.1248291014	0.3645508289
3358.0536364745	0.3737153411
3359.9824438475	0.3696851432
3361.9112512206	0.3668479025
3363.8400585936	0.3785207868
3365.7688659667	0.3761272132
3367.6976733397	0.3782483637
3369.6264807128	0.3839959800
3371.5552880858	0.3885082603
3373.4840954589	0.3848591149
3375.4129028319	0.3806594908
3377.3417102049	0.3932232559
3379.2705175780	0.3904732466
3381.1993249510	0.3876274824
3383.1281323241	0.3914711177
3385.0569396971	0.3927778304
3386.9857470702	0.3975199163
3388.9145544432	0.3919450939
3390.8433618163	0.3971840739
3392.7721691893	0.4010902643
3394.7009765624	0.4017805755
3396.6297839354	0.4099035561
3398.5585913085	0.4025926888
3400.4873986815	0.4061842859
3402.4162060546	0.4141496420
3404.3450134276	0.4117459953
3406.2738208006	0.4180883765
3408.2026281737	0.4231187701
3410.1314355467	0.4208639264
3412.0602429198	0.4209827781
3413.9890502928	0.4295903742
3415.9178576659	0.4300736189
3417.8466650389	0.4218830466
3419.7754724120	0.4250177443
3421.7042797850	0.4337100685
3423.6330871581	0.4348239005
3425.5618945311	0.4319748580
3427.4907019042	0.4366614521
3429.4195092772	0.4422204494
3431.3483166503	0.4415526092
3433.2771240233	0.4415341914
3435.2059313963	0.4460396469
3437.1347387694	0.4486912787
3439.0635461424	0.4492580295
3440.9923535155	0.4533017576
3442.9211608885	0.4533597529
3444.8499682616	0.4559374154
3446.7787756346	0.4588880837
3448.7075830077	0.4588980973
3450.6363903807	0.4643252194
3452.5651977538	0.4608752728
3454.4940051268	0.4601690769
3456.4228124999	0.4675048590
3458.3516198729	0.4663849473
3460.2804272460	0.4696056545
3462.2092346190	0.4704662859
3464.1380419921	0.4669100344
3466.0668493651	0.4749493301
3467.9956567381	0.4779284298
3469.9244641112	0.4782819748
3471.8532714842	0.4816262424
3473.7820788573	0.4775814116
3475.7108862303	0.4788967371
3477.6396936034	0.4824656844
3479.5685009764	0.4879495502
3481.4973083495	0.4903168380
3483.4261157225	0.4814912677
3485.3549230956	0.4848585725
3487.2837304686	0.4893127680
3489.2125378417	0.4898431003
3491.1413452147	0.4980487525
3493.0701525878	0.4975486994
3494.9989599608	0.4937551916
3496.9277673338	0.4985032678
3498.8565747069	0.5038583279
3500.7853820799	0.5011066794
3502.7141894530	0.5001288056
3504.6429968260	0.5062085390
3506.5718041991	0.5058487058
3508.5006115721	0.5088834167
3510.4294189452	0.5130469799
3512.3582263182	0.5023611784
3514.2870336913	0.5039952993
3516.2158410643	0.5151746869
3518.1446484374	0.5131537318
3520.0734558104	0.5153043270
3522.0022631835	0.5135133862
3523.9310705565	0.5102508068
3525.8598779295	0.5150030851
3527.7886853026	0.5155422091
3529.7174926756	0.5204618573
3531.6463000487	0.5227593780
3533.5751074217	0.5203813314
3535.5039147948	0.5162732005
3537.4327221678	0.5182662010
3539.3615295409	0.5273283124
3541.2903369139	0.5212599039
3543.2191442870	0.5189514756
3545.1479516600	0.5227849483
3547.0767590331	0.5186414719
3549.0055664061	0.5175713301
3550.9343737792	0.5203041434
3552.8631811522	0.5264835954
3554.7919885252	0.5251408219
3556.7207958983	0.5207223296
3558.6496032713	0.5294627547
3560.5784106444	0.5283035636
3562.5072180174	0.5183566809
3564.4360253905	0.5267767906
3566.3648327635	0.5234694481
3568.2936401366	0.5174099207
3570.2224475096	0.5284772515
3572.1512548827	0.5264630318
3574.0800622557	0.5279496908
3576.0088696288	0.5308352113
3577.9376770018	0.5318198204
3579.8664843749	0.5327785611
3581.7952917479	0.5253538489
3583.7240991210	0.5278873444
3585.6529064940	0.5271356702
3587.5817138670	0.5240510702
3589.5105212401	0.5268426538
3591.4393286131	0.5263354182
3593.3681359862	0.5272613764
3595.2969433592	0.5313665867
3597.2257507323	0.5332450867
3599.1545581053	0.5263660550
3601.0833654784	0.5240423083
3603.0121728514	0.5234678984
3604.9409802245	0.5232627392
3606.8697875975	0.5279863477
3608.7985949706	0.5258853436
3610.7274023436	0.5206974149
3612.6562097167	0.5224858522
3614.5850170897	0.5274142623
3616.5138244627	0.5253427625
3618.4426318358	0.5243678689
3620.3714392088	0.5247673392
3622.3002465819	0.5230733156
3624.2290539549	0.5246921778
3626.1578613280	0.5303134322
3628.0866687010	0.5283011794
3630.0154760741	0.5190095901
3631.9442834471	0.5247253776
3633.8730908202	0.5196120143
3635.8018981932	0.5176894665
3637.7307055663	0.5223401785
3639.6595129393	0.5182514787
3641.5883203124	0.5246364474
3643.5171276854	0.5237935185
3645.4459350584	0.5233274698
3647.3747424315	0.5208904147
3649.3035498045	0.5126373172
3651.2323571776	0.5170097351
3653.1611645506	0.5223187804
3655.0899719237	0.5183984041
3657.0187792967	0.5089813471
3658.9475866698	0.5194914937
3660.8763940428	0.5193133354
3662.8052014159	0.5179409981
3664.7340087889	0.5167668462
3666.6628161620	0.5048492551
3668.5916235350	0.5125069022
3670.5204309081	0.5035958290
3672.4492382811	0.5062876940
3674.3780456541	0.5066519380
3676.3068530272	0.4906432927
3678.2356604002	0.5021526814
3680.1644677733	0.4972307384
3682.0932751463	0.4998219907
3684.0220825194	0.5011904836
3685.9508898924	0.4960200787
3687.8796972655	0.4969241619
3689.8085046385	0.4888777733
3691.7373120116	0.4904934764
3693.6661193846	0.4839928448
3695.5949267577	0.4851071835
3697.5237341307	0.4869210720
3699.4525415038	0.4804355800
3701.3813488768	0.4795650840
3703.3101562499	0.4730071425
3705.2389636229	0.4731763005
3707.1677709959	0.4700349867
3709.0965783690	0.4714999199
3711.0253857420	0.4726389647
3712.9541931151	0.4651935399
3714.8830004881	0.4706065953
3716.8118078612	0.4724158645
3718.7406152342	0.4697305560
3720.6694226073	0.4662755132
3722.5982299803	0.4642558992
3724.5270373534	0.4669651985
3726.4558447264	0.4644739330
3728.3846520995	0.4609502554
3730.3134594725	0.4630870819
3732.2422668456	0.4573241770
3734.1710742186	0.4474625587
3736.0998815916	0.4534604847
3738.0286889647	0.4529610276
3739.9574963377	0.4489793181
3741.8863037108	0.4544578493
3743.8151110838	0.4492914379
3745.7439184569	0.4482883513
3747.6727258299	0.4544061422
3749.6015332030	0.4454888999
3751.5303405760	0.4409100115
3753.4591479491	0.4483545721
3755.3879553221	0.4412251413
3757.3167626952	0.4376357794
3759.2455700682	0.4465942085
3761.1743774413	0.4473821819
3763.1031848143	0.4450704157
3765.0319921873	0.4468398392
3766.9607995604	0.4443098605
3768.8896069334	0.4334846139
3770.8184143065	0.4323283136
3772.7472216795	0.4401845932
3774.6760290526	0.4370050430
3776.6048364256	0.4385291934
3778.5336437987	0.4389101267
3780.4624511717	0.4370081723
3782.3912585448	0.4389586151
3784.3200659178	0.4312063158
3786.2488732909	0.4306676686
3788.1776806639	0.4326898456
3790.1064880370	0.4286590517
3792.0352954100	0.4329270720
3793.9641027830	0.4379401803
3795.8929101561	0.4353172481
3797.8217175291	0.4330318272
3799.7505249022	0.4316091239
3801.6793322752	0.4200975001
3803.6081396483	0.4272052646
3805.5369470213	0.4359911978
3807.4657543944	0.4263167083
3809.3945617674	0.4283917844
3811.3233691405	0.4296643138
3813.2521765135	0.4332115352
3815.1809838866	0.4341868460
3817.1097912596	0.4198435545
3819.0385986327	0.4278807044
3820.9674060057	0.4331329763
3822.8962133787	0.4278155267
3824.8250207518	0.4293920398
3826.7538281248	0.4286092222
3828.6826354979	0.4254469573
3830.6114428709	0.4229224026
3832.5402502440	0.4306804836
3834.4690576170	0.4285845459
3836.3978649901	0.4242804348
3838.3266723631	0.4234390557
3840.2554797362	0.4125226736
3842.1842871092	0.4219655693
3844.1130944823	0.4254068136
3846.0419018553	0.4199978113
3847.9707092284	0.4286019802
3849.8995166014	0.4241594374
3851.8283239745	0.4195740223
3853.7571313475	0.4184087217
3855.6859387205	0.4149587154
3857.6147460936	0.4217411578
3859.5435534666	0.4247856140
3861.4723608397	0.4237380624
3863.4011682127	0.4229476750
3865.3299755858	0.4176387787
3867.2587829588	0.4134654999
3869.1875903319	0.4169514775
3871.1163977049	0.4189896882
3873.0452050780	0.4174734056
3874.9740124510	0.4210490584
3876.9028198241	0.4187447131
3878.8316271971	0.4194952846
3880.7604345702	0.4202264845
3882.6892419432	0.4115031064
3884.6180493162	0.4170992970
3886.5468566893	0.4208594263
3888.4756640623	0.4129492640
3890.4044714354	0.4150145054
3892.3332788084	0.4184571505
3894.2620861815	0.4164971709
3896.1908935545	0.4144048989
3898.1197009276	0.4197438955
3900.0485083006	0.4152539074
3901.9773156737	0.4061122537
3903.9061230467	0.4197384715
3905.8349304198	0.4183084369
3907.7637377928	0.4135202169
3909.6925451659	0.4207722545
3911.6213525389	0.4140217602
3913.5501599119	0.4147290885
3915.4789672850	0.4149632454
3917.4077746580	0.4107581973
3919.3365820311	0.4138084352
3921.2653894041	0.4111004174
3923.1941967772	0.4085382223
3925.1230041502	0.4063035846
3927.0518115233	0.4071886837
3928.9806188963	0.4063547254
3930.9094262694	0.4086027145
3932.8382336424	0.4151660800
3934.7670410155	0.4087650776
3936.6958483885	0.4070567787
3938.6246557616	0.4085145891
3940.5534631346	0.4080416560
3942.4822705076	0.4089744389
3944.4110778807	0.4061956108
3946.3398852537	0.4105215073
3948.2686926268	0.4119152427
3950.1974999998	0.4067143202
3952.1263073729	0.4089644849
3954.0551147459	0.4120409787
3955.9839221190	0.4124588072
3957.9127294920	0.4125702977
3959.8415368651	0.4122228920
3961.7703442381	0.4095486701
3963.6991516112	0.4053018391
3965.6279589842	0.4135266244
3967.5567663573	0.4135651588
3969.4855737303	0.4034773707
3971.4143811034	0.4111239910
3973.3431884764	0.4097026587
3975.2719958494	0.4066275656
3977.2008032225	0.4051531553
3979.1296105955	0.4024337828
3981.0584179686	0.4113098979
3982.9872253416	0.4025987983
3984.9160327147	0.4004416168
3986.8448400877	0.4058979750
3988.7736474608	0.4084428251
3990.7024548338	0.4130086005
3992.6312622069	0.4059100449
3994.5600695799	0.4017333984
3996.4888769530	0.3975564241
3998.4176843260	0.4046003520
4000.3464916991	0.4055786133
4002.2752990721	0.4086338580
4004.2041064451	0.4134480059
4006.1329138182	0.4014104605
4008.0617211912	0.4127829075
4009.9905285643	0.4125210345
4011.9193359373	0.4114206135
4013.8481433104	0.4104602933
4015.7769506834	0.3994621038
4017.7057580565	0.4123788476
4019.6345654295	0.4151921868
4021.5633728026	0.4130197763
4023.4921801756	0.3998963535
4025.4209875487	0.3975556195
4027.3497949217	0.4054369330
4029.2786022948	0.3990129232
4031.2074096678	0.4019456208
4033.1362170408	0.3993867934
4035.0650244139	0.4030611813
4036.9938317869	0.3978698552
4038.9226391600	0.3982628286
4040.8514465330	0.4030617177
4042.7802539061	0.4002939761
4044.7090612791	0.4074560702
4046.6378686522	0.3984883130
4048.5666760252	0.4049797356
4050.4954833983	0.4026996195
4052.4242907713	0.3972826004
4054.3530981444	0.4008322060
4056.2819055174	0.3907545507
4058.2107128905	0.4018405080
4060.1395202635	0.4003475308
4062.0683276365	0.4013533890
4063.9971350096	0.4036670923
4065.9259423826	0.3969023228
4067.8547497557	0.4008255899
4069.7835571287	0.3921825588
4071.7123645018	0.3962431550
4073.6411718748	0.4033928216
4075.5699792479	0.4009232223
4077.4987866209	0.4021587968
4079.4275939940	0.4039128125
4081.3564013670	0.4037714005
4083.2852087401	0.4015063643
4085.2140161131	0.3973463774
4087.1428234862	0.3936782479
4089.0716308592	0.3939782083
4091.0004382323	0.3934634924
4092.9292456053	0.4033165276
4094.8580529783	0.4045896530
4096.7868603514	0.3992582858
4098.7156677244	0.3922831714
4100.6444750975	0.3922407329
4102.5732824705	0.4013940096
4104.5020898436	0.3925322592
4106.4308972166	0.4033915699
4108.3597045897	0.3998129070
4110.2885119627	0.3943673968
4112.2173193358	0.4073711932
4114.1461267088	0.3955956995
4116.0749340819	0.4020289779
4118.0037414549	0.3989161849
4119.9325488280	0.3973325789
4121.8613562010	0.4042047262
4123.7901635740	0.3953819275
4125.7189709471	0.3981909156
4127.6477783201	0.3934571445
4129.5765856932	0.3904337585
4131.5053930662	0.3884616494
4133.4342004393	0.3888979554
4135.3630078123	0.3919392228
4137.2918151854	0.3987696767
4139.2206225584	0.4031575918
4141.1494299315	0.3943093121
4143.0782373045	0.4013434052
4145.0070446776	0.3974453509
4146.9358520506	0.3936638236
4148.8646594237	0.3998464346
4150.7934667967	0.3962512016
4152.7222741697	0.3932379186
4154.6510815428	0.3902199566
4156.5798889158	0.3980738223
4158.5086962889	0.3973234892
4160.4375036619	0.3883683980
4162.3663110350	0.3893267512
4164.2951184080	0.3944574893
4166.2239257811	0.3951393664
4168.1527331541	0.3902494907
4170.0815405272	0.3883836269
4172.0103479002	0.3918972909
4173.9391552733	0.3928408623
4175.8679626463	0.3903849721
4177.7967700194	0.4048711360
4179.7255773924	0.4004296660
4181.6543847654	0.3868267834
4183.5831921385	0.4040664732
4185.5119995115	0.4061002135
4187.4408068846	0.3925954700
4189.3696142576	0.3944363892
4191.2984216307	0.4029709995
4193.2272290037	0.3937392533
4195.1560363768	0.3900299370
4197.0848437498	0.3930082023
4199.0136511229	0.3860783279
4200.9424584959	0.3917822540
4202.8712658690	0.3913761377
4204.8000732420	0.3888663352
4206.7288806151	0.3853868246
4208.6576879881	0.3829164803
4210.5864953611	0.3849032223
4212.5153027342	0.3822529018
4214.4441101072	0.3886642754
4216.3729174803	0.3874194622
4218.3017248533	0.3919103444
4220.2305322264	0.3977375627
4222.1593395994	0.3877570331
4224.0881469725	0.3812974393
4226.0169543455	0.3830431998
4227.9457617186	0.3857426643
4229.8745690916	0.3849374652
4231.8033764647	0.3971252143
4233.7321838377	0.3999836445
4235.6609912108	0.3898716271
4237.5897985838	0.3880179524
4239.5186059569	0.3859606981
4241.4474133299	0.3865213990
4243.3762207029	0.3886930943
4245.3050280760	0.3901637197
4247.2338354490	0.3875066936
4249.1626428221	0.3841669261
4251.0914501951	0.3853679299
4253.0202575682	0.3831509948
4254.9490649412	0.3772323430
4256.8778723143	0.3888842762
4258.8066796873	0.3946293592
4260.7354870604	0.3870003223
4262.6642944334	0.3913570046
4264.5931018065	0.3796105087
4266.5219091795	0.3880522251
4268.4507165526	0.3959601820
4270.3795239256	0.3862907588
4272.3083312986	0.3985486329
4274.2371386717	0.3806098998
4276.1659460447	0.3736859262
4278.0947534178	0.3844488859
4280.0235607908	0.3865889907
4281.9523681639	0.3910369277
4283.8811755369	0.3858985007
4285.8099829100	0.3914504945
4287.7387902830	0.3825624585
4289.6675976561	0.3846821189
4291.5964050291	0.3925614655
4293.5252124022	0.3853528202
4295.4540197752	0.3909820914
4297.3828271483	0.3885746896
4299.3116345213	0.3863500953
4301.2404418943	0.3836153150
4303.1692492674	0.3900747001
4305.0980566404	0.3895833492
4307.0268640135	0.3778401315
4308.9556713865	0.3808840513
4310.8844787596	0.3837722838
4312.8132861326	0.3926696777
4314.7420935057	0.3878665268
4316.6709008787	0.3841926455
4318.5997082518	0.3836464882
4320.5285156248	0.3757032454
4322.4573229979	0.3818993568
4324.3861303709	0.3852850497
4326.3149377440	0.3880586326
4328.2437451170	0.3842445612
4330.1725524900	0.3845750690
4332.1013598631	0.3796277642
4334.0301672361	0.3751992285
4335.9589746092	0.3842933476
4337.8877819822	0.3744236529
4339.8165893553	0.3759847879
4341.7453967283	0.3804609478
4343.6742041014	0.3878798783
4345.6030114744	0.3908605278
4347.5318188475	0.3772707582
4349.4606262205	0.3895812333
4351.3894335936	0.3852243721
4353.3182409666	0.3790966868
4355.2470483397	0.3881820142
4357.1758557127	0.3837066889
4359.1046630858	0.3782992959
4361.0334704588	0.3775119781
4362.9622778318	0.3866728544
4364.8910852049	0.3813596964
4366.8198925779	0.3805686831
4368.7486999510	0.3813927770
4370.6775073240	0.3853597939
4372.6063146971	0.3949808478
4374.5351220701	0.3717685342
4376.4639294432	0.3751894236
4378.3927368162	0.3750270009
4380.3215441893	0.3658045530
4382.2503515623	0.3918476105
4384.1791589354	0.3892496824
4386.1079663084	0.3849217296
4388.0367736815	0.3883506060
4389.9655810545	0.3835628927
4391.8943884275	0.3833160996
4393.8231958006	0.3831815720
4395.7520031736	0.3910463154
4397.6808105467	0.3767485619
4399.6096179197	0.3769826293
4401.5384252928	0.3975935578
4403.4672326658	0.3852871060
4405.3960400389	0.3775128424
4407.3248474119	0.3803591132
4409.2536547850	0.3750816584
4411.1824621580	0.3732748628
4413.1112695311	0.3715890944
4415.0400769041	0.3767522573
4416.9688842772	0.3767725229
4418.8976916502	0.3678950667
4420.8264990232	0.3755533695
4422.7553063963	0.3751403093
4424.6841137693	0.3750609756
4426.6129211424	0.3914343119
4428.5417285154	0.3873642683
4430.4705358885	0.3796955049
4432.3993432615	0.3766146302
4434.3281506346	0.3804602623
4436.2569580076	0.3870102167
4438.1857653807	0.3729156256
4440.1145727537	0.3797952235
4442.0433801268	0.3883660138
4443.9721874998	0.3652427793
4445.9009948729	0.3621003330
4447.8298022459	0.3744943142
4449.7586096189	0.3772602677
4451.6874169920	0.3808863461
4453.6162243650	0.3774495423
4455.5450317381	0.3826788664
4457.4738391111	0.3898717165
4459.4026464842	0.3769550920
4461.3314538572	0.3790028691
4463.2602612303	0.3804305494
4465.1890686033	0.3751299977
4467.1178759764	0.3829285502
4469.0466833494	0.3757936060
4470.9754907225	0.3703657389
4472.9042980955	0.3778043985
4474.8331054686	0.3774012029
4476.7619128416	0.3669624031
4478.6907202147	0.3662896454
4480.6195275877	0.3734195828
4482.5483349607	0.3743610978
4484.4771423338	0.3838404417
4486.4059497068	0.3819902241
4488.3347570799	0.3825624883
4490.2635644529	0.3913407922
4492.1923718260	0.3775297999
4494.1211791990	0.3724712729
4496.0499865721	0.3759002090
4497.9787939451	0.3770675957
4499.9076013182	0.3790953457
4501.8364086912	0.3833652437
4503.7652160643	0.3847205937
4505.6940234373	0.3647626042
4507.6228308104	0.3622966409
4509.5516381834	0.3732581735
4511.4804455564	0.3735275567
4513.4092529295	0.3746206462
4515.3380603025	0.3676546216
4517.2668676756	0.3786940277
4519.1956750486	0.3846443295
4521.1244824217	0.3696786165
4523.0532897947	0.3746226132
4524.9820971678	0.3726103604
4526.9109045408	0.3759247065
4528.8397119139	0.3845328391
4530.7685192869	0.3756413162
4532.6973266600	0.3813937008
4534.6261340330	0.3806877434
4536.5549414061	0.3809665740
4538.4837487791	0.3865534961
4540.4125561521	0.3746498823
4542.3413635252	0.3719182909
4544.2701708982	0.3737507761
4546.1989782713	0.3742841184
4548.1277856443	0.3698089719
4550.0565930174	0.3663859069
4551.9854003904	0.3784053028
4553.9142077635	0.3800470233
4555.8430151365	0.3708060980
4557.7718225096	0.3709347844
4559.7006298826	0.3768042028
4561.6294372557	0.3681778908
4563.5582446287	0.3617893457
4565.4870520018	0.3724627495
4567.4158593748	0.3717384636
4569.3446667478	0.3716726601
4571.2734741209	0.3821640611
4573.2022814939	0.3781170249
4575.1310888670	0.3750669360
4577.0598962400	0.3823856115
4578.9887036131	0.3716472089
4580.9175109861	0.3733786047
4582.8463183592	0.3809117377
4584.7751257322	0.3539251089
4586.7039331053	0.3701319098
4588.6327404783	0.3811978400
4590.5615478514	0.3488468826
4592.4903552244	0.3696592152
4594.4191625975	0.3780935407
4596.3479699705	0.3681909740
4598.2767773435	0.3770797849
4600.2055847166	0.3677758276
4602.1343920896	0.3670024276
4604.0631994627	0.3627367616
4605.9920068357	0.3676506579
4607.9208142088	0.3752299845
4609.8496215818	0.3658609390
4611.7784289549	0.3730300963
4613.7072363279	0.3806760311
4615.6360437010	0.3750410676
4617.5648510740	0.3678156435
4619.4936584471	0.3730618060
4621.4224658201	0.3743499517
4623.3512731932	0.3697378337
4625.2800805662	0.3704513013
4627.2088879393	0.3745345473
4629.1376953123	0.3736864030
4631.0665026853	0.3641607761
4632.9953100584	0.3669584692
4634.9241174314	0.3465160429
4636.8529248045	0.3565564454
4638.7817321775	0.3859028816
4640.7105395506	0.3593625724
4642.6393469236	0.3726230562
4644.5681542967	0.3718214631
4646.4969616697	0.3569018543
4648.4257690428	0.3861634731
4650.3545764158	0.3843616247
4652.2833837889	0.3655641973
4654.2121911619	0.3663411438
4656.1409985350	0.3848677278
4658.0698059080	0.3757601678
4659.9986132810	0.3657225370
4661.9274206541	0.3720841110
4663.8562280271	0.3723917603
4665.7850354002	0.3785615265
4667.7138427732	0.3632549345
4669.6426501463	0.3588271439
4671.5714575193	0.3628831208
4673.5002648924	0.3789722025
4675.4290722654	0.3919140697
4677.3578796385	0.3761226237
4679.2866870115	0.3694547117
4681.2154943846	0.3528704643
4683.1443017576	0.3578024805
4685.0731091307	0.3779518008
4687.0019165037	0.3736205697
4688.9307238767	0.3649603128
4690.8595312498	0.3731183410
4692.7883386228	0.3624578118
4694.7171459959	0.3581406772
4696.6459533689	0.3971608877
4698.5747607420	0.3693631887
4700.5035681150	0.3561274409
4702.4323754881	0.3659907579
4704.3611828611	0.3587313592
4706.2899902342	0.3927415907
4708.2187976072	0.3685436249
4710.1476049803	0.3545824587
4712.0764123533	0.3641238511
4714.0052197264	0.3723158538
4715.9340270994	0.3875577748
4717.8628344724	0.3624317348
4719.7916418455	0.3760783076
4721.7204492185	0.3790460825
4723.6492565916	0.3682849407
4725.5780639646	0.3635120988
4727.5068713377	0.3496341109
4729.4356787107	0.3706252873
4731.3644860838	0.3757962286
4733.2932934568	0.3598875403
4735.2221008299	0.3515533507
4737.1509082029	0.3707017303
4739.0797155760	0.3773384690
4741.0085229490	0.3639148474
4742.9373303221	0.3650964499
4744.8661376951	0.3709015846
4746.7949450682	0.3801505566
4748.7237524412	0.3615655303
4750.6525598142	0.3620548546
4752.5813671873	0.3705528677
4754.5101745603	0.3614771068
4756.4389819334	0.3740264177
4758.3677893064	0.3708656728
4760.2965966795	0.3642754853
4762.2254040525	0.3637438715
4764.1542114256	0.3525962830
4766.0830187986	0.3584973812
4768.0118261717	0.3881368041
4769.9406335447	0.3787770271
4771.8694409178	0.3610493243
4773.7982482908	0.3743868768
4775.7270556639	0.3604463339
4777.6558630369	0.3684293628
4779.5846704099	0.3648789227
4781.5134777830	0.3489162028
4783.4422851560	0.3678478003
4785.3710925291	0.3432496786
4787.2998999021	0.3455434740
4789.2287072752	0.3852159381
4791.1575146482	0.3774636984
4793.0863220213	0.3638147712
4795.0151293943	0.3657938242
4796.9439367674	0.3650631905
4798.8727441404	0.3512640595
4800.8015515135	0.3550253808
4802.7303588865	0.3716941178
4804.6591662596	0.3531345427
4806.5879736326	0.3486218750
4808.5167810056	0.3732149899
4810.4455883787	0.3669303656
4812.3743957517	0.3495715857
4814.3032031248	0.3541530371
4816.2320104978	0.3640728295
4818.1608178709	0.3726972640
4820.0896252439	0.3703812659
4822.0184326170	0.3469221592
4823.9472399900	0.3511989117
4825.8760473631	0.3707315326
4827.8048547361	0.3647547960
4829.7336621092	0.3734720051
4831.6624694822	0.3627317846
4833.5912768553	0.3453378081
4835.5200842283	0.3590571880
4837.4488916013	0.3602580726
4839.3776989744	0.3845362365
4841.3065063474	0.3927139342
4843.2353137205	0.3547730744
4845.1641210935	0.3501301706
4847.0929284666	0.3620972037
4849.0217358396	0.3653374612
4850.9505432127	0.3682975173
4852.8793505857	0.3597345650
4854.8081579588	0.3511582911
4856.7369653318	0.3609858751
4858.6657727049	0.3627381623
4860.5945800779	0.3651317954
4862.5233874510	0.3721977770
4864.4521948240	0.3652735054
4866.3810021971	0.3682090938
4868.3098095701	0.3769878745
4870.2386169431	0.3763577342
4872.1674243162	0.3439219594
4874.0962316892	0.3396955729
4876.0250390623	0.3832365274
4877.9538464353	0.3780871034
4879.8826538084	0.3492777944
4881.8114611814	0.3388381302
4883.7402685545	0.3612072766
4885.6690759275	0.3781541884
4887.5978833006	0.3590251505
4889.5266906736	0.3688302636
4891.4554980467	0.3835377991
4893.3843054197	0.3617055118
4895.3131127928	0.3395223916
4897.2419201658	0.3684000671
4899.1707275388	0.3788961172
4901.0995349119	0.3537507951
4903.0283422849	0.3624161482
4904.9571496580	0.3685078025
4906.8859570310	0.3754875064
4908.8147644041	0.3666260540
4910.7435717771	0.3620719314
4912.6723791502	0.3587008119
4914.6011865232	0.3465318978
4916.5299938963	0.3758100271
4918.4588012693	0.3546757996
4920.3876086424	0.3474114537
4922.3164160154	0.3750815988
4924.2452233885	0.3679881990
4926.1740307615	0.3803511560
4928.1028381345	0.3486858904
4930.0316455076	0.3318475783
4931.9604528806	0.3571147621
4933.8892602537	0.3546296358
4935.8180676267	0.3558121026
4937.7468749998	0.3518868387
4939.6756823728	0.3484646380
4941.6044897459	0.3339789212
4943.5332971189	0.3370065689
4945.4621044920	0.3547426164
4947.3909118650	0.3486134708
4949.3197192381	0.3581914008
4951.2485266111	0.3668932319
4953.1773339842	0.3730576038
4955.1061413572	0.3568028510
4957.0349487302	0.3335103691
4958.9637561033	0.3500056565
4960.8925634763	0.3472996354
4962.8213708494	0.3318417966
4964.7501782224	0.3453596830
4966.6789855955	0.3388475180
4968.6077929685	0.3353861272
4970.5366003416	0.3754927218
4972.4654077146	0.3768013418
4974.3942150877	0.3559893370
4976.3230224607	0.3500460386
4978.2518298338	0.3383384645
4980.1806372068	0.3522702157
4982.1094445799	0.3590961099
4984.0382519529	0.3491276205
4985.9670593259	0.3549117744
4987.8958666990	0.3620855510
4989.8246740720	0.3492458165
4991.7534814451	0.3502965569
4993.6822888181	0.3550912440
4995.6110961912	0.3162933290
4997.5399035642	0.3363062143
4999.4687109373	0.3696694672
5001.3975183103	0.3492410779
5003.3263256834	0.3606142104
5005.2551330564	0.3669490516
5007.1839404295	0.3738622963
5009.1127478025	0.3721387088
5011.0415551756	0.3567915857
5012.9703625486	0.3512251377
5014.8991699217	0.3450899720
5016.8279772947	0.3790650070
5018.7567846677	0.3591189384
5020.6855920408	0.3311929405
5022.6143994138	0.3824869990
5024.5432067869	0.3606103957
5026.4720141599	0.3376283050
5028.4008215330	0.3648320735
5030.3296289060	0.3517479897
5032.2584362791	0.3618858457
5034.1872436521	0.3788273036
5036.1160510252	0.3795097172
5038.0448583982	0.3592859507
5039.9736657713	0.3556880355
5041.9024731443	0.3905559182
5043.8312805174	0.3677313924
5045.7600878904	0.3634253740
5047.6888952634	0.3831875324
5049.6177026365	0.3786876202
5051.5465100095	0.3703067303
5053.4753173826	0.3488981724
5055.4041247556	0.3436230719
5057.3329321287	0.3328800201
5059.2617395017	0.3586194217
5061.1905468748	0.3685665429
5063.1193542478	0.3543109596
5065.0481616209	0.3616896868
5066.9769689939	0.3527234793
5068.9057763670	0.3668389320
5070.8345837400	0.3316532671
5072.7633911131	0.3386053443
5074.6921984861	0.3846178055
5076.6210058591	0.3672488332
5078.5498132322	0.3833048046
5080.4786206052	0.3674210012
5082.4074279783	0.3624272048
5084.3362353513	0.3618321121
5086.2650427244	0.3254618645
5088.1938500974	0.3260360062
5090.1226574705	0.3509943485
5092.0514648435	0.3651819527
5093.9802722166	0.3424487412
5095.9090795896	0.3211242557
5097.8378869627	0.3257377446
5099.7666943357	0.3853930831
5101.6955017088	0.3687076867
5103.6243090818	0.3198556304
5105.5531164548	0.3746947944
5107.4819238279	0.3618456125
5109.4107312009	0.3376640081
5111.3395385740	0.3353928328
5113.2683459470	0.3482928574
5115.1971533201	0.3653535843
5117.1259606931	0.3383040726
5119.0547680662	0.3664216697
5120.9835754392	0.3550949991
5122.9123828123	0.3415021002
5124.8411901853	0.3544180393
5126.7699975584	0.3512977958
5128.6988049314	0.3502977788
5130.6276123045	0.3304048479
5132.5564196775	0.3652999103
5134.4852270506	0.3593381643
5136.4140344236	0.3213548064
5138.3428417966	0.3486856520
5140.2716491697	0.3562220037
5142.2004565427	0.3372797072
5144.1292639158	0.3401665092
5146.0580712888	0.3599548936
5147.9868786619	0.3578630686
5149.9156860349	0.3617745936
5151.8444934080	0.3605096638
5153.7733007810	0.3741712868
5155.7021081541	0.3723698556
5157.6309155271	0.3313403130
5159.5597229002	0.3521800041
5161.4885302732	0.3450910747
5163.4173376463	0.3248468935
5165.3461450193	0.3434386849
5167.2749523923	0.3360955119
5169.2037597654	0.3474485874
5171.1325671384	0.3420836031
5173.0613745115	0.3440661430
5174.9901818845	0.3591257334
5176.9189892576	0.3362216055
5178.8477966306	0.3516236544
5180.7766040037	0.3615770638
5182.7054113767	0.3387853205
5184.6342187498	0.3402443528
5186.5630261228	0.3483929932
5188.4918334959	0.3385631740
5190.4206408689	0.3381071091
5192.3494482420	0.3578351438
5194.2782556150	0.3253528774
5196.2070629880	0.3429842591
5198.1358703611	0.3990614712
5200.0646777341	0.3478966355
5201.9934851072	0.3337521851
5203.9222924802	0.3493459821
5205.8510998533	0.3599800766
5207.7799072263	0.3701457381
5209.7087145994	0.3324001729
5211.6375219724	0.3372509480
5213.5663293455	0.3529050648
5215.4951367185	0.3539822102
5217.4239440916	0.3400058448
5219.3527514646	0.3321308196
5221.2815588377	0.3486137688
5223.2103662107	0.3521783352
5225.1391735837	0.3454862535
5227.0679809568	0.3452286422
5228.9967883298	0.3863254488
5230.9255957029	0.3588522077
5232.8544030759	0.3389319479
5234.7832104490	0.3485682905
5236.7120178220	0.3226084411
5238.6408251951	0.3755585849
5240.5696325681	0.3532474339
5242.4984399412	0.3133235276
5244.4272473142	0.3440257907
5246.3560546873	0.3544339538
5248.2848620603	0.3485156596
5250.2136694334	0.3178353012
5252.1424768064	0.3600612283
5254.0712841795	0.3715296984
5256.0000915525	0.3266262114
5257.9288989255	0.3401433527
5259.8577062986	0.3457834423
5261.7865136716	0.3203031421
5263.7153210447	0.3165059388
5265.6441284177	0.3438065350
5267.5729357908	0.3359960020
5269.5017431638	0.3540885150
5271.4305505369	0.3506024182
5273.3593579099	0.3320861161
5275.2881652830	0.3420797884
5277.2169726560	0.3273359239
5279.1457800291	0.3552660942
5281.0745874021	0.3437985778
5283.0033947752	0.3363319933
5284.9322021482	0.3358838260
5286.8610095212	0.3087112606
5288.7898168943	0.3439250886
5290.7186242673	0.3308127820
5292.6474316404	0.3298508227
5294.5762390134	0.3515148461
5296.5050463865	0.3559816778
5298.4338537595	0.3757659495
5300.3626611326	0.3397854865
5302.2914685056	0.3291649222
5304.2202758787	0.3617081046
5306.1490832517	0.3546769321
5308.0778906248	0.3207684457
5310.0066979978	0.3402597010
5311.9355053709	0.3432602286
5313.8643127439	0.3240031898
5315.7931201169	0.3429347277
5317.7219274900	0.3244429231
5319.6507348630	0.3429802656
5321.5795422361	0.3681415915
5323.5083496091	0.3566473722
5325.4371569822	0.3398110867
5327.3659643552	0.3086727262
5329.2947717283	0.3207428455
5331.2235791013	0.3200563490
5333.1523864744	0.3350871205
5335.0811938474	0.3594963849
5337.0100012205	0.3480964899
5338.9388085935	0.3501218855
5340.8676159666	0.3510626256
5342.7964233396	0.3692721426
5344.7252307126	0.3525736034
5346.6540380857	0.3085307479
5348.5828454587	0.3089660704
5350.5116528318	0.3230073452
5352.4404602048	0.3572216928
5354.3692675779	0.3409883678
5356.2980749509	0.2891126573
5358.2268823240	0.3372294009
5360.1556896970	0.3385543823
5362.0844970701	0.2864077091
5364.0133044431	0.3460766375
5365.9421118162	0.3310340941
5367.8709191892	0.3190993667
5369.7997265623	0.3773336411
5371.7285339353	0.3460236192
5373.6573413083	0.3604093194
5375.5861486814	0.3358776569
5377.5149560544	0.3370351493
5379.4437634275	0.3495902419
5381.3725708005	0.3207705617
5383.3013781736	0.3661279082
5385.2301855466	0.3212295771
5387.1589929197	0.3381142914
5389.0878002927	0.3385129869
5391.0166076658	0.2930955291
5392.9454150388	0.3426141441
5394.8742224119	0.3221110106
5396.8030297849	0.3610837758
5398.7318371580	0.3407961130
5400.6606445310	0.3079296947
5402.5894519041	0.3484917283
5404.5182592771	0.3120850027
5406.4470666501	0.3346146047
5408.3758740232	0.3371430039
5410.3046813962	0.3600044549
5412.2334887693	0.3434108496
5414.1622961423	0.2999165356
5416.0911035154	0.3465941548
5418.0199108884	0.3379789591
5419.9487182615	0.3221309483
5421.8775256345	0.3031553328
5423.8063330076	0.3162343502
5425.7351403806	0.3265888691
5427.6639477537	0.3482026160
5429.5927551267	0.3660668731
5431.5215624998	0.2848765254
5433.4503698728	0.2951699495
5435.3791772458	0.3320634961
5437.3079846189	0.3450359702
5439.2367919919	0.3221112192
5441.1655993650	0.3120537996
5443.0944067380	0.3528541028
5445.0232141111	0.3150344491
5446.9520214841	0.3330501020
5448.8808288572	0.3656073511
5450.8096362302	0.3501042724
5452.7384436033	0.3432926238
5454.6672509763	0.3248719871
5456.5960583494	0.3348179162
5458.5248657224	0.3248704076
5460.4536730955	0.3309047222
5462.3824804685	0.3654506803
5464.3112878415	0.3372522295
5466.2400952146	0.3032525778
5468.1689025876	0.3247072101
5470.0977099607	0.3321837187
5472.0265173337	0.3286176622
5473.9553247068	0.3602994978
5475.8841320798	0.3508592248
5477.8129394529	0.3267825842
5479.7417468259	0.3541024029
5481.6705541990	0.3590966165
5483.5993615720	0.3395456672
5485.5281689451	0.3655312359
5487.4569763181	0.3493041992
5489.3857836912	0.3514038026
5491.3145910642	0.3480426371
5493.2433984372	0.2951861620
5495.1722058103	0.3479417264
5497.1010131833	0.3118352592
5499.0298205564	0.2726556063
5500.9586279294	0.3431022763
5502.8874353025	0.3386296928
5504.8162426755	0.3554588258
5506.7450500486	0.3452639878
5508.6738574216	0.3573987186
5510.6026647947	0.3832516372
5512.5314721677	0.3540532589
5514.4602795408	0.3664007783
5516.3890869138	0.3109378815
5518.3178942869	0.3111326098
5520.2467016599	0.3694227636
5522.1755090330	0.3075981140
5524.1043164060	0.2917355895
5526.0331237790	0.3078960478
5527.9619311521	0.3325463831
5529.8907385251	0.3832741976
5531.8195458982	0.3709740043
5533.7483532712	0.3741218150
5535.6771606443	0.3018131852
5537.6059680173	0.2672384977
5539.5347753904	0.3751692176
5541.4635827634	0.3972576857
5543.3923901365	0.3862803876
5545.3211975095	0.3134377003
5547.2500048826	0.3136596680
5549.1788122556	0.3949650824
5551.1076196287	0.3211632371
5553.0364270017	0.3254956901
5554.9652343747	0.3260977566
5556.8940417478	0.2795464993
5558.8228491208	0.3079102635
5560.7516564939	0.3289071620
5562.6804638669	0.3215625584
5564.6092712400	0.2852447331
5566.5380786130	0.3352242410
5568.4668859861	0.3566311300
5570.3956933591	0.3233866990
5572.3245007322	0.3428563774
5574.2533081052	0.3549098074
5576.1821154783	0.3494606614
5578.1109228513	0.3383043408
5580.0397302244	0.3012589514
5581.9685375974	0.3166363239
5583.8973449704	0.3548888564
5585.8261523435	0.2873578966
5587.7549597165	0.3659537137
5589.6837670896	0.4009525180
5591.6125744626	0.2921541333
5593.5413818357	0.3727735281
5595.4701892087	0.3426676393
5597.3989965818	0.3587599993
5599.3278039548	0.4433354437
5601.2566113279	0.3284076154
5603.1854187009	0.3326126635
5605.1142260740	0.3317863941
5607.0430334470	0.2802526951
5608.9718408201	0.3286439478
5610.9006481931	0.3326131105
5612.8294555661	0.3222247362
5614.7582629392	0.3522175550
5616.6870703122	0.3471773863
5618.6158776853	0.3254750669
5620.5446850583	0.2705741227
5622.4734924314	0.2902040184
5624.4022998044	0.3599637151
5626.3311071775	0.3246582448
5628.2599145505	0.3587591946
5630.1887219236	0.3688249886
5632.1175292966	0.3254735768
5634.0463366697	0.3478876650
5635.9751440427	0.3485684395
5637.9039514158	0.3824997842
5639.8327587888	0.3921747506
5641.7615661619	0.3673221767
5643.6903735349	0.3217805326
5645.6191809079	0.3172428608
5647.5479882810	0.3663955629
5649.4767956540	0.3104844689
5651.4056030271	0.3006920815
5653.3344104001	0.3563516736
5655.2632177732	0.3409479558
5657.1920251462	0.3246557415
5659.1208325193	0.3582052290
5661.0496398923	0.3341827691
5662.9784472654	0.3154931664
5664.9072546384	0.3139939308
5666.8360620115	0.2741965353
5668.7648693845	0.3116974235
5670.6936767576	0.3259787560
5672.6224841306	0.3199681044
5674.5512915036	0.3608512282
5676.4800988767	0.3379270136
5678.4089062497	0.3074134290
5680.3377136228	0.3323764801
5682.2665209958	0.3184757531
5684.1953283689	0.3389245868
5686.1241357419	0.4005082548
5688.0529431150	0.3043370247
5689.9817504880	0.3235417902
5691.9105578611	0.3733134866
5693.8393652341	0.3552935719
5695.7681726072	0.3796914220
5697.6969799802	0.2919322848
5699.6257873533	0.3155007362
5701.5545947263	0.3130141199
5703.4834020993	0.3029704988
5705.4122094724	0.3420464098
5707.3410168454	0.2638242245
5709.2698242185	0.3055773675
5711.1986315915	0.3551918864
5713.1274389646	0.3661527336
5715.0562463376	0.3309314847
5716.9850537107	0.2875850201
5718.9138610837	0.3217947483
5720.8426684568	0.2533729672
5722.7714758298	0.2451664954
5724.7002832029	0.3273650408
5726.6290905759	0.3278952837
5728.5578979490	0.2859458923
5730.4867053220	0.2673490644
5732.4155126950	0.2508544624
5734.3443200681	0.2951730192
5736.2731274411	0.3375859261
5738.2019348142	0.3462485373
5740.1307421872	0.3535471261
5742.0595495603	0.3020731211
5743.9883569333	0.3448190987
5745.9171643064	0.3428986967
5747.8459716794	0.2958913445
5749.7747790525	0.3519193232
5751.7035864255	0.3411579132
5753.6323937986	0.2732128203
5755.5612011716	0.2806529403
5757.4900085447	0.3620191514
5759.4188159177	0.3088192940
5761.3476232907	0.3080353737
5763.2764306638	0.3678731322
5765.2052380368	0.2932473123
5767.1340454099	0.2659282684
5769.0628527829	0.2809506059
5770.9916601560	0.3640590608
5772.9204675290	0.3326220512
5774.8492749021	0.2789820433
5776.7780822751	0.2999362648
5778.7068896482	0.2747973800
5780.6356970212	0.3489189148
5782.5645043943	0.3233714998
5784.4933117673	0.3213950396
5786.4221191404	0.3522153199
5788.3509265134	0.3309672773
5790.2797338865	0.3576096594
5792.2085412595	0.3354427516
5794.1373486325	0.2948566675
5796.0661560056	0.2404078245
5797.9949633786	0.2911864817
5799.9237707517	0.3408975601
5801.8525781247	0.3284934759
5803.7813854978	0.3915982544
5805.7101928708	0.3995967209
5807.6390002439	0.3405556381
5809.5678076169	0.3027773798
5811.4966149900	0.3406667411
5813.4254223630	0.3299265206
5815.3542297361	0.3097699583
5817.2830371091	0.2914395034
5819.2118444822	0.3315675855
5821.1406518552	0.4002322853
5823.0694592282	0.2921862900
5824.9982666013	0.2863076627
5826.9270739743	0.2871827781
5828.8558813474	0.2936274409
5830.7846887204	0.3287002444
5832.7134960935	0.3425047398
5834.6423034665	0.4024887681
5836.5711108396	0.2477798462
5838.4999182126	0.2799510658
5840.4287255857	0.3359548748
5842.3575329587	0.2444026768
5844.2863403318	0.3677954376
5846.2151477048	0.2834751904
5848.1439550779	0.2550540566
5850.0727624509	0.2871026695
5852.0015698239	0.2708765864
5853.9303771970	0.3439747393
5855.8591845700	0.2933768630
5857.7879919431	0.3780806959
5859.7167993161	0.3162294924
5861.6456066892	0.2655902505
5863.5744140622	0.3821381032
5865.5032214353	0.2866887450
5867.4320288083	0.3660438657
5869.3608361814	0.3611298501
5871.2896435544	0.2992509902
5873.2184509275	0.3065378964
5875.1472583005	0.2199807465
5877.0760656736	0.3004859686
5879.0048730466	0.3650086522
5880.9336804196	0.3366262317
5882.8624877927	0.3028870821
5884.7912951657	0.3246942461
5886.7201025388	0.3428308666
5888.6489099118	0.3109517992
5890.5777172849	0.3698660731
5892.5065246579	0.3265518248
5894.4353320310	0.2745294273
5896.3641394040	0.2976215184
5898.2929467771	0.3087816536
5900.2217541501	0.2963807285
5902.1505615232	0.2722113431
5904.0793688962	0.3040539622
5906.0081762693	0.3630523086
5907.9369836423	0.3593553603
5909.8657910154	0.2266205400
5911.7945983884	0.2720910907
5913.7234057614	0.3508775830
5915.6522131345	0.3214262724
5917.5810205075	0.2864984870
5919.5098278806	0.2791896164
5921.4386352536	0.4067463577
5923.3674426267	0.3499570787
5925.2962499997	0.3056673706
5927.2250573728	0.3397327662
5929.1538647458	0.2715138495
5931.0826721189	0.3571264744
5933.0114794919	0.3668155074
5934.9402868650	0.3786760867
5936.8690942380	0.3257520199
5938.7979016111	0.2700562477
5940.7267089841	0.3635621965
5942.6555163571	0.3264949322
5944.5843237302	0.3447003067
5946.5131311032	0.3495998383
5948.4419384763	0.3102821410
5950.3707458493	0.3210532665
5952.2995532224	0.2839902341
5954.2283605954	0.2959343791
5956.1571679685	0.3372361958
5958.0859753415	0.2992314994
5960.0147827146	0.2581954896
5961.9435900876	0.2782770991
5963.8723974607	0.2998494506
5965.8012048337	0.3663451672
5967.7300122068	0.3639062941
5969.6588195798	0.3223771155
5971.5876269528	0.3234914541
5973.5164343259	0.3149207532
5975.4452416989	0.3750421107
5977.3740490720	0.3202304840
5979.3028564450	0.3122060895
5981.2316638181	0.3149392307
5983.1604711911	0.2499585152
5985.0892785642	0.3654534221
5987.0180859372	0.2951673269
5988.9468933103	0.2252377123
5990.8757006833	0.3508377075
5992.8045080564	0.3516918719
5994.7333154294	0.2811318934
5996.6621228025	0.2620984316
5998.5909301755	0.2734216452
6000.5197375485	0.2711754441
