399.2631262207	0.0001441435
401.1919335938	0.0003524736
403.1207409668	0.0001192938
405.0495483398	-0.0001531529
406.9783557129	0.0002186628
408.9071630859	0.0000899773
410.8359704590	0.0006412398
412.7647778320	0.0007789622
414.6935852051	0.0004348828
416.6223925781	0.0007391411
418.5511999512	0.0002330582
420.4800073242	0.0003354950
422.4088146973	0.0006117821
424.3376220703	0.0004309621
426.2664294434	0.0005726726
428.1952368164	0.0003140724
430.1240441895	0.0001430097
432.0528515625	0.0004822133
433.9816589355	0.0011098253
435.9104663086	0.0009348454
437.8392736816	0.0003902629
439.7680810547	0.0008014403
441.6968884277	0.0008590473
443.6256958008	0.0005167996
445.5545031738	0.0006364564
447.4833105469	0.0004698224
449.4121179199	0.0001884665
451.3409252930	0.0000651082
453.2697326660	0.0004048944
455.1985400391	0.0007575175
457.1273474121	0.0001648065
459.0561547852	0.0001842488
460.9849621582	0.0003282597
462.9137695313	0.0003642390
464.8425769043	0.0006649904
466.7713842773	-0.0000577384
468.7001916504	-0.0000619887
470.6289990234	0.0001222750
472.5578063965	0.0000778796
474.4866137695	0.0003045714
476.4154211426	-0.0001844755
478.3442285156	-0.0001052704
480.2730358887	0.0003395122
482.2018432617	0.0003126205
484.1306506348	0.0000078740
486.0594580078	0.0002188653
487.9882653809	0.0003271475
489.9170727539	-0.0003199417
491.8458801270	0.0000938964
493.7746875000	0.0003030900
495.7034948730	-0.0000349399
497.6323022461	0.0003043830
499.5611096191	0.0002197234
501.4899169922	-0.0000652871
503.4187243652	-0.0000030284
505.3475317383	0.0000189413
507.2763391113	-0.0000500335
509.2051464844	0.0002901259
511.1339538574	0.0001037840
513.0627612305	0.0000044102
514.9915686035	0.0004802860
516.9203759766	-0.0001570898
518.8491833496	-0.0001199443
520.7779907227	0.0000195285
522.7067980957	0.0003471476
524.6356054688	0.0001041144
526.5644128418	0.0000818375
528.4932202148	0.0002771683
530.4220275879	-0.0004564920
532.3508349609	0.0000167083
534.2796423340	0.0000329566
536.2084497070	-0.0002846232
538.1372570801	0.0003533854
540.0660644531	0.0002560301
541.9948718262	0.0002939681
543.9236791992	0.0004544384
545.8524865723	0.0002574506
547.7812939453	0.0005581204
549.7101013184	0.0004193917
551.6389086914	0.0000069966
553.5677160645	0.0001569515
555.4965234375	0.0000144492
557.4253308105	0.0000502502
559.3541381836	0.0002487165
561.2829455566	0.0001751808
563.2117529297	0.0002538575
565.1405603027	-0.0001202190
567.0693676758	-0.0001160707
568.9981750488	0.0002691105
570.9269824219	0.0000407083
572.8557897949	0.0002936326
574.7845971680	0.0001363289
576.7134045410	-0.0001894361
578.6422119141	0.0003075183
580.5710192871	-0.0000419584
582.4998266602	0.0000387190
584.4286340332	0.0002875311
586.3574414063	-0.0000062993
588.2862487793	0.0000381560
590.2150561523	0.0001800070
592.1438635254	0.0005306840
594.0726708984	0.0000220166
596.0014782715	0.0001491461
597.9302856445	0.0003275446
599.8590930176	0.0000859384
601.7879003906	0.0005973885
603.7167077637	0.0000490272
605.6455151367	-0.0000302244
607.5743225098	0.0001085818
609.5031298828	0.0001302427
611.4319372559	0.0002114300
613.3607446289	0.0001933362
615.2895520020	0.0004069032
617.2183593750	-0.0000975364
619.1471667480	0.0000569154
621.0759741211	-0.0000061822
623.0047814941	0.0002367185
624.9335888672	-0.0000275237
626.8623962402	-0.0001515002
628.7912036133	0.0005898469
630.7200109863	-0.0000196401
632.6488183594	0.0002246254
634.5776257324	0.0003772182
636.5064331055	0.0003324979
638.4352404785	0.0003769295
640.3640478516	0.0006265031
642.2928552246	0.0009279291
644.2216625977	0.0008181665
646.1504699707	0.0007985920
648.0792773438	0.0007631839
650.0080847168	0.0011204932
651.9368920898	0.0011390966
653.8656994629	0.0012924038
655.7945068359	0.0014001464
657.7233142090	0.0011868088
659.6521215820	0.0017552944
661.5809289551	0.0014366775
663.5097363281	0.0013126396
665.4385437012	0.0018694492
667.3673510742	0.0015119868
669.2961584473	0.0016382954
671.2249658203	0.0019990448
673.1537731934	0.0018533883
675.0825805664	0.0020571214
677.0113879395	0.0023731263
678.9401953125	0.0021233347
680.8690026855	0.0020408896
682.7978100586	0.0023833751
684.7266174316	0.0025157288
686.6554248047	0.0024283128
688.5842321777	0.0020867744
690.5130395508	0.0020172843
692.4418469238	0.0023415186
694.3706542969	0.0028009857
696.2994616699	0.0031956518
698.2282690430	0.0034369254
700.1570764160	0.0036938367
702.0858837891	0.0035276944
704.0146911621	0.0035778240
705.9434985352	0.0034466181
707.8723059082	0.0026295718
709.8011132813	0.0020748212
711.7299206543	0.0015770891
713.6587280273	0.0012098574
715.5875354004	0.0004877903
717.5163427734	0.0001043116
719.4451501465	0.0003304900
721.3739575195	-0.0000326330
723.3027648926	-0.0000336825
725.2315722656	0.0000157664
727.1603796387	0.0002264296
729.0891870117	0.0002523775
731.0179943848	-0.0001508517
732.9468017578	0.0000458531
734.8756091309	0.0000371219
736.8044165039	0.0002399606
738.7332238770	0.0000861645
740.6620312500	-0.0002795203
742.5908386230	-0.0000494539
744.5196459961	0.0001973302
746.4484533691	0.0000975868
748.3772607422	0.0001783934
750.3060681152	0.0003249904
752.2348754883	-0.0000415379
754.1636828613	0.0003433809
756.0924902344	0.0004420203
758.0212976074	0.0003029071
759.9501049805	0.0005849271
761.8789123535	0.0000025278
763.8077197266	-0.0000117294
765.7365270996	0.0000577093
767.6653344727	0.0002135288
769.5941418457	0.0002275243
771.5229492188	-0.0000433775
773.4517565918	0.0003434922
775.3805639648	0.0000912814
777.3093713379	0.0002181226
779.2381787109	0.0001988959
781.1669860840	0.0001879768
783.0957934570	0.0005255745
785.0246008301	0.0000463444
786.9534082031	0.0000575768
788.8822155762	0.0003550482
790.8110229492	0.0002371789
792.7398303223	0.0003305463
794.6686376953	0.0004117954
796.5974450684	0.0001164687
798.5262524414	0.0004496440
800.4550598145	0.0007896749
802.3838671875	0.0007105016
804.3126745605	0.0007847134
806.2414819336	0.0004300013
808.1702893066	0.0004684612
810.0990966797	0.0004037401
812.0279040527	0.0002029375
813.9567114258	0.0005750448
815.8855187988	0.0005629017
817.8143261719	0.0004149741
819.7431335449	0.0002246314
821.6719409180	0.0001405824
823.6007482910	0.0003197730
825.5295556641	0.0005241770
827.4583630371	0.0006092646
829.3871704102	0.0005320550
831.3159777832	0.0008944384
833.2447851563	0.0012930314
835.1735925293	0.0013540846
837.1023999023	0.0013458154
839.0312072754	0.0012794575
840.9600146484	0.0011643125
842.8888220215	0.0011096699
844.8176293945	0.0012082810
846.7464367676	0.0011981870
848.6752441406	0.0010257300
850.6040515137	0.0008198196
852.5328588867	0.0007954813
854.4616662598	0.0008109307
856.3904736328	0.0005637228
858.3192810059	0.0004780477
860.2480883789	0.0004686965
862.1768957520	0.0002277029
864.1057031250	0.0001989005
866.0345104980	0.0003133682
867.9633178711	0.0004472486
869.8921252441	0.0005536227
871.8209326172	0.0003861434
873.7497399902	0.0002080174
875.6785473633	0.0001584596
877.6073547363	0.0004477643
879.5361621094	0.0003924698
881.4649694824	0.0003745373
883.3937768555	0.0008209104
885.3225842285	0.0002433977
887.2513916016	0.0002797888
889.1801989746	0.0007160899
891.1090063477	0.0000856868
893.0378137207	0.0004284214
894.9666210938	0.0005873180
896.8954284668	0.0000195964
898.8242358398	0.0001061853
900.7530432129	0.0002639873
902.6818505859	0.0004453359
904.6106579590	0.0004195191
906.5394653320	0.0002520450
908.4682727051	0.0004771610
910.3970800781	0.0008469983
912.3258874512	0.0007054044
914.2546948242	0.0005450352
916.1835021973	0.0009012794
918.1123095703	0.0008869012
920.0411169434	0.0008778980
921.9699243164	0.0013212349
923.8987316895	0.0013472580
925.8275390625	0.0012411219
927.7563464355	0.0014168707
929.6851538086	0.0014811463
931.6139611816	0.0017204059
933.5427685547	0.0018029306
935.4715759277	0.0016978509
937.4003833008	0.0020275707
939.3291906738	0.0024295563
941.2579980469	0.0025992547
943.1868054199	0.0024367657
945.1156127930	0.0022582426
947.0444201660	0.0021835479
948.9732275391	0.0021390668
950.9020349121	0.0019851460
952.8308422852	0.0019843397
954.7596496582	0.0022267951
956.6884570313	0.0020593689
958.6172644043	0.0021226991
960.5460717773	0.0019418467
962.4748791504	0.0018917588
964.4036865234	0.0023146989
966.3324938965	0.0020417143
968.2613012695	0.0023250044
970.1901086426	0.0025744163
972.1189160156	0.0025161579
974.0477233887	0.0027896280
975.9765307617	0.0027595412
977.9053381348	0.0030841371
979.8341455078	0.0034733643
981.7629528809	0.0037657977
983.6917602539	0.0042304648
985.6205676270	0.0049326313
987.5493750000	0.0055150744
989.4781823730	0.0058787824
991.4069897461	0.0066137672
993.3357971191	0.0072537279
995.2646044922	0.0078796586
997.1934118652	0.0086038355
999.1222192383	0.0093252026
1001.0510266113	0.0096554495
1002.9798339844	0.0100248102
1004.9086413574	0.0112199644
1006.8374487305	0.0121152755
1008.7662561035	0.0125837121
1010.6950634766	0.0131732831
1012.6238708496	0.0141247213
1014.5526782227	0.0149641614
1016.4814855957	0.0154796205
1018.4102929688	0.0161693729
1020.3391003418	0.0167362466
1022.2679077148	0.0174869765
1024.1967150879	0.0182637200
1026.1255224609	0.0190041550
1028.0543298340	0.0196473151
1029.9831372070	0.0200687051
1031.9119445801	0.0205045696
1033.8407519531	0.0207149200
1035.7695593262	0.0212068819
1037.6983666992	0.0214726925
1039.6271740723	0.0214454010
1041.5559814453	0.0214545354
1043.4847888184	0.0212008189
1045.4135961914	0.0210695416
1047.3424035645	0.0205837488
1049.2712109375	0.0201595835
1051.2000183105	0.0201178752
1053.1288256836	0.0197605379
1055.0576330566	0.0192166381
1056.9864404297	0.0187710412
1058.9152478027	0.0183225051
1060.8440551758	0.0177459195
1062.7728625488	0.0171825644
1064.7016699219	0.0165314041
1066.6304772949	0.0159943737
1068.5592846680	0.0153029040
1070.4880920410	0.0144992042
1072.4168994141	0.0138466563
1074.3457067871	0.0131751075
1076.2745141602	0.0125685297
1078.2033215332	0.0117688738
1080.1321289062	0.0115004079
1082.0609362793	0.0109419078
1083.9897436523	0.0101873949
1085.9185510254	0.0100767631
1087.8473583984	0.0093165217
1089.7761657715	0.0089306179
1091.7049731445	0.0086493716
1093.6337805176	0.0083634574
1095.5625878906	0.0081364680
1097.4913952637	0.0073529612
1099.4202026367	0.0074315788
1101.3490100098	0.0072200177
1103.2778173828	0.0069635897
1105.2066247559	0.0071089230
1107.1354321289	0.0067539681
1109.0642395019	0.0066489577
1110.9930468750	0.0067326259
1112.9218542480	0.0067846305
1114.8506616211	0.0062514246
1116.7794689941	0.0061957692
1118.7082763672	0.0064946944
1120.6370837402	0.0061683138
1122.5658911133	0.0064708130
1124.4946984863	0.0067252107
1126.4235058594	0.0066073323
1128.3523132324	0.0067333095
1130.2811206055	0.0069421888
1132.2099279785	0.0070100427
1134.1387353516	0.0072296453
1136.0675427246	0.0077571785
1137.9963500977	0.0080043180
1139.9251574707	0.0084102713
1141.8539648437	0.0091040470
1143.7827722168	0.0096850526
1145.7115795898	0.0102276299
1147.6403869629	0.0108098993
1149.5691943359	0.0112306159
1151.4980017090	0.0117832758
1153.4268090820	0.0125182085
1155.3556164551	0.0128903668
1157.2844238281	0.0134548824
1159.2132312012	0.0140416529
1161.1420385742	0.0145522878
1163.0708459473	0.0151460934
1164.9996533203	0.0154562369
1166.9284606934	0.0160259232
1168.8572680664	0.0166230723
1170.7860754394	0.0170578621
1172.7148828125	0.0179313291
1174.6436901855	0.0187262557
1176.5724975586	0.0190658458
1178.5013049316	0.0197727513
1180.4301123047	0.0207312927
1182.3589196777	0.0215717442
1184.2877270508	0.0225092396
1186.2165344238	0.0234496966
1188.1453417969	0.0244273040
1190.0741491699	0.0255596414
1192.0029565430	0.0268619414
1193.9317639160	0.0278591551
1195.8605712891	0.0290606506
1197.7893786621	0.0304376110
1199.7181860351	0.0316719338
1201.6469934082	0.0331712440
1203.5758007812	0.0342001393
1205.5046081543	0.0355216376
1207.4334155273	0.0369009748
1209.3622229004	0.0380892605
1211.2910302734	0.0394838005
1213.2198376465	0.0400546342
1215.1486450195	0.0410862230
1217.0774523926	0.0423101597
1219.0062597656	0.0427170880
1220.9350671387	0.0433051288
1222.8638745117	0.0440189019
1224.7926818848	0.0442159250
1226.7214892578	0.0443913490
1228.6502966308	0.0450227708
1230.5791040039	0.0449066535
1232.5079113769	0.0447785333
1234.4367187500	0.0451113954
1236.3655261230	0.0448676646
1238.2943334961	0.0447728783
1240.2231408691	0.0446083732
1242.1519482422	0.0443113595
1244.0807556152	0.0443288684
1246.0095629883	0.0438736714
1247.9383703613	0.0435588732
1249.8671777344	0.0434718393
1251.7959851074	0.0428189114
1253.7247924805	0.0425507352
1255.6535998535	0.0420242622
1257.5824072266	0.0412697867
1259.5112145996	0.0408578515
1261.4400219726	0.0400173441
1263.3688293457	0.0396156386
1265.2976367187	0.0390902311
1267.2264440918	0.0385614783
1269.1552514648	0.0382543951
1271.0840588379	0.0375385284
1273.0128662109	0.0368600041
1274.9416735840	0.0360349715
1276.8704809570	0.0356976911
1278.7992883301	0.0348890908
1280.7280957031	0.0339340717
1282.6569030762	0.0335875973
1284.5857104492	0.0326948166
1286.5145178223	0.0319103114
1288.4433251953	0.0313928723
1290.3721325683	0.0312547944
1292.3009399414	0.0309415571
1294.2297473144	0.0304897875
1296.1585546875	0.0304262768
1298.0873620605	0.0302377492
1300.0161694336	0.0301342253
1301.9449768066	0.0303137358
1303.8737841797	0.0308795534
1305.8025915527	0.0309696607
1307.7313989258	0.0312526934
1309.6602062988	0.0319608897
1311.5890136719	0.0322595760
1313.5178210449	0.0329751521
1315.4466284180	0.0337539911
1317.3754357910	0.0344427451
1319.3042431640	0.0353801437
1321.2330505371	0.0365903676
1323.1618579101	0.0376703851
1325.0906652832	0.0386172310
1327.0194726562	0.0397330746
1328.9482800293	0.0405987501
1330.8770874023	0.0416695513
1332.8058947754	0.0427265204
1334.7347021484	0.0434146002
1336.6635095215	0.0438946337
1338.5923168945	0.0437395200
1340.5211242676	0.0441571325
1342.4499316406	0.0455383249
1344.3787390137	0.0458015576
1346.3075463867	0.0458359048
1348.2363537597	0.0458576605
1350.1651611328	0.0453716330
1352.0939685058	0.0453887917
1354.0227758789	0.0446738154
1355.9515832519	0.0443173572
1357.8803906250	0.0440019853
1359.8091979980	0.0432434380
1361.7380053711	0.0419913009
1363.6668127441	0.0411114246
1365.5956201172	0.0427030846
1367.5244274902	0.0418114588
1369.4532348633	0.0414170027
1371.3820422363	0.0420846939
1373.3108496094	0.0400124267
1375.2396569824	0.0404137075
1377.1684643555	0.0409663394
1379.0972717285	0.0409264639
1381.0260791015	0.0408936292
1382.9548864746	0.0406092070
1384.8836938476	0.0407451503
1386.8125012207	0.0391173065
1388.7413085937	0.0397647619
1390.6701159668	0.0423164740
1392.5989233398	0.0415066406
1394.5277307129	0.0393719301
1396.4565380859	0.0409017093
1398.3853454590	0.0410043374
1400.3141528320	0.0407135561
1402.2429602051	0.0431851558
1404.1717675781	0.0411159843
1406.1005749512	0.0414272845
1408.0293823242	0.0425804704
1409.9581896972	0.0414090455
1411.8869970703	0.0419814810
1413.8158044433	0.0405540168
1415.7446118164	0.0411977991
1417.6734191894	0.0378315002
1419.6022265625	0.0345954672
1421.5310339355	0.0380217060
1423.4598413086	0.0370367393
1425.3886486816	0.0361070745
1427.3174560547	0.0362376571
1429.2462634277	0.0338791721
1431.1750708008	0.0325480402
1433.1038781738	0.0329214856
1435.0326855469	0.0303138494
1436.9614929199	0.0265603587
1438.8903002929	0.0290583223
1440.8191076660	0.0291439667
1442.7479150390	0.0274713337
1444.6767224121	0.0283403806
1446.6055297851	0.0265288856
1448.5343371582	0.0267616659
1450.4631445312	0.0274105296
1452.3919519043	0.0279628187
1454.3207592773	0.0289871190
1456.2495666504	0.0252829660
1458.1783740234	0.0264926217
1460.1071813965	0.0333155617
1462.0359887695	0.0351379439
1463.9647961426	0.0354619995
1465.8936035156	0.0369092375
1467.8224108886	0.0415222794
1469.7512182617	0.0443542749
1471.6800256347	0.0406789444
1473.6088330078	0.0431255922
1475.5376403808	0.0481464788
1477.4664477539	0.0512913764
1479.3952551269	0.0555397421
1481.3240625000	0.0567895025
1483.2528698730	0.0599855632
1485.1816772461	0.0617824569
1487.1104846191	0.0614820942
1489.0392919922	0.0614742190
1490.9680993652	0.0624675155
1492.8969067383	0.0702933222
1494.8257141113	0.0687514842
1496.7545214843	0.0637897700
1498.6833288574	0.0705791116
1500.6121362304	0.0722265467
1502.5409436035	0.0763829052
1504.4697509765	0.0728872195
1506.3985583496	0.0573390499
1508.3273657226	0.0674977377
1510.2561730957	0.0758885443
1512.1849804687	0.0737104714
1514.1137878418	0.0785517544
1516.0425952148	0.0722150654
1517.9714025879	0.0751419663
1519.9002099609	0.0722192228
1521.8290173340	0.0647575706
1523.7578247070	0.0759903938
1525.6866320801	0.0743795484
1527.6154394531	0.0742933899
1529.5442468261	0.0797694027
1531.4730541992	0.0771511495
1533.4018615722	0.0721726418
1535.3306689453	0.0751210004
1537.2594763183	0.0785265863
1539.1882836914	0.0602987409
1541.1170910644	0.0628424734
1543.0458984375	0.0719670355
1544.9747058105	0.0695272461
1546.9035131836	0.0788542777
1548.8323205566	0.0740957558
1550.7611279297	0.0760008991
1552.6899353027	0.0751071125
1554.6187426758	0.0694698021
1556.5475500488	0.0730371773
1558.4763574218	0.0556738526
1560.4051647949	0.0589731783
1562.3339721679	0.0766654015
1564.2627795410	0.0728299022
1566.1915869140	0.0742558539
1568.1203942871	0.0730952322
1570.0492016601	0.0663922131
1571.9780090332	0.0737192333
1573.9068164062	0.0734262615
1575.8356237793	0.0607861802
1577.7644311523	0.0668429658
1579.6932385254	0.0730370954
1581.6220458984	0.0696675330
1583.5508532715	0.0707919151
1585.4796606445	0.0692884773
1587.4084680175	0.0691453218
1589.3372753906	0.0681276023
1591.2660827636	0.0674938858
1593.1948901367	0.0670795441
1595.1236975097	0.0657000616
1597.0525048828	0.0660580248
1598.9813122558	0.0650283247
1600.9101196289	0.0646653622
1602.8389270019	0.0632181317
1604.7677343750	0.0633293837
1606.6965417480	0.0620429479
1608.6253491211	0.0614304394
1610.5541564941	0.0608871654
1612.4829638672	0.0607958809
1614.4117712402	0.0609219000
1616.3405786132	0.0513821766
1618.2693859863	0.0548161790
1620.1981933593	0.0614711717
1622.1270007324	0.0556934997
1624.0558081054	0.0561077595
1625.9846154785	0.0581064075
1627.9134228515	0.0581065491
1629.8422302246	0.0575994737
1631.7710375976	0.0611762702
1633.6998449707	0.0578757599
1635.6286523437	0.0503494367
1637.5574597168	0.0572255328
1639.4862670898	0.0618949831
1641.4150744629	0.0614597797
1643.3438818359	0.0634485483
1645.2726892090	0.0592388883
1647.2014965820	0.0546099059
1649.1303039550	0.0657535940
1651.0591113281	0.0630941391
1652.9879187011	0.0455803052
1654.9167260742	0.0588726960
1656.8455334472	0.0710598677
1658.7743408203	0.0695949495
1660.7031481933	0.0722918212
1662.6319555664	0.0679604188
1664.5607629394	0.0717363358
1666.4895703125	0.0768895820
1668.4183776855	0.0703242570
1670.3471850586	0.0696771890
1672.2759924316	0.0777225569
1674.2047998047	0.0737178773
1676.1336071777	0.0724475905
1678.0624145507	0.0818269253
1679.9912219238	0.0803936943
1681.9200292968	0.0808730274
1683.8488366699	0.0691648200
1685.7776440429	0.0696546286
1687.7064514160	0.0903356969
1689.6352587890	0.0812727064
1691.5640661621	0.0889337584
1693.4928735351	0.0906624570
1695.4216809082	0.0712455362
1697.3504882812	0.0851733387
1699.2792956543	0.0775033981
1701.2081030273	0.0724740699
1703.1369104004	0.0927688628
1705.0657177734	0.0867393985
1706.9945251464	0.0883682221
1708.9233325195	0.0947604328
1710.8521398925	0.0919011682
1712.7809472656	0.0937468261
1714.7097546386	0.0889658928
1716.6385620117	0.0818307549
1718.5673693847	0.0812748820
1720.4961767578	0.0937364399
1722.4249841308	0.0959990770
1724.3537915039	0.0910377577
1726.2825988769	0.0974353999
1728.2114062500	0.0913141668
1730.1402136230	0.0928633213
1732.0690209961	0.0903203785
1733.9978283691	0.0736065879
1735.9266357421	0.0875771642
1737.8554431152	0.0945664793
1739.7842504882	0.0864254832
1741.7130578613	0.0927292630
1743.6418652343	0.0940340012
1745.5706726074	0.0942874700
1747.4994799804	0.0954853594
1749.4282873535	0.0921877623
1751.3570947265	0.0891318917
1753.2859020996	0.0968018323
1755.2147094726	0.1002546772
1757.1435168457	0.0936379880
1759.0723242187	0.1008462086
1761.0011315918	0.0961346626
1762.9299389648	0.0937588066
1764.8587463379	0.1039674878
1766.7875537109	0.0955626667
1768.7163610839	0.0965225920
1770.6451684570	0.0960856453
1772.5739758300	0.0883883089
1774.5027832031	0.0964232534
1776.4315905761	0.1003438830
1778.3603979492	0.0989896953
1780.2892053222	0.0983563811
1782.2180126953	0.0988461822
1784.1468200683	0.0985657722
1786.0756274414	0.0970825106
1788.0044348144	0.1009611785
1789.9332421875	0.0989981592
1791.8620495605	0.0916826576
1793.7908569336	0.0946266800
1795.7196643066	0.0997769982
1797.6484716796	0.0987126678
1799.5772790527	0.0976726562
1801.5060864257	0.0962491184
1803.4348937988	0.0985546932
1805.3637011718	0.1001521498
1807.2925085449	0.0989816636
1809.2213159179	0.0992491990
1811.1501232910	0.0971660614
1813.0789306640	0.0994192362
1815.0077380371	0.0995326862
1816.9365454101	0.0986012593
1818.8653527832	0.0991852582
1820.7941601562	0.0988229662
1822.7229675293	0.0999043882
1824.6517749023	0.0948473364
1826.5805822753	0.0975427032
1828.5093896484	0.0973059684
1830.4381970214	0.0927884132
1832.3670043945	0.0988387316
1834.2958117675	0.0979947597
1836.2246191406	0.0980131775
1838.1534265136	0.0975816101
1840.0822338867	0.0979764313
1842.0110412597	0.0976985395
1843.9398486328	0.0893114507
1845.8686560058	0.0938133001
1847.7974633789	0.0973740369
1849.7262707519	0.0957252607
1851.6550781250	0.0976423174
1853.5838854980	0.0961659625
1855.5126928710	0.0967725068
1857.4415002441	0.0961583555
1859.3703076171	0.0956801623
1861.2991149902	0.0959964842
1863.2279223632	0.0951129496
1865.1567297363	0.0958232731
1867.0855371093	0.0933569521
1869.0143444824	0.0901413262
1870.9431518554	0.0928361639
1872.8719592285	0.0955093056
1874.8007666015	0.0940111801
1876.7295739746	0.0943195820
1878.6583813476	0.0938989744
1880.5871887207	0.0933947191
1882.5159960937	0.0938142389
1884.4448034667	0.0924783796
1886.3736108398	0.0934989601
1888.3024182128	0.0918067694
1890.2312255859	0.0903548598
1892.1600329589	0.0928003713
1894.0888403320	0.0916306674
1896.0176477050	0.0912176594
1897.9464550781	0.0919793397
1899.8752624511	0.0913262591
1901.8040698242	0.0913251862
1903.7328771972	0.0908683464
1905.6616845703	0.0909975991
1907.5904919433	0.0903213471
1909.5192993164	0.0897515863
1911.4481066894	0.0898450911
1913.3769140625	0.0899054930
1915.3057214355	0.0904402733
1917.2345288085	0.0871625841
1919.1633361816	0.0873151496
1921.0921435546	0.0896331221
1923.0209509277	0.0872665495
1924.9497583007	0.0886039138
1926.8785656738	0.0890667140
1928.8073730468	0.0882743448
1930.7361804199	0.0888554603
1932.6649877929	0.0877134949
1934.5937951660	0.0883545429
1936.5226025390	0.0876953602
1938.4514099121	0.0878579766
1940.3802172851	0.0877421945
1942.3090246582	0.0855277628
1944.2378320312	0.0865856856
1946.1666394042	0.0871899724
1948.0954467773	0.0868724287
1950.0242541503	0.0869092047
1951.9530615234	0.0867807567
1953.8818688964	0.0866652429
1955.8106762695	0.0862362608
1957.7394836425	0.0864157453
1959.6682910156	0.0860984549
1961.5970983886	0.0857735574
1963.5259057617	0.0858687162
1965.4547131347	0.0853213444
1967.3835205078	0.0846695155
1969.3123278808	0.0851233602
1971.2411352539	0.0852058679
1973.1699426269	0.0847363546
1975.0987499999	0.0849045217
1977.0275573730	0.0844276175
1978.9563647460	0.0843310431
1980.8851721191	0.0840519518
1982.8139794921	0.0837172270
1984.7427868652	0.0838554129
1986.6715942382	0.0831340700
1988.6004016113	0.0832142085
1990.5292089843	0.0825194418
1992.4580163574	0.0815355629
1994.3868237304	0.0824253410
1996.3156311035	0.0823697820
1998.2444384765	0.0818775892
2000.1732458496	0.0819218904
2002.1020532226	0.0815105140
2004.0308605956	0.0813195184
2005.9596679687	0.0810827613
2007.8884753417	0.0808600187
2009.8172827148	0.0806718171
2011.7460900878	0.0802027881
2013.6748974609	0.0801903754
2015.6037048339	0.0796624422
2017.5325122070	0.0790250152
2019.4613195800	0.0793011487
2021.3901269531	0.0790950209
2023.3189343261	0.0787141472
2025.2477416992	0.0785902217
2027.1765490722	0.0782307014
2029.1053564453	0.0779557824
2031.0341638183	0.0778402090
2032.9629711914	0.0775831789
2034.8917785644	0.0773136467
2036.8205859374	0.0771800727
2038.7493933105	0.0768548548
2040.6782006835	0.0764916316
2042.6070080566	0.0762640536
2044.5358154296	0.0760990381
2046.4646228027	0.0759280622
2048.3934301757	0.0756977350
2050.3222375488	0.0753934979
2052.2510449218	0.0752056539
2054.1798522949	0.0751091838
2056.1086596679	0.0747854859
2058.0374670410	0.0745857209
2059.9662744140	0.0743911564
2061.8950817871	0.0741917491
2063.8238891601	0.0739093274
2065.7526965331	0.0736004263
2067.6815039062	0.0737393796
2069.6103112792	0.0734742433
2071.5391186523	0.0731215551
2073.4679260253	0.0729907900
2075.3967333984	0.0728226304
2077.3255407714	0.0727849230
2079.2543481445	0.0723399073
2081.1831555175	0.0722588897
2083.1119628906	0.0722939670
2085.0407702636	0.0719496012
2086.9695776367	0.0719325021
2088.8983850097	0.0715898424
2090.8271923828	0.0714133829
2092.7559997558	0.0715202391
2094.6848071288	0.0711504370
2096.6136145019	0.0710535944
2098.5424218749	0.0710261166
2100.4712292480	0.0706987232
2102.4000366210	0.0704894513
2104.3288439941	0.0703905672
2106.2576513671	0.0702993721
2108.1864587402	0.0702210963
2110.1152661132	0.0701775700
2112.0440734863	0.0700348616
2113.9728808593	0.0697635263
2115.9016882324	0.0695475191
2117.8304956054	0.0695617124
2119.7593029785	0.0694523081
2121.6881103515	0.0692520589
2123.6169177245	0.0692683756
2125.5457250976	0.0691414326
2127.4745324706	0.0689891279
2129.4033398437	0.0688804537
2131.3321472167	0.0688407421
2133.2609545898	0.0687394589
2135.1897619628	0.0685151815
2137.1185693359	0.0684708655
2139.0473767089	0.0683881342
2140.9761840820	0.0683477074
2142.9049914550	0.0682982951
2144.8337988281	0.0682858676
2146.7626062011	0.0681653172
2148.6914135742	0.0680698603
2150.6202209472	0.0680997372
2152.5490283203	0.0677934289
2154.4778356933	0.0678801239
2156.4066430663	0.0678517297
2158.3354504394	0.0676230863
2160.2642578124	0.0676882938
2162.1930651855	0.0675262511
2164.1218725585	0.0675737038
2166.0506799316	0.0674901456
2167.9794873046	0.0673539862
2169.9082946777	0.0673538074
2171.8371020507	0.0672322810
2173.7659094238	0.0672375113
2175.6947167968	0.0671557933
2177.6235241699	0.0671041012
2179.5523315429	0.0669782385
2181.4811389160	0.0668081343
2183.4099462890	0.0667798370
2185.3387536620	0.0667202324
2187.2675610351	0.0666676611
2189.1963684081	0.0666539073
2191.1251757812	0.0666545182
2193.0539831542	0.0666271448
2194.9827905273	0.0665202737
2196.9115979003	0.0664811283
2198.8404052734	0.0664927736
2200.7692126464	0.0663153157
2202.6980200195	0.0662935823
2204.6268273925	0.0662176460
2206.5556347656	0.0659960732
2208.4844421386	0.0659232587
2210.4132495117	0.0659388453
2212.3420568847	0.0659947842
2214.2708642577	0.0658165812
2216.1996716308	0.0658528358
2218.1284790038	0.0657582581
2220.0572863769	0.0656520128
2221.9860937499	0.0657161996
2223.9149011230	0.0654310957
2225.8437084960	0.0655170456
2227.7725158691	0.0654563755
2229.7013232421	0.0652983487
2231.6301306152	0.0651890337
2233.5589379882	0.0650298297
2235.4877453613	0.0651292652
2237.4165527343	0.0649747178
2239.3453601074	0.0649372786
2241.2741674804	0.0648178905
2243.2029748534	0.0647780895
2245.1317822265	0.0647461936
2247.0605895995	0.0645587593
2248.9893969726	0.0645267442
2250.9182043456	0.0643832386
2252.8470117187	0.0644964799
2254.7758190917	0.0642422438
2256.7046264648	0.0640602112
2258.6334338378	0.0642022640
2260.5622412109	0.0639319718
2262.4910485839	0.0638058484
2264.4198559570	0.0637887493
2266.3486633300	0.0637573004
2268.2774707031	0.0636479408
2270.2062780761	0.0636366606
2272.1350854491	0.0635387152
2274.0638928222	0.0634823367
2275.9927001952	0.0636054575
2277.9215075683	0.0633500814
2279.8503149413	0.0632758215
2281.7791223144	0.0633099452
2283.7079296874	0.0632449165
2285.6367370605	0.0631166399
2287.5655444335	0.0629206151
2289.4943518066	0.0628485233
2291.4231591796	0.0626435354
2293.3519665527	0.0625492930
2295.2807739257	0.0625005886
2297.2095812988	0.0621952191
2299.1383886718	0.0619321167
2301.0671960449	0.0617994107
2302.9960034179	0.0615241304
2304.9248107909	0.0612443611
2306.8536181640	0.0608409345
2308.7824255370	0.0603550114
2310.7112329101	0.0600782707
2312.6400402831	0.0594929755
2314.5688476562	0.0589438155
2316.4976550292	0.0585746914
2318.4264624023	0.0578491725
2320.3552697753	0.0569977239
2322.2840771484	0.0563599095
2324.2128845214	0.0558776483
2326.1416918945	0.0552909225
2328.0704992675	0.0546942018
2329.9993066406	0.0541072302
2331.9281140136	0.0537422746
2333.8569213866	0.0535682887
2335.7857287597	0.0533604175
2337.7145361327	0.0533791333
2339.6433435058	0.0532953367
2341.5721508788	0.0533953123
2343.5009582519	0.0541537032
2345.4297656249	0.0550464839
2347.3585729980	0.0568794608
2349.2873803710	0.0583507121
2351.2161877441	0.0565522164
2353.1449951171	0.0540379584
2355.0738024902	0.0525158644
2357.0026098632	0.0510132164
2358.9314172363	0.0502887815
2360.8602246093	0.0498045534
2362.7890319823	0.0495420508
2364.7178393554	0.0498345420
2366.6466467284	0.0503747053
2368.5754541015	0.0511551611
2370.5042614745	0.0521915779
2372.4330688476	0.0534425452
2374.3618762206	0.0546435416
2376.2906835937	0.0559683219
2378.2194909667	0.0568679832
2380.1482983398	0.0576291718
2382.0771057128	0.0582497567
2384.0059130859	0.0585585386
2385.9347204589	0.0588772036
2387.8635278320	0.0586736426
2389.7923352050	0.0587030947
2391.7211425780	0.0586207807
2393.6499499511	0.0584851727
2395.5787573241	0.0584906563
2397.5075646972	0.0582879223
2399.4363720702	0.0583864152
2401.3651794433	0.0581423081
2403.2939868163	0.0580791011
2405.2227941894	0.0580059923
2407.1516015624	0.0578423440
2409.0804089355	0.0578937456
2411.0092163085	0.0577344522
2412.9380236816	0.0577210858
2414.8668310546	0.0575523674
2416.7956384277	0.0576005876
2418.7244458007	0.0573760793
2420.6532531738	0.0571116582
2422.5820605468	0.0572461784
2424.5108679198	0.0570889637
2426.4396752929	0.0570944399
2428.3684826659	0.0568942912
2430.2972900390	0.0568204224
2432.2260974120	0.0567971617
2434.1549047851	0.0565452576
2436.0837121581	0.0564855486
2438.0125195312	0.0563820228
2439.9413269042	0.0562920608
2441.8701342773	0.0561559051
2443.7989416503	0.0561859161
2445.7277490234	0.0561214909
2447.6565563964	0.0560101978
2449.5853637695	0.0558612868
2451.5141711425	0.0557328872
2453.4429785155	0.0557419173
2455.3717858886	0.0554962046
2457.3005932616	0.0555652268
2459.2294006347	0.0554104075
2461.1582080077	0.0552971847
2463.0870153808	0.0553981811
2465.0158227538	0.0551127791
2466.9446301269	0.0551572666
2468.8734374999	0.0549554043
2470.8022448730	0.0547553301
2472.7310522460	0.0547963083
2474.6598596191	0.0545956604
2476.5886669921	0.0545627549
2478.5174743652	0.0545691699
2480.4462817382	0.0545757934
2482.3750891112	0.0544323437
2484.3038964843	0.0542459041
2486.2327038573	0.0540883467
2488.1615112304	0.0539434738
2490.0903186034	0.0539841801
2492.0191259765	0.0538557917
2493.9479333495	0.0537293963
2495.8767407226	0.0536944121
2497.8055480956	0.0536004566
2499.7343554687	0.0534532629
2501.6631628417	0.0533238091
2503.5919702148	0.0533717126
2505.5207775878	0.0532290116
2507.4495849609	0.0531198829
2509.3783923339	0.0531830974
2511.3071997069	0.0529925413
2513.2360070800	0.0528113469
2515.1648144530	0.0527370609
2517.0936218261	0.0527228750
2519.0224291991	0.0526009798
2520.9512365722	0.0524801686
2522.8800439452	0.0524998084
2524.8088513183	0.0523040220
2526.7376586913	0.0522454903
2528.6664660644	0.0521728359
2530.5952734374	0.0519229025
2532.5240808105	0.0518838540
2534.4528881835	0.0519609377
2536.3816955566	0.0519569218
2538.3105029296	0.0517024398
2540.2393103027	0.0515405461
2542.1681176757	0.0514305383
2544.0969250487	0.0513767600
2546.0257324218	0.0513975844
2547.9545397948	0.0511906520
2549.8833471679	0.0511297844
2551.8121545409	0.0510355122
2553.7409619140	0.0508785546
2555.6697692870	0.0507814139
2557.5985766601	0.0505795628
2559.5273840331	0.0505185053
2561.4561914062	0.0505251996
2563.3849987792	0.0504590012
2565.3138061523	0.0503244177
2567.2426135253	0.0501931906
2569.1714208984	0.0501448922
2571.1002282714	0.0501002222
2573.0290356444	0.0499504171
2574.9578430175	0.0498680957
2576.8866503905	0.0497723445
2578.8154577636	0.0495514087
2580.7442651366	0.0494964942
2582.6730725097	0.0494807214
2584.6018798827	0.0493929610
2586.5306872558	0.0492392108
2588.4594946288	0.0491743460
2590.3883020019	0.0491022170
2592.3171093749	0.0490077287
2594.2459167480	0.0489510968
2596.1747241210	0.0486850180
2598.1035314941	0.0486613736
2600.0323388671	0.0485377908
2601.9611462401	0.0482983962
2603.8899536132	0.0483386070
2605.8187609862	0.0482871532
2607.7475683593	0.0482685529
2609.6763757323	0.0480630919
2611.6051831054	0.0479677543
2613.5339904784	0.0479944088
2615.4627978515	0.0477504209
2617.3916052245	0.0476102680
2619.3204125976	0.0475420468
2621.2492199706	0.0474931300
2623.1780273437	0.0473423079
2625.1068347167	0.0472261570
2627.0356420898	0.0471803546
2628.9644494628	0.0469810329
2630.8932568358	0.0468500778
2632.8220642089	0.0468485877
2634.7508715819	0.0467805080
2636.6796789550	0.0465996191
2638.6084863280	0.0464635380
2640.5372937011	0.0462577790
2642.4661010741	0.0461867154
2644.3949084472	0.0461766571
2646.3237158202	0.0460362434
2648.2525231933	0.0460391380
2650.1813305663	0.0458581038
2652.1101379394	0.0457489118
2654.0389453124	0.0457311049
2655.9677526855	0.0454981849
2657.8965600585	0.0454469696
2659.8253674315	0.0453839079
2661.7541748046	0.0452098064
2663.6829821776	0.0450306162
2665.6117895507	0.0449526757
2667.5405969237	0.0449184328
2669.4694042968	0.0447913855
2671.3982116698	0.0447742566
2673.3270190429	0.0445990115
2675.2558264159	0.0443990529
2677.1846337890	0.0442617461
2679.1134411620	0.0441398472
2681.0422485351	0.0442321263
2682.9710559081	0.0440692008
2684.8998632812	0.0438578241
2686.8286706542	0.0437505171
2688.7574780273	0.0436075106
2690.6862854003	0.0435482524
2692.6150927733	0.0433981791
2694.5439001464	0.0433238074
2696.4727075194	0.0432532430
2698.4015148925	0.0432376117
2700.3303222655	0.0431111529
2702.2591296386	0.0428554788
2704.1879370116	0.0428171828
2706.1167443847	0.0426689759
2708.0455517577	0.0425476022
2709.9743591308	0.0424647294
2711.9031665038	0.0423749164
2713.8319738769	0.0422500223
2715.7607812499	0.0421420224
2717.6895886230	0.0420661718
2719.6183959960	0.0417777859
2721.5472033690	0.0417236462
2723.4760107421	0.0416157730
2725.4048181151	0.0414936692
2727.3336254882	0.0414071195
2729.2624328612	0.0411575884
2731.1912402343	0.0411562249
2733.1200476073	0.0410232618
2735.0488549804	0.0409189798
2736.9776623534	0.0408243090
2738.9064697265	0.0406273752
2740.8352770995	0.0405785032
2742.7640844726	0.0404666513
2744.6928918456	0.0402784497
2746.6216992187	0.0401101224
2748.5505065917	0.0400272310
2750.4793139647	0.0398737043
2752.4081213378	0.0398262255
2754.3369287108	0.0396723673
2756.2657360839	0.0395407416
2758.1945434569	0.0395204276
2760.1233508300	0.0392478481
2762.0521582030	0.0391662493
2763.9809655761	0.0389806479
2765.9097729491	0.0388229713
2767.8385803222	0.0388059616
2769.7673876952	0.0386967249
2771.6961950683	0.0385616012
2773.6250024413	0.0383998081
2775.5538098144	0.0383590497
2777.4826171874	0.0381033197
2779.4114245604	0.0380374789
2781.3402319335	0.0379269086
2783.2690393065	0.0376593471
2785.1978466796	0.0375876501
2787.1266540526	0.0374973267
2789.0554614257	0.0375277996
2790.9842687987	0.0371977016
2792.9130761718	0.0369563140
2794.8418835448	0.0369272381
2796.7706909179	0.0367980860
2798.6994982909	0.0367257446
2800.6283056640	0.0365363359
2802.5571130370	0.0364340022
2804.4859204101	0.0362475291
2806.4147277831	0.0361237824
2808.3435351562	0.0359733142
2810.2723425292	0.0358212367
2812.2011499022	0.0357292742
2814.1299572753	0.0355433114
2816.0587646483	0.0354217067
2817.9875720214	0.0352489948
2819.9163793944	0.0351595357
2821.8451867675	0.0348343067
2823.7739941405	0.0347597077
2825.7028015136	0.0347693190
2827.6316088866	0.0343930498
2829.5604162597	0.0343377255
2831.4892236327	0.0342466272
2833.4180310058	0.0340779349
2835.3468383788	0.0338521302
2837.2756457519	0.0337256826
2839.2044531249	0.0335523337
2841.1332604979	0.0332532898
2843.0620678710	0.0331768915
2844.9908752440	0.0328954756
2846.9196826171	0.0326189250
2848.8484899901	0.0322618932
2850.7772973632	0.0321023166
2852.7061047362	0.0320053473
2854.6349121093	0.0317270532
2856.5637194823	0.0317478850
2858.4925268554	0.0316658691
2860.4213342284	0.0316877775
2862.3501416015	0.0315432549
2864.2789489745	0.0312995911
2866.2077563476	0.0312422998
2868.1365637206	0.0310540609
2870.0653710936	0.0309517104
2871.9941784667	0.0307207629
2873.9229858397	0.0306661874
2875.8517932128	0.0306092538
2877.7806005858	0.0303693619
2879.7094079589	0.0303830169
2881.6382153319	0.0301471427
2883.5670227050	0.0298160128
2885.4958300780	0.0298297498
2887.4246374511	0.0296890121
2889.3534448241	0.0294168461
2891.2822521972	0.0294138584
2893.2110595702	0.0292417742
2895.1398669433	0.0289589129
2897.0686743163	0.0288738683
2898.9974816893	0.0286511295
2900.9262890624	0.0283755399
2902.8550964354	0.0283199027
2904.7839038085	0.0281880684
2906.7127111815	0.0278103240
2908.6415185546	0.0277480930
2910.5703259276	0.0277018845
2912.4991333007	0.0272913575
2914.4279406737	0.0270041339
2916.3567480468	0.0267442204
2918.2855554198	0.0264996886
2920.2143627929	0.0264015198
2922.1431701659	0.0263449512
2924.0719775390	0.0262482371
2926.0007849120	0.0260449722
2927.9295922851	0.0258826911
2929.8583996581	0.0257775318
2931.7872070311	0.0256706309
2933.7160144042	0.0255778097
2935.6448217772	0.0255046729
2937.5736291503	0.0255029723
2939.5024365233	0.0253861938
2941.4312438964	0.0252596885
2943.3600512694	0.0252224877
2945.2888586425	0.0249864347
2947.2176660155	0.0248511825
2949.1464733886	0.0246658269
2951.0752807616	0.0244765729
2953.0040881347	0.0244526286
2954.9328955077	0.0241644718
2956.8617028808	0.0240806490
2958.7905102538	0.0238747597
2960.7193176268	0.0235747360
2962.6481249999	0.0235859733
2964.5769323729	0.0233488847
2966.5057397460	0.0232722349
2968.4345471190	0.0232850313
2970.3633544921	0.0230790824
2972.2921618651	0.0229291506
2974.2209692382	0.0229313374
2976.1497766112	0.0228357781
2978.0785839843	0.0226793662
2980.0073913573	0.0226580724
2981.9361987304	0.0223449729
2983.8650061034	0.0222764947
2985.7938134765	0.0222820155
2987.7226208495	0.0219591670
2989.6514282225	0.0219733659
2991.5802355956	0.0218655728
2993.5090429686	0.0216044355
2995.4378503417	0.0214832071
2997.3666577147	0.0213111900
2999.2954650878	0.0212544203
3001.2242724608	0.0211886205
3003.1530798339	0.0209090374
3005.0818872069	0.0207164232
3007.0106945800	0.0207370333
3008.9395019530	0.0205841139
3010.8683093261	0.0203791317
3012.7971166991	0.0202563480
3014.7259240722	0.0200143754
3016.6547314452	0.0198946819
3018.5835388182	0.0198067203
3020.5123461913	0.0196053199
3022.4411535643	0.0195077211
3024.3699609374	0.0193302017
3026.2987683104	0.0191541985
3028.2275756835	0.0190142617
3030.1563830565	0.0188688505
3032.0851904296	0.0188382640
3034.0139978026	0.0186091773
3035.9428051757	0.0184719898
3037.8716125487	0.0183830708
3039.8004199218	0.0182151068
3041.7292272948	0.0181847699
3043.6580346679	0.0179142281
3045.5868420409	0.0177780781
3047.5156494139	0.0177774690
3049.4444567870	0.0175419748
3051.3732641600	0.0173833668
3053.3020715331	0.0173205286
3055.2308789061	0.0171722360
3057.1596862792	0.0170320123
3059.0884936522	0.0169146154
3061.0173010253	0.0167523883
3062.9461083983	0.0166926514
3064.8749157714	0.0164618865
3066.8037231444	0.0163384080
3068.7325305175	0.0163502470
3070.6613378905	0.0162199810
3072.5901452636	0.0162272491
3074.5189526366	0.0160177238
3076.4477600097	0.0158354491
3078.3765673827	0.0157196224
3080.3053747557	0.0156002454
3082.2341821288	0.0155475661
3084.1629895018	0.0153261237
3086.0917968749	0.0152810868
3088.0206042479	0.0152304284
3089.9494116210	0.0151140345
3091.8782189940	0.0150077473
3093.8070263671	0.0149106383
3095.7358337401	0.0147795826
3097.6646411132	0.0147181675
3099.5934484862	0.0146725290
3101.5222558593	0.0144158397
3103.4510632323	0.0143941827
3105.3798706054	0.0141540859
3107.3086779784	0.0139783230
3109.2374853514	0.0141004175
3111.1662927245	0.0140007446
3113.0951000975	0.0138918012
3115.0239074706	0.0136696398
3116.9527148436	0.0136336805
3118.8815222167	0.0135600083
3120.8103295897	0.0134954415
3122.7391369628	0.0134625267
3124.6679443358	0.0132993814
3126.5967517089	0.0133428164
3128.5255590819	0.0131423427
3130.4543664550	0.0130731892
3132.3831738280	0.0129892472
3134.3119812011	0.0128344502
3136.2407885741	0.0129500087
3138.1695959471	0.0127214137
3140.0984033202	0.0126317497
3142.0272106932	0.0127550382
3143.9560180663	0.0126160057
3145.8848254393	0.0124671534
3147.8136328124	0.0123687182
3149.7424401854	0.0123508200
3151.6712475585	0.0124039035
3153.6000549315	0.0122630950
3155.5288623046	0.0122018140
3157.4576696776	0.0121683199
3159.3864770507	0.0119823692
3161.3152844237	0.0120642493
3163.2440917968	0.0119716525
3165.1728991698	0.0118833017
3167.1017065428	0.0119485520
3169.0305139159	0.0117650535
3170.9593212889	0.0117797041
3172.8881286620	0.0117920404
3174.8169360350	0.0116998991
3176.7457434081	0.0116578853
3178.6745507811	0.0114885438
3180.6033581542	0.0114022363
3182.5321655272	0.0115028918
3184.4609729003	0.0114673283
3186.3897802733	0.0113506392
3188.3185876464	0.0113411900
3190.2473950194	0.0114204306
3192.1762023925	0.0114783328
3194.1050097655	0.0112926252
3196.0338171386	0.0112834480
3197.9626245116	0.0112760793
3199.8914318846	0.0112597980
3201.8202392577	0.0113251079
3203.7490466307	0.0111218262
3205.6778540038	0.0111800870
3207.6066613768	0.0111265704
3209.5354687499	0.0110892989
3211.4642761229	0.0111541729
3213.3930834960	0.0109892031
3215.3218908690	0.0111167505
3217.2506982421	0.0110959001
3219.1795056151	0.0109799886
3221.1083129882	0.0110183349
3223.0371203612	0.0111748055
3224.9659277343	0.0111432578
3226.8947351073	0.0109537775
3228.8235424803	0.0111273862
3230.7523498534	0.0110218897
3232.6811572264	0.0109811649
3234.6099645995	0.0111530852
3236.5387719725	0.0110782478
3238.4675793456	0.0110966731
3240.3963867186	0.0110987574
3242.3251940917	0.0111240754
3244.2540014647	0.0111320838
3246.1828088378	0.0111898687
3248.1116162108	0.0112107787
3250.0404235839	0.0110353325
3251.9692309569	0.0111752264
3253.8980383300	0.0112830363
3255.8268457030	0.0111849364
3257.7556530760	0.0111775734
3259.6844604491	0.0110780541
3261.6132678221	0.0111440923
3263.5420751952	0.0111429673
3265.4708825682	0.0111195091
3267.3996899413	0.0113449972
3269.3284973143	0.0113053340
3271.2573046874	0.0112760719
3273.1861120604	0.0112848673
3275.1149194335	0.0112729454
3277.0437268065	0.0113224778
3278.9725341796	0.0113285463
3280.9013415526	0.0113984197
3282.8301489257	0.0113039911
3284.7589562987	0.0113931140
3286.6877636717	0.0113894343
3288.6165710448	0.0112694521
3290.5453784178	0.0114278058
3292.4741857909	0.0113297291
3294.4029931639	0.0113280350
3296.3318005370	0.0114313271
3298.2606079100	0.0113993362
3300.1894152831	0.0114794020
3302.1182226561	0.0114853987
3304.0470300292	0.0114268418
3305.9758374022	0.0115367426
3307.9046447753	0.0115600666
3309.8334521483	0.0114976978
3311.7622595214	0.0116066225
3313.6910668944	0.0115753822
3315.6198742675	0.0116209146
3317.5486816405	0.0115793198
3319.4774890135	0.0115243383
3321.4062963866	0.0116893472
3323.3351037596	0.0116270464
3325.2639111327	0.0116634425
3327.1927185057	0.0116772531
3329.1215258788	0.0117582325
3331.0503332518	0.0117375311
3332.9791406249	0.0115882242
3334.9079479979	0.0117543442
3336.8367553710	0.0116831139
3338.7655627440	0.0116760908
3340.6943701171	0.0117401220
3342.6231774901	0.0117677562
3344.5519848632	0.0118903862
3346.4807922362	0.0118314810
3348.4095996092	0.0118331518
3350.3384069823	0.0119172540
3352.2672143553	0.0120020760
3354.1960217284	0.0119429808
3356.1248291014	0.0119053051
3358.0536364745	0.0119979195
3359.9824438475	0.0119872130
3361.9112512206	0.0119583569
3363.8400585936	0.0120474175
3365.7688659667	0.0120911784
3367.6976733397	0.0120264450
3369.6264807128	0.0121372370
3371.5552880858	0.0122071039
3373.4840954589	0.0122005874
3375.4129028319	0.0122523494
3377.3417102049	0.0123262955
3379.2705175780	0.0123889893
3381.1993249510	0.0124221295
3383.1281323241	0.0124556785
3385.0569396971	0.0124637997
3386.9857470702	0.0125847058
3388.9145544432	0.0125306491
3390.8433618163	0.0126023907
3392.7721691893	0.0127578238
3394.7009765624	0.0126917101
3396.6297839354	0.0127499886
3398.5585913085	0.0127313994
3400.4873986815	0.0128515232
3402.4162060546	0.0128815975
3404.3450134276	0.0128882043
3406.2738208006	0.0130228279
3408.2026281737	0.0130492877
3410.1314355467	0.0131443832
3412.0602429198	0.0130886454
3413.9890502928	0.0132665588
3415.9178576659	0.0133695044
3417.8466650389	0.0133752376
3419.7754724120	0.0134733878
3421.7042797850	0.0133897625
3423.6330871581	0.0135947950
3425.5618945311	0.0136598963
3427.4907019042	0.0136933979
3429.4195092772	0.0138109811
3431.3483166503	0.0137949176
3433.2771240233	0.0138477599
3435.2059313963	0.0138566475
3437.1347387694	0.0140037378
3439.0635461424	0.0141053293
3440.9923535155	0.0141617693
3442.9211608885	0.0142034590
3444.8499682616	0.0142089557
3446.7787756346	0.0142958807
3448.7075830077	0.0143544655
3450.6363903807	0.0144445216
3452.5651977538	0.0145336483
3454.4940051268	0.0146600893
3456.4228124999	0.0146887060
3458.3516198729	0.0147539545
3460.2804272460	0.0148703270
3462.2092346190	0.0148917800
3464.1380419921	0.0150385350
3466.0668493651	0.0150222024
3467.9956567381	0.0150488541
3469.9244641112	0.0152582908
3471.8532714842	0.0152732823
3473.7820788573	0.0152952066
3475.7108862303	0.0154001694
3477.6396936034	0.0155669972
3479.5685009764	0.0155680049
3481.4973083495	0.0154261515
3483.4261157225	0.0156213082
3485.3549230956	0.0158413313
3487.2837304686	0.0158537813
3489.2125378417	0.0158769414
3491.1413452147	0.0160610732
3493.0701525878	0.0162479822
3494.9989599608	0.0161877200
3496.9277673338	0.0161961727
3498.8565747069	0.0163959228
3500.7853820799	0.0165438969
3502.7141894530	0.0163367353
3504.6429968260	0.0164001733
3506.5718041991	0.0167926736
3508.5006115721	0.0166736525
3510.4294189452	0.0167351030
3512.3582263182	0.0169292986
3514.2870336913	0.0169806480
3516.2158410643	0.0170801505
3518.1446484374	0.0172037557
3520.0734558104	0.0174675956
3522.0022631835	0.0173146874
3523.9310705565	0.0172520913
3525.8598779295	0.0174618140
3527.7886853026	0.0175006036
3529.7174926756	0.0176015738
3531.6463000487	0.0178349391
3533.5751074217	0.0180398636
3535.5039147948	0.0179506764
3537.4327221678	0.0180493165
3539.3615295409	0.0182078965
3541.2903369139	0.0181997828
3543.2191442870	0.0182539262
3545.1479516600	0.0180798955
3547.0767590331	0.0180594772
3549.0055664061	0.0185514316
3550.9343737792	0.0187183917
3552.8631811522	0.0185141023
3554.7919885252	0.0188001990
3556.7207958983	0.0189922713
3558.6496032713	0.0190622322
3560.5784106444	0.0190603808
3562.5072180174	0.0190183222
3564.4360253905	0.0192097761
3566.3648327635	0.0183985736
3568.2936401366	0.0180364829
3570.2224475096	0.0192458034
3572.1512548827	0.0198219996
3574.0800622557	0.0196218770
3576.0088696288	0.0197859760
3577.9376770018	0.0199535005
3579.8664843749	0.0199438110
3581.7952917479	0.0200080182
3583.7240991210	0.0201663934
3585.6529064940	0.0198269337
3587.5817138670	0.0186972469
3589.5105212401	0.0192400590
3591.4393286131	0.0205062367
3593.3681359862	0.0201518219
3595.2969433592	0.0200779699
3597.2257507323	0.0204163920
3599.1545581053	0.0204738602
3601.0833654784	0.0204802565
3603.0121728514	0.0208074227
3604.9409802245	0.0211439840
3606.8697875975	0.0206804443
3608.7985949706	0.0197845884
3610.7274023436	0.0201826468
3612.6562097167	0.0206811279
3614.5850170897	0.0203076340
3616.5138244627	0.0214193780
3618.4426318358	0.0203089900
3620.3714392088	0.0199932866
3622.3002465819	0.0218380373
3624.2290539549	0.0214451961
3626.1578613280	0.0223989040
3628.0866687010	0.0197170116
3630.0154760741	0.0185618810
3631.9442834471	0.0221960358
3633.8730908202	0.0217840225
3635.8018981932	0.0222415179
3637.7307055663	0.0226199031
3639.6595129393	0.0225508511
3641.5883203124	0.0229121372
3643.5171276854	0.0225987285
3645.4459350584	0.0229910240
3647.3747424315	0.0213147216
3649.3035498045	0.0199691579
3651.2323571776	0.0204818174
3653.1611645506	0.0234793164
3655.0899719237	0.0232195631
3657.0187792967	0.0215363875
3658.9475866698	0.0241034646
3660.8763940428	0.0237828270
3662.8052014159	0.0241738111
3664.7340087889	0.0241954084
3666.6628161620	0.0242502391
3668.5916235350	0.0238849148
3670.5204309081	0.0204892904
3672.4492382811	0.0237420574
3674.3780456541	0.0229871795
3676.3068530272	0.0201426167
3678.2356604002	0.0241236333
3680.1644677733	0.0245824717
3682.0932751463	0.0245667249
3684.0220825194	0.0252458807
3685.9508898924	0.0250410940
3687.8796972655	0.0230061356
3689.8085046385	0.0216395855
3691.7373120116	0.0241841804
3693.6661193846	0.0246757455
3695.5949267577	0.0250871032
3697.5237341307	0.0251473952
3699.4525415038	0.0249161050
3701.3813488768	0.0245409161
3703.3101562499	0.0239438750
3705.2389636229	0.0256073959
3707.1677709959	0.0245490260
3709.0965783690	0.0242194477
3711.0253857420	0.0231207535
3712.9541931151	0.0219906997
3714.8830004881	0.0248387419
3716.8118078612	0.0245783255
3718.7406152342	0.0247180946
3720.6694226073	0.0242170505
3722.5982299803	0.0236000586
3724.5270373534	0.0241353456
3726.4558447264	0.0227776580
3728.3846520995	0.0243537910
3730.3134594725	0.0239413977
3732.2422668456	0.0224093497
3734.1710742186	0.0220670979
3736.0998815916	0.0212630145
3738.0286889647	0.0221772883
3739.9574963377	0.0235475376
3741.8863037108	0.0242639426
3743.8151110838	0.0198013280
3745.7439184569	0.0191116817
3747.6727258299	0.0232601389
3749.6015332030	0.0206535012
3751.5303405760	0.0194609389
3753.4591479491	0.0215437599
3755.3879553221	0.0228300840
3757.3167626952	0.0234746933
3759.2455700682	0.0220582373
3761.1743774413	0.0226530284
3763.1031848143	0.0236463826
3765.0319921873	0.0224285126
3766.9607995604	0.0228415355
3768.8896069334	0.0225143172
3770.8184143065	0.0216378607
3772.7472216795	0.0229815152
3774.6760290526	0.0229881369
3776.6048364256	0.0229661558
3778.5336437987	0.0224047378
3780.4624511717	0.0218101479
3782.3912585448	0.0228375345
3784.3200659178	0.0222977512
3786.2488732909	0.0222172141
3788.1776806639	0.0225241557
3790.1064880370	0.0224383827
3792.0352954100	0.0222994573
3793.9641027830	0.0225129947
3795.8929101561	0.0214215070
3797.8217175291	0.0212536547
3799.7505249022	0.0220165495
3801.6793322752	0.0185280517
3803.6081396483	0.0210327543
3805.5369470213	0.0220715851
3807.4657543944	0.0190058090
3809.3945617674	0.0219783708
3811.3233691405	0.0214481428
3813.2521765135	0.0221362300
3815.1809838866	0.0202516839
3817.1097912596	0.0183901973
3819.0385986327	0.0220125988
3820.9674060057	0.0187171381
3822.8962133787	0.0194558799
3824.8250207518	0.0217518136
3826.7538281248	0.0201734491
3828.6826354979	0.0213256516
3830.6114428709	0.0206445958
3832.5402502440	0.0200625882
3834.4690576170	0.0203841999
3836.3978649901	0.0195098035
3838.3266723631	0.0180025771
3840.2554797362	0.0192400962
3842.1842871092	0.0203208793
3844.1130944823	0.0196132138
3846.0419018553	0.0207592435
3847.9707092284	0.0204015281
3849.8995166014	0.0204905029
3851.8283239745	0.0188105479
3853.7571313475	0.0151135484
3855.6859387205	0.0172257014
3857.6147460936	0.0204712190
3859.5435534666	0.0199371986
3861.4723608397	0.0197520405
3863.4011682127	0.0193477497
3865.3299755858	0.0183659624
3867.2587829588	0.0199186038
3869.1875903319	0.0185176954
3871.1163977049	0.0175842121
3873.0452050780	0.0198693201
3874.9740124510	0.0185913593
3876.9028198241	0.0197230857
3878.8316271971	0.0200220160
3880.7604345702	0.0178312529
3882.6892419432	0.0196991414
3884.6180493162	0.0185987055
3886.5468566893	0.0174530782
3888.4756640623	0.0196642205
3890.4044714354	0.0187325291
3892.3332788084	0.0178768747
3894.2620861815	0.0191207696
3896.1908935545	0.0194250941
3898.1197009276	0.0187095255
3900.0485083006	0.0178293120
3901.9773156737	0.0177028738
3903.9061230467	0.0175457336
3905.8349304198	0.0178629421
3907.7637377928	0.0189525019
3909.6925451659	0.0188203342
3911.6213525389	0.0187387727
3913.5501599119	0.0189147145
3915.4789672850	0.0184186324
3917.4077746580	0.0180473365
3919.3365820311	0.0180164017
3921.2653894041	0.0184088312
3923.1941967772	0.0183508024
3925.1230041502	0.0180404074
3927.0518115233	0.0181851871
3928.9806188963	0.0183726363
3930.9094262694	0.0180118233
3932.8382336424	0.0176297221
3934.7670410155	0.0181054659
3936.6958483885	0.0181908980
3938.6246557616	0.0181378052
3940.5534631346	0.0182126872
3942.4822705076	0.0176620316
3944.4110778807	0.0177776515
3946.3398852537	0.0179918297
3948.2686926268	0.0175429899
3950.1974999998	0.0175971538
3952.1263073729	0.0177554227
3954.0551147459	0.0177240260
3955.9839221190	0.0177600421
3957.9127294920	0.0176451206
3959.8415368651	0.0175852794
3961.7703442381	0.0174513739
3963.6991516112	0.0174155235
3965.6279589842	0.0175109208
3967.5567663573	0.0174269415
3969.4855737303	0.0173433498
3971.4143811034	0.0172944292
3973.3431884764	0.0172946714
3975.2719958494	0.0171791129
3977.2008032225	0.0171834249
3979.1296105955	0.0172000285
3981.0584179686	0.0170668028
3982.9872253416	0.0170641746
3984.9160327147	0.0169434883
3986.8448400877	0.0169514008
3988.7736474608	0.0169299841
3990.7024548338	0.0168106034
3992.6312622069	0.0167990625
3994.5600695799	0.0166956559
3996.4888769530	0.0167297758
3998.4176843260	0.0167137198
4000.3464916991	0.0166609660
4002.2752990721	0.0166923031
4004.2041064451	0.0165802278
4006.1329138182	0.0165407974
4008.0617211912	0.0165722594
4009.9905285643	0.0164305680
4011.9193359373	0.0164102521
4013.8481433104	0.0164770670
4015.7769506834	0.0163668934
4017.7057580565	0.0163069628
4019.6345654295	0.0162327997
4021.5633728026	0.0162506979
4023.4921801756	0.0162452795
4025.4209875487	0.0160938613
4027.3497949217	0.0160710532
4029.2786022948	0.0159465447
4031.2074096678	0.0158550330
4033.1362170408	0.0159295835
4035.0650244139	0.0159091987
4036.9938317869	0.0158708356
4038.9226391600	0.0158873796
4040.8514465330	0.0157592259
4042.7802539061	0.0156739503
4044.7090612791	0.0156490281
4046.6378686522	0.0155800618
4048.5666760252	0.0157382004
4050.4954833983	0.0156331025
4052.4242907713	0.0154510438
4054.3530981444	0.0155585427
4056.2819055174	0.0155039718
4058.2107128905	0.0154411830
4060.1395202635	0.0154025527
4062.0683276365	0.0153660793
4063.9971350096	0.0153725054
4065.9259423826	0.0153038483
4067.8547497557	0.0152149070
4069.7835571287	0.0152520929
4071.7123645018	0.0152507480
4073.6411718748	0.0150920954
4075.5699792479	0.0150629459
4077.4987866209	0.0150299612
4079.4275939940	0.0149597097
4081.3564013670	0.0149376690
4083.2852087401	0.0148648256
4085.2140161131	0.0148441689
4087.1428234862	0.0148559455
4089.0716308592	0.0147891687
4091.0004382323	0.0147907371
4092.9292456053	0.0148215238
4094.8580529783	0.0147027280
4096.7868603514	0.0146672819
4098.7156677244	0.0146162482
4100.6444750975	0.0145464838
4102.5732824705	0.0145390686
4104.5020898436	0.0144440271
4106.4308972166	0.0144228069
4108.3597045897	0.0144426152
4110.2885119627	0.0144554731
4112.2173193358	0.0144440383
4114.1461267088	0.0144263320
4116.0749340819	0.0143079609
4118.0037414549	0.0141895013
4119.9325488280	0.0142312795
4121.8613562010	0.0142419245
4123.7901635740	0.0142474864
4125.7189709471	0.0141171794
4127.6477783201	0.0140689649
4129.5765856932	0.0141043663
4131.5053930662	0.0140170949
4133.4342004393	0.0140250269
4135.3630078123	0.0139661999
4137.2918151854	0.0139012178
4139.2206225584	0.0138725396
4141.1494299315	0.0137982182
4143.0782373045	0.0137768947
4145.0070446776	0.0137818195
4146.9358520506	0.0137148015
4148.8646594237	0.0137029123
4150.7934667967	0.0137746576
4152.7222741697	0.0136522576
4154.6510815428	0.0135143921
4156.5798889158	0.0135004818
4158.5086962889	0.0134834386
4160.4375036619	0.0134618217
4162.3663110350	0.0135058593
4164.2951184080	0.0134440865
4166.2239257811	0.0133035230
4168.1527331541	0.0133406669
4170.0815405272	0.0133536626
4172.0103479002	0.0132852746
4173.9391552733	0.0132057611
4175.8679626463	0.0132252313
4177.7967700194	0.0131236762
4179.7255773924	0.0130113382
4181.6543847654	0.0131302848
4183.5831921385	0.0130732609
4185.5119995115	0.0130335540
4187.4408068846	0.0130046140
4189.3696142576	0.0129861031
4191.2984216307	0.0129996631
4193.2272290037	0.0129420552
4195.1560363768	0.0129116001
4197.0848437498	0.0127821295
4199.0136511229	0.0127537120
4200.9424584959	0.0127255302
4202.8712658690	0.0127330981
4204.8000732420	0.0126897953
4206.7288806151	0.0126143638
4208.6576879881	0.0127121154
4210.5864953611	0.0126396567
4212.5153027342	0.0125644598
4214.4441101072	0.0125151668
4216.3729174803	0.0125189358
4218.3017248533	0.0125077050
4220.2305322264	0.0124280518
4222.1593395994	0.0123949442
4224.0881469725	0.0123221101
4226.0169543455	0.0123225935
4227.9457617186	0.0122935735
4229.8745690916	0.0122853518
4231.8033764647	0.0122099100
4233.7321838377	0.0122019723
4235.6609912108	0.0121538313
4237.5897985838	0.0120653501
4239.5186059569	0.0122018242
4241.4474133299	0.0120902285
4243.3762207029	0.0120855896
4245.3050280760	0.0120640583
4247.2338354490	0.0119706187
4249.1626428221	0.0119930748
4251.0914501951	0.0118498374
4253.0202575682	0.0119371433
4254.9490649412	0.0118887555
4256.8778723143	0.0118444972
4258.8066796873	0.0118943937
4260.7354870604	0.0117627811
4262.6642944334	0.0117971767
4264.5931018065	0.0116590466
4266.5219091795	0.0116073210
4268.4507165526	0.0117279273
4270.3795239256	0.0116493851
4272.3083312986	0.0116175795
4274.2371386717	0.0115503259
4276.1659460447	0.0115275085
4278.0947534178	0.0115143768
4280.0235607908	0.0114200898
4281.9523681639	0.0115066022
4283.8811755369	0.0114457496
4285.8099829100	0.0113332225
4287.7387902830	0.0113553414
4289.6675976561	0.0113335354
4291.5964050291	0.0113638043
4293.5252124022	0.0112507753
4295.4540197752	0.0112007456
4297.3828271483	0.0111261960
4299.3116345213	0.0111008668
4301.2404418943	0.0112223113
4303.1692492674	0.0110640535
4305.0980566404	0.0110854991
4307.0268640135	0.0110385595
4308.9556713865	0.0109613081
4310.8844787596	0.0110631846
4312.8132861326	0.0109616211
4314.7420935057	0.0109419916
4316.6709008787	0.0109007638
4318.5997082518	0.0109097715
4320.5285156248	0.0108948294
4322.4573229979	0.0108044241
4324.3861303709	0.0107885906
4326.3149377440	0.0107636657
4328.2437451170	0.0108266966
4330.1725524900	0.0107663479
4332.1013598631	0.0106688663
4334.0301672361	0.0106716668
4335.9589746092	0.0106670847
4337.8877819822	0.0105819944
4339.8165893553	0.0105421348
4341.7453967283	0.0105581190
4343.6742041014	0.0105463155
4345.6030114744	0.0105454102
4347.5318188475	0.0104975421
4349.4606262205	0.0104817851
4351.3894335936	0.0103717903
4353.3182409666	0.0103919450
4355.2470483397	0.0103771519
4357.1758557127	0.0102831852
4359.1046630858	0.0103730168
4361.0334704588	0.0103044845
4362.9622778318	0.0103094969
4364.8910852049	0.0102191549
4366.8198925779	0.0101310993
4368.7486999510	0.0101533122
4370.6775073240	0.0100790076
4372.6063146971	0.0101299565
4374.5351220701	0.0101365652
4376.4639294432	0.0100727919
4378.3927368162	0.0099266283
4380.3215441893	0.0100148702
4382.2503515623	0.0099814720
4384.1791589354	0.0098240841
4386.1079663084	0.0099911299
4388.0367736815	0.0099010151
4389.9655810545	0.0098533817
4391.8943884275	0.0098414961
4393.8231958006	0.0098086782
4395.7520031736	0.0098912697
4397.6808105467	0.0097737471
4399.6096179197	0.0096818898
4401.5384252928	0.0097408528
4403.4672326658	0.0097422898
4405.3960400389	0.0096178884
4407.3248474119	0.0096468935
4409.2536547850	0.0096143819
4411.1824621580	0.0095785484
4413.1112695311	0.0095620491
4415.0400769041	0.0094461404
4416.9688842772	0.0094993487
4418.8976916502	0.0094746072
4420.8264990232	0.0094547477
4422.7553063963	0.0093934480
4424.6841137693	0.0094262548
4426.6129211424	0.0094558075
4428.5417285154	0.0093009025
4430.4705358885	0.0092956424
4432.3993432615	0.0092686042
4434.3281506346	0.0093109068
4436.2569580076	0.0092326105
4438.1857653807	0.0091809817
4440.1145727537	0.0092093879
4442.0433801268	0.0091633704
4443.9721874998	0.0091440249
4445.9009948729	0.0089900680
4447.8298022459	0.0091399653
4449.7586096189	0.0091544222
4451.6874169920	0.0090309698
4453.6162243650	0.0091066193
4455.5450317381	0.0089900922
4457.4738391111	0.0089866091
4459.4026464842	0.0090000527
4461.3314538572	0.0089472216
4463.2602612303	0.0089057740
4465.1890686033	0.0088837780
4467.1178759764	0.0088787787
4469.0466833494	0.0088157151
4470.9754907225	0.0087786578
4472.9042980955	0.0088107493
4474.8331054686	0.0088758534
4476.7619128416	0.0087868320
4478.6907202147	0.0087636057
4480.6195275877	0.0087321941
4482.5483349607	0.0086456817
4484.4771423338	0.0086636208
4486.4059497068	0.0086178854
4488.3347570799	0.0086541139
4490.2635644529	0.0086775124
4492.1923718260	0.0085749226
4494.1211791990	0.0085094208
4496.0499865721	0.0085424129
4497.9787939451	0.0085123116
4499.9076013182	0.0084760282
4501.8364086912	0.0084805358
4503.7652160643	0.0084111132
4505.6940234373	0.0084053166
4507.6228308104	0.0083319023
4509.5516381834	0.0083301719
4511.4804455564	0.0083376383
4513.4092529295	0.0082805045
4515.3380603025	0.0083428193
4517.2668676756	0.0082846358
4519.1956750486	0.0082457392
4521.1244824217	0.0082309954
4523.0532897947	0.0081923101
4524.9820971678	0.0081688836
4526.9109045408	0.0081458241
4528.8397119139	0.0081897471
4530.7685192869	0.0081823468
4532.6973266600	0.0081401179
4534.6261340330	0.0080610756
4536.5549414061	0.0080843344
4538.4837487791	0.0080904383
4540.4125561521	0.0079465974
4542.3413635252	0.0079119457
4544.2701708982	0.0079897428
4546.1989782713	0.0080300225
4548.1277856443	0.0079504484
4550.0565930174	0.0079190824
4551.9854003904	0.0078918934
4553.9142077635	0.0077965008
4555.8430151365	0.0077742599
4557.7718225096	0.0078108786
4559.7006298826	0.0077730082
4561.6294372557	0.0076690596
4563.5582446287	0.0077329464
4565.4870520018	0.0077514579
4567.4158593748	0.0076921429
4569.3446667478	0.0076666088
4571.2734741209	0.0076067587
4573.2022814939	0.0076480666
4575.1310888670	0.0076018460
4577.0598962400	0.0075421985
4578.9887036131	0.0075552943
4580.9175109861	0.0075458763
4582.8463183592	0.0075593982
4584.7751257322	0.0074747466
4586.7039331053	0.0074185412
4588.6327404783	0.0074325148
4590.5615478514	0.0074414057
4592.4903552244	0.0073835184
4594.4191625975	0.0073221680
4596.3479699705	0.0073686154
4598.2767773435	0.0073294351
4600.2055847166	0.0072995164
4602.1343920896	0.0073317597
4604.0631994627	0.0073448857
4605.9920068357	0.0073394822
4607.9208142088	0.0073066861
4609.8496215818	0.0072731804
4611.7784289549	0.0072039305
4613.7072363279	0.0072384216
4615.6360437010	0.0072105192
4617.5648510740	0.0071157413
4619.4936584471	0.0071824845
4621.4224658201	0.0071845548
4623.3512731932	0.0071100602
4625.2800805662	0.0070647886
4627.2088879393	0.0070498325
4629.1376953123	0.0070204157
4631.0665026853	0.0070166392
4632.9953100584	0.0069968300
4634.9241174314	0.0069562299
4636.8529248045	0.0069880020
4638.7817321775	0.0069169207
4640.7105395506	0.0069317105
4642.6393469236	0.0069398968
4644.5681542967	0.0068872790
4646.4969616697	0.0069301110
4648.4257690428	0.0068387352
4650.3545764158	0.0068502552
4652.2833837889	0.0068677608
4654.2121911619	0.0067862086
4656.1409985350	0.0067370785
4658.0698059080	0.0066804411
4659.9986132810	0.0067331535
4661.9274206541	0.0067396145
4663.8562280271	0.0067421072
4665.7850354002	0.0067232307
4667.7138427732	0.0066428715
4669.6426501463	0.0066076163
4671.5714575193	0.0066058268
4673.5002648924	0.0066678459
4675.4290722654	0.0066394694
4677.3578796385	0.0065872665
4679.2866870115	0.0065618767
4681.2154943846	0.0064969203
4683.1443017576	0.0064652516
4685.0731091307	0.0064719948
4687.0019165037	0.0064829281
4688.9307238767	0.0064682574
4690.8595312498	0.0064439569
4692.7883386228	0.0064437580
4694.7171459959	0.0064889155
4696.6459533689	0.0064378357
4698.5747607420	0.0063841110
4700.5035681150	0.0063564363
4702.4323754881	0.0062851501
4704.3611828611	0.0063540535
4706.2899902342	0.0063241357
4708.2187976072	0.0062386114
4710.1476049803	0.0062670265
4712.0764123533	0.0062099691
4714.0052197264	0.0062070051
4715.9340270994	0.0062299045
4717.8628344724	0.0061691320
4719.7916418455	0.0061632544
4721.7204492185	0.0061305682
4723.6492565916	0.0061063319
4725.5780639646	0.0061786552
4727.5068713377	0.0061510177
4729.4356787107	0.0061377427
4731.3644860838	0.0061484268
4733.2932934568	0.0060201660
4735.2221008299	0.0060488093
4737.1509082029	0.0060931230
4739.0797155760	0.0059477147
4741.0085229490	0.0059776232
4742.9373303221	0.0060328245
4744.8661376951	0.0059888121
4746.7949450682	0.0059989388
4748.7237524412	0.0059035420
4750.6525598142	0.0059116501
4752.5813671873	0.0059426278
4754.5101745603	0.0058586029
4756.4389819334	0.0058237975
4758.3677893064	0.0057445155
4760.2965966795	0.0058386633
4762.2254040525	0.0058368561
4764.1542114256	0.0057482030
4766.0830187986	0.0058229058
4768.0118261717	0.0057220822
4769.9406335447	0.0056757703
4771.8694409178	0.0057214666
4773.7982482908	0.0057814652
4775.7270556639	0.0057334406
4777.6558630369	0.0056282254
4779.5846704099	0.0056909048
4781.5134777830	0.0056289760
4783.4422851560	0.0055868430
4785.3710925291	0.0055914745
4787.2998999021	0.0055995779
4789.2287072752	0.0056489725
4791.1575146482	0.0056141452
4793.0863220213	0.0056081484
4795.0151293943	0.0055888519
4796.9439367674	0.0054925820
4798.8727441404	0.0054532960
4800.8015515135	0.0055399486
4802.7303588865	0.0054792464
4804.6591662596	0.0054143099
4806.5879736326	0.0054685120
4808.5167810056	0.0054319743
4810.4455883787	0.0054048835
4812.3743957517	0.0053672623
4814.3032031248	0.0053521036
4816.2320104978	0.0053378092
4818.1608178709	0.0054026027
4820.0896252439	0.0054318281
4822.0184326170	0.0053412579
4823.9472399900	0.0053053172
4825.8760473631	0.0052650366
4827.8048547361	0.0053181644
4829.7336621092	0.0052751428
4831.6624694822	0.0052379258
4833.5912768553	0.0052976040
4835.5200842283	0.0053006355
4837.4488916013	0.0052869110
4839.3776989744	0.0052525476
4841.3065063474	0.0052760225
4843.2353137205	0.0050711669
4845.1641210935	0.0050277198
4847.0929284666	0.0051891953
4849.0217358396	0.0050903009
4850.9505432127	0.0050998786
4852.8793505857	0.0051322663
4854.8081579588	0.0050612884
4856.7369653318	0.0050311759
4858.6657727049	0.0050573074
4860.5945800779	0.0050142268
4862.5233874510	0.0049944893
4864.4521948240	0.0049959142
4866.3810021971	0.0049129073
4868.3098095701	0.0049456139
4870.2386169431	0.0049112849
4872.1674243162	0.0049233413
4874.0962316892	0.0049108136
4876.0250390623	0.0048528276
4877.9538464353	0.0049155699
4879.8826538084	0.0048489468
4881.8114611814	0.0048197852
4883.7402685545	0.0047888262
4885.6690759275	0.0048017860
4887.5978833006	0.0048123421
4889.5266906736	0.0047694324
4891.4554980467	0.0048029721
4893.3843054197	0.0046991808
4895.3131127928	0.0046944525
4897.2419201658	0.0047732759
4899.1707275388	0.0047589312
4901.0995349119	0.0046959482
4903.0283422849	0.0046451590
4904.9571496580	0.0047316141
4906.8859570310	0.0047753686
4908.8147644041	0.0046873679
4910.7435717771	0.0046386421
4912.6723791502	0.0046630078
4914.6011865232	0.0045832573
4916.5299938963	0.0045953440
4918.4588012693	0.0046865209
4920.3876086424	0.0046398998
4922.3164160154	0.0046209330
4924.2452233885	0.0045956029
4926.1740307615	0.0045917807
4928.1028381345	0.0045765536
4930.0316455076	0.0045370227
4931.9604528806	0.0045045693
4933.8892602537	0.0045230128
4935.8180676267	0.0046182359
4937.7468749998	0.0044808220
4939.6756823728	0.0044176532
4941.6044897459	0.0045579262
4943.5332971189	0.0044989362
4945.4621044920	0.0044176951
4947.3909118650	0.0044157086
4949.3197192381	0.0044354270
4951.2485266111	0.0044270176
4953.1773339842	0.0043270038
4955.1061413572	0.0043709539
4957.0349487302	0.0044151386
4958.9637561033	0.0042913398
4960.8925634763	0.0043050675
4962.8213708494	0.0043119513
4964.7501782224	0.0042392295
4966.6789855955	0.0042414851
4968.6077929685	0.0042425171
4970.5366003416	0.0042551290
4972.4654077146	0.0041809324
4974.3942150877	0.0041938117
4976.3230224607	0.0042566741
4978.2518298338	0.0041561010
4980.1806372068	0.0042162547
4982.1094445799	0.0042445054
4984.0382519529	0.0041501243
4985.9670593259	0.0042014476
4987.8958666990	0.0041790269
4989.8246740720	0.0041260812
4991.7534814451	0.0041076471
4993.6822888181	0.0040903119
4995.6110961912	0.0041301074
4997.5399035642	0.0040930752
4999.4687109373	0.0040986584
5001.3975183103	0.0040626386
5003.3263256834	0.0039696265
5005.2551330564	0.0040705735
5007.1839404295	0.0041009597
5009.1127478025	0.0040153908
5011.0415551756	0.0039647380
5012.9703625486	0.0040260023
5014.8991699217	0.0040809833
5016.8279772947	0.0039984677
5018.7567846677	0.0040293187
5020.6855920408	0.0039346665
5022.6143994138	0.0038496461
5024.5432067869	0.0039496771
5026.4720141599	0.0038599023
5028.4008215330	0.0038633186
5030.3296289060	0.0039349389
5032.2584362791	0.0039108386
5034.1872436521	0.0039234152
5036.1160510252	0.0039149811
5038.0448583982	0.0038258429
5039.9736657713	0.0037008713
5041.9024731443	0.0037713852
5043.8312805174	0.0037991565
5045.7600878904	0.0037779950
5047.6888952634	0.0038340664
5049.6177026365	0.0037460555
5051.5465100095	0.0037371232
5053.4753173826	0.0037514423
5055.4041247556	0.0037656254
5057.3329321287	0.0037902994
5059.2617395017	0.0037153889
5061.1905468748	0.0037215757
5063.1193542478	0.0036949613
5065.0481616209	0.0036464822
5066.9769689939	0.0036493186
5068.9057763670	0.0037109088
5070.8345837400	0.0037329090
5072.7633911131	0.0036898353
5074.6921984861	0.0036833440
5076.6210058591	0.0035631228
5078.5498132322	0.0035865456
5080.4786206052	0.0036370780
5082.4074279783	0.0035442421
5084.3362353513	0.0035678444
5086.2650427244	0.0035446458
5088.1938500974	0.0035206499
5090.1226574705	0.0035456331
5092.0514648435	0.0035281414
5093.9802722166	0.0035003116
5095.9090795896	0.0035193320
5097.8378869627	0.0035241607
5099.7666943357	0.0034814295
5101.6955017088	0.0034757743
5103.6243090818	0.0034479774
5105.5531164548	0.0034289476
5107.4819238279	0.0034082436
5109.4107312009	0.0034641542
5111.3395385740	0.0034359910
5113.2683459470	0.0033841047
5115.1971533201	0.0034563201
5117.1259606931	0.0033510709
5119.0547680662	0.0033893608
5120.9835754392	0.0034200717
5122.9123828123	0.0033207033
5124.8411901853	0.0033468355
5126.7699975584	0.0033028519
5128.6988049314	0.0032980782
5130.6276123045	0.0033056026
5132.5564196775	0.0033314009
5134.4852270506	0.0033082692
5136.4140344236	0.0032980416
5138.3428417966	0.0033111731
5140.2716491697	0.0032425665
5142.2004565427	0.0033098822
5144.1292639158	0.0032363534
5146.0580712888	0.0031717569
5147.9868786619	0.0032547924
5149.9156860349	0.0032134294
5151.8444934080	0.0031643095
5153.7733007810	0.0031789965
5155.7021081541	0.0032019843
5157.6309155271	0.0031811614
5159.5597229002	0.0031865642
5161.4885302732	0.0031548506
5163.4173376463	0.0031556922
5165.3461450193	0.0031327633
5167.2749523923	0.0031197099
5169.2037597654	0.0031721920
5171.1325671384	0.0030830740
5173.0613745115	0.0031368716
5174.9901818845	0.0031316159
5176.9189892576	0.0030488227
5178.8477966306	0.0030874847
5180.7766040037	0.0030146590
5182.7054113767	0.0030115612
5184.6342187498	0.0030598207
5186.5630261228	0.0030863746
5188.4918334959	0.0030514952
5190.4206408689	0.0030093403
5192.3494482420	0.0030663891
5194.2782556150	0.0030929162
5196.2070629880	0.0030150993
5198.1358703611	0.0029548244
5200.0646777341	0.0030232705
5201.9934851072	0.0029793337
5203.9222924802	0.0029656528
5205.8510998533	0.0029746864
5207.7799072263	0.0029227491
5209.7087145994	0.0029638037
5211.6375219724	0.0028886274
5213.5663293455	0.0029400862
5215.4951367185	0.0029961953
5217.4239440916	0.0028591296
5219.3527514646	0.0028999308
5221.2815588377	0.0029583310
5223.2103662107	0.0029005776
5225.1391735837	0.0028411662
5227.0679809568	0.0028561042
5228.9967883298	0.0029120927
5230.9255957029	0.0028775712
5232.8544030759	0.0028117793
5234.7832104490	0.0027817974
5236.7120178220	0.0027766700
5238.6408251951	0.0027727173
5240.5696325681	0.0027647840
5242.4984399412	0.0027299628
5244.4272473142	0.0027282196
5246.3560546873	0.0027980157
5248.2848620603	0.0027595905
5250.2136694334	0.0027281090
5252.1424768064	0.0027550519
5254.0712841795	0.0027064281
5256.0000915525	0.0027476815
5257.9288989255	0.0027687419
5259.8577062986	0.0027490826
5261.7865136716	0.0027254887
5263.7153210447	0.0026462108
5265.6441284177	0.0026748003
5267.5729357908	0.0026922170
5269.5017431638	0.0027201516
5271.4305505369	0.0027395203
5273.3593579099	0.0027079806
5275.2881652830	0.0027347631
5277.2169726560	0.0027409494
5279.1457800291	0.0027022653
5281.0745874021	0.0026414918
5283.0033947752	0.0026855047
5284.9322021482	0.0026607891
5286.8610095212	0.0026349607
5288.7898168943	0.0026807166
5290.7186242673	0.0025586882
5292.6474316404	0.0025986475
5294.5762390134	0.0026913839
5296.5050463865	0.0026323250
5298.4338537595	0.0026290012
5300.3626611326	0.0026264768
5302.2914685056	0.0025740527
5304.2202758787	0.0025518620
5306.1490832517	0.0025450215
5308.0778906248	0.0025277219
5310.0066979978	0.0025985267
5311.9355053709	0.0025708654
5313.8643127439	0.0024928527
5315.7931201169	0.0025241068
5317.7219274900	0.0025108401
5319.6507348630	0.0024730577
5321.5795422361	0.0024897933
5323.5083496091	0.0025070661
5325.4371569822	0.0024653208
5327.3659643552	0.0024959464
5329.2947717283	0.0024613761
5331.2235791013	0.0024441574
5333.1523864744	0.0025354305
5335.0811938474	0.0024747462
5337.0100012205	0.0024124146
5338.9388085935	0.0023648690
5340.8676159666	0.0024172128
5342.7964233396	0.0024826752
5344.7252307126	0.0024120645
5346.6540380857	0.0024045529
5348.5828454587	0.0024131185
5350.5116528318	0.0023879979
5352.4404602048	0.0023855658
5354.3692675779	0.0024285973
5356.2980749509	0.0023818435
5358.2268823240	0.0024334136
5360.1556896970	0.0024476415
5362.0844970701	0.0023055559
5364.0133044431	0.0023597812
5365.9421118162	0.0023182575
5367.8709191892	0.0022681670
5369.7997265623	0.0022828889
5371.7285339353	0.0022919066
5373.6573413083	0.0023573255
5375.5861486814	0.0022720639
5377.5149560544	0.0022604037
5379.4437634275	0.0023014424
5381.3725708005	0.0022775249
5383.3013781736	0.0022607218
5385.2301855466	0.0022341027
5387.1589929197	0.0022234337
5389.0878002927	0.0022670757
5391.0166076658	0.0022335493
5392.9454150388	0.0021230564
5394.8742224119	0.0022111153
5396.8030297849	0.0022337572
5398.7318371580	0.0021977383
5400.6606445310	0.0022699123
5402.5894519041	0.0022779759
5404.5182592771	0.0022501019
5406.4470666501	0.0022034796
5408.3758740232	0.0021985015
5410.3046813962	0.0021937094
5412.2334887693	0.0021969483
5414.1622961423	0.0021340540
5416.0911035154	0.0020850389
5418.0199108884	0.0021702442
5419.9487182615	0.0021797074
5421.8775256345	0.0021394417
5423.8063330076	0.0020983992
5425.7351403806	0.0021652905
5427.6639477537	0.0021922141
5429.5927551267	0.0020763285
5431.5215624998	0.0020382199
5433.4503698728	0.0020505018
5435.3791772458	0.0021033436
5437.3079846189	0.0021448466
5439.2367919919	0.0021417947
5441.1655993650	0.0020857798
5443.0944067380	0.0020678209
5445.0232141111	0.0020816163
5446.9520214841	0.0020117655
5448.8808288572	0.0020032681
5450.8096362302	0.0020439303
5452.7384436033	0.0020721732
5454.6672509763	0.0020794151
5456.5960583494	0.0020393138
5458.5248657224	0.0019856216
5460.4536730955	0.0019849516
5462.3824804685	0.0019994455
5464.3112878415	0.0019587113
5466.2400952146	0.0019853869
5468.1689025876	0.0021114806
5470.0977099607	0.0020859179
5472.0265173337	0.0019167289
5473.9553247068	0.0019259015
5475.8841320798	0.0019356683
5477.8129394529	0.0019266172
5479.7417468259	0.0019540146
5481.6705541990	0.0019490593
5483.5993615720	0.0020122936
5485.5281689451	0.0018909901
5487.4569763181	0.0019123877
5489.3857836912	0.0020065955
5491.3145910642	0.0018697783
5493.2433984372	0.0018690418
5495.1722058103	0.0018912936
5497.1010131833	0.0019242410
5499.0298205564	0.0019100739
5500.9586279294	0.0019655596
5502.8874353025	0.0020111720
5504.8162426755	0.0018959073
5506.7450500486	0.0019351263
5508.6738574216	0.0018928959
5510.6026647947	0.0018721820
5512.5314721677	0.0018449710
5514.4602795408	0.0018259031
5516.3890869138	0.0019407619
5518.3178942869	0.0018497333
5520.2467016599	0.0018195177
5522.1755090330	0.0018138452
5524.1043164060	0.0017900463
5526.0331237790	0.0018422405
5527.9619311521	0.0018414116
5529.8907385251	0.0018733004
5531.8195458982	0.0018438853
5533.7483532712	0.0017949251
5535.6771606443	0.0017539517
5537.6059680173	0.0017567885
5539.5347753904	0.0017368970
5541.4635827634	0.0017373017
5543.3923901365	0.0018058701
5545.3211975095	0.0017127714
5547.2500048826	0.0017774436
5549.1788122556	0.0018401404
5551.1076196287	0.0017087708
5553.0364270017	0.0017149795
5554.9652343747	0.0017293055
5556.8940417478	0.0017643762
5558.8228491208	0.0017317166
5560.7516564939	0.0016707269
5562.6804638669	0.0017809845
5564.6092712400	0.0017777784
5566.5380786130	0.0017002914
5568.4668859861	0.0017098642
5570.3956933591	0.0017050757
5572.3245007322	0.0016850505
5574.2533081052	0.0016467987
5576.1821154783	0.0016342730
5578.1109228513	0.0016130065
5580.0397302244	0.0015498260
5581.9685375974	0.0015993057
5583.8973449704	0.0016263658
5585.8261523435	0.0016016033
5587.7549597165	0.0016392858
5589.6837670896	0.0016254565
5591.6125744626	0.0016489944
5593.5413818357	0.0016444032
5595.4701892087	0.0016153260
5597.3989965818	0.0016423990
5599.3278039548	0.0015924771
5601.2566113279	0.0016086589
5603.1854187009	0.0016507141
5605.1142260740	0.0015944410
5607.0430334470	0.0015740558
5608.9718408201	0.0016193930
5610.9006481931	0.0015998882
5612.8294555661	0.0015734080
5614.7582629392	0.0016177669
5616.6870703122	0.0015906626
5618.6158776853	0.0015944401
5620.5446850583	0.0016132984
5622.4734924314	0.0015509411
5624.4022998044	0.0014973517
5626.3311071775	0.0015187862
5628.2599145505	0.0015499917
5630.1887219236	0.0015187443
5632.1175292966	0.0015483326
5634.0463366697	0.0015091649
5635.9751440427	0.0015014104
5637.9039514158	0.0015367437
5639.8327587888	0.0014746117
5641.7615661619	0.0015250089
5643.6903735349	0.0015000356
5645.6191809079	0.0014699093
5647.5479882810	0.0015079486
5649.4767956540	0.0014354417
5651.4056030271	0.0014259347
5653.3344104001	0.0014815687
5655.2632177732	0.0014743409
5657.1920251462	0.0014622924
5659.1208325193	0.0014415989
5661.0496398923	0.0013796634
5662.9784472654	0.0015034676
5664.9072546384	0.0015434329
5666.8360620115	0.0014376116
5668.7648693845	0.0014665164
5670.6936767576	0.0014202078
5672.6224841306	0.0014259454
5674.5512915036	0.0014154625
5676.4800988767	0.0013644246
5678.4089062497	0.0013981694
5680.3377136228	0.0014003624
5682.2665209958	0.0014101302
5684.1953283689	0.0014337557
5686.1241357419	0.0014335553
5688.0529431150	0.0013352525
5689.9817504880	0.0013537433
5691.9105578611	0.0013702877
5693.8393652341	0.0013787530
5695.7681726072	0.0014064597
5697.6969799802	0.0012999231
5699.6257873533	0.0014126215
5701.5545947263	0.0013815404
5703.4834020993	0.0012846373
5705.4122094724	0.0013256061
5707.3410168454	0.0012828384
5709.2698242185	0.0013736621
5711.1986315915	0.0013534199
5713.1274389646	0.0013001148
5715.0562463376	0.0013088257
5716.9850537107	0.0013279535
5718.9138610837	0.0013269517
5720.8426684568	0.0012814428
5722.7714758298	0.0013217370
5724.7002832029	0.0013023105
5726.6290905759	0.0013235514
5728.5578979490	0.0012676939
5730.4867053220	0.0012516405
5732.4155126950	0.0012826769
5734.3443200681	0.0011869820
5736.2731274411	0.0012825376
5738.2019348142	0.0013041651
5740.1307421872	0.0012885514
5742.0595495603	0.0013331582
5743.9883569333	0.0012732652
5745.9171643064	0.0012910208
5747.8459716794	0.0012823073
5749.7747790525	0.0012497504
5751.7035864255	0.0012495107
5753.6323937986	0.0012297921
5755.5612011716	0.0012281972
5757.4900085447	0.0011973244
5759.4188159177	0.0012104008
5761.3476232907	0.0012551296
5763.2764306638	0.0011851249
5765.2052380368	0.0011963262
5767.1340454099	0.0012145516
5769.0628527829	0.0011411798
5770.9916601560	0.0012425135
5772.9204675290	0.0012783117
5774.8492749021	0.0012014507
5776.7780822751	0.0012205036
5778.7068896482	0.0012058960
5780.6356970212	0.0011586100
5782.5645043943	0.0011782942
5784.4933117673	0.0011690983
5786.4221191404	0.0011297073
5788.3509265134	0.0011525298
5790.2797338865	0.0011297778
5792.2085412595	0.0011444079
5794.1373486325	0.0011066492
5796.0661560056	0.0011430474
5797.9949633786	0.0012730025
5799.9237707517	0.0011610653
5801.8525781247	0.0011913367
5803.7813854978	0.0011681204
5805.7101928708	0.0010834562
5807.6390002439	0.0011633921
5809.5678076169	0.0010902309
5811.4966149900	0.0011357781
5813.4254223630	0.0011372807
5815.3542297361	0.0011176330
5817.2830371091	0.0011523583
5819.2118444822	0.0010373639
5821.1406518552	0.0011205586
5823.0694592282	0.0011439807
5824.9982666013	0.0010671602
5826.9270739743	0.0011361083
5828.8558813474	0.0011009802
5830.7846887204	0.0010752355
5832.7134960935	0.0011210215
5834.6423034665	0.0010803507
5836.5711108396	0.0010912410
5838.4999182126	0.0011471676
5840.4287255857	0.0010868020
5842.3575329587	0.0009997418
5844.2863403318	0.0009922733
5846.2151477048	0.0010594499
5848.1439550779	0.0010610269
5850.0727624509	0.0010735919
5852.0015698239	0.0011461708
5853.9303771970	0.0010258908
5855.8591845700	0.0009721629
5857.7879919431	0.0010382796
5859.7167993161	0.0010250818
5861.6456066892	0.0010859788
5863.5744140622	0.0010381429
5865.5032214353	0.0009567654
5867.4320288083	0.0010066987
5869.3608361814	0.0010288592
5871.2896435544	0.0010343514
5873.2184509275	0.0009923970
5875.1472583005	0.0010021761
5877.0760656736	0.0010107349
5879.0048730466	0.0010114454
5880.9336804196	0.0010571358
5882.8624877927	0.0009866501
5884.7912951657	0.0009516424
5886.7201025388	0.0009327802
5888.6489099118	0.0009795565
5890.5777172849	0.0009969099
5892.5065246579	0.0009246395
5894.4353320310	0.0010309245
5896.3641394040	0.0010117169
5898.2929467771	0.0009746879
5900.2217541501	0.0009731585
5902.1505615232	0.0009077617
5904.0793688962	0.0009675871
5906.0081762693	0.0009246463
5907.9369836423	0.0009185849
5909.8657910154	0.0009730775
5911.7945983884	0.0009291929
5913.7234057614	0.0009009135
5915.6522131345	0.0009405443
5917.5810205075	0.0009694161
5919.5098278806	0.0008886409
5921.4386352536	0.0008925038
5923.3674426267	0.0009236740
5925.2962499997	0.0008981956
5927.2250573728	0.0009236088
5929.1538647458	0.0009125459
5931.0826721189	0.0008640575
5933.0114794919	0.0009180043
5934.9402868650	0.0009250372
5936.8690942380	0.0008633151
5938.7979016111	0.0009394562
5940.7267089841	0.0008982401
5942.6555163571	0.0008658792
5944.5843237302	0.0009086224
5946.5131311032	0.0008663995
5948.4419384763	0.0008879347
5950.3707458493	0.0008686224
5952.2995532224	0.0008482309
5954.2283605954	0.0007888042
5956.1571679685	0.0008149643
5958.0859753415	0.0008477464
5960.0147827146	0.0008114502
5961.9435900876	0.0009563883
5963.8723974607	0.0008973936
5965.8012048337	0.0008153263
5967.7300122068	0.0008880334
5969.6588195798	0.0008515969
5971.5876269528	0.0008250825
5973.5164343259	0.0008245786
5975.4452416989	0.0008462740
5977.3740490720	0.0008659424
5979.3028564450	0.0008560878
5981.2316638181	0.0008127502
5983.1604711911	0.0008338803
5985.0892785642	0.0008126540
5987.0180859372	0.0007475752
5988.9468933103	0.0007709682
5990.8757006833	0.0007526844
5992.8045080564	0.0007910130
5994.7333154294	0.0008150135
5996.6621228025	0.0008290304
5998.5909301755	0.0008348122
6000.5197375485	0.0007817714
