399.2631262207	0.0003190389
401.1919335938	0.0004659680
403.1207409668	0.0001256057
405.0495483398	0.0001128555
406.9783557129	0.0000637045
408.9071630859	0.0000799600
410.8359704590	0.0004262220
412.7647778320	0.0005070347
414.6935852051	0.0004354860
416.6223925781	0.0002169090
418.5511999512	0.0006325073
420.4800073242	0.0005790672
422.4088146973	0.0003441607
424.3376220703	0.0005433066
426.2664294434	0.0006601081
428.1952368164	0.0003828725
430.1240441895	0.0003218102
432.0528515625	0.0006683717
433.9816589355	0.0004018135
435.9104663086	0.0004536407
437.8392736816	0.0005131481
439.7680810547	0.0008400469
441.6968884277	0.0009131853
443.6256958008	-0.0000375797
445.5545031738	0.0001412493
447.4833105469	0.0004789125
449.4121179199	0.0006505570
451.3409252930	0.0007938383
453.2697326660	0.0002629924
455.1985400391	0.0001710268
457.1273474121	0.0001403657
459.0561547852	0.0002482629
460.9849621582	0.0002085927
462.9137695313	0.0001233332
464.8425769043	0.0004654213
466.7713842773	-0.0000277757
468.7001916504	0.0000814054
470.6289990234	0.0006316951
472.5578063965	0.0003006079
474.4866137695	0.0004116560
476.4154211426	0.0002570871
478.3442285156	0.0000935367
480.2730358887	0.0004827793
482.2018432617	0.0001974687
484.1306506348	0.0000086762
486.0594580078	0.0001460861
487.9882653809	0.0002822086
489.9170727539	0.0002058563
491.8458801270	-0.0003341881
493.7746875000	-0.0001936600
495.7034948730	0.0002735154
497.6323022461	0.0004124946
499.5611096191	0.0002344928
501.4899169922	0.0000125964
503.4187243652	0.0000129477
505.3475317383	-0.0002774788
507.2763391113	-0.0000741125
509.2051464844	0.0002836424
511.1339538574	0.0000589776
513.0627612305	0.0000231794
514.9915686035	0.0003314706
516.9203759766	0.0002152327
518.8491833496	0.0000172142
520.7779907227	0.0003503744
522.7067980957	-0.0001008110
524.6356054688	-0.0000607732
526.5644128418	0.0004315450
528.4932202148	0.0000215444
530.4220275879	0.0000558963
532.3508349609	0.0003717321
534.2796423340	0.0001564489
536.2084497070	0.0002230252
538.1372570801	0.0003754404
540.0660644531	0.0001690636
541.9948718262	0.0002632635
543.9236791992	0.0004926367
545.8524865723	0.0002914394
547.7812939453	0.0001317033
549.7101013184	0.0001527190
551.6389086914	0.0000891985
553.5677160645	-0.0001638926
555.4965234375	-0.0002520273
557.4253308105	-0.0000552680
559.3541381836	0.0001265660
561.2829455566	0.0000668159
563.2117529297	0.0001649320
565.1405603027	0.0003730612
567.0693676758	0.0000618244
568.9981750488	0.0001674357
570.9269824219	0.0001674042
572.8557897949	-0.0001049716
574.7845971680	0.0003773614
576.7134045410	0.0002280198
578.6422119141	-0.0000867723
580.5710192871	0.0003096843
582.4998266602	0.0002698512
584.4286340332	0.0001719188
586.3574414063	0.0001690087
588.2862487793	0.0000078102
590.2150561523	-0.0000216314
592.1438635254	-0.0000839136
594.0726708984	0.0000466404
596.0014782715	0.0001133943
597.9302856445	0.0001803925
599.8590930176	0.0001124392
601.7879003906	-0.0000552173
603.7167077637	0.0000349037
605.6455151367	-0.0000581813
607.5743225098	0.0002153221
609.5031298828	0.0003695924
611.4319372559	0.0002893867
613.3607446289	0.0002425715
615.2895520020	-0.0000154478
617.2183593750	-0.0000899566
619.1471667480	-0.0000477877
621.0759741211	0.0002063405
623.0047814941	0.0003692194
624.9335888672	0.0002522833
626.8623962402	0.0001791498
628.7912036133	0.0002703623
630.7200109863	0.0002629248
632.6488183594	0.0002709540
634.5776257324	0.0005497534
636.5064331055	0.0004078248
638.4352404785	0.0004596334
640.3640478516	0.0008767259
642.2928552246	0.0006101386
644.2216625977	0.0005333011
646.1504699707	0.0008210604
648.0792773438	0.0008507349
650.0080847168	0.0011078086
651.9368920898	0.0009356301
653.8656994629	0.0008335382
655.7945068359	0.0012607253
657.7233142090	0.0008539690
659.6521215820	0.0011465210
661.5809289551	0.0013645813
663.5097363281	0.0009096644
665.4385437012	0.0013677108
667.3673510742	0.0011427405
669.2961584473	0.0012586496
671.2249658203	0.0013458917
673.1537731934	0.0009498403
675.0825805664	0.0016320259
677.0113879395	0.0015357865
678.9401953125	0.0011404834
680.8690026855	0.0015134171
682.7978100586	0.0016429489
684.7266174316	0.0013863484
686.6554248047	0.0015760083
688.5842321777	0.0016284664
690.5130395508	0.0014757205
692.4418469238	0.0019880477
694.3706542969	0.0019561579
696.2994616699	0.0021417346
698.2282690430	0.0023987736
700.1570764160	0.0024320893
702.0858837891	0.0025733325
704.0146911621	0.0020444803
705.9434985352	0.0021613145
707.8723059082	0.0019105282
709.8011132813	0.0012712486
711.7299206543	0.0012123813
713.6587280273	0.0007388801
715.5875354004	0.0003980429
717.5163427734	0.0002099048
719.4451501465	0.0001569770
721.3739575195	0.0003312692
723.3027648926	0.0002700369
725.2315722656	0.0001786433
727.1603796387	0.0003809425
729.0891870117	0.0003113991
731.0179943848	0.0002948776
732.9468017578	0.0002898215
734.8756091309	0.0001040899
736.8044165039	0.0003448273
738.7332238770	0.0001587438
740.6620312500	0.0001553753
742.5908386230	0.0002809897
744.5196459961	0.0002585756
746.4484533691	0.0003576908
748.3772607422	0.0003950570
750.3060681152	0.0005719820
752.2348754883	0.0000257108
754.1636828613	0.0001052613
756.0924902344	0.0005356786
758.0212976074	0.0004356167
759.9501049805	0.0004630905
761.8789123535	0.0001762613
763.8077197266	0.0004791825
765.7365270996	0.0003702237
767.6653344727	0.0000656160
769.5941418457	0.0003884522
771.5229492188	0.0002046955
773.4517565918	0.0002287393
775.3805639648	0.0001931928
777.3093713379	0.0000575183
779.2381787109	0.0002896349
781.1669860840	0.0004644592
783.0957934570	0.0002902630
785.0246008301	0.0002789701
786.9534082031	0.0004478070
788.8822155762	0.0003570194
790.8110229492	0.0002966832
792.7398303223	-0.0000262977
794.6686376953	0.0002413765
796.5974450684	0.0006051885
798.5262524414	0.0005488024
800.4550598145	0.0006214732
802.3838671875	0.0004831089
804.3126745605	0.0006141295
806.2414819336	0.0003581312
808.1702893066	0.0002099176
810.0990966797	0.0006056490
812.0279040527	0.0005139239
813.9567114258	0.0002737073
815.8855187988	0.0001942870
817.8143261719	0.0003631743
819.7431335449	0.0005117791
821.6719409180	0.0005593123
823.6007482910	0.0004440131
825.5295556641	0.0004591102
827.4583630371	0.0006905247
829.3871704102	0.0005201266
831.3159777832	0.0004928872
833.2447851563	0.0007593377
835.1735925293	0.0009106629
837.1023999023	0.0009209777
839.0312072754	0.0008227630
840.9600146484	0.0007061055
842.8888220215	0.0008431807
844.8176293945	0.0007391198
846.7464367676	0.0004522830
848.6752441406	0.0007692869
850.6040515137	0.0006777726
852.5328588867	0.0006439897
854.4616662598	0.0008357945
856.3904736328	0.0004280313
858.3192810059	0.0005762129
860.2480883789	0.0006254710
862.1768957520	0.0004023463
864.1057031250	0.0006469563
866.0345104980	0.0003534388
867.9633178711	0.0001761175
869.8921252441	0.0003463404
871.8209326172	0.0001067595
873.7497399902	0.0002419445
875.6785473633	0.0004596368
877.6073547363	0.0003699328
879.5361621094	0.0003915134
881.4649694824	0.0004341140
883.3937768555	0.0003945924
885.3225842285	0.0003106789
887.2513916016	0.0003746056
889.1801989746	0.0003861617
891.1090063477	0.0006171270
893.0378137207	0.0005483837
894.9666210938	0.0000510865
896.8954284668	0.0003451286
898.8242358398	0.0006632521
900.7530432129	0.0006315825
902.6818505859	0.0006443990
904.6106579590	0.0005943459
906.5394653320	0.0003758489
908.4682727051	0.0002499187
910.3970800781	0.0003074478
912.3258874512	0.0001548631
914.2546948242	0.0005473923
916.1835021973	0.0007181839
918.1123095703	0.0005333567
920.0411169434	0.0007817923
921.9699243164	0.0006726516
923.8987316895	0.0008114934
925.8275390625	0.0009719617
927.7563464355	0.0007810765
929.6851538086	0.0007820327
931.6139611816	0.0008599454
933.5427685547	0.0009334889
935.4715759277	0.0008724823
937.4003833008	0.0009736710
939.3291906738	0.0010164687
941.2579980469	0.0011264775
943.1868054199	0.0012743738
945.1156127930	0.0011250292
947.0444201660	0.0011687123
948.9732275391	0.0012286608
950.9020349121	0.0012951944
952.8308422852	0.0011550436
954.7596496582	0.0009856410
956.6884570313	0.0011896722
958.6172644043	0.0011341723
960.5460717773	0.0012227285
962.4748791504	0.0012761257
964.4036865234	0.0010393488
966.3324938965	0.0011768001
968.2613012695	0.0011687337
970.1901086426	0.0011664742
972.1189160156	0.0013624289
974.0477233887	0.0014479060
975.9765307617	0.0016461550
977.9053381348	0.0015674622
979.8341455078	0.0016457482
981.7629528809	0.0019472027
983.6917602539	0.0017568995
985.6205676270	0.0019363089
987.5493750000	0.0025119679
989.4781823730	0.0026678531
991.4069897461	0.0028094701
993.3357971191	0.0031497981
995.2646044922	0.0035461097
997.1934118652	0.0036925271
999.1222192383	0.0036209254
1001.0510266113	0.0040784320
1002.9798339844	0.0044263992
1004.9086413574	0.0045799310
1006.8374487305	0.0051761181
1008.7662561035	0.0054343604
1010.6950634766	0.0055934782
1012.6238708496	0.0058826520
1014.5526782227	0.0060772011
1016.4814855957	0.0064438577
1018.4102929688	0.0068755508
1020.3391003418	0.0071661677
1022.2679077148	0.0073003080
1024.1967150879	0.0075439224
1026.1255224609	0.0077001415
1028.0543298340	0.0079799220
1029.9831372070	0.0081312377
1031.9119445801	0.0082159583
1033.8407519531	0.0086361151
1035.7695593262	0.0084881857
1037.6983666992	0.0084667597
1039.6271740723	0.0086600184
1041.5559814453	0.0086169206
1043.4847888184	0.0084978826
1045.4135961914	0.0082870089
1047.3424035645	0.0083587132
1049.2712109375	0.0080561852
1051.2000183105	0.0078549655
1053.1288256836	0.0076961340
1055.0576330566	0.0072916951
1056.9864404297	0.0073444881
1058.9152478027	0.0073579578
1060.8440551758	0.0071496135
1062.7728625488	0.0067693675
1064.7016699219	0.0065503987
1066.6304772949	0.0063509829
1068.5592846680	0.0060634958
1070.4880920410	0.0056592328
1072.4168994141	0.0055638729
1074.3457067871	0.0055662896
1076.2745141602	0.0048644342
1078.2033215332	0.0049797683
1080.1321289062	0.0047045629
1082.0609362793	0.0043016877
1083.9897436523	0.0045589190
1085.9185510254	0.0039000493
1087.8473583984	0.0040459614
1089.7761657715	0.0038480016
1091.7049731445	0.0032850902
1093.6337805176	0.0034792190
1095.5625878906	0.0032246700
1097.4913952637	0.0032025604
1099.4202026367	0.0031077575
1101.3490100098	0.0031615770
1103.2778173828	0.0029539906
1105.2066247559	0.0027241381
1107.1354321289	0.0029646493
1109.0642395019	0.0028009168
1110.9930468750	0.0029194029
1112.9218542480	0.0028482364
1114.8506616211	0.0028012500
1116.7794689941	0.0028201093
1118.7082763672	0.0027233530
1120.6370837402	0.0028783130
1122.5658911133	0.0029302440
1124.4946984863	0.0030108481
1126.4235058594	0.0027845101
1128.3523132324	0.0029627597
1130.2811206055	0.0030978625
1132.2099279785	0.0030547697
1134.1387353516	0.0031447872
1136.0675427246	0.0029875999
1137.9963500977	0.0034852731
1139.9251574707	0.0035437029
1141.8539648437	0.0038868564
1143.7827722168	0.0044392068
1145.7115795898	0.0040083304
1147.6403869629	0.0042642797
1149.5691943359	0.0046363045
1151.4980017090	0.0048656422
1153.4268090820	0.0051056384
1155.3556164551	0.0054617957
1157.2844238281	0.0058485270
1159.2132312012	0.0056808051
1161.1420385742	0.0059556160
1163.0708459473	0.0061681322
1164.9996533203	0.0062730392
1166.9284606934	0.0065270672
1168.8572680664	0.0067443219
1170.7860754394	0.0071233711
1172.7148828125	0.0071512731
1174.6436901855	0.0073817587
1176.5724975586	0.0077084126
1178.5013049316	0.0078543816
1180.4301123047	0.0081036519
1182.3589196777	0.0084397616
1184.2877270508	0.0088908300
1186.2165344238	0.0091711218
1188.1453417969	0.0096183969
1190.0741491699	0.0101718418
1192.0029565430	0.0106079020
1193.9317639160	0.0109478366
1195.8605712891	0.0111163836
1197.7893786621	0.0115418276
1199.7181860351	0.0123222619
1201.6469934082	0.0130097382
1203.5758007812	0.0133644948
1205.5046081543	0.0138844727
1207.4334155273	0.0144799417
1209.3622229004	0.0147425747
1211.2910302734	0.0151149035
1213.2198376465	0.0155397467
1215.1486450195	0.0158345401
1217.0774523926	0.0162746552
1219.0062597656	0.0165868811
1220.9350671387	0.0167671666
1222.8638745117	0.0168648250
1224.7926818848	0.0168368760
1226.7214892578	0.0172093846
1228.6502966308	0.0172566604
1230.5791040039	0.0171548519
1232.5079113769	0.0173155107
1234.4367187500	0.0170969907
1236.3655261230	0.0172267668
1238.2943334961	0.0171888694
1240.2231408691	0.0171162188
1242.1519482422	0.0172872562
1244.0807556152	0.0169784315
1246.0095629883	0.0168262646
1247.9383703613	0.0167176500
1249.8671777344	0.0167353638
1251.7959851074	0.0167116616
1253.7247924805	0.0165786780
1255.6535998535	0.0162667707
1257.5824072266	0.0158807058
1259.5112145996	0.0158790741
1261.4400219726	0.0154708195
1263.3688293457	0.0154219260
1265.2976367187	0.0152467471
1267.2264440918	0.0148392320
1269.1552514648	0.0149348779
1271.0840588379	0.0144604295
1273.0128662109	0.0142025817
1274.9416735840	0.0140687069
1276.8704809570	0.0138687901
1278.7992883301	0.0136880428
1280.7280957031	0.0132695930
1282.6569030762	0.0131142177
1284.5857104492	0.0127724186
1286.5145178223	0.0124732675
1288.4433251953	0.0123583227
1290.3721325683	0.0124735534
1292.3009399414	0.0123633370
1294.2297473144	0.0118479896
1296.1585546875	0.0117808413
1298.0873620605	0.0118733849
1300.0161694336	0.0120510403
1301.9449768066	0.0120750889
1303.8737841797	0.0120077971
1305.8025915527	0.0121989148
1307.7313989258	0.0124112628
1309.6602062988	0.0126245236
1311.5890136719	0.0128062442
1313.5178210449	0.0130479112
1315.4466284180	0.0133436602
1317.3754357910	0.0136207277
1319.3042431640	0.0138237067
1321.2330505371	0.0142591745
1323.1618579101	0.0148319127
1325.0906652832	0.0152073829
1327.0194726562	0.0154749611
1328.9482800293	0.0158011392
1330.8770874023	0.0162888281
1332.8058947754	0.0165955834
1334.7347021484	0.0168901123
1336.6635095215	0.0170568824
1338.5923168945	0.0170491990
1340.5211242676	0.0173258316
1342.4499316406	0.0177456588
1344.3787390137	0.0178436320
1346.3075463867	0.0177244339
1348.2363537597	0.0178101324
1350.1651611328	0.0176149737
1352.0939685058	0.0175767727
1354.0227758789	0.0175450332
1355.9515832519	0.0171425976
1357.8803906250	0.0170852244
1359.8091979980	0.0168766547
1361.7380053711	0.0163361076
1363.6668127441	0.0160958152
1365.5956201172	0.0165897533
1367.5244274902	0.0163913667
1369.4532348633	0.0159793608
1371.3820422363	0.0164183415
1373.3108496094	0.0160418786
1375.2396569824	0.0158664808
1377.1684643555	0.0160830952
1379.0972717285	0.0159707330
1381.0260791015	0.0158996806
1382.9548864746	0.0158937946
1384.8836938476	0.0159159712
1386.8125012207	0.0154491384
1388.7413085937	0.0156678110
1390.6701159668	0.0164592080
1392.5989233398	0.0162916444
1394.5277307129	0.0156834796
1396.4565380859	0.0160659626
1398.3853454590	0.0160867982
1400.3141528320	0.0160118155
1402.2429602051	0.0169769898
1404.1717675781	0.0163401086
1406.1005749512	0.0163721684
1408.0293823242	0.0168266762
1409.9581896972	0.0163879097
1411.8869970703	0.0167746879
1413.8158044433	0.0162460897
1415.7446118164	0.0162742175
1417.6734191894	0.0150348591
1419.6022265625	0.0138748651
1421.5310339355	0.0152831748
1423.4598413086	0.0147895468
1425.3886486816	0.0144871604
1427.3174560547	0.0144614112
1429.2462634277	0.0134195611
1431.1750708008	0.0132652260
1433.1038781738	0.0133788064
1435.0326855469	0.0122922361
1436.9614929199	0.0109337680
1438.8903002929	0.0119059877
1440.8191076660	0.0119407568
1442.7479150390	0.0112371007
1444.6767224121	0.0115712676
1446.6055297851	0.0109585412
1448.5343371582	0.0110950749
1450.4631445312	0.0112962890
1452.3919519043	0.0115931695
1454.3207592773	0.0118515315
1456.2495666504	0.0105790924
1458.1783740234	0.0111051556
1460.1071813965	0.0134462304
1462.0359887695	0.0143814031
1463.9647961426	0.0142492671
1465.8936035156	0.0147785218
1467.8224108886	0.0166271813
1469.7512182617	0.0175984725
1471.6800256347	0.0165686086
1473.6088330078	0.0172446556
1475.5376403808	0.0191417411
1477.4664477539	0.0203640107
1479.3952551269	0.0218835846
1481.3240625000	0.0227318294
1483.2528698730	0.0238842629
1485.1816772461	0.0246127285
1487.1104846191	0.0244377200
1489.0392919922	0.0242008977
1490.9680993652	0.0246859901
1492.8969067383	0.0277154371
1494.8257141113	0.0270911530
1496.7545214843	0.0252303127
1498.6833288574	0.0278377198
1500.6121362304	0.0283653662
1502.5409436035	0.0301010124
1504.4697509765	0.0288530551
1506.3985583496	0.0227718502
1508.3273657226	0.0265906490
1510.2561730957	0.0299197938
1512.1849804687	0.0294141136
1514.1137878418	0.0312488526
1516.0425952148	0.0287697017
1517.9714025879	0.0299921818
1519.9002099609	0.0288467743
1521.8290173340	0.0260814540
1523.7578247070	0.0304319095
1525.6866320801	0.0296742022
1527.6154394531	0.0296535157
1529.5442468261	0.0319965705
1531.4730541992	0.0310053676
1533.4018615722	0.0290844552
1535.3306689453	0.0304415450
1537.2594763183	0.0316854082
1539.1882836914	0.0244917013
1541.1170910644	0.0256035402
1543.0458984375	0.0293214824
1544.9747058105	0.0283613764
1546.9035131836	0.0319718868
1548.8323205566	0.0304030739
1550.7611279297	0.0311475322
1552.6899353027	0.0308086574
1554.6187426758	0.0289361700
1556.5475500488	0.0300155599
1558.4763574218	0.0230912454
1560.4051647949	0.0249371529
1562.3339721679	0.0321050398
1564.2627795410	0.0306214318
1566.1915869140	0.0312518403
1568.1203942871	0.0308713987
1570.0492016601	0.0281621013
1571.9780090332	0.0313324928
1573.9068164062	0.0315496325
1575.8356237793	0.0263439417
1577.7644311523	0.0289833434
1579.6932385254	0.0317542776
1581.6220458984	0.0305605773
1583.5508532715	0.0312197134
1585.4796606445	0.0307182595
1587.4084680175	0.0309440810
1589.3372753906	0.0306585915
1591.2660827636	0.0305119622
1593.1948901367	0.0307158381
1595.1236975097	0.0305380076
1597.0525048828	0.0306487158
1598.9813122558	0.0302889496
1600.9101196289	0.0305732749
1602.8389270019	0.0300495662
1604.7677343750	0.0303149298
1606.6965417480	0.0301977135
1608.6253491211	0.0301657580
1610.5541564941	0.0299460478
1612.4829638672	0.0301470850
1614.4117712402	0.0304408036
1616.3405786132	0.0261124931
1618.2693859863	0.0280595496
1620.1981933593	0.0314627551
1622.1270007324	0.0288518704
1624.0558081054	0.0292571243
1625.9846154785	0.0303780921
1627.9134228515	0.0303986724
1629.8422302246	0.0304373875
1631.7710375976	0.0322936550
1633.6998449707	0.0303780735
1635.6286523437	0.0266869888
1637.5574597168	0.0301288217
1639.4862670898	0.0325740799
1641.4150744629	0.0324549749
1643.3438818359	0.0331812352
1645.2726892090	0.0310344398
1647.2014965820	0.0287182145
1649.1303039550	0.0341179892
1651.0591113281	0.0326748118
1652.9879187011	0.0236770250
1654.9167260742	0.0301531479
1656.8455334472	0.0360477231
1658.7743408203	0.0349564478
1660.7031481933	0.0362326801
1662.6319555664	0.0338480473
1664.5607629394	0.0353533477
1666.4895703125	0.0376122892
1668.4183776855	0.0339922272
1670.3471850586	0.0335937291
1672.2759924316	0.0372251272
1674.2047998047	0.0350923352
1676.1336071777	0.0342833102
1678.0624145507	0.0379727706
1679.9912219238	0.0369727314
1681.9200292968	0.0370844938
1683.8488366699	0.0316035338
1685.7776440429	0.0315093622
1687.7064514160	0.0402101800
1689.6352587890	0.0360542573
1691.5640661621	0.0389119051
1693.4928735351	0.0392030776
1695.4216809082	0.0309624672
1697.3504882812	0.0364618786
1699.2792956543	0.0328787714
1701.2081030273	0.0306104701
1703.1369104004	0.0386934802
1705.0657177734	0.0360545889
1706.9945251464	0.0362966508
1708.9233325195	0.0385596007
1710.8521398925	0.0372549593
1712.7809472656	0.0376403630
1714.7097546386	0.0354315750
1716.6385620117	0.0324859284
1718.5673693847	0.0321258530
1720.4961767578	0.0366666988
1722.4249841308	0.0373205394
1724.3537915039	0.0350993574
1726.2825988769	0.0373369083
1728.2114062500	0.0350075588
1730.1402136230	0.0351862870
1732.0690209961	0.0339730307
1733.9978283691	0.0277911238
1735.9266357421	0.0327570476
1737.8554431152	0.0352493040
1739.7842504882	0.0321304947
1741.7130578613	0.0341703109
1743.6418652343	0.0346810594
1745.5706726074	0.0345855653
1747.4994799804	0.0349261686
1749.4282873535	0.0336708650
1751.3570947265	0.0323617831
1753.2859020996	0.0351161659
1755.2147094726	0.0360141359
1757.1435168457	0.0335941464
1759.0723242187	0.0361237042
1761.0011315918	0.0342799276
1762.9299389648	0.0335531048
1764.8587463379	0.0369882323
1766.7875537109	0.0340300575
1768.7163610839	0.0341520123
1770.6451684570	0.0338108987
1772.5739758300	0.0312362555
1774.5027832031	0.0337609649
1776.4315905761	0.0350847542
1778.3603979492	0.0346974991
1780.2892053222	0.0344132222
1782.2180126953	0.0344994664
1784.1468200683	0.0343512446
1786.0756274414	0.0338411480
1788.0044348144	0.0350909755
1789.9332421875	0.0343448557
1791.8620495605	0.0317575857
1793.7908569336	0.0328405201
1795.7196643066	0.0346131623
1797.6484716796	0.0340526886
1799.5772790527	0.0336502865
1801.5060864257	0.0331863388
1803.4348937988	0.0338039845
1805.3637011718	0.0343362801
1807.2925085449	0.0340927243
1809.2213159179	0.0340931118
1811.1501232910	0.0333169997
1813.0789306640	0.0339893624
1815.0077380371	0.0340745226
1816.9365454101	0.0338416807
1818.8653527832	0.0339392424
1820.7941601562	0.0338015854
1822.7229675293	0.0340668075
1824.6517749023	0.0324063301
1826.5805822753	0.0332204103
1828.5093896484	0.0331357643
1830.4381970214	0.0317641646
1832.3670043945	0.0336198956
1834.2958117675	0.0333532244
1836.2246191406	0.0332605541
1838.1534265136	0.0331224576
1840.0822338867	0.0333225913
1842.0110412597	0.0331018940
1843.9398486328	0.0304138400
1845.8686560058	0.0319706053
1847.7974633789	0.0331882834
1849.7262707519	0.0324556604
1851.6550781250	0.0330406688
1853.5838854980	0.0326739252
1855.5126928710	0.0327318385
1857.4415002441	0.0325621888
1859.3703076171	0.0324721113
1861.2991149902	0.0325356647
1863.2279223632	0.0321130268
1865.1567297363	0.0323655531
1867.0855371093	0.0315439701
1869.0143444824	0.0304054134
1870.9431518554	0.0314504690
1872.8719592285	0.0322129950
1874.8007666015	0.0317467861
1876.7295739746	0.0320220031
1878.6583813476	0.0319149904
1880.5871887207	0.0318085700
1882.5159960937	0.0318014398
1884.4448034667	0.0313242115
1886.3736108398	0.0315617025
1888.3024182128	0.0309536234
1890.2312255859	0.0306905769
1892.1600329589	0.0315729156
1894.0888403320	0.0311014745
1896.0176477050	0.0308980197
1897.9464550781	0.0313026384
1899.8752624511	0.0310320370
1901.8040698242	0.0309545994
1903.7328771972	0.0308569986
1905.6616845703	0.0307391062
1907.5904919433	0.0306598134
1909.5192993164	0.0305515472
1911.4481066894	0.0304452982
1913.3769140625	0.0304701366
1915.3057214355	0.0306972302
1917.2345288085	0.0297548883
1919.1633361816	0.0297087692
1921.0921435546	0.0304729044
1923.0209509277	0.0297371373
1924.9497583007	0.0300458875
1926.8785656738	0.0302966125
1928.8073730468	0.0300345160
1930.7361804199	0.0302012339
1932.6649877929	0.0297779180
1934.5937951660	0.0300503671
1936.5226025390	0.0299387425
1938.4514099121	0.0297694746
1940.3802172851	0.0298363194
1942.3090246582	0.0291580632
1944.2378320312	0.0294330232
1946.1666394042	0.0297434442
1948.0954467773	0.0296258107
1950.0242541503	0.0297435224
1951.9530615234	0.0297030695
1953.8818688964	0.0297037009
1955.8106762695	0.0294634216
1957.7394836425	0.0293954723
1959.6682910156	0.0295400936
1961.5970983886	0.0294136219
1963.5259057617	0.0295003131
1965.4547131347	0.0293443389
1967.3835205078	0.0289636329
1969.3123278808	0.0291840211
1971.2411352539	0.0292814951
1973.1699426269	0.0291768126
1975.0987499999	0.0291645303
1977.0275573730	0.0290452577
1978.9563647460	0.0290772375
1980.8851721191	0.0290027522
1982.8139794921	0.0289761759
1984.7427868652	0.0289679915
1986.6715942382	0.0287453458
1988.6004016113	0.0286528673
1990.5292089843	0.0285328589
1992.4580163574	0.0283511244
1994.3868237304	0.0283964146
1996.3156311035	0.0284763724
1998.2444384765	0.0284072850
2000.1732458496	0.0284681842
2002.1020532226	0.0283150822
2004.0308605956	0.0281313136
2005.9596679687	0.0281610936
2007.8884753417	0.0280172639
2009.8172827148	0.0279889870
2011.7460900878	0.0278343130
2013.6748974609	0.0278896466
2015.6037048339	0.0278037228
2017.5325122070	0.0274129510
2019.4613195800	0.0276998058
2021.3901269531	0.0275703520
2023.3189343261	0.0273660403
2025.2477416992	0.0274862181
2027.1765490722	0.0272546038
2029.1053564453	0.0272830166
2031.0341638183	0.0272925552
2032.9629711914	0.0271515250
2034.8917785644	0.0270114057
2036.8205859374	0.0270677172
2038.7493933105	0.0269856658
2040.6782006835	0.0266843252
2042.6070080566	0.0268594734
2044.5358154296	0.0267652348
2046.4646228027	0.0265445858
2048.3934301757	0.0265917201
2050.3222375488	0.0266564116
2052.2510449218	0.0265587233
2054.1798522949	0.0262713581
2056.1086596679	0.0264623575
2058.0374670410	0.0264511462
2059.9662744140	0.0262679048
2061.8950817871	0.0263486616
2063.8238891601	0.0261638779
2065.7526965331	0.0261107199
2067.6815039062	0.0261431150
2069.6103112792	0.0260502398
2071.5391186523	0.0259489696
2073.4679260253	0.0258711688
2075.3967333984	0.0258140881
2077.3255407714	0.0257532075
2079.2543481445	0.0255309362
2081.1831555175	0.0253992416
2083.1119628906	0.0256745629
2085.0407702636	0.0255864337
2086.9695776367	0.0254653711
2088.8983850097	0.0255505908
2090.8271923828	0.0254986398
2092.7559997558	0.0255289935
2094.6848071288	0.0253697932
2096.6136145019	0.0252656899
2098.5424218749	0.0252378378
2100.4712292480	0.0252302699
2102.4000366210	0.0251653567
2104.3288439941	0.0250473730
2106.2576513671	0.0250658877
2108.1864587402	0.0249382742
2110.1152661132	0.0249812827
2112.0440734863	0.0249491930
2113.9728808593	0.0247577354
2115.9016882324	0.0247433838
2117.8304956054	0.0248073507
2119.7593029785	0.0247528143
2121.6881103515	0.0245810077
2123.6169177245	0.0246761125
2125.5457250976	0.0246563628
2127.4745324706	0.0245899633
2129.4033398437	0.0244898610
2131.3321472167	0.0243271627
2133.2609545898	0.0244727135
2135.1897619628	0.0245338678
2137.1185693359	0.0243777856
2139.0473767089	0.0242318623
2140.9761840820	0.0243143104
2142.9049914550	0.0242076349
2144.8337988281	0.0241423436
2146.7626062011	0.0242131576
2148.6914135742	0.0241437424
2150.6202209472	0.0241888799
2152.5490283203	0.0239711776
2154.4778356933	0.0240201931
2156.4066430663	0.0240402706
2158.3354504394	0.0239117257
2160.2642578124	0.0239520594
2162.1930651855	0.0237388723
2164.1218725585	0.0238031112
2166.0506799316	0.0237427130
2167.9794873046	0.0236991923
2169.9082946777	0.0237596892
2171.8371020507	0.0237619840
2173.7659094238	0.0237972997
2175.6947167968	0.0235491972
2177.6235241699	0.0236519706
2179.5523315429	0.0236278735
2181.4811389160	0.0234868191
2183.4099462890	0.0235243924
2185.3387536620	0.0234005861
2187.2675610351	0.0233586691
2189.1963684081	0.0233280621
2191.1251757812	0.0233795177
2193.0539831542	0.0232900605
2194.9827905273	0.0232760794
2196.9115979003	0.0233371966
2198.8404052734	0.0232145786
2200.7692126464	0.0231649205
2202.6980200195	0.0230920836
2204.6268273925	0.0229679272
2206.5556347656	0.0229565613
2208.4844421386	0.0230279602
2210.4132495117	0.0229142252
2212.3420568847	0.0230622776
2214.2708642577	0.0230710264
2216.1996716308	0.0228396244
2218.1284790038	0.0229125414
2220.0572863769	0.0227359235
2221.9860937499	0.0227292888
2223.9149011230	0.0227596480
2225.8437084960	0.0226741526
2227.7725158691	0.0226416737
2229.7013232421	0.0225799698
2231.6301306152	0.0226487592
2233.5589379882	0.0224405844
2235.4877453613	0.0224195328
2237.4165527343	0.0224373955
2239.3453601074	0.0223309472
2241.2741674804	0.0223917626
2243.2029748534	0.0223876536
2245.1317822265	0.0223693959
2247.0605895995	0.0222471263
2248.9893969726	0.0222233087
2250.9182043456	0.0221082196
2252.8470117187	0.0220879465
2254.7758190917	0.0221459381
2256.7046264648	0.0220315699
2258.6334338378	0.0220612735
2260.5622412109	0.0219648108
2262.4910485839	0.0219959635
2264.4198559570	0.0220253132
2266.3486633300	0.0219485015
2268.2774707031	0.0219069030
2270.2062780761	0.0217700657
2272.1350854491	0.0217329524
2274.0638928222	0.0216601752
2275.9927001952	0.0217098221
2277.9215075683	0.0217514932
2279.8503149413	0.0217167009
2281.7791223144	0.0216129683
2283.7079296874	0.0214976389
2285.6367370605	0.0215566903
2287.5655444335	0.0214293078
2289.4943518066	0.0213751663
2291.4231591796	0.0213567410
2293.3519665527	0.0213113278
2295.2807739257	0.0212519169
2297.2095812988	0.0211145580
2299.1383886718	0.0211599823
2301.0671960449	0.0210428834
2302.9960034179	0.0209898613
2304.9248107909	0.0209535304
2306.8536181640	0.0207256023
2308.7824255370	0.0205579959
2310.7112329101	0.0203386564
2312.6400402831	0.0202580057
2314.5688476562	0.0200883299
2316.4976550292	0.0198559016
2318.4264624023	0.0197299011
2320.3552697753	0.0193944406
2322.2840771484	0.0191242546
2324.2128845214	0.0189456567
2326.1416918945	0.0186703280
2328.0704992675	0.0185324103
2329.9993066406	0.0184167754
2331.9281140136	0.0182603169
2333.8569213866	0.0182067603
2335.7857287597	0.0179726668
2337.7145361327	0.0179848634
2339.6433435058	0.0181492213
2341.5721508788	0.0180312805
2343.5009582519	0.0183462240
2345.4297656249	0.0185504556
2347.3585729980	0.0189676844
2349.2873803710	0.0196790751
2351.2161877441	0.0191667061
2353.1449951171	0.0183961280
2355.0738024902	0.0177966021
2357.0026098632	0.0172151923
2358.9314172363	0.0170325115
2360.8602246093	0.0167802237
2362.7890319823	0.0166585967
2364.7178393554	0.0166629869
2366.6466467284	0.0169020090
2368.5754541015	0.0172892474
2370.5042614745	0.0175977461
2372.4330688476	0.0180258006
2374.3618762206	0.0184465423
2376.2906835937	0.0188584737
2378.2194909667	0.0190999340
2380.1482983398	0.0194215626
2382.0771057128	0.0196837969
2384.0059130859	0.0196800493
2385.9347204589	0.0196382906
2387.8635278320	0.0195700917
2389.7923352050	0.0196864009
2391.7211425780	0.0196197554
2393.6499499511	0.0195570961
2395.5787573241	0.0194769688
2397.5075646972	0.0193383433
2399.4363720702	0.0195843168
2401.3651794433	0.0195715278
2403.2939868163	0.0194694661
2405.2227941894	0.0194237120
2407.1516015624	0.0192535259
2409.0804089355	0.0193259567
2411.0092163085	0.0193903893
2412.9380236816	0.0192476995
2414.8668310546	0.0191650800
2416.7956384277	0.0191507153
2418.7244458007	0.0190368071
2420.6532531738	0.0190308020
2422.5820605468	0.0189610161
2424.5108679198	0.0189587139
2426.4396752929	0.0190474391
2428.3684826659	0.0188973956
2430.2972900390	0.0189362615
2432.2260974120	0.0189609285
2434.1549047851	0.0188835040
2436.0837121581	0.0188374426
2438.0125195312	0.0187760424
2439.9413269042	0.0187703632
2441.8701342773	0.0187673382
2443.7989416503	0.0187814571
2445.7277490234	0.0186402798
2447.6565563964	0.0186549388
2449.5853637695	0.0186430700
2451.5141711425	0.0185221136
2453.4429785155	0.0185702536
2455.3717858886	0.0184894092
2457.3005932616	0.0184489731
2459.2294006347	0.0184271224
2461.1582080077	0.0184247177
2463.0870153808	0.0183990374
2465.0158227538	0.0183857009
2466.9446301269	0.0183743909
2468.8734374999	0.0182608515
2470.8022448730	0.0183022693
2472.7310522460	0.0181953423
2474.6598596191	0.0181956626
2476.5886669921	0.0182365999
2478.5174743652	0.0181294512
2480.4462817382	0.0181117803
2482.3750891112	0.0179943927
2484.3038964843	0.0180559419
2486.2327038573	0.0180582143
2488.1615112304	0.0180021748
2490.0903186034	0.0179060884
2492.0191259765	0.0178017281
2493.9479333495	0.0179129969
2495.8767407226	0.0178058259
2497.8055480956	0.0178272296
2499.7343554687	0.0177291930
2501.6631628417	0.0176517703
2503.5919702148	0.0178569444
2505.5207775878	0.0176880900
2507.4495849609	0.0176629461
2509.3783923339	0.0176147632
2511.3071997069	0.0175220501
2513.2360070800	0.0176278297
2515.1648144530	0.0175456889
2517.0936218261	0.0175442733
2519.0224291991	0.0174710713
2520.9512365722	0.0174202360
2522.8800439452	0.0174597073
2524.8088513183	0.0173480697
2526.7376586913	0.0172909368
2528.6664660644	0.0173354186
2530.5952734374	0.0173517466
2532.5240808105	0.0171985086
2534.4528881835	0.0172147639
2536.3816955566	0.0173101164
2538.3105029296	0.0172295030
2540.2393103027	0.0171526968
2542.1681176757	0.0170814916
2544.0969250487	0.0171401985
2546.0257324218	0.0170983598
2547.9545397948	0.0170188919
2549.8833471679	0.0169896632
2551.8121545409	0.0169179961
2553.7409619140	0.0169185810
2555.6697692870	0.0168516058
2557.5985766601	0.0169301555
2559.5273840331	0.0168709829
2561.4561914062	0.0167398378
2563.3849987792	0.0167683773
2565.3138061523	0.0166575611
2567.2426135253	0.0167218167
2569.1714208984	0.0166739170
2571.1002282714	0.0166274533
2573.0290356444	0.0166615099
2574.9578430175	0.0165647510
2576.8866503905	0.0166989118
2578.8154577636	0.0165732652
2580.7442651366	0.0164086502
2582.6730725097	0.0164597705
2584.6018798827	0.0164107122
2586.5306872558	0.0163940564
2588.4594946288	0.0162910931
2590.3883020019	0.0162734278
2592.3171093749	0.0163116716
2594.2459167480	0.0162905101
2596.1747241210	0.0162469037
2598.1035314941	0.0161954798
2600.0323388671	0.0161992498
2601.9611462401	0.0161068831
2603.8899536132	0.0160741545
2605.8187609862	0.0160668120
2607.7475683593	0.0160672106
2609.6763757323	0.0161008518
2611.6051831054	0.0160113908
2613.5339904784	0.0159677137
2615.4627978515	0.0159413889
2617.3916052245	0.0159631297
2619.3204125976	0.0159792863
2621.2492199706	0.0158376209
2623.1780273437	0.0157899633
2625.1068347167	0.0158951692
2627.0356420898	0.0158342570
2628.9644494628	0.0156310163
2630.8932568358	0.0156958960
2632.8220642089	0.0156925749
2634.7508715819	0.0155796371
2636.6796789550	0.0156399347
2638.6084863280	0.0155146569
2640.5372937011	0.0155450013
2642.4661010741	0.0155664477
2644.3949084472	0.0154461907
2646.3237158202	0.0155784637
2648.2525231933	0.0154003929
2650.1813305663	0.0153181087
2652.1101379394	0.0154549815
2654.0389453124	0.0152927320
2655.9677526855	0.0152624678
2657.8965600585	0.0152960466
2659.8253674315	0.0152986301
2661.7541748046	0.0152335996
2663.6829821776	0.0151208956
2665.6117895507	0.0151689583
2667.5405969237	0.0151562188
2669.4694042968	0.0151155870
2671.3982116698	0.0151086692
2673.3270190429	0.0149965333
2675.2558264159	0.0149206053
2677.1846337890	0.0149602536
2679.1134411620	0.0148751428
2681.0422485351	0.0148994252
2682.9710559081	0.0149495434
2684.8998632812	0.0147462422
2686.8286706542	0.0147790946
2688.7574780273	0.0147908125
2690.6862854003	0.0147123300
2692.6150927733	0.0147527624
2694.5439001464	0.0146807991
2696.4727075194	0.0146509614
2698.4015148925	0.0146459658
2700.3303222655	0.0146555714
2702.2591296386	0.0145294927
2704.1879370116	0.0145032573
2706.1167443847	0.0145860799
2708.0455517577	0.0143705420
2709.9743591308	0.0143637806
2711.9031665038	0.0144167487
2713.8319738769	0.0143299960
2715.7607812499	0.0143349348
2717.6895886230	0.0143582029
2719.6183959960	0.0142977359
2721.5472033690	0.0140745146
2723.4760107421	0.0141453575
2725.4048181151	0.0142543484
2727.3336254882	0.0142106619
2729.2624328612	0.0142064486
2731.1912402343	0.0140036289
2733.1200476073	0.0140894875
2735.0488549804	0.0141580217
2736.9776623534	0.0139438417
2738.9064697265	0.0139940642
2740.8352770995	0.0139801558
2742.7640844726	0.0139331967
2744.6928918456	0.0139670726
2746.6216992187	0.0139640216
2748.5505065917	0.0139522329
2750.4793139647	0.0138512598
2752.4081213378	0.0138523839
2754.3369287108	0.0137838814
2756.2657360839	0.0137122134
2758.1945434569	0.0138114570
2760.1233508300	0.0137072327
2762.0521582030	0.0136243450
2763.9809655761	0.0136364345
2765.9097729491	0.0134696048
2767.8385803222	0.0135169756
2769.7673876952	0.0136248963
2771.6961950683	0.0134324217
2773.6250024413	0.0134171862
2775.5538098144	0.0133878607
2777.4826171874	0.0132938083
2779.4114245604	0.0133711221
2781.3402319335	0.0132560888
2783.2690393065	0.0132851545
2785.1978466796	0.0132848769
2787.1266540526	0.0131300529
2789.0554614257	0.0132173626
2790.9842687987	0.0132049434
2792.9130761718	0.0131109962
2794.8418835448	0.0130308457
2796.7706909179	0.0130692702
2798.6994982909	0.0130356075
2800.6283056640	0.0128981322
2802.5571130370	0.0129220430
2804.4859204101	0.0128434980
2806.4147277831	0.0128450831
2808.3435351562	0.0127618816
2810.2723425292	0.0127121350
2812.2011499022	0.0127838813
2814.1299572753	0.0127149466
2816.0587646483	0.0128205605
2817.9875720214	0.0126579925
2819.9163793944	0.0125490241
2821.8451867675	0.0126602333
2823.7739941405	0.0124825761
2825.7028015136	0.0124743134
2827.6316088866	0.0124366675
2829.5604162597	0.0123994518
2831.4892236327	0.0125224814
2833.4180310058	0.0124198310
2835.3468383788	0.0122950356
2837.2756457519	0.0122369537
2839.2044531249	0.0121931583
2841.1332604979	0.0121985953
2843.0620678710	0.0121422838
2844.9908752440	0.0120417625
2846.9196826171	0.0119923055
2848.8484899901	0.0119595192
2850.7772973632	0.0118874647
2852.7061047362	0.0118618384
2854.6349121093	0.0119228717
2856.5637194823	0.0119356373
2858.4925268554	0.0118666105
2860.4213342284	0.0117824879
2862.3501416015	0.0117357951
2864.2789489745	0.0117352605
2866.2077563476	0.0117351608
2868.1365637206	0.0117720682
2870.0653710936	0.0117511991
2871.9941784667	0.0117395297
2873.9229858397	0.0117780650
2875.8517932128	0.0116402376
2877.7806005858	0.0115117775
2879.7094079589	0.0114870667
2881.6382153319	0.0115012107
2883.5670227050	0.0115101039
2885.4958300780	0.0113756619
2887.4246374511	0.0112942718
2889.3534448241	0.0113376528
2891.2822521972	0.0113663208
2893.2110595702	0.0112751406
2895.1398669433	0.0111304773
2897.0686743163	0.0111837713
2898.9974816893	0.0111723039
2900.9262890624	0.0110913208
2902.8550964354	0.0111744646
2904.7839038085	0.0110362256
2906.7127111815	0.0109378500
2908.6415185546	0.0109922942
2910.5703259276	0.0109235886
2912.4991333007	0.0109006558
2914.4279406737	0.0107076839
2916.3567480468	0.0106986891
2918.2855554198	0.0107556004
2920.2143627929	0.0105529986
2922.1431701659	0.0106542371
2924.0719775390	0.0106387213
2926.0007849120	0.0105082374
2927.9295922851	0.0104928091
2929.8583996581	0.0104852635
2931.7872070311	0.0106612891
2933.7160144042	0.0106017366
2935.6448217772	0.0105235977
2937.5736291503	0.0105601074
2939.5024365233	0.0104411934
2941.4312438964	0.0104848891
2943.3600512694	0.0105261579
2945.2888586425	0.0104357973
2947.2176660155	0.0104823876
2949.1464733886	0.0104824537
2951.0752807616	0.0103504024
2953.0040881347	0.0103242025
2954.9328955077	0.0102811297
2956.8617028808	0.0101965070
2958.7905102538	0.0101729203
2960.7193176268	0.0101554841
2962.6481249999	0.0101345647
2964.5769323729	0.0100958813
2966.5057397460	0.0101319812
2968.4345471190	0.0100612072
2970.3633544921	0.0099263266
2972.2921618651	0.0099713085
2974.2209692382	0.0099824443
2976.1497766112	0.0100114895
2978.0785839843	0.0101178586
2980.0073913573	0.0101075750
2981.9361987304	0.0100176875
2983.8650061034	0.0099957306
2985.7938134765	0.0100243706
2987.7226208495	0.0100063868
2989.6514282225	0.0099449754
2991.5802355956	0.0099254651
2993.5090429686	0.0099274414
2995.4378503417	0.0098162796
2997.3666577147	0.0097775310
2999.2954650878	0.0097772768
3001.2242724608	0.0096753491
3003.1530798339	0.0096907988
3005.0818872069	0.0096928934
3007.0106945800	0.0097558945
3008.9395019530	0.0097686723
3010.8683093261	0.0095407171
3012.7971166991	0.0095952684
3014.7259240722	0.0095998682
3016.6547314452	0.0094223702
3018.5835388182	0.0095075797
3020.5123461913	0.0094962241
3022.4411535643	0.0094248392
3024.3699609374	0.0094155576
3026.2987683104	0.0093615223
3028.2275756835	0.0093369503
3030.1563830565	0.0093363514
3032.0851904296	0.0092947055
3034.0139978026	0.0092429556
3035.9428051757	0.0092709390
3037.8716125487	0.0091420151
3039.8004199218	0.0091380514
3041.7292272948	0.0091430675
3043.6580346679	0.0089573851
3045.5868420409	0.0090507725
3047.5156494139	0.0090016983
3049.4444567870	0.0090017123
3051.3732641600	0.0090639349
3053.3020715331	0.0089902207
3055.2308789061	0.0090951808
3057.1596862792	0.0089203063
3059.0884936522	0.0088661313
3061.0173010253	0.0089217909
3062.9461083983	0.0088042682
3064.8749157714	0.0087519074
3066.8037231444	0.0086116176
3068.7325305175	0.0087790284
3070.6613378905	0.0089031439
3072.5901452636	0.0087359734
3074.5189526366	0.0086981226
3076.4477600097	0.0086445753
3078.3765673827	0.0085609686
3080.3053747557	0.0085633676
3082.2341821288	0.0085673286
3084.1629895018	0.0084246593
3086.0917968749	0.0084412210
3088.0206042479	0.0085473433
3089.9494116210	0.0084539084
3091.8782189940	0.0084055169
3093.8070263671	0.0084273564
3095.7358337401	0.0084242951
3097.6646411132	0.0083037829
3099.5934484862	0.0082969889
3101.5222558593	0.0083362563
3103.4510632323	0.0081899054
3105.3798706054	0.0082173720
3107.3086779784	0.0082798172
3109.2374853514	0.0081951581
3111.1662927245	0.0080804285
3113.0951000975	0.0080558890
3115.0239074706	0.0081271827
3116.9527148436	0.0081323348
3118.8815222167	0.0081699509
3120.8103295897	0.0080597512
3122.7391369628	0.0079281842
3124.6679443358	0.0079461653
3126.5967517089	0.0079109846
3128.5255590819	0.0079667866
3130.4543664550	0.0079193767
3132.3831738280	0.0079240780
3134.3119812011	0.0079989173
3136.2407885741	0.0078984592
3138.1695959471	0.0079180021
3140.0984033202	0.0078104865
3142.0272106932	0.0077031087
3143.9560180663	0.0076734498
3145.8848254393	0.0076079946
3147.8136328124	0.0076952931
3149.7424401854	0.0076341797
3151.6712475585	0.0076609980
3153.6000549315	0.0077630780
3155.5288623046	0.0076319273
3157.4576696776	0.0076342272
3159.3864770507	0.0077487007
3161.3152844237	0.0076464689
3163.2440917968	0.0075391810
3165.1728991698	0.0075062001
3167.1017065428	0.0074517867
3169.0305139159	0.0075627463
3170.9593212889	0.0074862475
3172.8881286620	0.0074600428
3174.8169360350	0.0075346641
3176.7457434081	0.0073592500
3178.6745507811	0.0073993178
3180.6033581542	0.0073766983
3182.5321655272	0.0074065533
3184.4609729003	0.0074918577
3186.3897802733	0.0073978947
3188.3185876464	0.0074315332
3190.2473950194	0.0073919524
3192.1762023925	0.0073929308
3194.1050097655	0.0073917508
3196.0338171386	0.0073895068
3197.9626245116	0.0073233624
3199.8914318846	0.0072966525
3201.8202392577	0.0073417565
3203.7490466307	0.0072540529
3205.6778540038	0.0074219517
3207.6066613768	0.0073305964
3209.5354687499	0.0072821327
3211.4642761229	0.0073764985
3213.3930834960	0.0071430383
3215.3218908690	0.0072857002
3217.2506982421	0.0073377439
3219.1795056151	0.0072434251
3221.1083129882	0.0072864257
3223.0371203612	0.0072807381
3224.9659277343	0.0073410980
3226.8947351073	0.0072869863
3228.8235424803	0.0073187966
3230.7523498534	0.0073376982
3232.6811572264	0.0072783586
3234.6099645995	0.0072918795
3236.5387719725	0.0073250029
3238.4675793456	0.0074288002
3240.3963867186	0.0074302377
3242.3251940917	0.0073410240
3244.2540014647	0.0072597098
3246.1828088378	0.0073030461
3248.1116162108	0.0074158539
3250.0404235839	0.0073632244
3251.9692309569	0.0073331753
3253.8980383300	0.0073399837
3255.8268457030	0.0073805554
3257.7556530760	0.0074857315
3259.6844604491	0.0074021593
3261.6132678221	0.0073875170
3263.5420751952	0.0074473689
3265.4708825682	0.0074307956
3267.3996899413	0.0074658501
3269.3284973143	0.0074878745
3271.2573046874	0.0076210452
3273.1861120604	0.0075187050
3275.1149194335	0.0073930416
3277.0437268065	0.0075093135
3278.9725341796	0.0074906340
3280.9013415526	0.0075844247
3282.8301489257	0.0075585255
3284.7589562987	0.0075046876
3286.6877636717	0.0075502903
3288.6165710448	0.0075357486
3290.5453784178	0.0075611873
3292.4741857909	0.0074699437
3294.4029931639	0.0075242789
3296.3318005370	0.0075838906
3298.2606079100	0.0075920201
3300.1894152831	0.0075381696
3302.1182226561	0.0074438360
3304.0470300292	0.0075093452
3305.9758374022	0.0074918438
3307.9046447753	0.0075845271
3309.8334521483	0.0076079918
3311.7622595214	0.0076194005
3313.6910668944	0.0076620588
3315.6198742675	0.0076645548
3317.5486816405	0.0078087039
3319.4774890135	0.0077218493
3321.4062963866	0.0077477805
3323.3351037596	0.0077875112
3325.2639111327	0.0077339755
3327.1927185057	0.0077732820
3329.1215258788	0.0076501798
3331.0503332518	0.0077250609
3332.9791406249	0.0078296941
3334.9079479979	0.0077993362
3336.8367553710	0.0077459086
3338.7655627440	0.0077536614
3340.6943701171	0.0078350287
3342.6231774901	0.0078179510
3344.5519848632	0.0078840442
3346.4807922362	0.0078580184
3348.4095996092	0.0078891106
3350.3384069823	0.0079201292
3352.2672143553	0.0078551359
3354.1960217284	0.0080053639
3356.1248291014	0.0079440027
3358.0536364745	0.0079767127
3359.9824438475	0.0080283107
3361.9112512206	0.0078873923
3363.8400585936	0.0080450494
3365.7688659667	0.0079059768
3367.6976733397	0.0078746807
3369.6264807128	0.0081596561
3371.5552880858	0.0081040785
3373.4840954589	0.0081542283
3375.4129028319	0.0081721209
3377.3417102049	0.0081053935
3379.2705175780	0.0081688818
3381.1993249510	0.0082508642
3383.1281323241	0.0082763815
3385.0569396971	0.0082478821
3386.9857470702	0.0083051911
3388.9145544432	0.0082433680
3390.8433618163	0.0082742879
3392.7721691893	0.0083219782
3394.7009765624	0.0083522871
3396.6297839354	0.0084523000
3398.5585913085	0.0083707031
3400.4873986815	0.0084886886
3402.4162060546	0.0085584838
3404.3450134276	0.0085298456
3406.2738208006	0.0085379314
3408.2026281737	0.0085133743
3410.1314355467	0.0086236177
3412.0602429198	0.0086085219
3413.9890502928	0.0086479485
3415.9178576659	0.0087051699
3417.8466650389	0.0087676281
3419.7754724120	0.0087686386
3421.7042797850	0.0086854100
3423.6330871581	0.0088442052
3425.5618945311	0.0088602025
3427.4907019042	0.0088810008
3429.4195092772	0.0089681596
3431.3483166503	0.0089411177
3433.2771240233	0.0089688329
3435.2059313963	0.0089847883
3437.1347387694	0.0090040173
3439.0635461424	0.0090236012
3440.9923535155	0.0091182236
3442.9211608885	0.0091485716
3444.8499682616	0.0090758167
3446.7787756346	0.0090656448
3448.7075830077	0.0091731437
3450.6363903807	0.0093045672
3452.5651977538	0.0093013877
3454.4940051268	0.0093498370
3456.4228124999	0.0094139893
3458.3516198729	0.0093870573
3460.2804272460	0.0093395468
3462.2092346190	0.0093904957
3464.1380419921	0.0094586760
3466.0668493651	0.0093883295
3467.9956567381	0.0094821164
3469.9244641112	0.0096048098
3471.8532714842	0.0095040016
3473.7820788573	0.0095393527
3475.7108862303	0.0096343495
3477.6396936034	0.0096526500
3479.5685009764	0.0098074153
3481.4973083495	0.0097396569
3483.4261157225	0.0096522179
3485.3549230956	0.0098547116
3487.2837304686	0.0098129055
3489.2125378417	0.0097351503
3491.1413452147	0.0098349825
3493.0701525878	0.0098997066
3494.9989599608	0.0098781148
3496.9277673338	0.0098994952
3498.8565747069	0.0100197336
3500.7853820799	0.0099425614
3502.7141894530	0.0098616090
3504.6429968260	0.0100054778
3506.5718041991	0.0101262284
3508.5006115721	0.0100607621
3510.4294189452	0.0100866118
3512.3582263182	0.0101640821
3514.2870336913	0.0101561770
3516.2158410643	0.0102583710
3518.1446484374	0.0101433806
3520.0734558104	0.0101118144
3522.0022631835	0.0102233216
3523.9310705565	0.0101039652
3525.8598779295	0.0102202697
3527.7886853026	0.0102889873
3529.7174926756	0.0102821682
3531.6463000487	0.0104802903
3533.5751074217	0.0104672443
3535.5039147948	0.0104662552
3537.4327221678	0.0105013549
3539.3615295409	0.0104861865
3541.2903369139	0.0106037259
3543.2191442870	0.0104806656
3545.1479516600	0.0102856420
3547.0767590331	0.0103232069
3549.0055664061	0.0104935151
3550.9343737792	0.0105770454
3552.8631811522	0.0105224643
3554.7919885252	0.0107051190
3556.7207958983	0.0107969772
3558.6496032713	0.0107494267
3560.5784106444	0.0106563419
3562.5072180174	0.0105746035
3564.4360253905	0.0106752757
3566.3648327635	0.0102199521
3568.2936401366	0.0099818017
3570.2224475096	0.0105870925
3572.1512548827	0.0108531825
3574.0800622557	0.0107749142
3576.0088696288	0.0107835215
3577.9376770018	0.0107831471
3579.8664843749	0.0108484644
3581.7952917479	0.0108616175
3583.7240991210	0.0108506735
3585.6529064940	0.0106359906
3587.5817138670	0.0100090578
3589.5105212401	0.0102771251
3591.4393286131	0.0109333619
3593.3681359862	0.0106845982
3595.2969433592	0.0106451139
3597.2257507323	0.0107921027
3599.1545581053	0.0108137187
3601.0833654784	0.0109000821
3603.0121728514	0.0109317973
3604.9409802245	0.0110240923
3606.8697875975	0.0108127221
3608.7985949706	0.0103377467
3610.7274023436	0.0104988776
3612.6562097167	0.0106553705
3614.5850170897	0.0104454681
3616.5138244627	0.0109465830
3618.4426318358	0.0104206288
3620.3714392088	0.0102552455
3622.3002465819	0.0111564118
3624.2290539549	0.0109918779
3626.1578613280	0.0113179414
3628.0866687010	0.0099236555
3630.0154760741	0.0093042739
3631.9442834471	0.0112036914
3633.8730908202	0.0109980833
3635.8018981932	0.0110568553
3637.7307055663	0.0113594793
3639.6595129393	0.0111887045
3641.5883203124	0.0112532135
3643.5171276854	0.0112397140
3645.4459350584	0.0113849705
3647.3747424315	0.0104442723
3649.3035498045	0.0097602960
3651.2323571776	0.0100002559
3653.1611645506	0.0112510417
3655.0899719237	0.0111104669
3657.0187792967	0.0104094259
3658.9475866698	0.0115864361
3660.8763940428	0.0114374114
3662.8052014159	0.0115250722
3664.7340087889	0.0114370352
3666.6628161620	0.0114306454
3668.5916235350	0.0111777559
3670.5204309081	0.0096320529
3672.4492382811	0.0111295199
3674.3780456541	0.0106838644
3676.3068530272	0.0093178228
3678.2356604002	0.0110226367
3680.1644677733	0.0112221763
3682.0932751463	0.0111619402
3684.0220825194	0.0113785658
3685.9508898924	0.0112719340
3687.8796972655	0.0102840476
3689.8085046385	0.0097417077
3691.7373120116	0.0107469931
3693.6661193846	0.0108811930
3695.5949267577	0.0111530544
3697.5237341307	0.0109954439
3699.4525415038	0.0108866207
3701.3813488768	0.0106782801
3703.3101562499	0.0102838269
3705.2389636229	0.0110357944
3707.1677709959	0.0105666528
3709.0965783690	0.0104096942
3711.0253857420	0.0098262280
3712.9541931151	0.0093185185
3714.8830004881	0.0105629293
3716.8118078612	0.0103107253
3718.7406152342	0.0102843288
3720.6694226073	0.0100863595
3722.5982299803	0.0097926483
3724.5270373534	0.0099746231
3726.4558447264	0.0094158091
3728.3846520995	0.0100266021
3730.3134594725	0.0098296991
3732.2422668456	0.0092594754
3734.1710742186	0.0090332795
3736.0998815916	0.0085486965
3738.0286889647	0.0089357868
3739.9574963377	0.0095262267
3741.8863037108	0.0098526012
3743.8151110838	0.0080178017
3745.7439184569	0.0076968796
3747.6727258299	0.0093765836
3749.6015332030	0.0081978422
3751.5303405760	0.0077381693
3753.4591479491	0.0085769463
3755.3879553221	0.0089730946
3757.3167626952	0.0092458222
3759.2455700682	0.0086841974
3761.1743774413	0.0089377407
3763.1031848143	0.0092507619
3765.0319921873	0.0087232431
3766.9607995604	0.0088855233
3768.8896069334	0.0087249316
3770.8184143065	0.0084639676
3772.7472216795	0.0089656571
3774.6760290526	0.0089172702
3776.6048364256	0.0088492017
3778.5336437987	0.0086096181
3780.4624511717	0.0083826212
3782.3912585448	0.0087391566
3784.3200659178	0.0086107682
3786.2488732909	0.0085482001
3788.1776806639	0.0086082155
3790.1064880370	0.0085992226
3792.0352954100	0.0085158404
3793.9641027830	0.0085587632
3795.8929101561	0.0081369244
3797.8217175291	0.0081249997
3799.7505249022	0.0084130857
3801.6793322752	0.0070282328
3803.6081396483	0.0079119094
3805.5369470213	0.0083160754
3807.4657543944	0.0072139436
3809.3945617674	0.0083316304
3811.3233691405	0.0080834609
3813.2521765135	0.0082604252
3815.1809838866	0.0075816219
3817.1097912596	0.0069637867
3819.0385986327	0.0083132219
3820.9674060057	0.0069990614
3822.8962133787	0.0071971938
3824.8250207518	0.0080451462
3826.7538281248	0.0074443342
3828.6826354979	0.0079057906
3830.6114428709	0.0076700589
3832.5402502440	0.0074337777
3834.4690576170	0.0075854152
3836.3978649901	0.0072288187
3838.3266723631	0.0066503929
3840.2554797362	0.0071361456
3842.1842871092	0.0074897627
3844.1130944823	0.0071900203
3846.0419018553	0.0075983042
3847.9707092284	0.0074073290
3849.8995166014	0.0074193468
3851.8283239745	0.0068392167
3853.7571313475	0.0054912986
3855.6859387205	0.0062829740
3857.6147460936	0.0074030776
3859.5435534666	0.0071417973
3861.4723608397	0.0071603064
3863.4011682127	0.0070299841
3865.3299755858	0.0067109335
3867.2587829588	0.0072555086
3869.1875903319	0.0066945101
3871.1163977049	0.0064243330
3873.0452050780	0.0071276422
3874.9740124510	0.0067036506
3876.9028198241	0.0071323011
3878.8316271971	0.0070758061
3880.7604345702	0.0064167622
3882.6892419432	0.0070251389
3884.6180493162	0.0065751448
3886.5468566893	0.0062595718
3888.4756640623	0.0070199007
3890.4044714354	0.0067220768
3892.3332788084	0.0063323677
3894.2620861815	0.0068112304
3896.1908935545	0.0069511868
3898.1197009276	0.0066628838
3900.0485083006	0.0063988315
3901.9773156737	0.0062683448
3903.9061230467	0.0062524825
3905.8349304198	0.0063132709
3907.7637377928	0.0067039374
3909.6925451659	0.0067650024
3911.6213525389	0.0066424487
3913.5501599119	0.0066970196
3915.4789672850	0.0064901747
3917.4077746580	0.0063818693
3919.3365820311	0.0062852735
3921.2653894041	0.0063966098
3923.1941967772	0.0065162154
3925.1230041502	0.0062807226
3927.0518115233	0.0064208172
3928.9806188963	0.0065496769
3930.9094262694	0.0063526202
3932.8382336424	0.0062629664
3934.7670410155	0.0063594850
3936.6958483885	0.0062963911
3938.6246557616	0.0062193628
3940.5534631346	0.0063792020
3942.4822705076	0.0061147483
3944.4110778807	0.0061167385
3946.3398852537	0.0063185142
3948.2686926268	0.0060462356
3950.1974999998	0.0061688391
3952.1263073729	0.0061698249
3954.0551147459	0.0060763648
3955.9839221190	0.0062096845
3957.9127294920	0.0061196210
3959.8415368651	0.0060916366
3961.7703442381	0.0060305037
3963.6991516112	0.0060697524
3965.6279589842	0.0060344478
3967.5567663573	0.0059686126
3969.4855737303	0.0060339374
3971.4143811034	0.0059308903
3973.3431884764	0.0059566679
3975.2719958494	0.0058891764
3977.2008032225	0.0058301175
3979.1296105955	0.0059121330
3981.0584179686	0.0059189619
3982.9872253416	0.0059262305
3984.9160327147	0.0058422815
3986.8448400877	0.0058724545
3988.7736474608	0.0058686286
3990.7024548338	0.0057260869
3992.6312622069	0.0057464959
3994.5600695799	0.0058294274
3996.4888769530	0.0057874583
3998.4176843260	0.0057419576
4000.3464916991	0.0056774719
4002.2752990721	0.0056375125
4004.2041064451	0.0057033766
4006.1329138182	0.0056091044
4008.0617211912	0.0055968212
4009.9905285643	0.0056425426
4011.9193359373	0.0055930526
4013.8481433104	0.0055911173
4015.7769506834	0.0055695819
4017.7057580565	0.0055832434
4019.6345654295	0.0055316007
4021.5633728026	0.0055525270
4023.4921801756	0.0055870991
4025.4209875487	0.0055131335
4027.3497949217	0.0054262439
4029.2786022948	0.0054286579
4031.2074096678	0.0054806061
4033.1362170408	0.0053641708
4035.0650244139	0.0053750877
4036.9938317869	0.0053386027
4038.9226391600	0.0053717792
4040.8514465330	0.0054373126
4042.7802539061	0.0052572899
4044.7090612791	0.0053100665
4046.6378686522	0.0052542677
4048.5666760252	0.0052445917
4050.4954833983	0.0053137569
4052.4242907713	0.0052156439
4054.3530981444	0.0052317432
4056.2819055174	0.0051657716
4058.2107128905	0.0052342261
4060.1395202635	0.0052283159
4062.0683276365	0.0051488322
4063.9971350096	0.0052268449
4065.9259423826	0.0051993402
4067.8547497557	0.0052152458
4069.7835571287	0.0051232530
4071.7123645018	0.0050545898
4073.6411718748	0.0050735166
4075.5699792479	0.0050368886
4077.4987866209	0.0050930167
4079.4275939940	0.0050174026
4081.3564013670	0.0049695969
4083.2852087401	0.0050427122
4085.2140161131	0.0050181122
4087.1428234862	0.0049696472
4089.0716308592	0.0049067019
4091.0004382323	0.0048813596
4092.9292456053	0.0049150391
4094.8580529783	0.0050042775
4096.7868603514	0.0049516326
4098.7156677244	0.0048012221
4100.6444750975	0.0048864251
4102.5732824705	0.0048546693
4104.5020898436	0.0047813822
4106.4308972166	0.0048665204
4108.3597045897	0.0047905166
4110.2885119627	0.0047476669
4112.2173193358	0.0047759935
4114.1461267088	0.0047726585
4116.0749340819	0.0047644228
4118.0037414549	0.0047397846
4119.9325488280	0.0047578481
4121.8613562010	0.0047530825
4123.7901635740	0.0046990504
4125.7189709471	0.0046446635
4127.6477783201	0.0046628853
4129.5765856932	0.0046777753
4131.5053930662	0.0046551940
4133.4342004393	0.0046730777
4135.3630078123	0.0046797916
4137.2918151854	0.0045891274
4139.2206225584	0.0045325728
4141.1494299315	0.0045871134
4143.0782373045	0.0045477161
4145.0070446776	0.0045207804
4146.9358520506	0.0045371661
4148.8646594237	0.0045436276
4150.7934667967	0.0045209411
4152.7222741697	0.0044636996
4154.6510815428	0.0044779079
4156.5798889158	0.0043899184
4158.5086962889	0.0044275569
4160.4375036619	0.0045071510
4162.3663110350	0.0043783127
4164.2951184080	0.0043707984
4166.2239257811	0.0043295072
4168.1527331541	0.0042787390
4170.0815405272	0.0044291262
4172.0103479002	0.0044366498
4173.9391552733	0.0043198103
4175.8679626463	0.0043892884
4177.7967700194	0.0043443367
4179.7255773924	0.0042838934
4181.6543847654	0.0044075390
4183.5831921385	0.0043043457
4185.5119995115	0.0042036921
4187.4408068846	0.0042150384
4189.3696142576	0.0042211344
4191.2984216307	0.0042452849
4193.2272290037	0.0042261090
4195.1560363768	0.0042343270
4197.0848437498	0.0041549387
4199.0136511229	0.0041656625
4200.9424584959	0.0041937903
4202.8712658690	0.0041434811
4204.8000732420	0.0042026583
4206.7288806151	0.0041449070
4208.6576879881	0.0041086753
4210.5864953611	0.0041368608
4212.5153027342	0.0040895967
4214.4441101072	0.0040933322
4216.3729174803	0.0040640193
4218.3017248533	0.0040221447
4220.2305322264	0.0039986121
4222.1593395994	0.0039621294
4224.0881469725	0.0039448082
4226.0169543455	0.0039549079
4227.9457617186	0.0040239641
4229.8745690916	0.0040342873
4231.8033764647	0.0039914520
4233.7321838377	0.0039411006
4235.6609912108	0.0039178915
4237.5897985838	0.0039432598
4239.5186059569	0.0038839013
4241.4474133299	0.0038845730
4243.3762207029	0.0039200564
4245.3050280760	0.0039659366
4247.2338354490	0.0039454130
4249.1626428221	0.0038454561
4251.0914501951	0.0039376440
4253.0202575682	0.0038793611
4254.9490649412	0.0038482961
4256.8778723143	0.0038948592
4258.8066796873	0.0037821468
4260.7354870604	0.0037790155
4262.6642944334	0.0037415000
4264.5931018065	0.0037932028
4266.5219091795	0.0037914580
4268.4507165526	0.0037356373
4270.3795239256	0.0037666028
4272.3083312986	0.0037150225
4274.2371386717	0.0037407069
4276.1659460447	0.0037125212
4278.0947534178	0.0037558684
4280.0235607908	0.0037681484
4281.9523681639	0.0036606654
4283.8811755369	0.0036497074
4285.8099829100	0.0036763710
4287.7387902830	0.0036924523
4289.6675976561	0.0036171004
4291.5964050291	0.0036391956
4293.5252124022	0.0036162967
4295.4540197752	0.0035722549
4297.3828271483	0.0036060605
4299.3116345213	0.0036076047
4301.2404418943	0.0036399029
4303.1692492674	0.0035896795
4305.0980566404	0.0035336092
4307.0268640135	0.0034800819
4308.9556713865	0.0035408153
4310.8844787596	0.0035441066
4312.8132861326	0.0034883504
4314.7420935057	0.0034860726
4316.6709008787	0.0034500584
4318.5997082518	0.0035919230
4320.5285156248	0.0035005095
4322.4573229979	0.0034009425
4324.3861303709	0.0034714451
4326.3149377440	0.0034470675
4328.2437451170	0.0034714518
4330.1725524900	0.0034666671
4332.1013598631	0.0034434604
4334.0301672361	0.0033204062
4335.9589746092	0.0033726129
4337.8877819822	0.0033902051
4339.8165893553	0.0033726683
4341.7453967283	0.0034400290
4343.6742041014	0.0032876180
4345.6030114744	0.0033426574
4347.5318188475	0.0033430578
4349.4606262205	0.0033680894
4351.3894335936	0.0033370478
4353.3182409666	0.0032303254
4355.2470483397	0.0033859778
4357.1758557127	0.0032504234
4359.1046630858	0.0032936065
4361.0334704588	0.0032898434
4362.9622778318	0.0031769078
4364.8910852049	0.0033170416
4366.8198925779	0.0031893386
4368.7486999510	0.0032454678
4370.6775073240	0.0032500010
4372.6063146971	0.0031528557
4374.5351220701	0.0032009007
4376.4639294432	0.0031155474
4378.3927368162	0.0032331897
4380.3215441893	0.0032486953
4382.2503515623	0.0031926094
4384.1791589354	0.0032715688
4386.1079663084	0.0031849435
4388.0367736815	0.0031841516
4389.9655810545	0.0031945137
4391.8943884275	0.0031406039
4393.8231958006	0.0031580222
4395.7520031736	0.0031044940
4397.6808105467	0.0031050290
4399.6096179197	0.0031417855
4401.5384252928	0.0031123185
4403.4672326658	0.0031554280
4405.3960400389	0.0031042555
4407.3248474119	0.0029998978
4409.2536547850	0.0031027165
4411.1824621580	0.0030925265
4413.1112695311	0.0030246573
4415.0400769041	0.0030803229
4416.9688842772	0.0029540637
4418.8976916502	0.0029516213
4420.8264990232	0.0030241548
4422.7553063963	0.0029508309
4424.6841137693	0.0029925238
4426.6129211424	0.0029558907
4428.5417285154	0.0029339301
4430.4705358885	0.0029731900
4432.3993432615	0.0029675900
4434.3281506346	0.0029739747
4436.2569580076	0.0029672990
4438.1857653807	0.0029871180
4440.1145727537	0.0028656642
4442.0433801268	0.0028385292
4443.9721874998	0.0029306943
4445.9009948729	0.0028798711
4447.8298022459	0.0028381408
4449.7586096189	0.0028275517
4451.6874169920	0.0028654733
4453.6162243650	0.0028568644
4455.5450317381	0.0027954010
4457.4738391111	0.0028039799
4459.4026464842	0.0028662717
4461.3314538572	0.0028838567
4463.2602612303	0.0028302262
4465.1890686033	0.0028015864
4467.1178759764	0.0028252394
4469.0466833494	0.0028807851
4470.9754907225	0.0028196354
4472.9042980955	0.0027809907
4474.8331054686	0.0027613817
4476.7619128416	0.0027306625
4478.6907202147	0.0028057802
4480.6195275877	0.0027384376
4482.5483349607	0.0027088090
4484.4771423338	0.0027268874
4486.4059497068	0.0027263332
4488.3347570799	0.0027661072
4490.2635644529	0.0026533594
4492.1923718260	0.0025953536
4494.1211791990	0.0026167501
4496.0499865721	0.0026953872
4497.9787939451	0.0027338930
4499.9076013182	0.0026493422
4501.8364086912	0.0026800255
4503.7652160643	0.0026687053
4505.6940234373	0.0026734537
4507.6228308104	0.0027057638
4509.5516381834	0.0025591147
4511.4804455564	0.0025443635
4513.4092529295	0.0026290542
4515.3380603025	0.0025958235
4517.2668676756	0.0026180507
4519.1956750486	0.0025884949
4521.1244824217	0.0025069285
4523.0532897947	0.0025544148
4524.9820971678	0.0025540369
4526.9109045408	0.0025483621
4528.8397119139	0.0025970445
4530.7685192869	0.0025475058
4532.6973266600	0.0024952008
4534.6261340330	0.0024863242
4536.5549414061	0.0024951105
4538.4837487791	0.0025265471
4540.4125561521	0.0025381194
4542.3413635252	0.0025058636
4544.2701708982	0.0024675676
4546.1989782713	0.0025166906
4548.1277856443	0.0025262462
4550.0565930174	0.0024685231
4551.9854003904	0.0024592930
4553.9142077635	0.0024608909
4555.8430151365	0.0024712435
4557.7718225096	0.0024482184
4559.7006298826	0.0024897358
4561.6294372557	0.0025009317
4563.5582446287	0.0024366679
4565.4870520018	0.0024405862
4567.4158593748	0.0023492433
4569.3446667478	0.0023450786
4571.2734741209	0.0023647551
4573.2022814939	0.0023306138
4575.1310888670	0.0023759063
4577.0598962400	0.0023284918
4578.9887036131	0.0023193019
4580.9175109861	0.0023344117
4582.8463183592	0.0023881500
4584.7751257322	0.0023850109
4586.7039331053	0.0023539397
4588.6327404783	0.0023995643
4590.5615478514	0.0023080457
4592.4903552244	0.0023391577
4594.4191625975	0.0023577141
4596.3479699705	0.0023390129
4598.2767773435	0.0023404707
4600.2055847166	0.0022519557
4602.1343920896	0.0022767121
4604.0631994627	0.0022413223
4605.9920068357	0.0022639157
4607.9208142088	0.0022455528
4609.8496215818	0.0021560546
4611.7784289549	0.0022373355
4613.7072363279	0.0022839734
4615.6360437010	0.0022398392
4617.5648510740	0.0021720934
4619.4936584471	0.0022277739
4621.4224658201	0.0022181477
4623.3512731932	0.0021650193
4625.2800805662	0.0021422352
4627.2088879393	0.0021270709
4629.1376953123	0.0022838081
4631.0665026853	0.0022471258
4632.9953100584	0.0021789258
4634.9241174314	0.0021908032
4636.8529248045	0.0021326644
4638.7817321775	0.0021986291
4640.7105395506	0.0021926889
4642.6393469236	0.0021935883
4644.5681542967	0.0022347569
4646.4969616697	0.0021498685
4648.4257690428	0.0021020472
4650.3545764158	0.0021124166
4652.2833837889	0.0020833276
4654.2121911619	0.0021045501
4656.1409985350	0.0021921629
4658.0698059080	0.0021236269
4659.9986132810	0.0020584539
4661.9274206541	0.0021554055
4663.8562280271	0.0020946632
4665.7850354002	0.0020088083
4667.7138427732	0.0020687743
4669.6426501463	0.0020669601
4671.5714575193	0.0020973051
4673.5002648924	0.0021007089
4675.4290722654	0.0020574140
4677.3578796385	0.0020692113
4679.2866870115	0.0020318707
4681.2154943846	0.0020064223
4683.1443017576	0.0019836631
4685.0731091307	0.0020097988
4687.0019165037	0.0020535486
4688.9307238767	0.0020483998
4690.8595312498	0.0020379489
4692.7883386228	0.0020202952
4694.7171459959	0.0020384425
4696.6459533689	0.0020026050
4698.5747607420	0.0020114770
4700.5035681150	0.0020132200
4702.4323754881	0.0019502279
4704.3611828611	0.0019261207
4706.2899902342	0.0019286929
4708.2187976072	0.0019808256
4710.1476049803	0.0018979514
4712.0764123533	0.0018749514
4714.0052197264	0.0019737142
4715.9340270994	0.0019533343
4717.8628344724	0.0019249179
4719.7916418455	0.0019231206
4721.7204492185	0.0019195795
4723.6492565916	0.0019131743
4725.5780639646	0.0019223448
4727.5068713377	0.0018990922
4729.4356787107	0.0019302126
4731.3644860838	0.0019076327
4733.2932934568	0.0018193487
4735.2221008299	0.0018763817
4737.1509082029	0.0018574721
4739.0797155760	0.0018002106
4741.0085229490	0.0017903014
4742.9373303221	0.0018608740
4744.8661376951	0.0019024326
4746.7949450682	0.0018553009
4748.7237524412	0.0018552183
4750.6525598142	0.0017692833
4752.5813671873	0.0017980882
4754.5101745603	0.0018314217
4756.4389819334	0.0018242584
4758.3677893064	0.0018327123
4760.2965966795	0.0017063632
4762.2254040525	0.0017818431
4764.1542114256	0.0018803827
4766.0830187986	0.0017978686
4768.0118261717	0.0017542078
4769.9406335447	0.0018046582
4771.8694409178	0.0017643089
4773.7982482908	0.0017117256
4775.7270556639	0.0018041732
4777.6558630369	0.0017533466
4779.5846704099	0.0017853286
4781.5134777830	0.0017753295
4783.4422851560	0.0016922567
4785.3710925291	0.0018075937
4787.2998999021	0.0017033911
4789.2287072752	0.0017147246
4791.1575146482	0.0017843812
4793.0863220213	0.0017011128
4795.0151293943	0.0017660263
4796.9439367674	0.0016706504
4798.8727441404	0.0016970781
4800.8015515135	0.0017694356
4802.7303588865	0.0016773408
4804.6591662596	0.0017417023
4806.5879736326	0.0016595984
4808.5167810056	0.0015730395
4810.4455883787	0.0015897313
4812.3743957517	0.0016114420
4814.3032031248	0.0017159390
4816.2320104978	0.0016940734
4818.1608178709	0.0016517976
4820.0896252439	0.0016858296
4822.0184326170	0.0017046977
4823.9472399900	0.0015992299
4825.8760473631	0.0016137946
4827.8048547361	0.0017017175
4829.7336621092	0.0016053104
4831.6624694822	0.0016904951
4833.5912768553	0.0016841833
4835.5200842283	0.0015696248
4837.4488916013	0.0015292510
4839.3776989744	0.0014972982
4841.3065063474	0.0016483826
4843.2353137205	0.0015977991
4845.1641210935	0.0015829601
4847.0929284666	0.0016519316
4849.0217358396	0.0015113150
4850.9505432127	0.0015046089
4852.8793505857	0.0015008289
4854.8081579588	0.0014638708
4856.7369653318	0.0015097583
4858.6657727049	0.0016093808
4860.5945800779	0.0016008221
4862.5233874510	0.0014860078
4864.4521948240	0.0015393039
4866.3810021971	0.0016058243
4868.3098095701	0.0015468227
4870.2386169431	0.0014840981
4872.1674243162	0.0015730816
4874.0962316892	0.0016021840
4876.0250390623	0.0015406283
4877.9538464353	0.0015889432
4879.8826538084	0.0015416010
4881.8114611814	0.0015131698
4883.7402685545	0.0014948717
4885.6690759275	0.0014937001
4887.5978833006	0.0015600853
4889.5266906736	0.0014563589
4891.4554980467	0.0014665716
4893.3843054197	0.0015023375
4895.3131127928	0.0014249642
4897.2419201658	0.0014780024
4899.1707275388	0.0014411481
4901.0995349119	0.0013787918
4903.0283422849	0.0014123174
4904.9571496580	0.0013917926
4906.8859570310	0.0014150491
4908.8147644041	0.0014562828
4910.7435717771	0.0013924488
4912.6723791502	0.0013852858
4914.6011865232	0.0014554043
4916.5299938963	0.0014305681
4918.4588012693	0.0013914953
4920.3876086424	0.0014038947
4922.3164160154	0.0014549808
4924.2452233885	0.0014430196
4926.1740307615	0.0014116124
4928.1028381345	0.0014290372
4930.0316455076	0.0013450898
4931.9604528806	0.0013723813
4933.8892602537	0.0014228317
4935.8180676267	0.0013865228
4937.7468749998	0.0013542778
4939.6756823728	0.0012675705
4941.6044897459	0.0013426940
4943.5332971189	0.0013941349
4945.4621044920	0.0013884900
4947.3909118650	0.0013875021
4949.3197192381	0.0013216700
4951.2485266111	0.0013484001
4953.1773339842	0.0013861147
4955.1061413572	0.0014094723
4957.0349487302	0.0013583214
4958.9637561033	0.0013694940
4960.8925634763	0.0013489765
4962.8213708494	0.0013121562
4964.7501782224	0.0013703182
4966.6789855955	0.0012558099
4968.6077929685	0.0012879192
4970.5366003416	0.0013110150
4972.4654077146	0.0012762577
4974.3942150877	0.0013148229
4976.3230224607	0.0012931782
4978.2518298338	0.0013489604
4980.1806372068	0.0012756644
4982.1094445799	0.0013102568
4984.0382519529	0.0013173475
4985.9670593259	0.0012105948
4987.8958666990	0.0012479492
4989.8246740720	0.0012241818
4991.7534814451	0.0012732686
4993.6822888181	0.0012579397
4995.6110961912	0.0012588031
4997.5399035642	0.0013102668
4999.4687109373	0.0012621337
5001.3975183103	0.0012640407
5003.3263256834	0.0012423467
5005.2551330564	0.0012428642
5007.1839404295	0.0012257136
5009.1127478025	0.0012133140
5011.0415551756	0.0012209853
5012.9703625486	0.0012213592
5014.8991699217	0.0011835352
5016.8279772947	0.0011680177
5018.7567846677	0.0012048865
5020.6855920408	0.0011279506
5022.6143994138	0.0011959721
5024.5432067869	0.0012203675
5026.4720141599	0.0011474343
5028.4008215330	0.0012105700
5030.3296289060	0.0012191138
5032.2584362791	0.0012257751
5034.1872436521	0.0011532494
5036.1160510252	0.0011842046
5038.0448583982	0.0012657968
5039.9736657713	0.0011538968
5041.9024731443	0.0011459083
5043.8312805174	0.0011621465
5045.7600878904	0.0011490437
5047.6888952634	0.0011599921
5049.6177026365	0.0011474551
5051.5465100095	0.0011581844
5053.4753173826	0.0011571555
5055.4041247556	0.0011647237
5057.3329321287	0.0011386555
5059.2617395017	0.0011330488
5061.1905468748	0.0011727306
5063.1193542478	0.0011492172
5065.0481616209	0.0011423554
5066.9769689939	0.0011084757
5068.9057763670	0.0010843719
5070.8345837400	0.0011342715
5072.7633911131	0.0011061982
5074.6921984861	0.0011136915
5076.6210058591	0.0011326298
5078.5498132322	0.0010988729
5080.4786206052	0.0011218938
5082.4074279783	0.0010978093
5084.3362353513	0.0011015295
5086.2650427244	0.0011514117
5088.1938500974	0.0011196843
5090.1226574705	0.0010973907
5092.0514648435	0.0010892597
5093.9802722166	0.0010778415
5095.9090795896	0.0010864588
5097.8378869627	0.0010350735
5099.7666943357	0.0010292316
5101.6955017088	0.0011009178
5103.6243090818	0.0010551158
5105.5531164548	0.0009849796
5107.4819238279	0.0010197561
5109.4107312009	0.0010683388
5111.3395385740	0.0010429063
5113.2683459470	0.0010338651
5115.1971533201	0.0010560420
5117.1259606931	0.0010532471
5119.0547680662	0.0010753210
5120.9835754392	0.0010091044
5122.9123828123	0.0009598646
5124.8411901853	0.0009802850
5126.7699975584	0.0009908952
5128.6988049314	0.0010140889
5130.6276123045	0.0010023616
5132.5564196775	0.0010198159
5134.4852270506	0.0010032374
5136.4140344236	0.0010041849
5138.3428417966	0.0009934340
5140.2716491697	0.0010035778
5142.2004565427	0.0010297713
5144.1292639158	0.0009276830
5146.0580712888	0.0010148558
5147.9868786619	0.0010561994
5149.9156860349	0.0009559352
5151.8444934080	0.0009834010
5153.7733007810	0.0010134042
5155.7021081541	0.0010230269
5157.6309155271	0.0009472981
5159.5597229002	0.0009490891
5161.4885302732	0.0009983000
5163.4173376463	0.0009694966
5165.3461450193	0.0009887937
5167.2749523923	0.0009588113
5169.2037597654	0.0008971030
5171.1325671384	0.0009645770
5173.0613745115	0.0010222197
5174.9901818845	0.0009319747
5176.9189892576	0.0009250748
5178.8477966306	0.0009752329
5180.7766040037	0.0009920738
5182.7054113767	0.0009627753
5184.6342187498	0.0009390547
5186.5630261228	0.0009532676
5188.4918334959	0.0008534885
5190.4206408689	0.0009089001
5192.3494482420	0.0009341905
5194.2782556150	0.0008928502
5196.2070629880	0.0009967964
5198.1358703611	0.0009260633
5200.0646777341	0.0009185501
5201.9934851072	0.0009122869
5203.9222924802	0.0008372987
5205.8510998533	0.0008748615
5207.7799072263	0.0008629158
5209.7087145994	0.0009214045
5211.6375219724	0.0009068539
5213.5663293455	0.0008945103
5215.4951367185	0.0009679066
5217.4239440916	0.0008869020
5219.3527514646	0.0009096824
5221.2815588377	0.0009408930
5223.2103662107	0.0008897725
5225.1391735837	0.0009093479
5227.0679809568	0.0008628959
5228.9967883298	0.0008567069
5230.9255957029	0.0008489998
5232.8544030759	0.0008415855
5234.7832104490	0.0008912442
5236.7120178220	0.0008948643
5238.6408251951	0.0009179848
5240.5696325681	0.0008789692
5242.4984399412	0.0008538202
5244.4272473142	0.0008296407
5246.3560546873	0.0008301293
5248.2848620603	0.0009003582
5250.2136694334	0.0008707525
5252.1424768064	0.0008855185
5254.0712841795	0.0008205777
5256.0000915525	0.0007670175
5257.9288989255	0.0008834131
5259.8577062986	0.0008745629
5261.7865136716	0.0007946208
5263.7153210447	0.0007964572
5265.6441284177	0.0007985079
5267.5729357908	0.0007625505
5269.5017431638	0.0007825053
5271.4305505369	0.0007744617
5273.3593579099	0.0007918820
5275.2881652830	0.0007657544
5277.2169726560	0.0007215039
5279.1457800291	0.0007939627
5281.0745874021	0.0007315511
5283.0033947752	0.0007925425
5284.9322021482	0.0008354519
5286.8610095212	0.0007753663
5288.7898168943	0.0008096265
5290.7186242673	0.0007515325
5292.6474316404	0.0008122962
5294.5762390134	0.0007786516
5296.5050463865	0.0007262877
5298.4338537595	0.0007830610
5300.3626611326	0.0007238317
5302.2914685056	0.0007348591
5304.2202758787	0.0007505752
5306.1490832517	0.0007737983
5308.0778906248	0.0008102941
5310.0066979978	0.0008535301
5311.9355053709	0.0008290737
5313.8643127439	0.0007383450
5315.7931201169	0.0007515218
5317.7219274900	0.0007600137
5319.6507348630	0.0007427089
5321.5795422361	0.0007119250
5323.5083496091	0.0007500597
5325.4371569822	0.0007123463
5327.3659643552	0.0006953645
5329.2947717283	0.0008455943
5331.2235791013	0.0007486454
5333.1523864744	0.0006717787
5335.0811938474	0.0007510249
5337.0100012205	0.0007156546
5338.9388085935	0.0007251726
5340.8676159666	0.0007763364
5342.7964233396	0.0007611279
5344.7252307126	0.0006554548
5346.6540380857	0.0006788592
5348.5828454587	0.0007959565
5350.5116528318	0.0007409726
5352.4404602048	0.0007410540
5354.3692675779	0.0007310069
5356.2980749509	0.0006959155
5358.2268823240	0.0007125307
5360.1556896970	0.0006808024
5362.0844970701	0.0007887636
5364.0133044431	0.0007551367
5365.9421118162	0.0007022045
5367.8709191892	0.0007599231
5369.7997265623	0.0007336461
5371.7285339353	0.0007775493
5373.6573413083	0.0006166523
5375.5861486814	0.0006343070
5377.5149560544	0.0007614846
5379.4437634275	0.0006831511
5381.3725708005	0.0007526167
5383.3013781736	0.0006709752
5385.2301855466	0.0006567984
5387.1589929197	0.0007009126
5389.0878002927	0.0006709077
5391.0166076658	0.0007544332
5392.9454150388	0.0006900521
5394.8742224119	0.0006232535
5396.8030297849	0.0006990222
5398.7318371580	0.0007187016
5400.6606445310	0.0006307510
5402.5894519041	0.0006821150
5404.5182592771	0.0006810023
5406.4470666501	0.0006394727
5408.3758740232	0.0007139121
5410.3046813962	0.0006783903
5412.2334887693	0.0006983805
5414.1622961423	0.0006092089
5416.0911035154	0.0005379693
5418.0199108884	0.0005998246
5419.9487182615	0.0005909534
5421.8775256345	0.0006199782
5423.8063330076	0.0006415359
5425.7351403806	0.0006446274
5427.6639477537	0.0005949260
5429.5927551267	0.0006011812
5431.5215624998	0.0005712576
5433.4503698728	0.0005932201
5435.3791772458	0.0006267382
5437.3079846189	0.0005736220
5439.2367919919	0.0006298278
5441.1655993650	0.0005437770
5443.0944067380	0.0006037406
5445.0232141111	0.0005825091
5446.9520214841	0.0004691686
5448.8808288572	0.0006394392
5450.8096362302	0.0006333729
5452.7384436033	0.0006213988
5454.6672509763	0.0006007110
5456.5960583494	0.0006098495
5458.5248657224	0.0006293982
5460.4536730955	0.0005743616
5462.3824804685	0.0006170365
5464.3112878415	0.0005740921
5466.2400952146	0.0006286866
5468.1689025876	0.0006071419
5470.0977099607	0.0005561225
5472.0265173337	0.0006072257
5473.9553247068	0.0005507912
5475.8841320798	0.0006105318
5477.8129394529	0.0006441780
5479.7417468259	0.0005812747
5481.6705541990	0.0005524635
5483.5993615720	0.0005673064
5485.5281689451	0.0006113910
5487.4569763181	0.0005975153
5489.3857836912	0.0005549971
5491.3145910642	0.0005501103
5493.2433984372	0.0005414524
5495.1722058103	0.0005303609
5497.1010131833	0.0005857224
5499.0298205564	0.0006089666
5500.9586279294	0.0006249800
5502.8874353025	0.0005719328
5504.8162426755	0.0005319577
5506.7450500486	0.0005933928
5508.6738574216	0.0005427896
5510.6026647947	0.0005579669
5512.5314721677	0.0006016719
5514.4602795408	0.0005682591
5516.3890869138	0.0005659056
5518.3178942869	0.0005615515
5520.2467016599	0.0005257770
5522.1755090330	0.0004945567
5524.1043164060	0.0005459309
5526.0331237790	0.0005211673
5527.9619311521	0.0004725204
5529.8907385251	0.0004802165
5531.8195458982	0.0004979672
5533.7483532712	0.0005556036
5535.6771606443	0.0005151207
5537.6059680173	0.0004931603
5539.5347753904	0.0005686646
5541.4635827634	0.0005886715
5543.3923901365	0.0005512511
5545.3211975095	0.0005506725
5547.2500048826	0.0005168820
5549.1788122556	0.0004644878
5551.1076196287	0.0005256417
5553.0364270017	0.0005251522
5554.9652343747	0.0005001773
5556.8940417478	0.0005223652
5558.8228491208	0.0005427623
5560.7516564939	0.0005820157
5562.6804638669	0.0005551997
5564.6092712400	0.0005398991
5566.5380786130	0.0005359843
5568.4668859861	0.0005117600
5570.3956933591	0.0004879196
5572.3245007322	0.0005046204
5574.2533081052	0.0005280928
5576.1821154783	0.0004857024
5578.1109228513	0.0005367824
5580.0397302244	0.0005267732
5581.9685375974	0.0004900401
5583.8973449704	0.0005292813
5585.8261523435	0.0004630539
5587.7549597165	0.0004948884
5589.6837670896	0.0005378192
5591.6125744626	0.0005129378
5593.5413818357	0.0004810543
5595.4701892087	0.0004490536
5597.3989965818	0.0005056903
5599.3278039548	0.0004560106
5601.2566113279	0.0004780912
5603.1854187009	0.0005202706
5605.1142260740	0.0004878068
5607.0430334470	0.0004818926
5608.9718408201	0.0003580160
5610.9006481931	0.0004276750
5612.8294555661	0.0004821795
5614.7582629392	0.0004566667
5616.6870703122	0.0005451825
5618.6158776853	0.0004809036
5620.5446850583	0.0004964272
5622.4734924314	0.0004845407
5624.4022998044	0.0004259208
5626.3311071775	0.0004486469
5628.2599145505	0.0003980825
5630.1887219236	0.0004381361
5632.1175292966	0.0004745180
5634.0463366697	0.0004583131
5635.9751440427	0.0004175412
5637.9039514158	0.0004179127
5639.8327587888	0.0004454935
5641.7615661619	0.0004478562
5643.6903735349	0.0005317020
5645.6191809079	0.0004344280
5647.5479882810	0.0004074958
5649.4767956540	0.0004970253
5651.4056030271	0.0003833246
5653.3344104001	0.0003893342
5655.2632177732	0.0004716136
5657.1920251462	0.0004917103
5659.1208325193	0.0004421956
5661.0496398923	0.0004126217
5662.9784472654	0.0004207884
5664.9072546384	0.0003694047
5666.8360620115	0.0004045152
5668.7648693845	0.0003725319
5670.6936767576	0.0003931703
5672.6224841306	0.0004391294
5674.5512915036	0.0003902469
5676.4800988767	0.0004848003
5678.4089062497	0.0004914432
5680.3377136228	0.0004073438
5682.2665209958	0.0003769246
5684.1953283689	0.0004465059
5686.1241357419	0.0004443164
5688.0529431150	0.0003560207
5689.9817504880	0.0004736569
5691.9105578611	0.0004340378
5693.8393652341	0.0003524662
5695.7681726072	0.0004001893
5697.6969799802	0.0003810955
5699.6257873533	0.0004304305
5701.5545947263	0.0004113226
5703.4834020993	0.0003877879
5705.4122094724	0.0004320059
5707.3410168454	0.0004008958
5709.2698242185	0.0003848439
5711.1986315915	0.0004235118
5713.1274389646	0.0004322442
5715.0562463376	0.0004336466
5716.9850537107	0.0003643272
5718.9138610837	0.0003638273
5720.8426684568	0.0005133973
5722.7714758298	0.0004018731
5724.7002832029	0.0003594667
5726.6290905759	0.0004486773
5728.5578979490	0.0003794978
5730.4867053220	0.0003827704
5732.4155126950	0.0003589058
5734.3443200681	0.0004029801
5736.2731274411	0.0004127611
5738.2019348142	0.0003631826
5740.1307421872	0.0003589510
5742.0595495603	0.0003227483
5743.9883569333	0.0003653586
5745.9171643064	0.0003518804
5747.8459716794	0.0003647607
5749.7747790525	0.0004197341
5751.7035864255	0.0004608276
5753.6323937986	0.0003482725
5755.5612011716	0.0002863125
5757.4900085447	0.0004694317
5759.4188159177	0.0003874426
5761.3476232907	0.0003414120
5763.2764306638	0.0003985738
5765.2052380368	0.0003775464
5767.1340454099	0.0004135271
5769.0628527829	0.0003815248
5770.9916601560	0.0003723102
5772.9204675290	0.0003447097
5774.8492749021	0.0003700645
5776.7780822751	0.0004034066
5778.7068896482	0.0003868683
5780.6356970212	0.0003434636
5782.5645043943	0.0003394036
5784.4933117673	0.0004283166
5786.4221191404	0.0003953880
5788.3509265134	0.0003763561
5790.2797338865	0.0003412507
5792.2085412595	0.0003449547
5794.1373486325	0.0003695352
5796.0661560056	0.0003288387
5797.9949633786	0.0003771908
5799.9237707517	0.0003560559
5801.8525781247	0.0003349350
5803.7813854978	0.0003338958
5805.7101928708	0.0003357850
5807.6390002439	0.0002998487
5809.5678076169	0.0003059733
5811.4966149900	0.0003455953
5813.4254223630	0.0003501170
5815.3542297361	0.0004332819
5817.2830371091	0.0003257957
5819.2118444822	0.0003519824
5821.1406518552	0.0003748260
5823.0694592282	0.0002992679
5824.9982666013	0.0003751045
5826.9270739743	0.0002579166
5828.8558813474	0.0003394798
5830.7846887204	0.0003307162
5832.7134960935	0.0002721384
5834.6423034665	0.0003910831
5836.5711108396	0.0002629468
5838.4999182126	0.0003330897
5840.4287255857	0.0003472316
5842.3575329587	0.0002738078
5844.2863403318	0.0002851457
5846.2151477048	0.0002695303
5848.1439550779	0.0003717359
5850.0727624509	0.0002812877
5852.0015698239	0.0002813141
5853.9303771970	0.0003544049
5855.8591845700	0.0003180227
5857.7879919431	0.0003372077
5859.7167993161	0.0002963725
5861.6456066892	0.0003490496
5863.5744140622	0.0003192096
5865.5032214353	0.0003200861
5867.4320288083	0.0003864706
5869.3608361814	0.0002427612
5871.2896435544	0.0002435280
5873.2184509275	0.0002868336
5875.1472583005	0.0002939679
5877.0760656736	0.0003243720
5879.0048730466	0.0003020393
5880.9336804196	0.0003095426
5882.8624877927	0.0002697586
5884.7912951657	0.0003354342
5886.7201025388	0.0003128098
5888.6489099118	0.0002232944
5890.5777172849	0.0002636898
5892.5065246579	0.0002146309
5894.4353320310	0.0002914165
5896.3641394040	0.0003325346
5898.2929467771	0.0002742914
5900.2217541501	0.0003054525
5902.1505615232	0.0002815796
5904.0793688962	0.0003223463
5906.0081762693	0.0003799227
5907.9369836423	0.0003669160
5909.8657910154	0.0003404174
5911.7945983884	0.0003325265
5913.7234057614	0.0002923620
5915.6522131345	0.0002354674
5917.5810205075	0.0002436611
5919.5098278806	0.0002685284
5921.4386352536	0.0003072220
5923.3674426267	0.0002608880
5925.2962499997	0.0002435756
5927.2250573728	0.0002884752
5929.1538647458	0.0002746875
5931.0826721189	0.0002539928
5933.0114794919	0.0002280074
5934.9402868650	0.0002815691
5936.8690942380	0.0002770278
5938.7979016111	0.0002564351
5940.7267089841	0.0003203279
5942.6555163571	0.0002382082
5944.5843237302	0.0002033261
5946.5131311032	0.0002940902
5948.4419384763	0.0002767991
5950.3707458493	0.0002714971
5952.2995532224	0.0003207410
5954.2283605954	0.0003019198
5956.1571679685	0.0002685280
5958.0859753415	0.0002699876
5960.0147827146	0.0002703412
5961.9435900876	0.0002029198
5963.8723974607	0.0002019098
5965.8012048337	0.0002710311
5967.7300122068	0.0002740721
5969.6588195798	0.0003135395
5971.5876269528	0.0003148887
5973.5164343259	0.0002426580
5975.4452416989	0.0002042602
5977.3740490720	0.0002846025
5979.3028564450	0.0002831442
5981.2316638181	0.0001966282
5983.1604711911	0.0002843915
5985.0892785642	0.0002538734
5987.0180859372	0.0002614521
5988.9468933103	0.0003033503
5990.8757006833	0.0002510854
5992.8045080564	0.0003039009
5994.7333154294	0.0002033826
5996.6621228025	0.0002192782
5998.5909301755	0.0002567751
6000.5197375485	0.0001727144
