399.2631262207	0.0003272919
401.1919335938	0.0000695915
403.1207409668	0.0003160194
405.0495483398	0.0006333886
406.9783557129	0.0003889169
408.9071630859	0.0002514782
410.8359704590	0.0005178633
412.7647778320	0.0002990228
414.6935852051	0.0000982434
416.6223925781	0.0007969617
418.5511999512	0.0005386582
420.4800073242	0.0002173077
422.4088146973	0.0005522217
424.3376220703	0.0001170366
426.2664294434	0.0003209326
428.1952368164	0.0004792510
430.1240441895	0.0006605980
432.0528515625	0.0007835897
433.9816589355	0.0001747768
435.9104663086	0.0004989678
437.8392736816	0.0006832335
439.7680810547	0.0005608449
441.6968884277	0.0005968140
443.6256958008	0.0005001269
445.5545031738	0.0006823326
447.4833105469	0.0005905466
449.4121179199	0.0003314450
451.3409252930	0.0002269642
453.2697326660	0.0002974990
455.1985400391	0.0003451502
457.1273474121	0.0001522946
459.0561547852	0.0002225641
460.9849621582	0.0005460203
462.9137695313	0.0003740480
464.8425769043	0.0002717124
466.7713842773	0.0004492956
468.7001916504	0.0004196316
470.6289990234	0.0004007335
472.5578063965	0.0003335364
474.4866137695	0.0006145017
476.4154211426	0.0003947288
478.3442285156	0.0002467992
480.2730358887	0.0004651365
482.2018432617	-0.0000271288
484.1306506348	0.0001874144
486.0594580078	0.0003393745
487.9882653809	0.0002942400
489.9170727539	0.0005669370
491.8458801270	0.0005411535
493.7746875000	0.0004006512
495.7034948730	-0.0000654531
497.6323022461	0.0001089782
499.5611096191	0.0001355631
501.4899169922	0.0000281838
503.4187243652	0.0003085645
505.3475317383	-0.0000531818
507.2763391113	0.0000424909
509.2051464844	0.0002280833
511.1339538574	0.0001189919
513.0627612305	0.0002299675
514.9915686035	0.0002895504
516.9203759766	0.0002136361
518.8491833496	-0.0001607434
520.7779907227	-0.0003362358
522.7067980957	-0.0002308817
524.6356054688	0.0000749558
526.5644128418	0.0001205073
528.4932202148	0.0000384963
530.4220275879	0.0003650580
532.3508349609	0.0003151674
534.2796423340	-0.0000309621
536.2084497070	0.0000938096
538.1372570801	0.0002992704
540.0660644531	0.0001684135
541.9948718262	0.0001165154
543.9236791992	0.0003162190
545.8524865723	0.0005889733
547.7812939453	0.0000136591
549.7101013184	-0.0002832416
551.6389086914	0.0002946387
553.5677160645	0.0000270417
555.4965234375	0.0000905260
557.4253308105	0.0001749179
559.3541381836	-0.0000241520
561.2829455566	0.0000321113
563.2117529297	-0.0000806846
565.1405603027	0.0000454167
567.0693676758	-0.0001447525
568.9981750488	0.0001746659
570.9269824219	0.0002433948
572.8557897949	-0.0001640519
574.7845971680	0.0003242494
576.7134045410	0.0001221641
578.6422119141	-0.0002143150
580.5710192871	0.0000939529
582.4998266602	0.0003861865
584.4286340332	0.0001345439
586.3574414063	-0.0000499390
588.2862487793	0.0001896441
590.2150561523	-0.0000899650
592.1438635254	0.0001298458
594.0726708984	-0.0000186519
596.0014782715	-0.0003012693
597.9302856445	0.0001764278
599.8590930176	0.0002650140
601.7879003906	0.0001899870
603.7167077637	0.0001246684
605.6455151367	0.0003577671
607.5743225098	0.0000569589
609.5031298828	-0.0000669518
611.4319372559	0.0000939821
613.3607446289	0.0001008578
615.2895520020	0.0005682099
617.2183593750	0.0003081872
619.1471667480	0.0001400906
621.0759741211	-0.0000592658
623.0047814941	-0.0000103085
624.9335888672	0.0002518924
626.8623962402	-0.0001472021
628.7912036133	0.0001674346
630.7200109863	0.0002344691
632.6488183594	0.0003775420
634.5776257324	0.0005465651
636.5064331055	0.0004489906
638.4352404785	0.0007007488
640.3640478516	0.0006429296
642.2928552246	0.0008994915
644.2216625977	0.0005702432
646.1504699707	0.0006010958
648.0792773438	0.0011167822
650.0080847168	0.0005898228
651.9368920898	0.0007806990
653.8656994629	0.0012050760
655.7945068359	0.0010087304
657.7233142090	0.0009396422
659.6521215820	0.0010027871
661.5809289551	0.0011370641
663.5097363281	0.0012934522
665.4385437012	0.0011717268
667.3673510742	0.0011192787
669.2961584473	0.0013872401
671.2249658203	0.0014010237
673.1537731934	0.0013746312
675.0825805664	0.0013295072
677.0113879395	0.0017273524
678.9401953125	0.0019038657
680.8690026855	0.0014838811
682.7978100586	0.0018125528
684.7266174316	0.0017690624
686.6554248047	0.0015242007
688.5842321777	0.0017019338
690.5130395508	0.0016838730
692.4418469238	0.0018657502
694.3706542969	0.0019643852
696.2994616699	0.0021256339
698.2282690430	0.0026182749
700.1570764160	0.0029956270
702.0858837891	0.0027658551
704.0146911621	0.0025822432
705.9434985352	0.0026352457
707.8723059082	0.0019570962
709.8011132813	0.0013986218
711.7299206543	0.0011158694
713.6587280273	0.0006767310
715.5875354004	0.0005101708
717.5163427734	0.0004016321
719.4451501465	0.0003180199
721.3739575195	0.0001541936
723.3027648926	0.0000978166
725.2315722656	0.0001960703
727.1603796387	0.0001126900
729.0891870117	0.0000651286
731.0179943848	0.0001337561
732.9468017578	0.0002822070
734.8756091309	0.0003409178
736.8044165039	0.0002501844
738.7332238770	0.0002722444
740.6620312500	0.0002188262
742.5908386230	0.0002189816
744.5196459961	0.0003562465
746.4484533691	0.0002090267
748.3772607422	0.0003062699
750.3060681152	0.0004827809
752.2348754883	0.0002562842
754.1636828613	0.0002359768
756.0924902344	0.0003842254
758.0212976074	0.0004915819
759.9501049805	0.0002398790
761.8789123535	0.0002068616
763.8077197266	0.0003929912
765.7365270996	0.0003400263
767.6653344727	0.0006554221
769.5941418457	0.0003730949
771.5229492188	0.0000670172
773.4517565918	0.0003871306
775.3805639648	0.0002462068
777.3093713379	0.0000963454
779.2381787109	0.0002842071
781.1669860840	0.0004381192
783.0957934570	0.0001721929
785.0246008301	0.0003616699
786.9534082031	0.0005626978
788.8822155762	0.0002066468
790.8110229492	0.0004607025
792.7398303223	0.0004932702
794.6686376953	0.0004590649
796.5974450684	0.0005619305
798.5262524414	0.0005206810
800.4550598145	0.0006866556
802.3838671875	0.0005659943
804.3126745605	0.0006120628
806.2414819336	0.0005346628
808.1702893066	0.0005450347
810.0990966797	0.0004798642
812.0279040527	0.0003757720
813.9567114258	0.0005163824
815.8855187988	-0.0000461486
817.8143261719	0.0002950238
819.7431335449	0.0004612075
821.6719409180	0.0000585531
823.6007482910	0.0005884378
825.5295556641	0.0006068643
827.4583630371	0.0005979189
829.3871704102	0.0005114489
831.3159777832	0.0005012346
833.2447851563	0.0007011452
835.1735925293	0.0005972068
837.1023999023	0.0008138833
839.0312072754	0.0007668342
840.9600146484	0.0008823249
842.8888220215	0.0008322035
844.8176293945	0.0006674479
846.7464367676	0.0008163934
848.6752441406	0.0004068890
850.6040515137	0.0005217762
852.5328588867	0.0008523401
854.4616662598	0.0008521453
856.3904736328	0.0009223683
858.3192810059	0.0005288228
860.2480883789	0.0004053893
862.1768957520	0.0004761796
864.1057031250	0.0003003248
866.0345104980	0.0004499025
867.9633178711	0.0003430664
869.8921252441	0.0002739768
871.8209326172	0.0005519803
873.7497399902	0.0002700164
875.6785473633	0.0002434479
877.6073547363	0.0004652269
879.5361621094	0.0002323031
881.4649694824	0.0001671627
883.3937768555	0.0003983196
885.3225842285	0.0003979495
887.2513916016	0.0001812791
889.1801989746	0.0004139111
891.1090063477	0.0005848759
893.0378137207	0.0004873881
894.9666210938	0.0005034594
896.8954284668	0.0004538166
898.8242358398	0.0005157187
900.7530432129	0.0006790588
902.6818505859	0.0006094242
904.6106579590	0.0004786588
906.5394653320	0.0006890637
908.4682727051	0.0006423862
910.3970800781	0.0003902489
912.3258874512	0.0004227640
914.2546948242	0.0007648703
916.1835021973	0.0010999196
918.1123095703	0.0008351970
920.0411169434	0.0007241988
921.9699243164	0.0008171086
923.8987316895	0.0009477572
925.8275390625	0.0009281557
927.7563464355	0.0009036681
929.6851538086	0.0011848434
931.6139611816	0.0009468127
933.5427685547	0.0011030862
935.4715759277	0.0011500175
937.4003833008	0.0009592291
939.3291906738	0.0012437593
941.2579980469	0.0011943590
943.1868054199	0.0014779161
945.1156127930	0.0013720922
947.0444201660	0.0012987030
948.9732275391	0.0014931781
950.9020349121	0.0009694701
952.8308422852	0.0010888281
954.7596496582	0.0012660467
956.6884570313	0.0010261245
958.6172644043	0.0013217663
960.5460717773	0.0015358918
962.4748791504	0.0010305650
964.4036865234	0.0011197275
966.3324938965	0.0015571567
968.2613012695	0.0011765563
970.1901086426	0.0014224414
972.1189160156	0.0015944112
974.0477233887	0.0013970771
975.9765307617	0.0016934779
977.9053381348	0.0016391489
979.8341455078	0.0018411768
981.7629528809	0.0021167195
983.6917602539	0.0021810378
985.6205676270	0.0025862569
987.5493750000	0.0026136180
989.4781823730	0.0027287160
991.4069897461	0.0032972225
993.3357971191	0.0034546512
995.2646044922	0.0039160778
997.1934118652	0.0044873175
999.1222192383	0.0044180732
1001.0510266113	0.0044659399
1002.9798339844	0.0048136213
1004.9086413574	0.0054021981
1006.8374487305	0.0055806078
1008.7662561035	0.0060105613
1010.6950634766	0.0066804076
1012.6238708496	0.0065015620
1014.5526782227	0.0068678902
1016.4814855957	0.0071330760
1018.4102929688	0.0072191665
1020.3391003418	0.0078451727
1022.2679077148	0.0080314726
1024.1967150879	0.0082968641
1026.1255224609	0.0085883830
1028.0543298340	0.0087851994
1029.9831372070	0.0090022068
1031.9119445801	0.0092463084
1033.8407519531	0.0094599528
1035.7695593262	0.0095676482
1037.6983666992	0.0098236026
1039.6271740723	0.0096407151
1041.5559814453	0.0093722166
1043.4847888184	0.0092993956
1045.4135961914	0.0093686320
1047.3424035645	0.0092711691
1049.2712109375	0.0088302521
1051.2000183105	0.0089011267
1053.1288256836	0.0088071916
1055.0576330566	0.0085288007
1056.9864404297	0.0084054805
1058.9152478027	0.0081410669
1060.8440551758	0.0079070721
1062.7728625488	0.0074626207
1064.7016699219	0.0073314300
1066.6304772949	0.0072509479
1068.5592846680	0.0067953384
1070.4880920410	0.0065961396
1072.4168994141	0.0063123694
1074.3457067871	0.0057390649
1076.2745141602	0.0055290721
1078.2033215332	0.0055616596
1080.1321289062	0.0052421452
1082.0609362793	0.0049387058
1083.9897436523	0.0046391557
1085.9185510254	0.0044275508
1087.8473583984	0.0043381546
1089.7761657715	0.0039021326
1091.7049731445	0.0040307129
1093.6337805176	0.0040079751
1095.5625878906	0.0034738961
1097.4913952637	0.0037031313
1099.4202026367	0.0036354428
1101.3490100098	0.0033156816
1103.2778173828	0.0033965628
1105.2066247559	0.0032999532
1107.1354321289	0.0031604432
1109.0642395019	0.0031394474
1110.9930468750	0.0032766503
1112.9218542480	0.0031860578
1114.8506616211	0.0030116076
1116.7794689941	0.0029989968
1118.7082763672	0.0029399097
1120.6370837402	0.0031269458
1122.5658911133	0.0031702570
1124.4946984863	0.0031019761
1126.4235058594	0.0033421069
1128.3523132324	0.0034241274
1130.2811206055	0.0033382475
1132.2099279785	0.0032774205
1134.1387353516	0.0034421659
1136.0675427246	0.0036949646
1137.9963500977	0.0036669441
1139.9251574707	0.0039799265
1141.8539648437	0.0042602955
1143.7827722168	0.0042371242
1145.7115795898	0.0046801241
1147.6403869629	0.0048382739
1149.5691943359	0.0048834682
1151.4980017090	0.0053744577
1153.4268090820	0.0057232827
1155.3556164551	0.0058695972
1157.2844238281	0.0059074229
1159.2132312012	0.0060911537
1161.1420385742	0.0063185273
1163.0708459473	0.0065249167
1164.9996533203	0.0064723846
1166.9284606934	0.0068682060
1168.8572680664	0.0076827216
1170.7860754394	0.0075330734
1172.7148828125	0.0078396322
1174.6436901855	0.0081005264
1176.5724975586	0.0080558723
1178.5013049316	0.0086945537
1180.4301123047	0.0088445693
1182.3589196777	0.0093645379
1184.2877270508	0.0096583990
1186.2165344238	0.0097858626
1188.1453417969	0.0104936240
1190.0741491699	0.0107318554
1192.0029565430	0.0112905316
1193.9317639160	0.0117974393
1195.8605712891	0.0122260284
1197.7893786621	0.0129442438
1199.7181860351	0.0136725325
1201.6469934082	0.0143881161
1203.5758007812	0.0147571629
1205.5046081543	0.0150683373
1207.4334155273	0.0154605899
1209.3622229004	0.0162302665
1211.2910302734	0.0165649354
1213.2198376465	0.0167927146
1215.1486450195	0.0174337812
1217.0774523926	0.0175315291
1219.0062597656	0.0180319212
1220.9350671387	0.0183894858
1222.8638745117	0.0182893015
1224.7926818848	0.0185429640
1226.7214892578	0.0185653940
1228.6502966308	0.0186746437
1230.5791040039	0.0188704953
1232.5079113769	0.0189036187
1234.4367187500	0.0188981332
1236.3655261230	0.0187610351
1238.2943334961	0.0188678391
1240.2231408691	0.0188858509
1242.1519482422	0.0185866859
1244.0807556152	0.0185560174
1246.0095629883	0.0184678882
1247.9383703613	0.0184288956
1249.8671777344	0.0182901714
1251.7959851074	0.0180598758
1253.7247924805	0.0181100816
1255.6535998535	0.0176419057
1257.5824072266	0.0175284091
1259.5112145996	0.0172500517
1261.4400219726	0.0167443752
1263.3688293457	0.0169441327
1265.2976367187	0.0164789502
1267.2264440918	0.0162213631
1269.1552514648	0.0159721151
1271.0840588379	0.0157862734
1273.0128662109	0.0158563927
1274.9416735840	0.0151590118
1276.8704809570	0.0149978111
1278.7992883301	0.0147303939
1280.7280957031	0.0143561717
1282.6569030762	0.0142285312
1284.5857104492	0.0138992723
1286.5145178223	0.0138310660
1288.4433251953	0.0136232143
1290.3721325683	0.0133994799
1292.3009399414	0.0131702181
1294.2297473144	0.0130382180
1296.1585546875	0.0128532844
1298.0873620605	0.0129174218
1300.0161694336	0.0130247846
1301.9449768066	0.0128617836
1303.8737841797	0.0130682550
1305.8025915527	0.0130516049
1307.7313989258	0.0133520775
1309.6602062988	0.0135998549
1311.5890136719	0.0136911031
1313.5178210449	0.0140748192
1315.4466284180	0.0142708700
1317.3754357910	0.0147090424
1319.3042431640	0.0148599166
1321.2330505371	0.0154510401
1323.1618579101	0.0161552876
1325.0906652832	0.0162712485
1327.0194726562	0.0167496651
1328.9482800293	0.0171659514
1330.8770874023	0.0176091790
1332.8058947754	0.0180249810
1334.7347021484	0.0181809962
1336.6635095215	0.0183220282
1338.5923168945	0.0184335634
1340.5211242676	0.0185802355
1342.4499316406	0.0191649273
1344.3787390137	0.0193558186
1346.3075463867	0.0190679282
1348.2363537597	0.0192877054
1350.1651611328	0.0190971121
1352.0939685058	0.0190341882
1354.0227758789	0.0188340172
1355.9515832519	0.0184382945
1357.8803906250	0.0186102744
1359.8091979980	0.0182126667
1361.7380053711	0.0175477639
1363.6668127441	0.0173682757
1365.5956201172	0.0180051178
1367.5244274902	0.0178482048
1369.4532348633	0.0175476801
1371.3820422363	0.0177559350
1373.3108496094	0.0169606134
1375.2396569824	0.0170235187
1377.1684643555	0.0172371846
1379.0972717285	0.0172032192
1381.0260791015	0.0172375329
1382.9548864746	0.0170427617
1384.8836938476	0.0171651468
1386.8125012207	0.0166657567
1388.7413085937	0.0169804096
1390.6701159668	0.0179580674
1392.5989233398	0.0176204257
1394.5277307129	0.0167550556
1396.4565380859	0.0172989629
1398.3853454590	0.0174565203
1400.3141528320	0.0172349643
1402.2429602051	0.0182433128
1404.1717675781	0.0174904894
1406.1005749512	0.0175392516
1408.0293823242	0.0180666205
1409.9581896972	0.0176337957
1411.8869970703	0.0179409925
1413.8158044433	0.0172280259
1415.7446118164	0.0176183097
1417.6734191894	0.0161815789
1419.6022265625	0.0146311503
1421.5310339355	0.0164752919
1423.4598413086	0.0158639587
1425.3886486816	0.0152703580
1427.3174560547	0.0155084133
1429.2462634277	0.0143189952
1431.1750708008	0.0139757078
1433.1038781738	0.0142990146
1435.0326855469	0.0130699389
1436.9614929199	0.0116024101
1438.8903002929	0.0127654597
1440.8191076660	0.0128258765
1442.7479150390	0.0122414399
1444.6767224121	0.0126777254
1446.6055297851	0.0116959512
1448.5343371582	0.0116814524
1450.4631445312	0.0120149655
1452.3919519043	0.0122554637
1454.3207592773	0.0127730090
1456.2495666504	0.0112381512
1458.1783740234	0.0116645284
1460.1071813965	0.0144891199
1462.0359887695	0.0150681585
1463.9647961426	0.0151390694
1465.8936035156	0.0158786066
1467.8224108886	0.0176720470
1469.7512182617	0.0189563837
1471.6800256347	0.0175625347
1473.6088330078	0.0184032433
1475.5376403808	0.0204521362
1477.4664477539	0.0218080245
1479.3952551269	0.0237856917
1481.3240625000	0.0240759999
1483.2528698730	0.0252337381
1485.1816772461	0.0261886455
1487.1104846191	0.0258335359
1489.0392919922	0.0259163678
1490.9680993652	0.0262518972
1492.8969067383	0.0294140782
1494.8257141113	0.0290071331
1496.7545214843	0.0268355086
1498.6833288574	0.0298709422
1500.6121362304	0.0304598734
1502.5409436035	0.0320994668
1504.4697509765	0.0308451615
1506.3985583496	0.0241753068
1508.3273657226	0.0283939540
1510.2561730957	0.0318343118
1512.1849804687	0.0311444029
1514.1137878418	0.0333533920
1516.0425952148	0.0305192992
1517.9714025879	0.0318536945
1519.9002099609	0.0305467248
1521.8290173340	0.0273578912
1523.7578247070	0.0322324634
1525.6866320801	0.0316290893
1527.6154394531	0.0315319151
1529.5442468261	0.0339102894
1531.4730541992	0.0331219882
1533.4018615722	0.0309675448
1535.3306689453	0.0321815573
1537.2594763183	0.0337288417
1539.1882836914	0.0260118544
1541.1170910644	0.0271446649
1543.0458984375	0.0309050679
1544.9747058105	0.0300281644
1546.9035131836	0.0342113376
1548.8323205566	0.0321833044
1550.7611279297	0.0331343934
1552.6899353027	0.0327553451
1554.6187426758	0.0305714607
1556.5475500488	0.0321610905
1558.4763574218	0.0244498365
1560.4051647949	0.0261772983
1562.3339721679	0.0339978486
1564.2627795410	0.0323400795
1566.1915869140	0.0331101418
1568.1203942871	0.0326611623
1570.0492016601	0.0299199354
1571.9780090332	0.0333553031
1573.9068164062	0.0333026797
1575.8356237793	0.0277789421
1577.7644311523	0.0306792296
1579.6932385254	0.0336672366
1581.6220458984	0.0323926359
1583.5508532715	0.0330783948
1585.4796606445	0.0325694755
1587.4084680175	0.0326500908
1589.3372753906	0.0322959237
1591.2660827636	0.0323694274
1593.1948901367	0.0323098823
1595.1236975097	0.0319028199
1597.0525048828	0.0323377661
1598.9813122558	0.0318235755
1600.9101196289	0.0321124457
1602.8389270019	0.0317256600
1604.7677343750	0.0319011584
1606.6965417480	0.0317579061
1608.6253491211	0.0318873674
1610.5541564941	0.0317346826
1612.4829638672	0.0317468494
1614.4117712402	0.0321782492
1616.3405786132	0.0274785217
1618.2693859863	0.0293976162
1620.1981933593	0.0332583562
1622.1270007324	0.0302929580
1624.0558081054	0.0305877998
1625.9846154785	0.0319284424
1627.9134228515	0.0322466902
1629.8422302246	0.0322326422
1631.7710375976	0.0340932906
1633.6998449707	0.0322764739
1635.6286523437	0.0281484053
1637.5574597168	0.0319466069
1639.4862670898	0.0346189141
1641.4150744629	0.0343090966
1643.3438818359	0.0353948027
1645.2726892090	0.0329809338
1647.2014965820	0.0303436071
1649.1303039550	0.0361810401
1651.0591113281	0.0344186872
1652.9879187011	0.0250043795
1654.9167260742	0.0321771875
1656.8455334472	0.0385293886
1658.7743408203	0.0375729240
1660.7031481933	0.0386002511
1662.6319555664	0.0361489505
1664.5607629394	0.0381240025
1666.4895703125	0.0402571447
1668.4183776855	0.0366615020
1670.3471850586	0.0363506079
1672.2759924316	0.0401292145
1674.2047998047	0.0377929732
1676.1336071777	0.0368103012
1678.0624145507	0.0412007421
1679.9912219238	0.0401910990
1681.9200292968	0.0401793085
1683.8488366699	0.0341973267
1685.7776440429	0.0342778377
1687.7064514160	0.0440185443
1689.6352587890	0.0393858999
1691.5640661621	0.0426572077
1693.4928735351	0.0430006459
1695.4216809082	0.0338548645
1697.3504882812	0.0399321206
1699.2792956543	0.0360925645
1701.2081030273	0.0336962417
1703.1369104004	0.0426665917
1705.0657177734	0.0398804322
1706.9945251464	0.0399986580
1708.9233325195	0.0425822437
1710.8521398925	0.0413787812
1712.7809472656	0.0417985320
1714.7097546386	0.0392919034
1716.6385620117	0.0359013602
1718.5673693847	0.0356445238
1720.4961767578	0.0407519452
1722.4249841308	0.0414535478
1724.3537915039	0.0391738638
1726.2825988769	0.0416109562
1728.2114062500	0.0389171168
1730.1402136230	0.0394282266
1732.0690209961	0.0381178372
1733.9978283691	0.0310105532
1735.9266357421	0.0367139205
1737.8554431152	0.0393092260
1739.7842504882	0.0358634591
1741.7130578613	0.0384923406
1743.6418652343	0.0388304740
1745.5706726074	0.0386262834
1747.4994799804	0.0389625430
1749.4282873535	0.0375635326
1751.3570947265	0.0361822955
1753.2859020996	0.0393573716
1755.2147094726	0.0405336730
1757.1435168457	0.0377193168
1759.0723242187	0.0405830890
1761.0011315918	0.0383898728
1762.9299389648	0.0375492796
1764.8587463379	0.0414815098
1766.7875537109	0.0379684344
1768.7163610839	0.0384206697
1770.6451684570	0.0380034298
1772.5739758300	0.0347644314
1774.5027832031	0.0378587171
1776.4315905761	0.0395099595
1778.3603979492	0.0389074311
1780.2892053222	0.0384413078
1782.2180126953	0.0385381915
1784.1468200683	0.0383129306
1786.0756274414	0.0377019458
1788.0044348144	0.0391563177
1789.9332421875	0.0382458791
1791.8620495605	0.0353459790
1793.7908569336	0.0366951227
1795.7196643066	0.0386013128
1797.6484716796	0.0379637703
1799.5772790527	0.0375657752
1801.5060864257	0.0368822888
1803.4348937988	0.0377975106
1805.3637011718	0.0382957011
1807.2925085449	0.0377359837
1809.2213159179	0.0379667655
1811.1501232910	0.0371335149
1813.0789306640	0.0380092636
1815.0077380371	0.0379142389
1816.9365454101	0.0374737680
1818.8653527832	0.0377327949
1820.7941601562	0.0374546051
1822.7229675293	0.0378333144
1824.6517749023	0.0359336585
1826.5805822753	0.0368129686
1828.5093896484	0.0366514251
1830.4381970214	0.0350578502
1832.3670043945	0.0372351110
1834.2958117675	0.0368571877
1836.2246191406	0.0368785635
1838.1534265136	0.0365254730
1840.0822338867	0.0366938598
1842.0110412597	0.0366627052
1843.9398486328	0.0334999561
1845.8686560058	0.0350957215
1847.7974633789	0.0364275947
1849.7262707519	0.0358944014
1851.6550781250	0.0364933759
1853.5838854980	0.0359652415
1855.5126928710	0.0362784639
1857.4415002441	0.0359794311
1859.3703076171	0.0357640162
1861.2991149902	0.0359494537
1863.2279223632	0.0355519131
1865.1567297363	0.0356347933
1867.0855371093	0.0346933305
1869.0143444824	0.0335376486
1870.9431518554	0.0344855078
1872.8719592285	0.0353685319
1874.8007666015	0.0349061079
1876.7295739746	0.0349886641
1878.6583813476	0.0348633304
1880.5871887207	0.0348225385
1882.5159960937	0.0347755775
1884.4448034667	0.0343676209
1886.3736108398	0.0347631611
1888.3024182128	0.0339739323
1890.2312255859	0.0334644094
1892.1600329589	0.0343489423
1894.0888403320	0.0339961685
1896.0176477050	0.0337831527
1897.9464550781	0.0340802073
1899.8752624511	0.0338612050
1901.8040698242	0.0337669849
1903.7328771972	0.0337269641
1905.6616845703	0.0338205546
1907.5904919433	0.0334549397
1909.5192993164	0.0331559554
1911.4481066894	0.0332946368
1913.3769140625	0.0333775356
1915.3057214355	0.0334561877
1917.2345288085	0.0322004147
1919.1633361816	0.0322789028
1921.0921435546	0.0331389904
1923.0209509277	0.0322437733
1924.9497583007	0.0327122062
1926.8785656738	0.0329253599
1928.8073730468	0.0326991975
1930.7361804199	0.0329231471
1932.6649877929	0.0326210409
1934.5937951660	0.0327123329
1936.5226025390	0.0323426127
1938.4514099121	0.0325050913
1940.3802172851	0.0323881134
1942.3090246582	0.0317219421
1944.2378320312	0.0319128111
1946.1666394042	0.0320631415
1948.0954467773	0.0322262384
1950.0242541503	0.0321012400
1951.9530615234	0.0321913287
1953.8818688964	0.0320509449
1955.8106762695	0.0317868814
1957.7394836425	0.0319874063
1959.6682910156	0.0317518041
1961.5970983886	0.0317732170
1963.5259057617	0.0318595879
1965.4547131347	0.0316765532
1967.3835205078	0.0313359648
1969.3123278808	0.0313910916
1971.2411352539	0.0315971486
1973.1699426269	0.0313096233
1975.0987499999	0.0314706489
1977.0275573730	0.0315166637
1978.9563647460	0.0313250758
1980.8851721191	0.0311463363
1982.8139794921	0.0310892873
1984.7427868652	0.0311894473
1986.6715942382	0.0308337789
1988.6004016113	0.0309080295
1990.5292089843	0.0308459159
1992.4580163574	0.0303498264
1994.3868237304	0.0307163075
1996.3156311035	0.0308495164
1998.2444384765	0.0304646268
2000.1732458496	0.0305504426
2002.1020532226	0.0305286087
2004.0308605956	0.0303684920
2005.9596679687	0.0302244984
2007.8884753417	0.0301041845
2009.8172827148	0.0302307606
2011.7460900878	0.0300793685
2013.6748974609	0.0298777185
2015.6037048339	0.0297759902
2017.5325122070	0.0296518877
2019.4613195800	0.0296869036
2021.3901269531	0.0296527483
2023.3189343261	0.0295390934
2025.2477416992	0.0293536894
2027.1765490722	0.0293979533
2029.1053564453	0.0293833539
2031.0341638183	0.0291496105
2032.9629711914	0.0291702263
2034.8917785644	0.0290849581
2036.8205859374	0.0290400479
2038.7493933105	0.0290147960
2040.6782006835	0.0288078710
2042.6070080566	0.0287360214
2044.5358154296	0.0287574232
2046.4646228027	0.0287436582
2048.3934301757	0.0285290349
2050.3222375488	0.0284787081
2052.2510449218	0.0284408443
2054.1798522949	0.0282387845
2056.1086596679	0.0283694230
2058.0374670410	0.0282665379
2059.9662744140	0.0280896705
2061.8950817871	0.0281356946
2063.8238891601	0.0279713161
2065.7526965331	0.0279244632
2067.6815039062	0.0279440396
2069.6103112792	0.0278874878
2071.5391186523	0.0277657434
2073.4679260253	0.0277328491
2075.3967333984	0.0277701169
2077.3255407714	0.0276475605
2079.2543481445	0.0276283510
2081.1831555175	0.0275744870
2083.1119628906	0.0274311788
2085.0407702636	0.0272935703
2086.9695776367	0.0273636188
2088.8983850097	0.0273461025
2090.8271923828	0.0270565785
2092.7559997558	0.0271145999
2094.6848071288	0.0270563141
2096.6136145019	0.0269328244
2098.5424218749	0.0269777738
2100.4712292480	0.0269708280
2102.4000366210	0.0269710012
2104.3288439941	0.0268296786
2106.2576513671	0.0267760530
2108.1864587402	0.0267529190
2110.1152661132	0.0268301871
2112.0440734863	0.0267332178
2113.9728808593	0.0265426859
2115.9016882324	0.0266800746
2117.8304956054	0.0265777316
2119.7593029785	0.0264901705
2121.6881103515	0.0264696945
2123.6169177245	0.0263134781
2125.5457250976	0.0263141561
2127.4745324706	0.0263379272
2129.4033398437	0.0262307432
2131.3321472167	0.0261872932
2133.2609545898	0.0261925291
2135.1897619628	0.0260397810
2137.1185693359	0.0260420479
2139.0473767089	0.0260688625
2140.9761840820	0.0260371882
2142.9049914550	0.0259620138
2144.8337988281	0.0257033948
2146.7626062011	0.0256697088
2148.6914135742	0.0258283634
2150.6202209472	0.0258240774
2152.5490283203	0.0257569104
2154.4778356933	0.0258559585
2156.4066430663	0.0257721283
2158.3354504394	0.0256580971
2160.2642578124	0.0256752446
2162.1930651855	0.0255830288
2164.1218725585	0.0256065801
2166.0506799316	0.0255692527
2167.9794873046	0.0255142879
2169.9082946777	0.0254639518
2171.8371020507	0.0254866946
2173.7659094238	0.0254499763
2175.6947167968	0.0253125802
2177.6235241699	0.0254174657
2179.5523315429	0.0253410228
2181.4811389160	0.0252708849
2183.4099462890	0.0252274908
2185.3387536620	0.0252117328
2187.2675610351	0.0252246000
2189.1963684081	0.0250580497
2191.1251757812	0.0251135956
2193.0539831542	0.0250182319
2194.9827905273	0.0248795189
2196.9115979003	0.0249517374
2198.8404052734	0.0250155553
2200.7692126464	0.0249161385
2202.6980200195	0.0247436650
2204.6268273925	0.0248460174
2206.5556347656	0.0247947387
2208.4844421386	0.0246648304
2210.4132495117	0.0246397089
2212.3420568847	0.0245828945
2214.2708642577	0.0246096086
2216.1996716308	0.0246014614
2218.1284790038	0.0245445631
2220.0572863769	0.0244903769
2221.9860937499	0.0244300757
2223.9149011230	0.0244116094
2225.8437084960	0.0243977830
2227.7725158691	0.0242869481
2229.7013232421	0.0242865980
2231.6301306152	0.0242238753
2233.5589379882	0.0241317935
2235.4877453613	0.0241185799
2237.4165527343	0.0240098014
2239.3453601074	0.0240809880
2241.2741674804	0.0240068622
2243.2029748534	0.0239409413
2245.1317822265	0.0239507928
2247.0605895995	0.0238264631
2248.9893969726	0.0238123536
2250.9182043456	0.0237293951
2252.8470117187	0.0236642584
2254.7758190917	0.0235367082
2256.7046264648	0.0235804245
2258.6334338378	0.0235788953
2260.5622412109	0.0234309714
2262.4910485839	0.0235319734
2264.4198559570	0.0234353021
2266.3486633300	0.0234413408
2268.2774707031	0.0234693792
2270.2062780761	0.0233180616
2272.1350854491	0.0231873766
2274.0638928222	0.0231476128
2275.9927001952	0.0232591033
2277.9215075683	0.0231574140
2279.8503149413	0.0231371503
2281.7791223144	0.0232017227
2283.7079296874	0.0231839586
2285.6367370605	0.0230838880
2287.5655444335	0.0229581259
2289.4943518066	0.0229623206
2291.4231591796	0.0228322782
2293.3519665527	0.0227163881
2295.2807739257	0.0226777755
2297.2095812988	0.0227528140
2299.1383886718	0.0225722361
2301.0671960449	0.0222691335
2302.9960034179	0.0224055201
2304.9248107909	0.0222403109
2306.8536181640	0.0219907202
2308.7824255370	0.0220177528
2310.7112329101	0.0218104869
2312.6400402831	0.0214434955
2314.5688476562	0.0212336965
2316.4976550292	0.0211023353
2318.4264624023	0.0208021458
2320.3552697753	0.0206440259
2322.2840771484	0.0203920733
2324.2128845214	0.0200072117
2326.1416918945	0.0199119672
2328.0704992675	0.0196985789
2329.9993066406	0.0194984954
2331.9281140136	0.0194246806
2333.8569213866	0.0192582887
2335.7857287597	0.0191842355
2337.7145361327	0.0191310532
2339.6433435058	0.0191327408
2341.5721508788	0.0192797445
2343.5009582519	0.0194436274
2345.4297656249	0.0197948106
2347.3585729980	0.0205518249
2349.2873803710	0.0209147781
2351.2161877441	0.0202667303
2353.1449951171	0.0195239019
2355.0738024902	0.0189493857
2357.0026098632	0.0182540044
2358.9314172363	0.0179178528
2360.8602246093	0.0177769400
2362.7890319823	0.0177059956
2364.7178393554	0.0179744698
2366.6466467284	0.0180651434
2368.5754541015	0.0181656778
2370.5042614745	0.0186524354
2372.4330688476	0.0190726817
2374.3618762206	0.0194989778
2376.2906835937	0.0199009702
2378.2194909667	0.0203147214
2380.1482983398	0.0206715800
2382.0771057128	0.0208039209
2384.0059130859	0.0209982991
2385.9347204589	0.0209893733
2387.8635278320	0.0210078359
2389.7923352050	0.0209487155
2391.7211425780	0.0208109431
2393.6499499511	0.0209794268
2395.5787573241	0.0207533576
2397.5075646972	0.0206668824
2399.4363720702	0.0208744965
2401.3651794433	0.0207393840
2403.2939868163	0.0206012428
2405.2227941894	0.0205760337
2407.1516015624	0.0206250381
2409.0804089355	0.0205727331
2411.0092163085	0.0205740035
2412.9380236816	0.0205918588
2414.8668310546	0.0204319451
2416.7956384277	0.0203958377
2418.7244458007	0.0204158835
2420.6532531738	0.0203367118
2422.5820605468	0.0202745851
2424.5108679198	0.0201659519
2426.4396752929	0.0201702882
2428.3684826659	0.0203428827
2430.2972900390	0.0201863088
2432.2260974120	0.0201379210
2434.1549047851	0.0200719666
2436.0837121581	0.0199763793
2438.0125195312	0.0201519988
2439.9413269042	0.0198602807
2441.8701342773	0.0199126005
2443.7989416503	0.0199399050
2445.7277490234	0.0197155047
2447.6565563964	0.0199021883
2449.5853637695	0.0197216123
2451.5141711425	0.0197094269
2453.4429785155	0.0197173078
2455.3717858886	0.0196316391
2457.3005932616	0.0196582489
2459.2294006347	0.0196060762
2461.1582080077	0.0196973868
2463.0870153808	0.0194905959
2465.0158227538	0.0193816721
2466.9446301269	0.0194446556
2468.8734374999	0.0194579605
2470.8022448730	0.0194022171
2472.7310522460	0.0193206966
2474.6598596191	0.0193374511
2476.5886669921	0.0192663278
2478.5174743652	0.0193781480
2480.4462817382	0.0192893259
2482.3750891112	0.0191589743
2484.3038964843	0.0191653930
2486.2327038573	0.0190712586
2488.1615112304	0.0190405548
2490.0903186034	0.0189846791
2492.0191259765	0.0190800130
2493.9479333495	0.0190082081
2495.8767407226	0.0189348161
2497.8055480956	0.0189223085
2499.7343554687	0.0187929459
2501.6631628417	0.0188309141
2503.5919702148	0.0187796168
2505.5207775878	0.0187778436
2507.4495849609	0.0186863393
2509.3783923339	0.0185565017
2511.3071997069	0.0186155811
2513.2360070800	0.0185520705
2515.1648144530	0.0185727328
2517.0936218261	0.0186502822
2519.0224291991	0.0185936615
2520.9512365722	0.0185910240
2522.8800439452	0.0185789894
2524.8088513183	0.0184936337
2526.7376586913	0.0184664987
2528.6664660644	0.0183749497
2530.5952734374	0.0183931887
2532.5240808105	0.0184328370
2534.4528881835	0.0182477050
2536.3816955566	0.0182787627
2538.3105029296	0.0182854086
2540.2393103027	0.0180957690
2542.1681176757	0.0181115270
2544.0969250487	0.0180743374
2546.0257324218	0.0179832634
2547.9545397948	0.0180679895
2549.8833471679	0.0180010423
2551.8121545409	0.0179580823
2553.7409619140	0.0179726258
2555.6697692870	0.0179042742
2557.5985766601	0.0179598723
2559.5273840331	0.0178146195
2561.4561914062	0.0177746266
2563.3849987792	0.0178530775
2565.3138061523	0.0177674219
2567.2426135253	0.0177357364
2569.1714208984	0.0176537223
2571.1002282714	0.0176288709
2573.0290356444	0.0175214224
2574.9578430175	0.0175502114
2576.8866503905	0.0175367221
2578.8154577636	0.0173747502
2580.7442651366	0.0174631439
2582.6730725097	0.0174266472
2584.6018798827	0.0174739920
2586.5306872558	0.0174373742
2588.4594946288	0.0172543488
2590.3883020019	0.0172521845
2592.3171093749	0.0172654912
2594.2459167480	0.0172374025
2596.1747241210	0.0171796493
2598.1035314941	0.0172168836
2600.0323388671	0.0171506889
2601.9611462401	0.0171058811
2603.8899536132	0.0169954505
2605.8187609862	0.0169335939
2607.7475683593	0.0170502104
2609.6763757323	0.0170181133
2611.6051831054	0.0170189608
2613.5339904784	0.0168976113
2615.4627978515	0.0169239268
2617.3916052245	0.0168671906
2619.3204125976	0.0167064238
2621.2492199706	0.0168268494
2623.1780273437	0.0167302340
2625.1068347167	0.0166575052
2627.0356420898	0.0165549852
2628.9644494628	0.0165556557
2630.8932568358	0.0166636594
2632.8220642089	0.0165726617
2634.7508715819	0.0165414289
2636.6796789550	0.0164727885
2638.6084863280	0.0165380370
2640.5372937011	0.0165234767
2642.4661010741	0.0163972937
2644.3949084472	0.0163675025
2646.3237158202	0.0162913837
2648.2525231933	0.0162897520
2650.1813305663	0.0162730403
2652.1101379394	0.0162391327
2654.0389453124	0.0161737911
2655.9677526855	0.0160918087
2657.8965600585	0.0160761140
2659.8253674315	0.0161180124
2661.7541748046	0.0161147676
2663.6829821776	0.0160717294
2665.6117895507	0.0160617754
2667.5405969237	0.0159035139
2669.4694042968	0.0159043372
2671.3982116698	0.0159425512
2673.3270190429	0.0157687515
2675.2558264159	0.0158333294
2677.1846337890	0.0158349145
2679.1134411620	0.0157362223
2681.0422485351	0.0157553367
2682.9710559081	0.0155713577
2684.8998632812	0.0155160334
2686.8286706542	0.0156523623
2688.7574780273	0.0157157890
2690.6862854003	0.0156198293
2692.6150927733	0.0154450238
2694.5439001464	0.0155642759
2696.4727075194	0.0155050531
2698.4015148925	0.0153288078
2700.3303222655	0.0154015487
2702.2591296386	0.0153426565
2704.1879370116	0.0152840009
2706.1167443847	0.0153046139
2708.0455517577	0.0153626818
2709.9743591308	0.0152967805
2711.9031665038	0.0151736178
2713.8319738769	0.0151582509
2715.7607812499	0.0151363220
2717.6895886230	0.0151335699
2719.6183959960	0.0151024554
2721.5472033690	0.0151638053
2723.4760107421	0.0149857718
2725.4048181151	0.0148712490
2727.3336254882	0.0151034351
2729.2624328612	0.0149306720
2731.1912402343	0.0148200262
2733.1200476073	0.0149639770
2735.0488549804	0.0148276854
2736.9776623534	0.0147599205
2738.9064697265	0.0148114674
2740.8352770995	0.0146942465
2742.7640844726	0.0146629345
2744.6928918456	0.0146404933
2746.6216992187	0.0145910801
2748.5505065917	0.0146271968
2750.4793139647	0.0145417983
2752.4081213378	0.0145523399
2754.3369287108	0.0145213092
2756.2657360839	0.0144780334
2758.1945434569	0.0144644314
2760.1233508300	0.0143408813
2762.0521582030	0.0143500669
2763.9809655761	0.0143035930
2765.9097729491	0.0142528731
2767.8385803222	0.0141931633
2769.7673876952	0.0141794514
2771.6961950683	0.0141977463
2773.6250024413	0.0141553255
2775.5538098144	0.0141106676
2777.4826171874	0.0140593797
2779.4114245604	0.0141496705
2781.3402319335	0.0140090324
2783.2690393065	0.0139728356
2785.1978466796	0.0139911883
2787.1266540526	0.0138747934
2789.0554614257	0.0139268450
2790.9842687987	0.0138221383
2792.9130761718	0.0138125364
2794.8418835448	0.0137500679
2796.7706909179	0.0137782600
2798.6994982909	0.0137356911
2800.6283056640	0.0135643017
2802.5571130370	0.0137060005
2804.4859204101	0.0135817043
2806.4147277831	0.0135474205
2808.3435351562	0.0134733710
2810.2723425292	0.0133802770
2812.2011499022	0.0135020223
2814.1299572753	0.0134139024
2816.0587646483	0.0134112537
2817.9875720214	0.0133711658
2819.9163793944	0.0133133894
2821.8451867675	0.0131711960
2823.7739941405	0.0131441671
2825.7028015136	0.0132516408
2827.6316088866	0.0131895011
2829.5604162597	0.0131732710
2831.4892236327	0.0130281188
2833.4180310058	0.0129778292
2835.3468383788	0.0129627483
2837.2756457519	0.0129607357
2839.2044531249	0.0129141975
2841.1332604979	0.0126928138
2843.0620678710	0.0127116777
2844.9908752440	0.0126826912
2846.9196826171	0.0125835165
2848.8484899901	0.0125345448
2850.7772973632	0.0124970134
2852.7061047362	0.0124628311
2854.6349121093	0.0123778218
2856.5637194823	0.0123758819
2858.4925268554	0.0124450019
2860.4213342284	0.0125043839
2862.3501416015	0.0123745669
2864.2789489745	0.0123303905
2866.2077563476	0.0123885674
2868.1365637206	0.0123245120
2870.0653710936	0.0122396797
2871.9941784667	0.0122145377
2873.9229858397	0.0122892614
2875.8517932128	0.0121645574
2877.7806005858	0.0121149383
2879.7094079589	0.0121299196
2881.6382153319	0.0119830128
2883.5670227050	0.0120141897
2885.4958300780	0.0119604412
2887.4246374511	0.0119078346
2889.3534448241	0.0119600482
2891.2822521972	0.0119165890
2893.2110595702	0.0117990067
2895.1398669433	0.0117022581
2897.0686743163	0.0118455822
2898.9974816893	0.0117410235
2900.9262890624	0.0115437154
2902.8550964354	0.0115963370
2904.7839038085	0.0114745963
2906.7127111815	0.0115157086
2908.6415185546	0.0115933716
2910.5703259276	0.0114764627
2912.4991333007	0.0113450922
2914.4279406737	0.0111893006
2916.3567480468	0.0111839259
2918.2855554198	0.0111931469
2920.2143627929	0.0111937970
2922.1431701659	0.0110785337
2924.0719775390	0.0111003704
2926.0007849120	0.0112012345
2927.9295922851	0.0110014882
2929.8583996581	0.0110755507
2931.7872070311	0.0111184791
2933.7160144042	0.0110020814
2935.6448217772	0.0109609142
2937.5736291503	0.0109719578
2939.5024365233	0.0111079151
2941.4312438964	0.0109428037
2943.3600512694	0.0109552350
2945.2888586425	0.0110627851
2947.2176660155	0.0108425682
2949.1464733886	0.0108417785
2951.0752807616	0.0108924676
2953.0040881347	0.0107498979
2954.9328955077	0.0106508229
2956.8617028808	0.0107102161
2958.7905102538	0.0107172802
2960.7193176268	0.0105999392
2962.6481249999	0.0106065394
2964.5769323729	0.0106428005
2966.5057397460	0.0104510188
2968.4345471190	0.0104591344
2970.3633544921	0.0106099397
2972.2921618651	0.0104339439
2974.2209692382	0.0104672275
2976.1497766112	0.0104774255
2978.0785839843	0.0103519578
2980.0073913573	0.0104815532
2981.9361987304	0.0103853662
2983.8650061034	0.0102723185
2985.7938134765	0.0103735738
2987.7226208495	0.0103701856
2989.6514282225	0.0103382971
2991.5802355956	0.0103554707
2993.5090429686	0.0103008645
2995.4378503417	0.0102888551
2997.3666577147	0.0102849305
2999.2954650878	0.0101809893
3001.2242724608	0.0102010723
3003.1530798339	0.0102024497
3005.0818872069	0.0101001654
3007.0106945800	0.0100745074
3008.9395019530	0.0100546125
3010.8683093261	0.0099875331
3012.7971166991	0.0100204237
3014.7259240722	0.0099501312
3016.6547314452	0.0098177707
3018.5835388182	0.0099287294
3020.5123461913	0.0098826643
3022.4411535643	0.0097641479
3024.3699609374	0.0097746383
3026.2987683104	0.0098179504
3028.2275756835	0.0097827166
3030.1563830565	0.0096313115
3032.0851904296	0.0096398033
3034.0139978026	0.0097151753
3035.9428051757	0.0097543159
3037.8716125487	0.0095038628
3039.8004199218	0.0093881125
3041.7292272948	0.0095890835
3043.6580346679	0.0095219109
3045.5868420409	0.0094320886
3047.5156494139	0.0093656871
3049.4444567870	0.0094345612
3051.3732641600	0.0094669601
3053.3020715331	0.0093110185
3055.2308789061	0.0092851091
3057.1596862792	0.0092815887
3059.0884936522	0.0091501866
3061.0173010253	0.0090574762
3062.9461083983	0.0092216954
3064.8749157714	0.0091058044
3066.8037231444	0.0090181325
3068.7325305175	0.0091397911
3070.6613378905	0.0090510417
3072.5901452636	0.0090143345
3074.5189526366	0.0089303991
3076.4477600097	0.0090162875
3078.3765673827	0.0089936331
3080.3053747557	0.0089238156
3082.2341821288	0.0089961141
3084.1629895018	0.0087799374
3086.0917968749	0.0088298377
3088.0206042479	0.0089779682
3089.9494116210	0.0088486075
3091.8782189940	0.0087186079
3093.8070263671	0.0086848522
3095.7358337401	0.0086825173
3097.6646411132	0.0086031780
3099.5934484862	0.0086019589
3101.5222558593	0.0086726863
3103.4510632323	0.0085628079
3105.3798706054	0.0084745251
3107.3086779784	0.0085768914
3109.2374853514	0.0085390937
3111.1662927245	0.0084995506
3113.0951000975	0.0084254798
3115.0239074706	0.0084018288
3116.9527148436	0.0083679240
3118.8815222167	0.0082338639
3120.8103295897	0.0083870366
3122.7391369628	0.0083667058
3124.6679443358	0.0083283605
3126.5967517089	0.0082262456
3128.5255590819	0.0082112886
3130.4543664550	0.0083061401
3132.3831738280	0.0080942307
3134.3119812011	0.0082283877
3136.2407885741	0.0081326971
3138.1695959471	0.0081830174
3140.0984033202	0.0082638282
3142.0272106932	0.0079634842
3143.9560180663	0.0080857687
3145.8848254393	0.0080039678
3147.8136328124	0.0081131160
3149.7424401854	0.0080398694
3151.6712475585	0.0078025940
3153.6000549315	0.0079798792
3155.5288623046	0.0078737056
3157.4576696776	0.0079496307
3159.3864770507	0.0079692788
3161.3152844237	0.0078981314
3163.2440917968	0.0078862486
3165.1728991698	0.0078128073
3167.1017065428	0.0078149028
3169.0305139159	0.0077645611
3170.9593212889	0.0078261029
3172.8881286620	0.0077534332
3174.8169360350	0.0077153896
3176.7457434081	0.0076961592
3178.6745507811	0.0076407576
3180.6033581542	0.0077426112
3182.5321655272	0.0077820709
3184.4609729003	0.0077656978
3186.3897802733	0.0077012125
3188.3185876464	0.0076816157
3190.2473950194	0.0076458901
3192.1762023925	0.0076970239
3194.1050097655	0.0076690726
3196.0338171386	0.0075590871
3197.9626245116	0.0076383697
3199.8914318846	0.0076271836
3201.8202392577	0.0076240557
3203.7490466307	0.0076173190
3205.6778540038	0.0075721946
3207.6066613768	0.0075664655
3209.5354687499	0.0076620094
3211.4642761229	0.0076653054
3213.3930834960	0.0075532198
3215.3218908690	0.0076093785
3217.2506982421	0.0075015584
3219.1795056151	0.0075079165
3221.1083129882	0.0076417266
3223.0371203612	0.0076064691
3224.9659277343	0.0075264187
3226.8947351073	0.0074963011
3228.8235424803	0.0076475409
3230.7523498534	0.0075491183
3232.6811572264	0.0074960431
3234.6099645995	0.0075922343
3236.5387719725	0.0075443527
3238.4675793456	0.0076748636
3240.3963867186	0.0076505113
3242.3251940917	0.0075945081
3244.2540014647	0.0077160541
3246.1828088378	0.0076843612
3248.1116162108	0.0076236427
3250.0404235839	0.0076030963
3251.9692309569	0.0077022258
3253.8980383300	0.0077637401
3255.8268457030	0.0076172012
3257.7556530760	0.0076273754
3259.6844604491	0.0076834988
3261.6132678221	0.0076811900
3263.5420751952	0.0077034961
3265.4708825682	0.0076852459
3267.3996899413	0.0078021111
3269.3284973143	0.0077697616
3271.2573046874	0.0076664924
3273.1861120604	0.0077410936
3275.1149194335	0.0078146346
3277.0437268065	0.0078764539
3278.9725341796	0.0077902833
3280.9013415526	0.0077950358
3282.8301489257	0.0077959010
3284.7589562987	0.0078091808
3286.6877636717	0.0079302955
3288.6165710448	0.0077629485
3290.5453784178	0.0078268340
3292.4741857909	0.0079408549
3294.4029931639	0.0077611478
3296.3318005370	0.0078739244
3298.2606079100	0.0080295298
3300.1894152831	0.0079203621
3302.1182226561	0.0078623313
3304.0470300292	0.0079352185
3305.9758374022	0.0079286471
3307.9046447753	0.0079284795
3309.8334521483	0.0079605794
3311.7622595214	0.0079752337
3313.6910668944	0.0079496866
3315.6198742675	0.0079183448
3317.5486816405	0.0080759190
3319.4774890135	0.0080691800
3321.4062963866	0.0080022775
3323.3351037596	0.0080162687
3325.2639111327	0.0079260468
3327.1927185057	0.0080631757
3329.1215258788	0.0080842432
3331.0503332518	0.0080051888
3332.9791406249	0.0080828462
3334.9079479979	0.0080721099
3336.8367553710	0.0081597790
3338.7655627440	0.0081632808
3340.6943701171	0.0081272386
3342.6231774901	0.0081620216
3344.5519848632	0.0081422692
3346.4807922362	0.0081938142
3348.4095996092	0.0081586083
3350.3384069823	0.0082470942
3352.2672143553	0.0083404742
3354.1960217284	0.0082928808
3356.1248291014	0.0083601661
3358.0536364745	0.0083323494
3359.9824438475	0.0083771367
3361.9112512206	0.0083882408
3363.8400585936	0.0083114002
3365.7688659667	0.0084045343
3367.6976733397	0.0084145498
3369.6264807128	0.0084646298
3371.5552880858	0.0085203052
3373.4840954589	0.0084572472
3375.4129028319	0.0085124988
3377.3417102049	0.0086328723
3379.2705175780	0.0086523201
3381.1993249510	0.0085934438
3383.1281323241	0.0085995710
3385.0569396971	0.0086172000
3386.9857470702	0.0086021693
3388.9145544432	0.0086237676
3390.8433618163	0.0086936969
3392.7721691893	0.0087172091
3394.7009765624	0.0087033007
3396.6297839354	0.0088203866
3398.5585913085	0.0088975439
3400.4873986815	0.0088625178
3402.4162060546	0.0088345362
3404.3450134276	0.0088947099
3406.2738208006	0.0090205073
3408.2026281737	0.0089717135
3410.1314355467	0.0090065580
3412.0602429198	0.0091554709
3413.9890502928	0.0091376454
3415.9178576659	0.0092048533
3417.8466650389	0.0091871936
3419.7754724120	0.0090821031
3421.7042797850	0.0092101023
3423.6330871581	0.0093007181
3425.5618945311	0.0093065258
3427.4907019042	0.0093186805
3429.4195092772	0.0093864789
3431.3483166503	0.0094802445
3433.2771240233	0.0094628353
3435.2059313963	0.0094946567
3437.1347387694	0.0094627403
3439.0635461424	0.0094485404
3440.9923535155	0.0095833000
3442.9211608885	0.0095219184
3444.8499682616	0.0094823642
3446.7787756346	0.0095576458
3448.7075830077	0.0095628444
3450.6363903807	0.0097101899
3452.5651977538	0.0098031061
3454.4940051268	0.0097692106
3456.4228124999	0.0098212203
3458.3516198729	0.0098489104
3460.2804272460	0.0098730568
3462.2092346190	0.0099252164
3464.1380419921	0.0099795982
3466.0668493651	0.0099611264
3467.9956567381	0.0099810064
3469.9244641112	0.0100735892
3471.8532714842	0.0100659858
3473.7820788573	0.0102031697
3475.7108862303	0.0102770627
3477.6396936034	0.0102163497
3479.5685009764	0.0102107292
3481.4973083495	0.0101835635
3483.4261157225	0.0103372391
3485.3549230956	0.0104055926
3487.2837304686	0.0103801228
3489.2125378417	0.0104670916
3491.1413452147	0.0105111748
3493.0701525878	0.0104354117
3494.9989599608	0.0104275420
3496.9277673338	0.0105790682
3498.8565747069	0.0105488244
3500.7853820799	0.0105930362
3502.7141894530	0.0105609223
3504.6429968260	0.0105370814
3506.5718041991	0.0107680224
3508.5006115721	0.0106720570
3510.4294189452	0.0107052699
3512.3582263182	0.0108244009
3514.2870336913	0.0108303912
3516.2158410643	0.0109656081
3518.1446484374	0.0109873554
3520.0734558104	0.0110243112
3522.0022631835	0.0109578669
3523.9310705565	0.0108615188
3525.8598779295	0.0108970068
3527.7886853026	0.0109867109
3529.7174926756	0.0111119021
3531.6463000487	0.0112176472
3533.5751074217	0.0112850107
3535.5039147948	0.0112210559
3537.4327221678	0.0112278238
3539.3615295409	0.0113296937
3541.2903369139	0.0113052744
3543.2191442870	0.0112478845
3545.1479516600	0.0111304764
3547.0767590331	0.0110037783
3549.0055664061	0.0113723474
3550.9343737792	0.0115045849
3552.8631811522	0.0111769624
3554.7919885252	0.0114437714
3556.7207958983	0.0115993479
3558.6496032713	0.0115044378
3560.5784106444	0.0114562977
3562.5072180174	0.0114350310
3564.4360253905	0.0115072774
3566.3648327635	0.0109865861
3568.2936401366	0.0109092286
3570.2224475096	0.0115433428
3572.1512548827	0.0117232148
3574.0800622557	0.0116755869
3576.0088696288	0.0116736852
3577.9376770018	0.0117115192
3579.8664843749	0.0117753297
3581.7952917479	0.0117813973
3583.7240991210	0.0118923793
3585.6529064940	0.0116489530
3587.5817138670	0.0109312385
3589.5105212401	0.0112619819
3591.4393286131	0.0119448118
3593.3681359862	0.0117043536
3595.2969433592	0.0115650482
3597.2257507323	0.0117286723
3599.1545581053	0.0119029749
3601.0833654784	0.0118518807
3603.0121728514	0.0119158067
3604.9409802245	0.0122097079
3606.8697875975	0.0119329542
3608.7985949706	0.0112582548
3610.7274023436	0.0114983432
3612.6562097167	0.0117769670
3614.5850170897	0.0115781231
3616.5138244627	0.0123279374
3618.4426318358	0.0115827657
3620.3714392088	0.0112652741
3622.3002465819	0.0123802274
3624.2290539549	0.0120868683
3626.1578613280	0.0124391103
3628.0866687010	0.0110382820
3630.0154760741	0.0104456414
3631.9442834471	0.0123510584
3633.8730908202	0.0121681001
3635.8018981932	0.0123497639
3637.7307055663	0.0124244429
3639.6595129393	0.0124263801
3641.5883203124	0.0126064885
3643.5171276854	0.0123226866
3645.4459350584	0.0124790166
3647.3747424315	0.0116574308
3649.3035498045	0.0109141245
3651.2323571776	0.0110462671
3653.1611645506	0.0126954578
3655.0899719237	0.0125238504
3657.0187792967	0.0115358075
3658.9475866698	0.0129768737
3660.8763940428	0.0127821565
3662.8052014159	0.0129231364
3664.7340087889	0.0129021909
3666.6628161620	0.0127763804
3668.5916235350	0.0124793798
3670.5204309081	0.0108521041
3672.4492382811	0.0125578046
3674.3780456541	0.0120020965
3676.3068530272	0.0105138868
3678.2356604002	0.0124759674
3680.1644677733	0.0127278771
3682.0932751463	0.0127517032
3684.0220825194	0.0129801519
3685.9508898924	0.0128449239
3687.8796972655	0.0117276348
3689.8085046385	0.0110056503
3691.7373120116	0.0122287571
3693.6661193846	0.0124256127
3695.5949267577	0.0125793070
3697.5237341307	0.0125233997
3699.4525415038	0.0124081075
3701.3813488768	0.0120522985
3703.3101562499	0.0117697231
3705.2389636229	0.0126489233
3707.1677709959	0.0120533798
3709.0965783690	0.0119175836
3711.0253857420	0.0113140848
3712.9541931151	0.0107342247
3714.8830004881	0.0120260492
3716.8118078612	0.0118187685
3718.7406152342	0.0119666616
3720.6694226073	0.0116657680
3722.5982299803	0.0113037676
3724.5270373534	0.0116757955
3726.4558447264	0.0109519195
3728.3846520995	0.0115529466
3730.3134594725	0.0113971606
3732.2422668456	0.0105906855
3734.1710742186	0.0104121994
3736.0998815916	0.0099785626
3738.0286889647	0.0103603769
3739.9574963377	0.0110989576
3741.8863037108	0.0113023352
3743.8151110838	0.0092135416
3745.7439184569	0.0089475662
3747.6727258299	0.0108107831
3749.6015332030	0.0095426887
3751.5303405760	0.0089529045
3753.4591479491	0.0100004375
3755.3879553221	0.0105647296
3757.3167626952	0.0108071603
3759.2455700682	0.0101611447
3761.1743774413	0.0103892200
3763.1031848143	0.0108370529
3765.0319921873	0.0102248639
3766.9607995604	0.0102843083
3768.8896069334	0.0101569798
3770.8184143065	0.0098365285
3772.7472216795	0.0103841834
3774.6760290526	0.0102992235
3776.6048364256	0.0102728177
3778.5336437987	0.0101407012
3780.4624511717	0.0098418538
3782.3912585448	0.0101896524
3784.3200659178	0.0100062815
3786.2488732909	0.0099491756
3788.1776806639	0.0100555373
3790.1064880370	0.0100191981
3792.0352954100	0.0099069392
3793.9641027830	0.0099727754
3795.8929101561	0.0095595727
3797.8217175291	0.0094724325
3799.7505249022	0.0097210677
3801.6793322752	0.0081719914
3803.6081396483	0.0092091775
3805.5369470213	0.0096654445
3807.4657543944	0.0083188787
3809.3945617674	0.0096290093
3811.3233691405	0.0093827378
3813.2521765135	0.0095659364
3815.1809838866	0.0088170581
3817.1097912596	0.0081109181
3819.0385986327	0.0095995795
3820.9674060057	0.0081201121
3822.8962133787	0.0084926300
3824.8250207518	0.0093689542
3826.7538281248	0.0086679664
3828.6826354979	0.0092203123
3830.6114428709	0.0088352095
3832.5402502440	0.0086452849
3834.4690576170	0.0088056959
3836.3978649901	0.0084346067
3838.3266723631	0.0077618835
3840.2554797362	0.0082481084
3842.1842871092	0.0087438738
3844.1130944823	0.0083877388
3846.0419018553	0.0088741537
3847.9707092284	0.0087274592
3849.8995166014	0.0087512396
3851.8283239745	0.0079755634
3853.7571313475	0.0064000967
3855.6859387205	0.0073117600
3857.6147460936	0.0086943936
3859.5435534666	0.0084674023
3861.4723608397	0.0082875947
3863.4011682127	0.0081978552
3865.3299755858	0.0077486453
3867.2587829588	0.0083693536
3869.1875903319	0.0078200921
3871.1163977049	0.0073082494
3873.0452050780	0.0083060144
3874.9740124510	0.0078708790
3876.9028198241	0.0083235558
3878.8316271971	0.0082603171
3880.7604345702	0.0074487627
3882.6892419432	0.0082810670
3884.6180493162	0.0076613962
3886.5468566893	0.0073296842
3888.4756640623	0.0081591494
3890.4044714354	0.0077362722
3892.3332788084	0.0074789096
3894.2620861815	0.0079946881
3896.1908935545	0.0081713218
3898.1197009276	0.0078116544
3900.0485083006	0.0074369563
3901.9773156737	0.0072717639
3903.9061230467	0.0071471026
3905.8349304198	0.0073693972
3907.7637377928	0.0078811841
3909.6925451659	0.0078839539
3911.6213525389	0.0077810888
3913.5501599119	0.0078034513
3915.4789672850	0.0075449450
3917.4077746580	0.0073609240
3919.3365820311	0.0074496744
3921.2653894041	0.0076049687
3923.1941967772	0.0074911253
3925.1230041502	0.0073792813
3927.0518115233	0.0074503403
3928.9806188963	0.0075410418
3930.9094262694	0.0073824367
3932.8382336424	0.0072167474
3934.7670410155	0.0074621458
3936.6958483885	0.0074342350
3938.6246557616	0.0074278200
3940.5534631346	0.0073675332
3942.4822705076	0.0070557306
3944.4110778807	0.0072234189
3946.3398852537	0.0073065273
3948.2686926268	0.0072112838
3950.1974999998	0.0071585299
3952.1263073729	0.0071711326
3954.0551147459	0.0073121907
3955.9839221190	0.0071929200
3957.9127294920	0.0070633357
3959.8415368651	0.0070705265
3961.7703442381	0.0070338231
3963.6991516112	0.0070481650
3965.6279589842	0.0070495643
3967.5567663573	0.0069864895
3969.4855737303	0.0069842050
3971.4143811034	0.0069135642
3973.3431884764	0.0068354551
3975.2719958494	0.0068611298
3977.2008032225	0.0068586254
3979.1296105955	0.0069081932
3981.0584179686	0.0068572424
3982.9872253416	0.0068374341
3984.9160327147	0.0068430370
3986.8448400877	0.0066706119
3988.7736474608	0.0067030680
3990.7024548338	0.0067579858
3992.6312622069	0.0067292918
3994.5600695799	0.0066875778
3996.4888769530	0.0065816706
3998.4176843260	0.0066903615
4000.3464916991	0.0067329877
4002.2752990721	0.0066477181
4004.2041064451	0.0065796683
4006.1329138182	0.0065012127
4008.0617211912	0.0065595545
4009.9905285643	0.0065261289
4011.9193359373	0.0065211207
4013.8481433104	0.0065632220
4015.7769506834	0.0064696325
4017.7057580565	0.0064156586
4019.6345654295	0.0063760187
4021.5633728026	0.0064690160
4023.4921801756	0.0064601554
4025.4209875487	0.0063406071
4027.3497949217	0.0064020259
4029.2786022948	0.0063780434
4031.2074096678	0.0063320138
4033.1362170408	0.0062940223
4035.0650244139	0.0062857112
4036.9938317869	0.0063058548
4038.9226391600	0.0061755227
4040.8514465330	0.0061650998
4042.7802539061	0.0062561976
4044.7090612791	0.0061928597
4046.6378686522	0.0061414018
4048.5666760252	0.0061405189
4050.4954833983	0.0060559632
4052.4242907713	0.0060977354
4054.3530981444	0.0061603440
4056.2819055174	0.0060774279
4058.2107128905	0.0060825935
4060.1395202635	0.0060325982
4062.0683276365	0.0059211352
4063.9971350096	0.0058975806
4065.9259423826	0.0059159915
4067.8547497557	0.0059605790
4069.7835571287	0.0059347162
4071.7123645018	0.0059166816
4073.6411718748	0.0059148604
4075.5699792479	0.0058277994
4077.4987866209	0.0057857595
4079.4275939940	0.0058597401
4081.3564013670	0.0059747724
4083.2852087401	0.0059105386
4085.2140161131	0.0057616183
4087.1428234862	0.0058289594
4089.0716308592	0.0058018193
4091.0004382323	0.0057575484
4092.9292456053	0.0058312556
4094.8580529783	0.0057393140
4096.7868603514	0.0057319338
4098.7156677244	0.0057140524
4100.6444750975	0.0056773080
4102.5732824705	0.0057162032
4104.5020898436	0.0055923937
4106.4308972166	0.0055704038
4108.3597045897	0.0056649800
4110.2885119627	0.0056356983
4112.2173193358	0.0055924146
4114.1461267088	0.0056290627
4116.0749340819	0.0055354014
4118.0037414549	0.0055103889
4119.9325488280	0.0056001148
4121.8613562010	0.0054401839
4123.7901635740	0.0054288502
4125.7189709471	0.0055228244
4127.6477783201	0.0054595084
4129.5765856932	0.0053737457
4131.5053930662	0.0053270068
4133.4342004393	0.0053944932
4135.3630078123	0.0053696390
4137.2918151854	0.0053893737
4139.2206225584	0.0054063583
4141.1494299315	0.0052850004
4143.0782373045	0.0053220410
4145.0070446776	0.0052951016
4146.9358520506	0.0052077323
4148.8646594237	0.0052768579
4150.7934667967	0.0051974328
4152.7222741697	0.0051601264
4154.6510815428	0.0052371095
4156.5798889158	0.0051137879
4158.5086962889	0.0051343367
4160.4375036619	0.0051841848
4162.3663110350	0.0051178178
4164.2951184080	0.0051074815
4166.2239257811	0.0050506657
4168.1527331541	0.0051396284
4170.0815405272	0.0051407972
4172.0103479002	0.0049690739
4173.9391552733	0.0049790866
4175.8679626463	0.0050368248
4177.7967700194	0.0049621551
4179.7255773924	0.0049513569
4181.6543847654	0.0049956990
4183.5831921385	0.0049537225
4185.5119995115	0.0049448540
4187.4408068846	0.0048490088
4189.3696142576	0.0048680287
4191.2984216307	0.0049381382
4193.2272290037	0.0048790742
4195.1560363768	0.0048751635
4197.0848437498	0.0048399763
4199.0136511229	0.0048980098
4200.9424584959	0.0048061293
4202.8712658690	0.0048112758
4204.8000732420	0.0049214549
4206.7288806151	0.0047892858
4208.6576879881	0.0048635066
4210.5864953611	0.0048364853
4212.5153027342	0.0047699306
4214.4441101072	0.0047746617
4216.3729174803	0.0047439858
4218.3017248533	0.0047468436
4220.2305322264	0.0045888182
4222.1593395994	0.0046597915
4224.0881469725	0.0046608122
4226.0169543455	0.0045492542
4227.9457617186	0.0046654190
4229.8745690916	0.0046282122
4231.8033764647	0.0045764837
4233.7321838377	0.0045836512
4235.6609912108	0.0045979666
4237.5897985838	0.0045786067
4239.5186059569	0.0045110281
4241.4474133299	0.0045796460
4243.3762207029	0.0045676329
4245.3050280760	0.0044806600
4247.2338354490	0.0044564307
4249.1626428221	0.0044750902
4251.0914501951	0.0045368541
4253.0202575682	0.0044768136
4254.9490649412	0.0044257240
4256.8778723143	0.0043958738
4258.8066796873	0.0043498566
4260.7354870604	0.0043681823
4262.6642944334	0.0043583051
4264.5931018065	0.0044362177
4266.5219091795	0.0044216458
4268.4507165526	0.0043693306
4270.3795239256	0.0043298905
4272.3083312986	0.0042279195
4274.2371386717	0.0043186941
4276.1659460447	0.0042984998
4278.0947534178	0.0042584138
4280.0235607908	0.0042717969
4281.9523681639	0.0042464929
4283.8811755369	0.0042848717
4285.8099829100	0.0041968273
4287.7387902830	0.0042375354
4289.6675976561	0.0042959354
4291.5964050291	0.0041973037
4293.5252124022	0.0041724956
4295.4540197752	0.0042409450
4297.3828271483	0.0042566503
4299.3116345213	0.0041753044
4301.2404418943	0.0041563604
4303.1692492674	0.0041601299
4305.0980566404	0.0041338792
4307.0268640135	0.0040674293
4308.9556713865	0.0040980061
4310.8844787596	0.0040821526
4312.8132861326	0.0040643346
4314.7420935057	0.0041281353
4316.6709008787	0.0039621638
4318.5997082518	0.0039517814
4320.5285156248	0.0040590540
4322.4573229979	0.0040432015
4324.3861303709	0.0040125791
4326.3149377440	0.0040054759
4328.2437451170	0.0039669317
4330.1725524900	0.0039177821
4332.1013598631	0.0040036058
4334.0301672361	0.0038794097
4335.9589746092	0.0038477434
4337.8877819822	0.0039019631
4339.8165893553	0.0038577081
4341.7453967283	0.0039513409
4343.6742041014	0.0038915244
4345.6030114744	0.0038599684
4347.5318188475	0.0038203970
4349.4606262205	0.0038151843
4351.3894335936	0.0038496186
4353.3182409666	0.0038062891
4355.2470483397	0.0038004122
4357.1758557127	0.0037255734
4359.1046630858	0.0038410020
4361.0334704588	0.0038670371
4362.9622778318	0.0037554260
4364.8910852049	0.0037722869
4366.8198925779	0.0037605404
4368.7486999510	0.0037351584
4370.6775073240	0.0037549611
4372.6063146971	0.0038079398
4374.5351220701	0.0037427270
4376.4639294432	0.0036807589
4378.3927368162	0.0036204788
4380.3215441893	0.0036453842
4382.2503515623	0.0036386014
4384.1791589354	0.0035696339
4386.1079663084	0.0036927382
4388.0367736815	0.0036566178
4389.9655810545	0.0036305208
4391.8943884275	0.0036492455
4393.8231958006	0.0036499901
4395.7520031736	0.0036066754
4397.6808105467	0.0035092575
4399.6096179197	0.0036250525
4401.5384252928	0.0035661878
4403.4672326658	0.0035583421
4405.3960400389	0.0036073951
4407.3248474119	0.0034762942
4409.2536547850	0.0034676553
4411.1824621580	0.0034923118
4413.1112695311	0.0035660856
4415.0400769041	0.0035496680
4416.9688842772	0.0034858766
4418.8976916502	0.0034609996
4420.8264990232	0.0034165708
4422.7553063963	0.0034236216
4424.6841137693	0.0033978014
4426.6129211424	0.0034074159
4428.5417285154	0.0033590896
4430.4705358885	0.0033605478
4432.3993432615	0.0034535297
4434.3281506346	0.0033436785
4436.2569580076	0.0033477088
4438.1857653807	0.0034305835
4440.1145727537	0.0033174339
4442.0433801268	0.0033743340
4443.9721874998	0.0034072464
4445.9009948729	0.0033308389
4447.8298022459	0.0033811023
4449.7586096189	0.0033052042
4451.6874169920	0.0032939129
4453.6162243650	0.0033470942
4455.5450317381	0.0032736799
4457.4738391111	0.0032299752
4459.4026464842	0.0032477276
4461.3314538572	0.0032594893
4463.2602612303	0.0031822317
4465.1890686033	0.0032177316
4467.1178759764	0.0032766643
4469.0466833494	0.0032301773
4470.9754907225	0.0031881193
4472.9042980955	0.0031449203
4474.8331054686	0.0031798328
4476.7619128416	0.0031635100
4478.6907202147	0.0031195460
4480.6195275877	0.0031228194
4482.5483349607	0.0031570951
4484.4771423338	0.0031658784
4486.4059497068	0.0030853474
4488.3347570799	0.0031525095
4490.2635644529	0.0031707333
4492.1923718260	0.0030681463
4494.1211791990	0.0031016953
4496.0499865721	0.0031193784
4497.9787939451	0.0031610606
4499.9076013182	0.0030970369
4501.8364086912	0.0029585566
4503.7652160643	0.0030637584
4505.6940234373	0.0030623046
4507.6228308104	0.0030254214
4509.5516381834	0.0030048434
4511.4804455564	0.0029216420
4513.4092529295	0.0030539471
4515.3380603025	0.0030246619
4517.2668676756	0.0029871897
4519.1956750486	0.0030115228
4521.1244824217	0.0028862171
4523.0532897947	0.0029367325
4524.9820971678	0.0029611276
4526.9109045408	0.0029367637
4528.8397119139	0.0028769893
4530.7685192869	0.0028540492
4532.6973266600	0.0029290710
4534.6261340330	0.0029010414
4536.5549414061	0.0028866599
4538.4837487791	0.0028177109
4540.4125561521	0.0028270634
4542.3413635252	0.0028516175
4544.2701708982	0.0028430733
4546.1989782713	0.0028938651
4548.1277856443	0.0028033447
4550.0565930174	0.0028282092
4551.9854003904	0.0028804052
4553.9142077635	0.0028264937
4555.8430151365	0.0028313245
4557.7718225096	0.0028253954
4559.7006298826	0.0028274483
4561.6294372557	0.0028016551
4563.5582446287	0.0027630206
4565.4870520018	0.0027617961
4567.4158593748	0.0027567293
4569.3446667478	0.0027216440
4571.2734741209	0.0027463725
4573.2022814939	0.0027301712
4575.1310888670	0.0026676224
4577.0598962400	0.0027927314
4578.9887036131	0.0027662506
4580.9175109861	0.0026615108
4582.8463183592	0.0027591586
4584.7751257322	0.0027125054
4586.7039331053	0.0026191296
4588.6327404783	0.0026514351
4590.5615478514	0.0027060322
4592.4903552244	0.0026847506
4594.4191625975	0.0026660790
4596.3479699705	0.0026703160
4598.2767773435	0.0025770417
4600.2055847166	0.0026524249
4602.1343920896	0.0026678790
4604.0631994627	0.0025525014
4605.9920068357	0.0026160236
4607.9208142088	0.0026276410
4609.8496215818	0.0025645797
4611.7784289549	0.0025410750
4613.7072363279	0.0026397633
4615.6360437010	0.0026060119
4617.5648510740	0.0025219861
4619.4936584471	0.0025273401
4621.4224658201	0.0024786773
4623.3512731932	0.0026196255
4625.2800805662	0.0025308756
4627.2088879393	0.0024539614
4629.1376953123	0.0025021560
4631.0665026853	0.0024204096
4632.9953100584	0.0025579669
4634.9241174314	0.0024641175
4636.8529248045	0.0024554501
4638.7817321775	0.0025653366
4640.7105395506	0.0024030132
4642.6393469236	0.0023331172
4644.5681542967	0.0023657156
4646.4969616697	0.0024742605
4648.4257690428	0.0025019057
4650.3545764158	0.0024923070
4652.2833837889	0.0024155194
4654.2121911619	0.0024192268
4656.1409985350	0.0024890325
4658.0698059080	0.0023859460
4659.9986132810	0.0023692944
4661.9274206541	0.0023591621
4663.8562280271	0.0023813676
4665.7850354002	0.0023593144
4667.7138427732	0.0023802444
4669.6426501463	0.0024029585
4671.5714575193	0.0023331058
4673.5002648924	0.0023862259
4675.4290722654	0.0023185348
4677.3578796385	0.0023186912
4679.2866870115	0.0023320299
4681.2154943846	0.0023110113
4683.1443017576	0.0023346841
4685.0731091307	0.0023320445
4687.0019165037	0.0023220270
4688.9307238767	0.0022350699
4690.8595312498	0.0023631905
4692.7883386228	0.0023210333
4694.7171459959	0.0021638405
4696.6459533689	0.0021998533
4698.5747607420	0.0022698762
4700.5035681150	0.0023631719
4702.4323754881	0.0022414736
4704.3611828611	0.0022421086
4706.2899902342	0.0022409051
4708.2187976072	0.0021808702
4710.1476049803	0.0022726974
4712.0764123533	0.0022352901
4714.0052197264	0.0022191540
4715.9340270994	0.0021805589
4717.8628344724	0.0021769512
4719.7916418455	0.0022010165
4721.7204492185	0.0021385900
4723.6492565916	0.0021770718
4725.5780639646	0.0021796296
4727.5068713377	0.0021133374
4729.4356787107	0.0021164464
4731.3644860838	0.0021406962
4733.2932934568	0.0021542441
4735.2221008299	0.0021272274
4737.1509082029	0.0021447558
4739.0797155760	0.0022222137
4741.0085229490	0.0021395804
4742.9373303221	0.0021020735
4744.8661376951	0.0020733336
4746.7949450682	0.0020490834
4748.7237524412	0.0021687504
4750.6525598142	0.0020858408
4752.5813671873	0.0021232229
4754.5101745603	0.0021845181
4756.4389819334	0.0019952049
4758.3677893064	0.0019653656
4760.2965966795	0.0020137494
4762.2254040525	0.0019945209
4764.1542114256	0.0019942643
4766.0830187986	0.0020534371
4768.0118261717	0.0020348933
4769.9406335447	0.0020276271
4771.8694409178	0.0020143688
4773.7982482908	0.0019566240
4775.7270556639	0.0020627109
4777.6558630369	0.0020865432
4779.5846704099	0.0019892533
4781.5134777830	0.0019599048
4783.4422851560	0.0019755408
4785.3710925291	0.0019878743
4787.2998999021	0.0020415655
4789.2287072752	0.0020561684
4791.1575146482	0.0019876952
4793.0863220213	0.0019757990
4795.0151293943	0.0019828971
4796.9439367674	0.0019868026
4798.8727441404	0.0019551590
4800.8015515135	0.0019378936
4802.7303588865	0.0018772520
4804.6591662596	0.0018725626
4806.5879736326	0.0019534915
4808.5167810056	0.0019146893
4810.4455883787	0.0018967103
4812.3743957517	0.0018670666
4814.3032031248	0.0018910446
4816.2320104978	0.0018638237
4818.1608178709	0.0018451251
4820.0896252439	0.0019512061
4822.0184326170	0.0019131581
4823.9472399900	0.0018871611
4825.8760473631	0.0018589431
4827.8048547361	0.0018744604
4829.7336621092	0.0018614833
4831.6624694822	0.0018218730
4833.5912768553	0.0018715023
4835.5200842283	0.0018196646
4837.4488916013	0.0018203363
4839.3776989744	0.0018405340
4841.3065063474	0.0018338497
4843.2353137205	0.0017930588
4845.1641210935	0.0018188120
4847.0929284666	0.0018501296
4849.0217358396	0.0017430263
4850.9505432127	0.0017853030
4852.8793505857	0.0018489957
4854.8081579588	0.0017762240
4856.7369653318	0.0017284359
4858.6657727049	0.0018309765
4860.5945800779	0.0018047140
4862.5233874510	0.0017309901
4864.4521948240	0.0017818081
4866.3810021971	0.0017234146
4868.3098095701	0.0017519537
4870.2386169431	0.0017339352
4872.1674243162	0.0017342579
4874.0962316892	0.0017632344
4876.0250390623	0.0016395738
4877.9538464353	0.0016313898
4879.8826538084	0.0016858608
4881.8114611814	0.0017375920
4883.7402685545	0.0017076380
4885.6690759275	0.0016410952
4887.5978833006	0.0016478072
4889.5266906736	0.0016697255
4891.4554980467	0.0016332315
4893.3843054197	0.0016415648
4895.3131127928	0.0016541178
4897.2419201658	0.0015819713
4899.1707275388	0.0016708854
4901.0995349119	0.0016563068
4903.0283422849	0.0016086991
4904.9571496580	0.0016038890
4906.8859570310	0.0015795840
4908.8147644041	0.0016655899
4910.7435717771	0.0015968608
4912.6723791502	0.0016369284
4914.6011865232	0.0016695324
4916.5299938963	0.0016288168
4918.4588012693	0.0016598722
4920.3876086424	0.0015994906
4922.3164160154	0.0016428122
4924.2452233885	0.0015793911
4926.1740307615	0.0015006447
4928.1028381345	0.0015616057
4930.0316455076	0.0015711000
4931.9604528806	0.0015512933
4933.8892602537	0.0015376771
4935.8180676267	0.0015427779
4937.7468749998	0.0014677378
4939.6756823728	0.0014532894
4941.6044897459	0.0015183750
4943.5332971189	0.0015487811
4945.4621044920	0.0015841415
4947.3909118650	0.0015827334
4949.3197192381	0.0015639941
4951.2485266111	0.0015680511
4953.1773339842	0.0015621763
4955.1061413572	0.0015239709
4957.0349487302	0.0015238674
4958.9637561033	0.0015341479
4960.8925634763	0.0014922230
4962.8213708494	0.0014696638
4964.7501782224	0.0014961651
4966.6789855955	0.0014914831
4968.6077929685	0.0014861503
4970.5366003416	0.0015063100
4972.4654077146	0.0014997526
4974.3942150877	0.0014536988
4976.3230224607	0.0014096742
4978.2518298338	0.0014989201
4980.1806372068	0.0014905935
4982.1094445799	0.0014140415
4984.0382519529	0.0014991278
4985.9670593259	0.0014900644
4987.8958666990	0.0014516460
4989.8246740720	0.0014425376
4991.7534814451	0.0013732878
4993.6822888181	0.0014069653
4995.6110961912	0.0014419651
4997.5399035642	0.0013512822
4999.4687109373	0.0014044882
5001.3975183103	0.0014762480
5003.3263256834	0.0013733124
5005.2551330564	0.0013595212
5007.1839404295	0.0013763654
5009.1127478025	0.0013923517
5011.0415551756	0.0013805836
5012.9703625486	0.0013347885
5014.8991699217	0.0013775271
5016.8279772947	0.0014237829
5018.7567846677	0.0013757438
5020.6855920408	0.0012972211
5022.6143994138	0.0013862789
5024.5432067869	0.0013669926
5026.4720141599	0.0013473392
5028.4008215330	0.0014202436
5030.3296289060	0.0012652499
5032.2584362791	0.0013029459
5034.1872436521	0.0014145633
5036.1160510252	0.0012960063
5038.0448583982	0.0012497830
5039.9736657713	0.0012766955
5041.9024731443	0.0012503071
5043.8312805174	0.0013197277
5045.7600878904	0.0013916148
5047.6888952634	0.0012926528
5049.6177026365	0.0013031126
5051.5465100095	0.0013344183
5053.4753173826	0.0012848233
5055.4041247556	0.0012784087
5057.3329321287	0.0013137570
5059.2617395017	0.0013129513
5061.1905468748	0.0012589640
5063.1193542478	0.0013134952
5065.0481616209	0.0013022170
5066.9769689939	0.0012397214
5068.9057763670	0.0012442957
5070.8345837400	0.0012506522
5072.7633911131	0.0012429166
5074.6921984861	0.0012585600
5076.6210058591	0.0012790173
5078.5498132322	0.0012524973
5080.4786206052	0.0012877588
5082.4074279783	0.0011967262
5084.3362353513	0.0011857717
5086.2650427244	0.0012586347
5088.1938500974	0.0012443792
5090.1226574705	0.0013279649
5092.0514648435	0.0011871569
5093.9802722166	0.0011435617
5095.9090795896	0.0012393994
5097.8378869627	0.0011738613
5099.7666943357	0.0011782545
5101.6955017088	0.0011482971
5103.6243090818	0.0011914764
5105.5531164548	0.0012359036
5107.4819238279	0.0011940467
5109.4107312009	0.0012211693
5111.3395385740	0.0012177435
5113.2683459470	0.0011924705
5115.1971533201	0.0011917772
5117.1259606931	0.0012268166
5119.0547680662	0.0011998259
5120.9835754392	0.0010812562
5122.9123828123	0.0011030443
5124.8411901853	0.0011245036
5126.7699975584	0.0010847618
5128.6988049314	0.0011905200
5130.6276123045	0.0011447612
5132.5564196775	0.0011004040
5134.4852270506	0.0011543774
5136.4140344236	0.0010792469
5138.3428417966	0.0011242905
5140.2716491697	0.0011503204
5142.2004565427	0.0011528304
5144.1292639158	0.0011560407
5146.0580712888	0.0010987578
5147.9868786619	0.0011111163
5149.9156860349	0.0010959657
5151.8444934080	0.0011015495
5153.7733007810	0.0011048687
5155.7021081541	0.0010950803
5157.6309155271	0.0010711532
5159.5597229002	0.0010052207
5161.4885302732	0.0010042551
5163.4173376463	0.0011275678
5165.3461450193	0.0011422792
5167.2749523923	0.0010492022
5169.2037597654	0.0011000207
5171.1325671384	0.0010877836
5173.0613745115	0.0010901954
5174.9901818845	0.0010333160
5176.9189892576	0.0010126201
5178.8477966306	0.0011422078
5180.7766040037	0.0010458500
5182.7054113767	0.0009854522
5184.6342187498	0.0009666809
5186.5630261228	0.0009921566
5188.4918334959	0.0010035636
5190.4206408689	0.0009622973
5192.3494482420	0.0010479310
5194.2782556150	0.0009956679
5196.2070629880	0.0010031884
5198.1358703611	0.0010718502
5200.0646777341	0.0011031479
5201.9934851072	0.0010659881
5203.9222924802	0.0009961133
5205.8510998533	0.0010477714
5207.7799072263	0.0010132422
5209.7087145994	0.0010194364
5211.6375219724	0.0010029816
5213.5663293455	0.0010006404
5215.4951367185	0.0010640195
5217.4239440916	0.0010440656
5219.3527514646	0.0010373264
5221.2815588377	0.0009721487
5223.2103662107	0.0009400278
5225.1391735837	0.0009306162
5227.0679809568	0.0009819589
5228.9967883298	0.0010369829
5230.9255957029	0.0009827762
5232.8544030759	0.0010059426
5234.7832104490	0.0010102391
5236.7120178220	0.0010063587
5238.6408251951	0.0009849418
5240.5696325681	0.0009867873
5242.4984399412	0.0010256431
5244.4272473142	0.0008884497
5246.3560546873	0.0008858683
5248.2848620603	0.0009576201
5250.2136694334	0.0008638580
5252.1424768064	0.0009473196
5254.0712841795	0.0009956365
5256.0000915525	0.0009416094
5257.9288989255	0.0009795581
5259.8577062986	0.0009251820
5261.7865136716	0.0009439914
5263.7153210447	0.0009197631
5265.6441284177	0.0008425966
5267.5729357908	0.0009308386
5269.5017431638	0.0009447730
5271.4305505369	0.0009271540
5273.3593579099	0.0009366504
5275.2881652830	0.0009114588
5277.2169726560	0.0009124782
5279.1457800291	0.0009016629
5281.0745874021	0.0008419499
5283.0033947752	0.0008924392
5284.9322021482	0.0009616051
5286.8610095212	0.0008906712
5288.7898168943	0.0008981741
5290.7186242673	0.0009169379
5292.6474316404	0.0008901979
5294.5762390134	0.0008592422
5296.5050463865	0.0008689982
5298.4338537595	0.0008979870
5300.3626611326	0.0008158624
5302.2914685056	0.0008293228
5304.2202758787	0.0008725909
5306.1490832517	0.0008467527
5308.0778906248	0.0008500639
5310.0066979978	0.0008509784
5311.9355053709	0.0008557788
5313.8643127439	0.0008724960
5315.7931201169	0.0008840651
5317.7219274900	0.0008342739
5319.6507348630	0.0007954536
5321.5795422361	0.0008714128
5323.5083496091	0.0009069521
5325.4371569822	0.0008229997
5327.3659643552	0.0008756060
5329.2947717283	0.0008971647
5331.2235791013	0.0008649746
5333.1523864744	0.0009139089
5335.0811938474	0.0008266255
5337.0100012205	0.0008247065
5338.9388085935	0.0007958401
5340.8676159666	0.0007901388
5342.7964233396	0.0008470189
5344.7252307126	0.0007800311
5346.6540380857	0.0008564779
5348.5828454587	0.0008589582
5350.5116528318	0.0008171506
5352.4404602048	0.0007782276
5354.3692675779	0.0007426805
5356.2980749509	0.0007678687
5358.2268823240	0.0007396375
5360.1556896970	0.0008152950
5362.0844970701	0.0008541284
5364.0133044431	0.0008291381
5365.9421118162	0.0007752904
5367.8709191892	0.0008047133
5369.7997265623	0.0008351173
5371.7285339353	0.0008005369
5373.6573413083	0.0008233074
5375.5861486814	0.0007571685
5377.5149560544	0.0007665544
5379.4437634275	0.0007453565
5381.3725708005	0.0007529634
5383.3013781736	0.0007320893
5385.2301855466	0.0006892865
5387.1589929197	0.0007958841
5389.0878002927	0.0007194818
5391.0166076658	0.0007104627
5392.9454150388	0.0007156965
5394.8742224119	0.0007242868
5396.8030297849	0.0007410985
5398.7318371580	0.0006866945
5400.6606445310	0.0007768738
5402.5894519041	0.0007521993
5404.5182592771	0.0007561053
5406.4470666501	0.0007578508
5408.3758740232	0.0007496123
5410.3046813962	0.0007684882
5412.2334887693	0.0007186156
5414.1622961423	0.0007336179
5416.0911035154	0.0006945689
5418.0199108884	0.0007100024
5419.9487182615	0.0006523594
5421.8775256345	0.0006484519
5423.8063330076	0.0007181789
5425.7351403806	0.0007116179
5427.6639477537	0.0008030361
5429.5927551267	0.0006920662
5431.5215624998	0.0006769117
5433.4503698728	0.0007798615
5435.3791772458	0.0006931689
5437.3079846189	0.0007437022
5439.2367919919	0.0007016608
5441.1655993650	0.0006046344
5443.0944067380	0.0007345967
5445.0232141111	0.0007313439
5446.9520214841	0.0006980055
5448.8808288572	0.0007252580
5450.8096362302	0.0006334356
5452.7384436033	0.0006602526
5454.6672509763	0.0006546731
5456.5960583494	0.0006184672
5458.5248657224	0.0006608567
5460.4536730955	0.0006714355
5462.3824804685	0.0006780676
5464.3112878415	0.0006039281
5466.2400952146	0.0006769506
5468.1689025876	0.0007049604
5470.0977099607	0.0005967718
5472.0265173337	0.0006208620
5473.9553247068	0.0006262879
5475.8841320798	0.0006161799
5477.8129394529	0.0006047364
5479.7417468259	0.0006342478
5481.6705541990	0.0006609933
5483.5993615720	0.0006526257
5485.5281689451	0.0006430055
5487.4569763181	0.0006667997
5489.3857836912	0.0006688148
5491.3145910642	0.0006310304
5493.2433984372	0.0006992399
5495.1722058103	0.0006543682
5497.1010131833	0.0006321053
5499.0298205564	0.0006182992
5500.9586279294	0.0006147011
5502.8874353025	0.0006829894
5504.8162426755	0.0005644744
5506.7450500486	0.0006598464
5508.6738574216	0.0006879334
5510.6026647947	0.0005500813
5512.5314721677	0.0006038627
5514.4602795408	0.0005995398
5516.3890869138	0.0006228571
5518.3178942869	0.0006258748
5520.2467016599	0.0006258026
5522.1755090330	0.0006446420
5524.1043164060	0.0006615804
5526.0331237790	0.0006281201
5527.9619311521	0.0005698621
5529.8907385251	0.0006970142
5531.8195458982	0.0006419854
5533.7483532712	0.0005925529
5535.6771606443	0.0006528297
5537.6059680173	0.0005431541
5539.5347753904	0.0005650496
5541.4635827634	0.0005561640
5543.3923901365	0.0005138527
5545.3211975095	0.0006084469
5547.2500048826	0.0006097759
5549.1788122556	0.0005856480
5551.1076196287	0.0006115378
5553.0364270017	0.0005776847
5554.9652343747	0.0005455666
5556.8940417478	0.0006135111
5558.8228491208	0.0005956048
5560.7516564939	0.0005584812
5562.6804638669	0.0006655616
5564.6092712400	0.0006229879
5566.5380786130	0.0005342613
5568.4668859861	0.0005990310
5570.3956933591	0.0005980572
5572.3245007322	0.0005569690
5574.2533081052	0.0005777039
5576.1821154783	0.0005524820
5578.1109228513	0.0004983022
5580.0397302244	0.0005613384
5581.9685375974	0.0005653820
5583.8973449704	0.0005386620
5585.8261523435	0.0006085053
5587.7549597165	0.0005901455
5589.6837670896	0.0005987599
5591.6125744626	0.0005392354
5593.5413818357	0.0004920645
5595.4701892087	0.0005864876
5597.3989965818	0.0005623486
5599.3278039548	0.0005558442
5601.2566113279	0.0005279370
5603.1854187009	0.0004978810
5605.1142260740	0.0005349548
5607.0430334470	0.0005379709
5608.9718408201	0.0005408307
5610.9006481931	0.0005320916
5612.8294555661	0.0005420129
5614.7582629392	0.0004860995
5616.6870703122	0.0004990487
5618.6158776853	0.0005179632
5620.5446850583	0.0004854454
5622.4734924314	0.0005119100
5624.4022998044	0.0004823743
5626.3311071775	0.0005189394
5628.2599145505	0.0004478161
5630.1887219236	0.0004301887
5632.1175292966	0.0005009237
5634.0463366697	0.0004665958
5635.9751440427	0.0005745314
5637.9039514158	0.0004712054
5639.8327587888	0.0003886165
5641.7615661619	0.0005175917
5643.6903735349	0.0004834597
5645.6191809079	0.0004784908
5647.5479882810	0.0004989827
5649.4767956540	0.0004732137
5651.4056030271	0.0004423944
5653.3344104001	0.0004795523
5655.2632177732	0.0004631508
5657.1920251462	0.0004005444
5659.1208325193	0.0004281707
5661.0496398923	0.0004652166
5662.9784472654	0.0005636223
5664.9072546384	0.0005057611
5666.8360620115	0.0004322114
5668.7648693845	0.0004986722
5670.6936767576	0.0005447287
5672.6224841306	0.0005200418
5674.5512915036	0.0003863532
5676.4800988767	0.0004663536
5678.4089062497	0.0004979350
5680.3377136228	0.0003951477
5682.2665209958	0.0004459929
5684.1953283689	0.0004793269
5686.1241357419	0.0005178092
5688.0529431150	0.0004764407
5689.9817504880	0.0004835655
5691.9105578611	0.0004575683
5693.8393652341	0.0003708236
5695.7681726072	0.0004598970
5697.6969799802	0.0004352147
5699.6257873533	0.0004497867
5701.5545947263	0.0005119966
5703.4834020993	0.0004526122
5705.4122094724	0.0004490861
5707.3410168454	0.0004538460
5709.2698242185	0.0004557647
5711.1986315915	0.0004425925
5713.1274389646	0.0004175156
5715.0562463376	0.0004113842
5716.9850537107	0.0004540611
5718.9138610837	0.0004950297
5720.8426684568	0.0004626925
5722.7714758298	0.0004441109
5724.7002832029	0.0004598345
5726.6290905759	0.0004518760
5728.5578979490	0.0004536074
5730.4867053220	0.0005061778
5732.4155126950	0.0004574234
5734.3443200681	0.0004348955
5736.2731274411	0.0005348708
5738.2019348142	0.0005423237
5740.1307421872	0.0004851105
5742.0595495603	0.0003975083
5743.9883569333	0.0004035708
5745.9171643064	0.0004438138
5747.8459716794	0.0003882523
5749.7747790525	0.0004277747
5751.7035864255	0.0004159397
5753.6323937986	0.0003672676
5755.5612011716	0.0003935888
5757.4900085447	0.0003273907
5759.4188159177	0.0004094563
5761.3476232907	0.0004660226
5763.2764306638	0.0003959524
5765.2052380368	0.0004664704
5767.1340454099	0.0003373063
5769.0628527829	0.0003232943
5770.9916601560	0.0004095327
5772.9204675290	0.0003552130
5774.8492749021	0.0004505723
5776.7780822751	0.0003464677
5778.7068896482	0.0003627863
5780.6356970212	0.0003983892
5782.5645043943	0.0002906988
5784.4933117673	0.0003732196
5786.4221191404	0.0003144534
5788.3509265134	0.0003734413
5790.2797338865	0.0003917772
5792.2085412595	0.0003640631
5794.1373486325	0.0003843314
5796.0661560056	0.0003017852
5797.9949633786	0.0003934294
5799.9237707517	0.0003764686
5801.8525781247	0.0004195915
5803.7813854978	0.0004636328
5805.7101928708	0.0004199788
5807.6390002439	0.0003858578
5809.5678076169	0.0003061127
5811.4966149900	0.0004165357
5813.4254223630	0.0003531445
5815.3542297361	0.0003656993
5817.2830371091	0.0004568914
5819.2118444822	0.0003812345
5821.1406518552	0.0004225785
5823.0694592282	0.0003706435
5824.9982666013	0.0003542842
5826.9270739743	0.0003609601
5828.8558813474	0.0003178453
5830.7846887204	0.0003352187
5832.7134960935	0.0003886784
5834.6423034665	0.0004256174
5836.5711108396	0.0003670939
5838.4999182126	0.0003571255
5840.4287255857	0.0003577682
5842.3575329587	0.0003710167
5844.2863403318	0.0003678439
5846.2151477048	0.0003058916
5848.1439550779	0.0002856670
5850.0727624509	0.0003222525
5852.0015698239	0.0003965475
5853.9303771970	0.0003688793
5855.8591845700	0.0002885290
5857.7879919431	0.0003577589
5859.7167993161	0.0004149867
5861.6456066892	0.0002912034
5863.5744140622	0.0003247758
5865.5032214353	0.0004179835
5867.4320288083	0.0003745595
5869.3608361814	0.0003361194
5871.2896435544	0.0003136544
5873.2184509275	0.0004314055
5875.1472583005	0.0003827693
5877.0760656736	0.0002910683
5879.0048730466	0.0003636639
5880.9336804196	0.0003083418
5882.8624877927	0.0002926416
5884.7912951657	0.0003263724
5886.7201025388	0.0003467777
5888.6489099118	0.0002858666
5890.5777172849	0.0002966838
5892.5065246579	0.0003712306
5894.4353320310	0.0002805528
5896.3641394040	0.0003112550
5898.2929467771	0.0003383393
5900.2217541501	0.0002731358
5902.1505615232	0.0003040487
5904.0793688962	0.0003614547
5906.0081762693	0.0003209585
5907.9369836423	0.0002477215
5909.8657910154	0.0002971618
5911.7945983884	0.0003268535
5913.7234057614	0.0003107690
5915.6522131345	0.0003014131
5917.5810205075	0.0002849752
5919.5098278806	0.0002651019
5921.4386352536	0.0002961616
5923.3674426267	0.0003354524
5925.2962499997	0.0003263944
5927.2250573728	0.0003445252
5929.1538647458	0.0002804773
5931.0826721189	0.0002989081
5933.0114794919	0.0003328724
5934.9402868650	0.0002356165
5936.8690942380	0.0002918576
5938.7979016111	0.0003178628
5940.7267089841	0.0002646958
5942.6555163571	0.0002938594
5944.5843237302	0.0003218620
5946.5131311032	0.0003005143
5948.4419384763	0.0002596061
5950.3707458493	0.0003223333
5952.2995532224	0.0003528761
5954.2283605954	0.0003163724
5956.1571679685	0.0002954878
5958.0859753415	0.0002675408
5960.0147827146	0.0003036507
5961.9435900876	0.0002387963
5963.8723974607	0.0002619560
5965.8012048337	0.0003450439
5967.7300122068	0.0002234589
5969.6588195798	0.0002858101
5971.5876269528	0.0002953529
5973.5164343259	0.0002197287
5975.4452416989	0.0002926619
5977.3740490720	0.0002923216
5979.3028564450	0.0002757948
5981.2316638181	0.0002120782
5983.1604711911	0.0002982382
5985.0892785642	0.0003157750
5987.0180859372	0.0002551637
5988.9468933103	0.0003892409
5990.8757006833	0.0003197530
5992.8045080564	0.0002650864
5994.7333154294	0.0003050733
5996.6621228025	0.0002977707
5998.5909301755	0.0002594108
6000.5197375485	0.0002496981
