399.2631262207	0.0003574403
401.1919335938	0.0002701182
403.1207409668	0.0005205698
405.0495483398	0.0005180019
406.9783557129	0.0007181381
408.9071630859	0.0006737196
410.8359704590	0.0006044349
412.7647778320	0.0005057515
414.6935852051	0.0002212497
416.6223925781	0.0003822648
418.5511999512	0.0004387527
420.4800073242	0.0004154215
422.4088146973	0.0007293237
424.3376220703	0.0003612233
426.2664294434	0.0000433962
428.1952368164	0.0006516820
430.1240441895	0.0006409381
432.0528515625	0.0002004550
433.9816589355	0.0004846886
435.9104663086	0.0006844217
437.8392736816	0.0004523259
439.7680810547	0.0006098895
441.6968884277	0.0004540440
443.6256958008	0.0001264948
445.5545031738	0.0007474335
447.4833105469	0.0006455056
449.4121179199	0.0002584551
451.3409252930	0.0005021464
453.2697326660	0.0003344652
455.1985400391	0.0005651386
457.1273474121	0.0003223178
459.0561547852	-0.0002127534
460.9849621582	0.0000863617
462.9137695313	0.0003180251
464.8425769043	0.0004539448
466.7713842773	0.0002253903
468.7001916504	0.0001207147
470.6289990234	0.0003362961
472.5578063965	0.0001387033
474.4866137695	0.0002089600
476.4154211426	0.0002842752
478.3442285156	0.0001429775
480.2730358887	0.0000854620
482.2018432617	-0.0003723179
484.1306506348	-0.0000865275
486.0594580078	0.0004584467
487.9882653809	-0.0000322301
489.9170727539	0.0000429052
491.8458801270	0.0003709788
493.7746875000	0.0001953647
495.7034948730	0.0000793629
497.6323022461	0.0001320740
499.5611096191	0.0003169164
501.4899169922	0.0002945919
503.4187243652	0.0003848859
505.3475317383	0.0001970790
507.2763391113	0.0001917433
509.2051464844	0.0003752785
511.1339538574	-0.0002354752
513.0627612305	-0.0000858484
514.9915686035	0.0000171963
516.9203759766	-0.0003144116
518.8491833496	0.0001331947
520.7779907227	0.0000901743
522.7067980957	0.0000279189
524.6356054688	0.0003298862
526.5644128418	0.0002215502
528.4932202148	0.0000040784
530.4220275879	0.0001025344
532.3508349609	0.0002351315
534.2796423340	0.0003256694
536.2084497070	0.0003380597
538.1372570801	-0.0000225144
540.0660644531	0.0001609359
541.9948718262	0.0000506121
543.9236791992	-0.0000249711
545.8524865723	0.0005900561
547.7812939453	0.0003107383
549.7101013184	0.0003596118
551.6389086914	0.0002742893
553.5677160645	0.0000436844
555.4965234375	0.0001741915
557.4253308105	0.0001362702
559.3541381836	0.0006483457
561.2829455566	0.0004622121
563.2117529297	0.0002825315
565.1405603027	0.0003184000
567.0693676758	0.0004510599
568.9981750488	0.0006268875
570.9269824219	0.0000266654
572.8557897949	0.0002875180
574.7845971680	0.0000904760
576.7134045410	-0.0001581450
578.6422119141	0.0004044154
580.5710192871	0.0000805775
582.4998266602	0.0001616071
584.4286340332	0.0002834147
586.3574414063	0.0002346455
588.2862487793	0.0001855798
590.2150561523	-0.0000797534
592.1438635254	0.0000097260
594.0726708984	0.0001889147
596.0014782715	0.0005320419
597.9302856445	0.0002395694
599.8590930176	0.0003918789
601.7879003906	0.0005527754
603.7167077637	0.0000267560
605.6455151367	0.0001832576
607.5743225098	0.0000650073
609.5031298828	0.0001313393
611.4319372559	0.0002936507
613.3607446289	0.0002435664
615.2895520020	0.0002608456
617.2183593750	0.0001034158
619.1471667480	0.0000431466
621.0759741211	-0.0000081527
623.0047814941	0.0001693268
624.9335888672	0.0002369611
626.8623962402	0.0002944887
628.7912036133	0.0000969877
630.7200109863	0.0001449487
632.6488183594	0.0005262892
634.5776257324	0.0003966838
636.5064331055	0.0006142029
638.4352404785	0.0006196462
640.3640478516	0.0005855970
642.2928552246	0.0006743489
644.2216625977	0.0007432699
646.1504699707	0.0012186656
648.0792773438	0.0011024597
650.0080847168	0.0011875196
651.9368920898	0.0012421627
653.8656994629	0.0011571081
655.7945068359	0.0014211293
657.7233142090	0.0011063190
659.6521215820	0.0012631059
661.5809289551	0.0010306407
663.5097363281	0.0008922096
665.4385437012	0.0016291515
667.3673510742	0.0014646980
669.2961584473	0.0016497221
671.2249658203	0.0019382958
673.1537731934	0.0019042310
675.0825805664	0.0019325761
677.0113879395	0.0018897313
678.9401953125	0.0023324830
680.8690026855	0.0020626460
682.7978100586	0.0019758721
684.7266174316	0.0020351103
686.6554248047	0.0016618411
688.5842321777	0.0022218407
690.5130395508	0.0020903344
692.4418469238	0.0018700359
694.3706542969	0.0023559539
696.2994616699	0.0025875431
698.2282690430	0.0032623226
700.1570764160	0.0034202044
702.0858837891	0.0032340488
704.0146911621	0.0030946345
705.9434985352	0.0026975495
707.8723059082	0.0025902777
709.8011132813	0.0019300373
711.7299206543	0.0013014060
713.6587280273	0.0011468118
715.5875354004	0.0006175845
717.5163427734	0.0003903444
719.4451501465	0.0004175605
721.3739575195	0.0002910706
723.3027648926	0.0004244972
725.2315722656	0.0003420460
727.1603796387	-0.0000366496
729.0891870117	0.0000471766
731.0179943848	0.0000493848
732.9468017578	-0.0001235691
734.8756091309	0.0001518410
736.8044165039	0.0001185807
738.7332238770	0.0000029257
740.6620312500	0.0003690898
742.5908386230	0.0002481090
744.5196459961	0.0001499261
746.4484533691	0.0003034014
748.3772607422	0.0001005336
750.3060681152	0.0002854146
752.2348754883	0.0002947522
754.1636828613	0.0000507412
756.0924902344	0.0002597372
758.0212976074	0.0000630654
759.9501049805	-0.0001220762
761.8789123535	0.0003937021
763.8077197266	0.0005263997
765.7365270996	0.0002474489
767.6653344727	0.0004167726
769.5941418457	0.0003711605
771.5229492188	0.0002439626
773.4517565918	0.0002716372
775.3805639648	-0.0000127886
777.3093713379	0.0002184279
779.2381787109	0.0005178128
781.1669860840	0.0003857984
783.0957934570	0.0003943921
785.0246008301	0.0004302434
786.9534082031	0.0004937414
788.8822155762	0.0000927771
790.8110229492	-0.0000288920
792.7398303223	0.0004085381
794.6686376953	0.0003981874
796.5974450684	0.0006164164
798.5262524414	0.0006751945
800.4550598145	0.0005924200
802.3838671875	0.0007543485
804.3126745605	0.0005361735
806.2414819336	0.0005716478
808.1702893066	0.0004969349
810.0990966797	0.0003077462
812.0279040527	0.0002795403
813.9567114258	0.0002271616
815.8855187988	0.0004771963
817.8143261719	0.0001438189
819.7431335449	0.0001517414
821.6719409180	0.0004687544
823.6007482910	0.0001893478
825.5295556641	0.0005615003
827.4583630371	0.0005237210
829.3871704102	0.0003439466
831.3159777832	0.0009578635
833.2447851563	0.0009766659
835.1735925293	0.0007970338
837.1023999023	0.0009922427
839.0312072754	0.0009853913
840.9600146484	0.0009740697
842.8888220215	0.0012059233
844.8176293945	0.0011357047
846.7464367676	0.0009731025
848.6752441406	0.0008268349
850.6040515137	0.0008541315
852.5328588867	0.0009872213
854.4616662598	0.0006228057
856.3904736328	0.0007871626
858.3192810059	0.0007349144
860.2480883789	0.0004515276
862.1768957520	0.0007346621
864.1057031250	0.0005225946
866.0345104980	0.0005407195
867.9633178711	0.0004530606
869.8921252441	0.0004715500
871.8209326172	0.0006165380
873.7497399902	0.0004482788
875.6785473633	0.0004961925
877.6073547363	-0.0000426010
879.5361621094	0.0002773131
881.4649694824	0.0004841689
883.3937768555	0.0000062107
885.3225842285	0.0003411336
887.2513916016	0.0004521144
889.1801989746	0.0006060950
891.1090063477	0.0003304509
893.0378137207	0.0003181860
894.9666210938	0.0005202686
896.8954284668	0.0003068048
898.8242358398	0.0006215922
900.7530432129	0.0004522519
902.6818505859	0.0005073165
904.6106579590	0.0007310780
906.5394653320	0.0005746802
908.4682727051	0.0006444023
910.3970800781	0.0005739506
912.3258874512	0.0005302271
914.2546948242	0.0005746403
916.1835021973	0.0008083434
918.1123095703	0.0009963905
920.0411169434	0.0011285085
921.9699243164	0.0010744421
923.8987316895	0.0010483816
925.8275390625	0.0013024308
927.7563464355	0.0013370583
929.6851538086	0.0015892296
931.6139611816	0.0016930086
933.5427685547	0.0017204812
935.4715759277	0.0017338747
937.4003833008	0.0018267741
939.3291906738	0.0023659342
941.2579980469	0.0022400443
943.1868054199	0.0020602671
945.1156127930	0.0021892004
947.0444201660	0.0020459893
948.9732275391	0.0018990685
950.9020349121	0.0018735467
952.8308422852	0.0018634060
954.7596496582	0.0017621566
956.6884570313	0.0019839506
958.6172644043	0.0020523593
960.5460717773	0.0019907244
962.4748791504	0.0020487779
964.4036865234	0.0020950208
966.3324938965	0.0024733674
968.2613012695	0.0023778193
970.1901086426	0.0021947385
972.1189160156	0.0025420880
974.0477233887	0.0026450385
975.9765307617	0.0026772814
977.9053381348	0.0030919127
979.8341455078	0.0034518689
981.7629528809	0.0035499411
983.6917602539	0.0039263251
985.6205676270	0.0043025883
987.5493750000	0.0047643045
989.4781823730	0.0054347492
991.4069897461	0.0059318920
993.3357971191	0.0066569159
995.2646044922	0.0072479136
997.1934118652	0.0076552955
999.1222192383	0.0080339294
1001.0510266113	0.0084725339
1002.9798339844	0.0094381422
1004.9086413574	0.0100344541
1006.8374487305	0.0103184804
1008.7662561035	0.0108998446
1010.6950634766	0.0115785478
1012.6238708496	0.0125917383
1014.5526782227	0.0131669603
1016.4814855957	0.0134856515
1018.4102929688	0.0142451655
1020.3391003418	0.0147031043
1022.2679077148	0.0153859220
1024.1967150879	0.0160936248
1026.1255224609	0.0164274890
1028.0543298340	0.0170209799
1029.9831372070	0.0174654387
1031.9119445801	0.0180925466
1033.8407519531	0.0184730105
1035.7695593262	0.0183904339
1037.6983666992	0.0186697021
1039.6271740723	0.0187784843
1041.5559814453	0.0187813397
1043.4847888184	0.0186837744
1045.4135961914	0.0184238441
1047.3424035645	0.0179511979
1049.2712109375	0.0174843837
1051.2000183105	0.0174559113
1053.1288256836	0.0170265548
1055.0576330566	0.0166613199
1056.9864404297	0.0162875634
1058.9152478027	0.0157086067
1060.8440551758	0.0155494865
1062.7728625488	0.0150742447
1064.7016699219	0.0145226810
1066.6304772949	0.0138252852
1068.5592846680	0.0131886601
1070.4880920410	0.0128056034
1072.4168994141	0.0121024800
1074.3457067871	0.0117660416
1076.2745141602	0.0111407377
1078.2033215332	0.0103966426
1080.1321289062	0.0101256091
1082.0609362793	0.0094265025
1083.9897436523	0.0088699181
1085.9185510254	0.0086474232
1087.8473583984	0.0083041843
1089.7761657715	0.0079483800
1091.7049731445	0.0076156156
1093.6337805176	0.0072382782
1095.5625878906	0.0069808797
1097.4913952637	0.0068898080
1099.4202026367	0.0066509079
1101.3490100098	0.0064274403
1103.2778173828	0.0062829810
1105.2066247559	0.0061693219
1107.1354321289	0.0058967518
1109.0642395019	0.0058692941
1110.9930468750	0.0061245705
1112.9218542480	0.0058565615
1114.8506616211	0.0056715738
1116.7794689941	0.0056152083
1118.7082763672	0.0058054836
1120.6370837402	0.0059793554
1122.5658911133	0.0056400737
1124.4946984863	0.0058691232
1126.4235058594	0.0058914381
1128.3523132324	0.0057246033
1130.2811206055	0.0059681265
1132.2099279785	0.0060208682
1134.1387353516	0.0063117510
1136.0675427246	0.0067553376
1137.9963500977	0.0071951309
1139.9251574707	0.0074147349
1141.8539648437	0.0078926645
1143.7827722168	0.0084972996
1145.7115795898	0.0086436067
1147.6403869629	0.0094387215
1149.5691943359	0.0099135395
1151.4980017090	0.0100557134
1153.4268090820	0.0107501317
1155.3556164551	0.0110371113
1157.2844238281	0.0116103031
1159.2132312012	0.0121270269
1161.1420385742	0.0123724211
1163.0708459473	0.0131078996
1164.9996533203	0.0133373234
1166.9284606934	0.0136786373
1168.8572680664	0.0144255757
1170.7860754394	0.0148463603
1172.7148828125	0.0154729355
1174.6436901855	0.0159949772
1176.5724975586	0.0165999196
1178.5013049316	0.0172493830
1180.4301123047	0.0176123418
1182.3589196777	0.0185130239
1184.2877270508	0.0194240026
1186.2165344238	0.0201744996
1188.1453417969	0.0210945159
1190.0741491699	0.0218940675
1192.0029565430	0.0227543861
1193.9317639160	0.0237614047
1195.8605712891	0.0249470063
1197.7893786621	0.0261267759
1199.7181860351	0.0273242295
1201.6469934082	0.0283032265
1203.5758007812	0.0294097885
1205.5046081543	0.0307779349
1207.4334155273	0.0315426588
1209.3622229004	0.0324573070
1211.2910302734	0.0334291086
1213.2198376465	0.0343192592
1215.1486450195	0.0353487656
1217.0774523926	0.0358962193
1219.0062597656	0.0364808515
1220.9350671387	0.0369219184
1222.8638745117	0.0373711139
1224.7926818848	0.0378624797
1226.7214892578	0.0379460007
1228.6502966308	0.0381735228
1230.5791040039	0.0382401794
1232.5079113769	0.0382056609
1234.4367187500	0.0383617356
1236.3655261230	0.0382443070
1238.2943334961	0.0380128101
1240.2231408691	0.0380152240
1242.1519482422	0.0377969295
1244.0807556152	0.0375540033
1246.0095629883	0.0375469290
1247.9383703613	0.0373363234
1249.8671777344	0.0370850489
1251.7959851074	0.0366556793
1253.7247924805	0.0363435075
1255.6535998535	0.0358860642
1257.5824072266	0.0352695622
1259.5112145996	0.0349319205
1261.4400219726	0.0341629386
1263.3688293457	0.0337672904
1265.2976367187	0.0333687142
1267.2264440918	0.0326856151
1269.1552514648	0.0325090177
1271.0840588379	0.0320479274
1273.0128662109	0.0315516628
1274.9416735840	0.0310478378
1276.8704809570	0.0303527378
1278.7992883301	0.0296745505
1280.7280957031	0.0290572569
1282.6569030762	0.0285967886
1284.5857104492	0.0280048139
1286.5145178223	0.0273670629
1288.4433251953	0.0269265659
1290.3721325683	0.0266934205
1292.3009399414	0.0264009107
1294.2297473144	0.0261594243
1296.1585546875	0.0258660764
1298.0873620605	0.0257965587
1300.0161694336	0.0260607824
1301.9449768066	0.0260700136
1303.8737841797	0.0262610447
1305.8025915527	0.0265721064
1307.7313989258	0.0269244425
1309.6602062988	0.0272008572
1311.5890136719	0.0275703594
1313.5178210449	0.0282117277
1315.4466284180	0.0286938809
1317.3754357910	0.0293685496
1319.3042431640	0.0300994180
1321.2330505371	0.0310990922
1323.1618579101	0.0320731737
1325.0906652832	0.0329523236
1327.0194726562	0.0339608938
1328.9482800293	0.0346121229
1330.8770874023	0.0354539230
1332.8058947754	0.0361399427
1334.7347021484	0.0368470252
1336.6635095215	0.0373637751
1338.5923168945	0.0370991156
1340.5211242676	0.0375952274
1342.4499316406	0.0386235192
1344.3787390137	0.0388673022
1346.3075463867	0.0389054790
1348.2363537597	0.0388592407
1350.1651611328	0.0385911092
1352.0939685058	0.0385329984
1354.0227758789	0.0379736535
1355.9515832519	0.0375011750
1357.8803906250	0.0373194106
1359.8091979980	0.0368011892
1361.7380053711	0.0356471390
1363.6668127441	0.0349806547
1365.5956201172	0.0361830667
1367.5244274902	0.0354813263
1369.4532348633	0.0349876657
1371.3820422363	0.0355729423
1373.3108496094	0.0338319764
1375.2396569824	0.0340761133
1377.1684643555	0.0348064378
1379.0972717285	0.0345734954
1381.0260791015	0.0347901955
1382.9548864746	0.0346589200
1384.8836938476	0.0344875827
1386.8125012207	0.0332185626
1388.7413085937	0.0337876305
1390.6701159668	0.0357953683
1392.5989233398	0.0349307284
1394.5277307129	0.0334397554
1396.4565380859	0.0347512700
1398.3853454590	0.0346163400
1400.3141528320	0.0342951119
1402.2429602051	0.0364670828
1404.1717675781	0.0350436792
1406.1005749512	0.0351155922
1408.0293823242	0.0360138789
1409.9581896972	0.0349627584
1411.8869970703	0.0354733728
1413.8158044433	0.0344465449
1415.7446118164	0.0348347016
1417.6734191894	0.0319637135
1419.6022265625	0.0293204673
1421.5310339355	0.0323529467
1423.4598413086	0.0313596427
1425.3886486816	0.0305776205
1427.3174560547	0.0307687148
1429.2462634277	0.0286662728
1431.1750708008	0.0276514329
1433.1038781738	0.0279399455
1435.0326855469	0.0257721581
1436.9614929199	0.0225757174
1438.8903002929	0.0248303209
1440.8191076660	0.0251630452
1442.7479150390	0.0235968530
1444.6767224121	0.0241508540
1446.6055297851	0.0226814263
1448.5343371582	0.0230002031
1450.4631445312	0.0235020071
1452.3919519043	0.0239458717
1454.3207592773	0.0246881172
1456.2495666504	0.0214754567
1458.1783740234	0.0223806202
1460.1071813965	0.0281796586
1462.0359887695	0.0299122054
1463.9647961426	0.0300242733
1465.8936035156	0.0313869379
1467.8224108886	0.0351062641
1469.7512182617	0.0372503921
1471.6800256347	0.0343750119
1473.6088330078	0.0363083556
1475.5376403808	0.0406838655
1477.4664477539	0.0434896834
1479.3952551269	0.0467964113
1481.3240625000	0.0478302054
1483.2528698730	0.0505463406
1485.1816772461	0.0518083423
1487.1104846191	0.0516575910
1489.0392919922	0.0517557710
1490.9680993652	0.0521876924
1492.8969067383	0.0587665513
1494.8257141113	0.0577218160
1496.7545214843	0.0534960888
1498.6833288574	0.0591512471
1500.6121362304	0.0606042594
1502.5409436035	0.0639284030
1504.4697509765	0.0609318241
1506.3985583496	0.0479911081
1508.3273657226	0.0563139021
1510.2561730957	0.0634058490
1512.1849804687	0.0616650805
1514.1137878418	0.0657113642
1516.0425952148	0.0604205690
1517.9714025879	0.0627881140
1519.9002099609	0.0605829880
1521.8290173340	0.0543408021
1523.7578247070	0.0634026825
1525.6866320801	0.0620414317
1527.6154394531	0.0621958636
1529.5442468261	0.0668497086
1531.4730541992	0.0645833313
1533.4018615722	0.0603056997
1535.3306689453	0.0626404434
1537.2594763183	0.0655943155
1539.1882836914	0.0505649522
1541.1170910644	0.0525516421
1543.0458984375	0.0598395988
1544.9747058105	0.0579244718
1546.9035131836	0.0658937171
1548.8323205566	0.0619198084
1550.7611279297	0.0636748075
1552.6899353027	0.0628551245
1554.6187426758	0.0580758825
1556.5475500488	0.0609453395
1558.4763574218	0.0463342294
1560.4051647949	0.0491392799
1562.3339721679	0.0638472065
1564.2627795410	0.0608461685
1566.1915869140	0.0621582270
1568.1203942871	0.0610184707
1570.0492016601	0.0553301722
1571.9780090332	0.0614318997
1573.9068164062	0.0613378659
1575.8356237793	0.0508677475
1577.7644311523	0.0556953698
1579.6932385254	0.0607814565
1581.6220458984	0.0582775511
1583.5508532715	0.0592884421
1585.4796606445	0.0579611398
1587.4084680175	0.0580558404
1589.3372753906	0.0572312586
1591.2660827636	0.0565274321
1593.1948901367	0.0562723279
1595.1236975097	0.0552034155
1597.0525048828	0.0553890988
1598.9813122558	0.0547078103
1600.9101196289	0.0545396581
1602.8389270019	0.0533016473
1604.7677343750	0.0535884425
1606.6965417480	0.0525722653
1608.6253491211	0.0521477275
1610.5541564941	0.0517289415
1612.4829638672	0.0516737252
1614.4117712402	0.0520008355
1616.3405786132	0.0439477488
1618.2693859863	0.0469581559
1620.1981933593	0.0528089553
1622.1270007324	0.0480180234
1624.0558081054	0.0484318957
1625.9846154785	0.0500645489
1627.9134228515	0.0503777117
1629.8422302246	0.0502726361
1631.7710375976	0.0531270057
1633.6998449707	0.0502595007
1635.6286523437	0.0439226553
1637.5574597168	0.0498085767
1639.4862670898	0.0539184809
1641.4150744629	0.0536795855
1643.3438818359	0.0555739254
1645.2726892090	0.0519735180
1647.2014965820	0.0477717966
1649.1303039550	0.0574960783
1651.0591113281	0.0552081019
1652.9879187011	0.0399150178
1654.9167260742	0.0517176427
1656.8455334472	0.0623597950
1658.7743408203	0.0608766377
1660.7031481933	0.0630498528
1662.6319555664	0.0594457611
1664.5607629394	0.0630547702
1666.4895703125	0.0672800243
1668.4183776855	0.0614791065
1670.3471850586	0.0610232577
1672.2759924316	0.0679167062
1674.2047998047	0.0644819215
1676.1336071777	0.0634119958
1678.0624145507	0.0715947449
1679.9912219238	0.0702167898
1681.9200292968	0.0705695748
1683.8488366699	0.0604219697
1685.7776440429	0.0607932545
1687.7064514160	0.0788653418
1689.6352587890	0.0709937885
1691.5640661621	0.0773996115
1693.4928735351	0.0787215829
1695.4216809082	0.0620968901
1697.3504882812	0.0742666572
1699.2792956543	0.0673693419
1701.2081030273	0.0629381612
1703.1369104004	0.0805409402
1705.0657177734	0.0753687397
1706.9945251464	0.0767513514
1708.9233325195	0.0820790753
1710.8521398925	0.0796310380
1712.7809472656	0.0813691840
1714.7097546386	0.0770954117
1716.6385620117	0.0710326433
1718.5673693847	0.0705172569
1720.4961767578	0.0809291080
1722.4249841308	0.0829552263
1724.3537915039	0.0787362754
1726.2825988769	0.0842205584
1728.2114062500	0.0788937658
1730.1402136230	0.0801901966
1732.0690209961	0.0779108852
1733.9978283691	0.0634717941
1735.9266357421	0.0755049437
1737.8554431152	0.0813319460
1739.7842504882	0.0745259225
1741.7130578613	0.0799795985
1743.6418652343	0.0809751004
1745.5706726074	0.0811405703
1747.4994799804	0.0819427297
1749.4282873535	0.0792713240
1751.3570947265	0.0767493546
1753.2859020996	0.0831783563
1755.2147094726	0.0860022083
1757.1435168457	0.0804600418
1759.0723242187	0.0865806788
1761.0011315918	0.0822499394
1762.9299389648	0.0802671686
1764.8587463379	0.0890156478
1766.7875537109	0.0819486454
1768.7163610839	0.0826333240
1770.6451684570	0.0821685717
1772.5739758300	0.0757791549
1774.5027832031	0.0824798048
1776.4315905761	0.0859133303
1778.3603979492	0.0848745629
1780.2892053222	0.0841546059
1782.2180126953	0.0844334513
1784.1468200683	0.0842352360
1786.0756274414	0.0829666704
1788.0044348144	0.0862271711
1789.9332421875	0.0845204890
1791.8620495605	0.0781893283
1793.7908569336	0.0807964057
1795.7196643066	0.0851130337
1797.6484716796	0.0842063874
1799.5772790527	0.0833689868
1801.5060864257	0.0819758177
1803.4348937988	0.0839992091
1805.3637011718	0.0853644460
1807.2925085449	0.0842979252
1809.2213159179	0.0845463872
1811.1501232910	0.0826474726
1813.0789306640	0.0844938457
1815.0077380371	0.0847562924
1816.9365454101	0.0839033574
1818.8653527832	0.0842892081
1820.7941601562	0.0840563849
1822.7229675293	0.0849137306
1824.6517749023	0.0805817991
1826.5805822753	0.0827781856
1828.5093896484	0.0825997144
1830.4381970214	0.0788271204
1832.3670043945	0.0838307440
1834.2958117675	0.0831803530
1836.2246191406	0.0832358301
1838.1534265136	0.0826478750
1840.0822338867	0.0831961781
1842.0110412597	0.0832047313
1843.9398486328	0.0756440908
1845.8686560058	0.0795651376
1847.7974633789	0.0826966166
1849.7262707519	0.0811342299
1851.6550781250	0.0829956084
1853.5838854980	0.0815117210
1855.5126928710	0.0820299089
1857.4415002441	0.0814908445
1859.3703076171	0.0809948891
1861.2991149902	0.0814311355
1863.2279223632	0.0804910809
1865.1567297363	0.0811046213
1867.0855371093	0.0789593160
1869.0143444824	0.0764054954
1870.9431518554	0.0786408931
1872.8719592285	0.0805264637
1874.8007666015	0.0795463696
1876.7295739746	0.0798362419
1878.6583813476	0.0794043839
1880.5871887207	0.0790470988
1882.5159960937	0.0793130621
1884.4448034667	0.0781237334
1886.3736108398	0.0788633823
1888.3024182128	0.0774860382
1890.2312255859	0.0763806850
1892.1600329589	0.0782818645
1894.0888403320	0.0772800148
1896.0176477050	0.0770659298
1897.9464550781	0.0775028616
1899.8752624511	0.0770624578
1901.8040698242	0.0771242827
1903.7328771972	0.0765601546
1905.6616845703	0.0767450035
1907.5904919433	0.0759971812
1909.5192993164	0.0756272897
1911.4481066894	0.0758140087
1913.3769140625	0.0757446215
1915.3057214355	0.0763463303
1917.2345288085	0.0734729469
1919.1633361816	0.0734789222
1921.0921435546	0.0754346475
1923.0209509277	0.0734611675
1924.9497583007	0.0747397840
1926.8785656738	0.0750816464
1928.8073730468	0.0742203444
1930.7361804199	0.0747809112
1932.6649877929	0.0739589855
1934.5937951660	0.0744972900
1936.5226025390	0.0738985687
1938.4514099121	0.0739089251
1940.3802172851	0.0737798139
1942.3090246582	0.0719446689
1944.2378320312	0.0728218704
1946.1666394042	0.0731964260
1948.0954467773	0.0730038881
1950.0242541503	0.0731154829
1951.9530615234	0.0727178454
1953.8818688964	0.0728559643
1955.8106762695	0.0724907517
1957.7394836425	0.0722294971
1959.6682910156	0.0722390264
1961.5970983886	0.0721093714
1963.5259057617	0.0720259696
1965.4547131347	0.0715911388
1967.3835205078	0.0710773841
1969.3123278808	0.0713943318
1971.2411352539	0.0715199411
1973.1699426269	0.0711243451
1975.0987499999	0.0710508525
1977.0275573730	0.0706632882
1978.9563647460	0.0707061589
1980.8851721191	0.0704901069
1982.8139794921	0.0701696575
1984.7427868652	0.0703830123
1986.6715942382	0.0698525310
1988.6004016113	0.0697352067
1990.5292089843	0.0691503584
1992.4580163574	0.0684669018
1994.3868237304	0.0691419914
1996.3156311035	0.0690360516
1998.2444384765	0.0686065927
2000.1732458496	0.0685002878
2002.1020532226	0.0682428107
2004.0308605956	0.0681417659
2005.9596679687	0.0679145008
2007.8884753417	0.0677280724
2009.8172827148	0.0674507543
2011.7460900878	0.0672880411
2013.6748974609	0.0672473982
2015.6037048339	0.0666970313
2017.5325122070	0.0661867037
2019.4613195800	0.0662295148
2021.3901269531	0.0661989450
2023.3189343261	0.0657253489
2025.2477416992	0.0656113178
2027.1765490722	0.0655258074
2029.1053564453	0.0651562586
2031.0341638183	0.0650779903
2032.9629711914	0.0648801327
2034.8917785644	0.0646703541
2036.8205859374	0.0644757003
2038.7493933105	0.0642626658
2040.6782006835	0.0639963895
2042.6070080566	0.0638310313
2044.5358154296	0.0638950393
2046.4646228027	0.0636237785
2048.3934301757	0.0634292662
2050.3222375488	0.0631346703
2052.2510449218	0.0628676862
2054.1798522949	0.0626323819
2056.1086596679	0.0624251217
2058.0374670410	0.0625465885
2059.9662744140	0.0621872842
2061.8950817871	0.0621846989
2063.8238891601	0.0619514249
2065.7526965331	0.0614199415
2067.6815039062	0.0616173223
2069.6103112792	0.0613859221
2071.5391186523	0.0612407662
2073.4679260253	0.0611452349
2075.3967333984	0.0608205386
2077.3255407714	0.0607534349
2079.2543481445	0.0606055111
2081.1831555175	0.0605473444
2083.1119628906	0.0604464635
2085.0407702636	0.0601473302
2086.9695776367	0.0599935949
2088.8983850097	0.0599339008
2090.8271923828	0.0596936122
2092.7559997558	0.0595977455
2094.6848071288	0.0595111065
2096.6136145019	0.0593887344
2098.5424218749	0.0593023710
2100.4712292480	0.0590842776
2102.4000366210	0.0590824336
2104.3288439941	0.0589549318
2106.2576513671	0.0588171333
2108.1864587402	0.0587445647
2110.1152661132	0.0585467070
2112.0440734863	0.0583982393
2113.9728808593	0.0583112501
2115.9016882324	0.0583012402
2117.8304956054	0.0581085309
2119.7593029785	0.0580374338
2121.6881103515	0.0579690300
2123.6169177245	0.0578242429
2125.5457250976	0.0577064082
2127.4745324706	0.0575806350
2129.4033398437	0.0575925410
2131.3321472167	0.0574801154
2133.2609545898	0.0574564300
2135.1897619628	0.0573130473
2137.1185693359	0.0571946129
2139.0473767089	0.0571803302
2140.9761840820	0.0571180955
2142.9049914550	0.0571572483
2144.8337988281	0.0569960102
2146.7626062011	0.0570245758
2148.6914135742	0.0568617061
2150.6202209472	0.0566571467
2152.5490283203	0.0568243116
2154.4778356933	0.0567040518
2156.4066430663	0.0565647557
2158.3354504394	0.0565183461
2160.2642578124	0.0565039814
2162.1930651855	0.0564779118
2164.1218725585	0.0563349500
2166.0506799316	0.0562257804
2167.9794873046	0.0561831221
2169.9082946777	0.0561474748
2171.8371020507	0.0561437532
2173.7659094238	0.0561067313
2175.6947167968	0.0560341254
2177.6235241699	0.0560238138
2179.5523315429	0.0557966530
2181.4811389160	0.0557577834
2183.4099462890	0.0558607802
2185.3387536620	0.0557689853
2187.2675610351	0.0557995588
2189.1963684081	0.0557273738
2191.1251757812	0.0556708835
2193.0539831542	0.0556126796
2194.9827905273	0.0554606766
2196.9115979003	0.0554325730
2198.8404052734	0.0554084331
2200.7692126464	0.0553590991
2202.6980200195	0.0553384386
2204.6268273925	0.0553003512
2206.5556347656	0.0551866964
2208.4844421386	0.0550690182
2210.4132495117	0.0550207868
2212.3420568847	0.0549951270
2214.2708642577	0.0549739525
2216.1996716308	0.0550209805
2218.1284790038	0.0547877252
2220.0572863769	0.0547007769
2221.9860937499	0.0548697785
2223.9149011230	0.0546572506
2225.8437084960	0.0546544492
2227.7725158691	0.0545422658
2229.7013232421	0.0543467887
2231.6301306152	0.0544199049
2233.5589379882	0.0544274673
2235.4877453613	0.0543899834
2237.4165527343	0.0541019887
2239.3453601074	0.0541675463
2241.2741674804	0.0541076586
2243.2029748534	0.0538271815
2245.1317822265	0.0539405793
2247.0605895995	0.0538349226
2248.9893969726	0.0537229404
2250.9182043456	0.0536142513
2252.8470117187	0.0535271093
2254.7758190917	0.0535544343
2256.7046264648	0.0535020567
2258.6334338378	0.0533927865
2260.5622412109	0.0533426218
2262.4910485839	0.0533686802
2264.4198559570	0.0532308370
2266.3486633300	0.0531243049
2268.2774707031	0.0530125573
2270.2062780761	0.0529302359
2272.1350854491	0.0528514795
2274.0638928222	0.0528414808
2275.9927001952	0.0528122932
2277.9215075683	0.0526391380
2279.8503149413	0.0528005734
2281.7791223144	0.0527688935
2283.7079296874	0.0525739565
2285.6367370605	0.0525360033
2287.5655444335	0.0524081551
2289.4943518066	0.0522747673
2291.4231591796	0.0521456376
2293.3519665527	0.0520866141
2295.2807739257	0.0519383550
2297.2095812988	0.0517204292
2299.1383886718	0.0515213870
2301.0671960449	0.0514372736
2302.9960034179	0.0511991270
2304.9248107909	0.0508022085
2306.8536181640	0.0505580977
2308.7824255370	0.0502873063
2310.7112329101	0.0500181429
2312.6400402831	0.0493928157
2314.5688476562	0.0488408357
2316.4976550292	0.0485865958
2318.4264624023	0.0480324738
2320.3552697753	0.0473708995
2322.2840771484	0.0467327349
2324.2128845214	0.0463027656
2326.1416918945	0.0459275544
2328.0704992675	0.0454418845
2329.9993066406	0.0449010879
2331.9281140136	0.0445042811
2333.8569213866	0.0444632620
2335.7857287597	0.0443722643
2337.7145361327	0.0442283899
2339.6433435058	0.0441919491
2341.5721508788	0.0443446413
2343.5009582519	0.0447879322
2345.4297656249	0.0455541238
2347.3585729980	0.0471047685
2349.2873803710	0.0483032614
2351.2161877441	0.0469726324
2353.1449951171	0.0448008925
2355.0738024902	0.0435580909
2357.0026098632	0.0423430912
2358.9314172363	0.0416529775
2360.8602246093	0.0412562676
2362.7890319823	0.0410042778
2364.7178393554	0.0412761122
2366.6466467284	0.0416390374
2368.5754541015	0.0423843861
2370.5042614745	0.0432720371
2372.4330688476	0.0442947224
2374.3618762206	0.0454086363
2376.2906835937	0.0463400409
2378.2194909667	0.0471714139
2380.1482983398	0.0479177833
2382.0771057128	0.0484295115
2384.0059130859	0.0485879332
2385.9347204589	0.0487813503
2387.8635278320	0.0486635156
2389.7923352050	0.0485513657
2391.7211425780	0.0486230031
2393.6499499511	0.0484627262
2395.5787573241	0.0483771563
2397.5075646972	0.0482707769
2399.4363720702	0.0483129397
2401.3651794433	0.0482853726
2403.2939868163	0.0481362194
2405.2227941894	0.0480242334
2407.1516015624	0.0479194745
2409.0804089355	0.0479073450
2411.0092163085	0.0477897376
2412.9380236816	0.0477093607
2414.8668310546	0.0475944653
2416.7956384277	0.0475707725
2418.7244458007	0.0474403575
2420.6532531738	0.0473123714
2422.5820605468	0.0473901629
2424.5108679198	0.0473153889
2426.4396752929	0.0472552925
2428.3684826659	0.0469783209
2430.2972900390	0.0469377562
2432.2260974120	0.0469861925
2434.1549047851	0.0467568934
2436.0837121581	0.0467290953
2438.0125195312	0.0466169715
2439.9413269042	0.0466032326
2441.8701342773	0.0465205908
2443.7989416503	0.0463820398
2445.7277490234	0.0464042276
2447.6565563964	0.0462519005
2449.5853637695	0.0462825298
2451.5141711425	0.0462952554
2453.4429785155	0.0459505655
2455.3717858886	0.0458635092
2457.3005932616	0.0459627397
2459.2294006347	0.0458085462
2461.1582080077	0.0457822606
2463.0870153808	0.0457038544
2465.0158227538	0.0454830378
2466.9446301269	0.0454558730
2468.8734374999	0.0455004051
2470.8022448730	0.0454270728
2472.7310522460	0.0451566614
2474.6598596191	0.0451323017
2476.5886669921	0.0450912789
2478.5174743652	0.0449639037
2480.4462817382	0.0450276956
2482.3750891112	0.0448338538
2484.3038964843	0.0446608402
2486.2327038573	0.0447078869
2488.1615112304	0.0447149873
2490.0903186034	0.0445054248
2492.0191259765	0.0444073305
2493.9479333495	0.0444493927
2495.8767407226	0.0442337468
2497.8055480956	0.0441184714
2499.7343554687	0.0440533794
2501.6631628417	0.0440334342
2503.5919702148	0.0440763086
2505.5207775878	0.0439396128
2507.4495849609	0.0438583791
2509.3783923339	0.0437323153
2511.3071997069	0.0435050875
2513.2360070800	0.0435071960
2515.1648144530	0.0435438827
2517.0936218261	0.0434121601
2519.0224291991	0.0433778539
2520.9512365722	0.0432365760
2522.8800439452	0.0430935547
2524.8088513183	0.0431637615
2526.7376586913	0.0430319943
2528.6664660644	0.0428097993
2530.5952734374	0.0428191237
2532.5240808105	0.0428617075
2534.4528881835	0.0426387265
2536.3816955566	0.0425544232
2538.3105029296	0.0425368808
2540.2393103027	0.0423313677
2542.1681176757	0.0423718542
2544.0969250487	0.0423242375
2546.0257324218	0.0421509296
2547.9545397948	0.0420975462
2549.8833471679	0.0420973077
2551.8121545409	0.0420397744
2553.7409619140	0.0418279618
2555.6697692870	0.0418324135
2557.5985766601	0.0417952500
2559.5273840331	0.0415333360
2561.4561914062	0.0413780510
2563.3849987792	0.0413581729
2565.3138061523	0.0413490273
2567.2426135253	0.0412745699
2569.1714208984	0.0412476435
2571.1002282714	0.0411061347
2573.0290356444	0.0409467071
2574.9578430175	0.0409092307
2576.8866503905	0.0408544913
2578.8154577636	0.0407235548
2580.7442651366	0.0405542366
2582.6730725097	0.0405769125
2584.6018798827	0.0404462591
2586.5306872558	0.0403206758
2588.4594946288	0.0404182523
2590.3883020019	0.0402539298
2592.3171093749	0.0401286967
2594.2459167480	0.0399944633
2596.1747241210	0.0399123244
2598.1035314941	0.0399961770
2600.0323388671	0.0397430100
2601.9611462401	0.0396425575
2603.8899536132	0.0396776050
2605.8187609862	0.0394777358
2607.7475683593	0.0394474193
2609.6763757323	0.0393321216
2611.6051831054	0.0391474962
2613.5339904784	0.0392086096
2615.4627978515	0.0390349552
2617.3916052245	0.0389030837
2619.3204125976	0.0390338525
2621.2492199706	0.0388271734
2623.1780273437	0.0386798978
2625.1068347167	0.0386390202
2627.0356420898	0.0384606048
2628.9644494628	0.0383734256
2630.8932568358	0.0382554457
2632.8220642089	0.0382404961
2634.7508715819	0.0381422266
2636.6796789550	0.0380664952
2638.6084863280	0.0380782709
2640.5372937011	0.0378599204
2642.4661010741	0.0378082730
2644.3949084472	0.0377899781
2646.3237158202	0.0376891196
2648.2525231933	0.0376023501
2650.1813305663	0.0373960286
2652.1101379394	0.0373040438
2654.0389453124	0.0373214930
2655.9677526855	0.0372081622
2657.8965600585	0.0370139033
2659.8253674315	0.0369740091
2661.7541748046	0.0369915292
2663.6829821776	0.0368403345
2665.6117895507	0.0366210081
2667.5405969237	0.0365605615
2669.4694042968	0.0364818498
2671.3982116698	0.0363694318
2673.3270190429	0.0363195539
2675.2558264159	0.0361643285
2677.1846337890	0.0361521915
2679.1134411620	0.0361037403
2681.0422485351	0.0359625667
2682.9710559081	0.0358398706
2684.8998632812	0.0356625319
2686.8286706542	0.0356337987
2688.7574780273	0.0355407074
2690.6862854003	0.0354914479
2692.6150927733	0.0353936963
2694.5439001464	0.0352059454
2696.4727075194	0.0351836830
2698.4015148925	0.0350627527
2700.3303222655	0.0348803252
2702.2591296386	0.0347931534
2704.1879370116	0.0347547159
2706.1167443847	0.0345683992
2708.0455517577	0.0345055573
2709.9743591308	0.0345451646
2711.9031665038	0.0343784019
2713.8319738769	0.0342243910
2715.7607812499	0.0341036096
2717.6895886230	0.0340718180
2719.6183959960	0.0339356661
2721.5472033690	0.0338003933
2723.4760107421	0.0337520801
2725.4048181151	0.0336527042
2727.3336254882	0.0336113498
2729.2624328612	0.0334961042
2731.1912402343	0.0333961844
2733.1200476073	0.0332066528
2735.0488549804	0.0330956057
2736.9776623534	0.0330670476
2738.9064697265	0.0329452455
2740.8352770995	0.0329017490
2742.7640844726	0.0326927304
2744.6928918456	0.0325485654
2746.6216992187	0.0325513966
2748.5505065917	0.0324122310
2750.4793139647	0.0322585218
2752.4081213378	0.0321819559
2754.3369287108	0.0320233852
2756.2657360839	0.0319422781
2758.1945434569	0.0319676213
2760.1233508300	0.0318315253
2762.0521582030	0.0317268968
2763.9809655761	0.0315155461
2765.9097729491	0.0313938446
2767.8385803222	0.0313049927
2769.7673876952	0.0311274119
2771.6961950683	0.0311855376
2773.6250024413	0.0309888944
2775.5538098144	0.0308492687
2777.4826171874	0.0307660364
2779.4114245604	0.0305440575
2781.3402319335	0.0305970982
2783.2690393065	0.0305354074
2785.1978466796	0.0303465128
2787.1266540526	0.0301497318
2789.0554614257	0.0300490819
2790.9842687987	0.0300412290
2792.9130761718	0.0298260972
2794.8418835448	0.0296291243
2796.7706909179	0.0295630246
2798.6994982909	0.0294267777
2800.6283056640	0.0293193161
2802.5571130370	0.0292913429
2804.4859204101	0.0292026531
2806.4147277831	0.0290903021
2808.3435351562	0.0288923793
2810.2723425292	0.0287392661
2812.2011499022	0.0286025871
2814.1299572753	0.0285127610
2816.0587646483	0.0285044238
2817.9875720214	0.0282224100
2819.9163793944	0.0281301811
2821.8451867675	0.0281419475
2823.7739941405	0.0279344078
2825.7028015136	0.0278717205
2827.6316088866	0.0277417749
2829.5604162597	0.0275267586
2831.4892236327	0.0273939595
2833.4180310058	0.0272715576
2835.3468383788	0.0271331277
2837.2756457519	0.0269997790
2839.2044531249	0.0268489048
2841.1332604979	0.0266377870
2843.0620678710	0.0264957622
2844.9908752440	0.0263560228
2846.9196826171	0.0259841792
2848.8484899901	0.0257414579
2850.7772973632	0.0257306509
2852.7061047362	0.0254995320
2854.6349121093	0.0253780149
2856.5637194823	0.0253256075
2858.4925268554	0.0252195932
2860.4213342284	0.0252542123
2862.3501416015	0.0250997432
2864.2789489745	0.0249874480
2866.2077563476	0.0249114260
2868.1365637206	0.0246901102
2870.0653710936	0.0245711114
2871.9941784667	0.0245147794
2873.9229858397	0.0243180655
2875.8517932128	0.0241986942
2877.7806005858	0.0242721178
2879.7094079589	0.0240864158
2881.6382153319	0.0239566267
2883.5670227050	0.0239030495
2885.4958300780	0.0237793289
2887.4246374511	0.0237507299
2889.3534448241	0.0235019624
2891.2822521972	0.0233863406
2893.2110595702	0.0233103409
2895.1398669433	0.0231034514
2897.0686743163	0.0229588076
2898.9974816893	0.0227395780
2900.9262890624	0.0227420703
2902.8550964354	0.0226518065
2904.7839038085	0.0223834440
2906.7127111815	0.0223257300
2908.6415185546	0.0221022721
2910.5703259276	0.0218127519
2912.4991333007	0.0216257162
2914.4279406737	0.0213847402
2916.3567480468	0.0212507956
2918.2855554198	0.0211335719
2920.2143627929	0.0210292228
2922.1431701659	0.0208852943
2924.0719775390	0.0206830613
2926.0007849120	0.0206099879
2927.9295922851	0.0205331556
2929.8583996581	0.0204992853
2931.7872070311	0.0203884803
2933.7160144042	0.0202839840
2935.6448217772	0.0203181263
2937.5736291503	0.0202360675
2939.5024365233	0.0201176107
2941.4312438964	0.0199855715
2943.3600512694	0.0199742317
2945.2888586425	0.0199242495
2947.2176660155	0.0197035410
2949.1464733886	0.0196114704
2951.0752807616	0.0195289981
2953.0040881347	0.0193201266
2954.9328955077	0.0191509221
2956.8617028808	0.0190829672
2958.7905102538	0.0189837217
2960.7193176268	0.0188950449
2962.6481249999	0.0186625272
2964.5769323729	0.0184956659
2966.5057397460	0.0185119435
2968.4345471190	0.0184464008
2970.3633544921	0.0184350926
2972.2921618651	0.0182332508
2974.2209692382	0.0181327350
2976.1497766112	0.0181664154
2978.0785839843	0.0180541296
2980.0073913573	0.0179908983
2981.9361987304	0.0179171748
2983.8650061034	0.0179123618
2985.7938134765	0.0177347697
2987.7226208495	0.0175672248
2989.6514282225	0.0174419843
2991.5802355956	0.0173555911
2993.5090429686	0.0173705593
2995.4378503417	0.0171148628
2997.3666577147	0.0170277674
2999.2954650878	0.0170170553
3001.2242724608	0.0169071704
3003.1530798339	0.0167488232
3005.0818872069	0.0166339464
3007.0106945800	0.0165665410
3008.9395019530	0.0163483173
3010.8683093261	0.0163413268
3012.7971166991	0.0161524080
3014.7259240722	0.0159714241
3016.6547314452	0.0159954298
3018.5835388182	0.0158172660
3020.5123461913	0.0157017875
3022.4411535643	0.0156166218
3024.3699609374	0.0155573925
3026.2987683104	0.0153791374
3028.2275756835	0.0152506791
3030.1563830565	0.0152013320
3032.0851904296	0.0150418822
3034.0139978026	0.0150164720
3035.9428051757	0.0149246547
3037.8716125487	0.0148016457
3039.8004199218	0.0147141889
3041.7292272948	0.0145724490
3043.6580346679	0.0144711267
3045.5868420409	0.0144690759
3047.5156494139	0.0143984687
3049.4444567870	0.0142476521
3051.3732641600	0.0142266862
3053.3020715331	0.0141201802
3055.2308789061	0.0139541794
3057.1596862792	0.0138996532
3059.0884936522	0.0139257060
3061.0173010253	0.0138298366
3062.9461083983	0.0136060361
3064.8749157714	0.0135442168
3066.8037231444	0.0135277454
3068.7325305175	0.0134668984
3070.6613378905	0.0133909360
3072.5901452636	0.0132977450
3074.5189526366	0.0131769041
3076.4477600097	0.0130745284
3078.3765673827	0.0130362976
3080.3053747557	0.0129314521
3082.2341821288	0.0128231216
3084.1629895018	0.0128340740
3086.0917968749	0.0127349244
3088.0206042479	0.0125781037
3089.9494116210	0.0126782870
3091.8782189940	0.0126179773
3093.8070263671	0.0124522857
3095.7358337401	0.0124784242
3097.6646411132	0.0123814009
3099.5934484862	0.0122543536
3101.5222558593	0.0121613666
3103.4510632323	0.0121521708
3105.3798706054	0.0121116182
3107.3086779784	0.0119408760
3109.2374853514	0.0118851215
3111.1662927245	0.0118627092
3113.0951000975	0.0117678754
3115.0239074706	0.0116534568
3116.9527148436	0.0116171101
3118.8815222167	0.0115978103
3120.8103295897	0.0115249027
3122.7391369628	0.0114028808
3124.6679443358	0.0113823693
3126.5967517089	0.0113746319
3128.5255590819	0.0112627540
3130.4543664550	0.0112838075
3132.3831738280	0.0111710997
3134.3119812011	0.0111355288
3136.2407885741	0.0111494428
3138.1695959471	0.0110040894
3140.0984033202	0.0111592673
3142.0272106932	0.0110250255
3143.9560180663	0.0107751098
3145.8848254393	0.0108998362
3147.8136328124	0.0108154891
3149.7424401854	0.0107224714
3151.6712475585	0.0106616570
3153.6000549315	0.0105585791
3155.5288623046	0.0106317811
3157.4576696776	0.0105961021
3159.3864770507	0.0105009163
3161.3152844237	0.0104822870
3163.2440917968	0.0104445303
3165.1728991698	0.0104249455
3167.1017065428	0.0104146805
3169.0305139159	0.0103814993
3170.9593212889	0.0102968272
3172.8881286620	0.0102754552
3174.8169360350	0.0102256481
3176.7457434081	0.0101416642
3178.6745507811	0.0101387370
3180.6033581542	0.0100793093
3182.5321655272	0.0101385098
3184.4609729003	0.0101514580
3186.3897802733	0.0100648263
3188.3185876464	0.0101194233
3190.2473950194	0.0101227704
3192.1762023925	0.0100172078
3194.1050097655	0.0099159945
3196.0338171386	0.0100046210
3197.9626245116	0.0099451840
3199.8914318846	0.0098414421
3201.8202392577	0.0100241657
3203.7490466307	0.0099720582
3205.6778540038	0.0099192765
3207.6066613768	0.0099433232
3209.5354687499	0.0098212007
3211.4642761229	0.0098992642
3213.3930834960	0.0099331066
3215.3218908690	0.0097780237
3217.2506982421	0.0098080346
3219.1795056151	0.0098739769
3221.1083129882	0.0098590543
3223.0371203612	0.0099487342
3224.9659277343	0.0098701771
3226.8947351073	0.0098542068
3228.8235424803	0.0100077763
3230.7523498534	0.0098759551
3232.6811572264	0.0098715927
3234.6099645995	0.0098773334
3236.5387719725	0.0097403079
3238.4675793456	0.0099224467
3240.3963867186	0.0099870283
3242.3251940917	0.0099800853
3244.2540014647	0.0099786613
3246.1828088378	0.0098608062
3248.1116162108	0.0100392122
3250.0404235839	0.0099801887
3251.9692309569	0.0098664667
3253.8980383300	0.0099909604
3255.8268457030	0.0099776145
3257.7556530760	0.0101323249
3259.6844604491	0.0100840349
3261.6132678221	0.0100638531
3263.5420751952	0.0101732351
3265.4708825682	0.0100947991
3267.3996899413	0.0101600271
3269.3284973143	0.0100725228
3271.2573046874	0.0100831017
3273.1861120604	0.0101309698
3275.1149194335	0.0101607228
3277.0437268065	0.0102897696
3278.9725341796	0.0101646818
3280.9013415526	0.0102201309
3282.8301489257	0.0102661289
3284.7589562987	0.0102119716
3286.6877636717	0.0102634076
3288.6165710448	0.0102624502
3290.5453784178	0.0102959312
3292.4741857909	0.0102722971
3294.4029931639	0.0102551654
3296.3318005370	0.0102842925
3298.2606079100	0.0102897696
3300.1894152831	0.0102179293
3302.1182226561	0.0102811884
3304.0470300292	0.0104826409
3305.9758374022	0.0104632694
3307.9046447753	0.0103654955
3309.8334521483	0.0103679840
3311.7622595214	0.0103952130
3313.6910668944	0.0104172276
3315.6198742675	0.0104744574
3317.5486816405	0.0104866093
3319.4774890135	0.0105379429
3321.4062963866	0.0105571486
3323.3351037596	0.0105111813
3325.2639111327	0.0105124330
3327.1927185057	0.0104786474
3329.1215258788	0.0105962325
3331.0503332518	0.0105942125
3332.9791406249	0.0106129199
3334.9079479979	0.0107661486
3336.8367553710	0.0106231682
3338.7655627440	0.0105721261
3340.6943701171	0.0106283296
3342.6231774901	0.0106671751
3344.5519848632	0.0107016936
3346.4807922362	0.0106783267
3348.4095996092	0.0107275583
3350.3384069823	0.0107628778
3352.2672143553	0.0108005619
3354.1960217284	0.0108119976
3356.1248291014	0.0108919255
3358.0536364745	0.0110011967
3359.9824438475	0.0108989673
3361.9112512206	0.0108618336
3363.8400585936	0.0109768026
3365.7688659667	0.0109879076
3367.6976733397	0.0110010067
3369.6264807128	0.0110229217
3371.5552880858	0.0110500306
3373.4840954589	0.0111645181
3375.4129028319	0.0111689754
3377.3417102049	0.0111349020
3379.2705175780	0.0112030152
3381.1993249510	0.0112863872
3383.1281323241	0.0113031566
3385.0569396971	0.0113585088
3386.9857470702	0.0113873333
3388.9145544432	0.0114256395
3390.8433618163	0.0115352049
3392.7721691893	0.0114693800
3394.7009765624	0.0115507953
3396.6297839354	0.0115949046
3398.5585913085	0.0116054490
3400.4873986815	0.0117611215
3402.4162060546	0.0117347054
3404.3450134276	0.0118363779
3406.2738208006	0.0118345134
3408.2026281737	0.0118639972
3410.1314355467	0.0120400926
3412.0602429198	0.0120851547
3413.9890502928	0.0121531263
3415.9178576659	0.0121228490
3417.8466650389	0.0121983252
3419.7754724120	0.0122696646
3421.7042797850	0.0122689884
3423.6330871581	0.0123555847
3425.5618945311	0.0124858152
3427.4907019042	0.0125175510
3429.4195092772	0.0125605129
3431.3483166503	0.0127301943
3433.2771240233	0.0127018951
3435.2059313963	0.0127168689
3437.1347387694	0.0127721755
3439.0635461424	0.0129173677
3440.9923535155	0.0129315276
3442.9211608885	0.0128761474
3444.8499682616	0.0130691007
3446.7787756346	0.0130307442
3448.7075830077	0.0132140955
3450.6363903807	0.0132355429
3452.5651977538	0.0131934602
3454.4940051268	0.0134888282
3456.4228124999	0.0134260841
3458.3516198729	0.0134707447
3460.2804272460	0.0135810254
3462.2092346190	0.0136508830
3464.1380419921	0.0137992147
3466.0668493651	0.0138344131
3467.9956567381	0.0137854088
3469.9244641112	0.0138533935
3471.8532714842	0.0139856152
3473.7820788573	0.0139574083
3475.7108862303	0.0141019234
3477.6396936034	0.0141069144
3479.5685009764	0.0140995700
3481.4973083495	0.0142545644
3483.4261157225	0.0143012218
3485.3549230956	0.0143937990
3487.2837304686	0.0144298822
3489.2125378417	0.0145586208
3491.1413452147	0.0146398861
3493.0701525878	0.0147172576
3494.9989599608	0.0148502011
3496.9277673338	0.0148279276
3498.8565747069	0.0149153722
3500.7853820799	0.0150230378
3502.7141894530	0.0149122067
3504.6429968260	0.0150404926
3506.5718041991	0.0153881814
3508.5006115721	0.0153367817
3510.4294189452	0.0153601458
3512.3582263182	0.0155156543
3514.2870336913	0.0155826518
3516.2158410643	0.0156090427
3518.1446484374	0.0156517886
3520.0734558104	0.0158803873
3522.0022631835	0.0157994833
3523.9310705565	0.0157761015
3525.8598779295	0.0158637837
3527.7886853026	0.0159176514
3529.7174926756	0.0160729773
3531.6463000487	0.0161829814
3533.5751074217	0.0164374392
3535.5039147948	0.0163940638
3537.4327221678	0.0163706392
3539.3615295409	0.0165840164
3541.2903369139	0.0166933201
3543.2191442870	0.0166665930
3545.1479516600	0.0163839515
3547.0767590331	0.0163824745
3549.0055664061	0.0168543253
3550.9343737792	0.0170146748
3552.8631811522	0.0168596897
3554.7919885252	0.0171558931
3556.7207958983	0.0172885247
3558.6496032713	0.0172801912
3560.5784106444	0.0173635315
3562.5072180174	0.0174090378
3564.4360253905	0.0175214857
3566.3648327635	0.0166984014
3568.2936401366	0.0164965577
3570.2224475096	0.0175332539
3572.1512548827	0.0177970715
3574.0800622557	0.0178030469
3576.0088696288	0.0179901831
3577.9376770018	0.0179602355
3579.8664843749	0.0180969276
3581.7952917479	0.0182196014
3583.7240991210	0.0182857458
3585.6529064940	0.0179683156
3587.5817138670	0.0169736370
3589.5105212401	0.0175275393
3591.4393286131	0.0187381413
3593.3681359862	0.0184015110
3595.2969433592	0.0182179008
3597.2257507323	0.0185176432
3599.1545581053	0.0186494403
3601.0833654784	0.0185886919
3603.0121728514	0.0188095868
3604.9409802245	0.0191471316
3606.8697875975	0.0187402237
3608.7985949706	0.0179230757
3610.7274023436	0.0183260255
3612.6562097167	0.0187833756
3614.5850170897	0.0184541829
3616.5138244627	0.0195428133
3618.4426318358	0.0184046235
3620.3714392088	0.0180416107
3622.3002465819	0.0199680608
3624.2290539549	0.0195619855
3626.1578613280	0.0202012882
3628.0866687010	0.0178579986
3630.0154760741	0.0168795437
3631.9442834471	0.0201403797
3633.8730908202	0.0197574385
3635.8018981932	0.0201672465
3637.7307055663	0.0205659643
3639.6595129393	0.0204104558
3641.5883203124	0.0206628144
3643.5171276854	0.0204904750
3645.4459350584	0.0207856670
3647.3747424315	0.0193631891
3649.3035498045	0.0182484016
3651.2323571776	0.0185947176
3653.1611645506	0.0213537365
3655.0899719237	0.0210388601
3657.0187792967	0.0194965713
3658.9475866698	0.0217791125
3660.8763940428	0.0214232169
3662.8052014159	0.0219590329
3664.7340087889	0.0219052136
3666.6628161620	0.0219553784
3668.5916235350	0.0215537250
3670.5204309081	0.0183867030
3672.4492382811	0.0216150731
3674.3780456541	0.0208668076
3676.3068530272	0.0181507245
3678.2356604002	0.0217650793
3680.1644677733	0.0221551470
3682.0932751463	0.0222125761
3684.0220825194	0.0228194967
3685.9508898924	0.0226102006
3687.8796972655	0.0207861476
3689.8085046385	0.0195293874
3691.7373120116	0.0217258465
3693.6661193846	0.0222398676
3695.5949267577	0.0226909127
3697.5237341307	0.0225589145
3699.4525415038	0.0224042609
3701.3813488768	0.0221551917
3703.3101562499	0.0214762930
3705.2389636229	0.0229868740
3707.1677709959	0.0221408717
3709.0965783690	0.0218053795
3711.0253857420	0.0206821263
3712.9541931151	0.0196582861
3714.8830004881	0.0222981256
3716.8118078612	0.0220907871
3718.7406152342	0.0221630968
3720.6694226073	0.0216496941
3722.5982299803	0.0211461931
3724.5270373534	0.0216770973
3726.4558447264	0.0204285868
3728.3846520995	0.0217966028
3730.3134594725	0.0214153267
3732.2422668456	0.0200431049
3734.1710742186	0.0197223984
3736.0998815916	0.0189759880
3738.0286889647	0.0197168756
3739.9574963377	0.0209762603
3741.8863037108	0.0217035580
3743.8151110838	0.0176390298
3745.7439184569	0.0170366578
3747.6727258299	0.0207648762
3749.6015332030	0.0183514357
3751.5303405760	0.0172874331
3753.4591479491	0.0191339403
3755.3879553221	0.0203499477
3757.3167626952	0.0209233798
3759.2455700682	0.0195716731
3761.1743774413	0.0201599989
3763.1031848143	0.0209743418
3765.0319921873	0.0198557228
3766.9607995604	0.0202345438
3768.8896069334	0.0199450366
3770.8184143065	0.0192731097
3772.7472216795	0.0204300508
3774.6760290526	0.0204360783
3776.6048364256	0.0203982405
3778.5336437987	0.0198343657
3780.4624511717	0.0193194710
3782.3912585448	0.0202668030
3784.3200659178	0.0198499355
3786.2488732909	0.0197141543
3788.1776806639	0.0199843943
3790.1064880370	0.0198555477
3792.0352954100	0.0197769422
3793.9641027830	0.0200637840
3795.8929101561	0.0189733692
3797.8217175291	0.0189456902
3799.7505249022	0.0194915272
3801.6793322752	0.0162490383
3803.6081396483	0.0186321288
3805.5369470213	0.0195176117
3807.4657543944	0.0167664066
3809.3945617674	0.0193463191
3811.3233691405	0.0189805049
3813.2521765135	0.0195053294
3815.1809838866	0.0177640952
3817.1097912596	0.0162955914
3819.0385986327	0.0192903969
3820.9674060057	0.0164341852
3822.8962133787	0.0172846541
3824.8250207518	0.0192113761
3826.7538281248	0.0177095495
3828.6826354979	0.0187789630
3830.6114428709	0.0182520188
3832.5402502440	0.0176196322
3834.4690576170	0.0179640856
3836.3978649901	0.0171634145
3838.3266723631	0.0158171467
3840.2554797362	0.0169574320
3842.1842871092	0.0178426839
3844.1130944823	0.0172252022
3846.0419018553	0.0181942359
3847.9707092284	0.0179794356
3849.8995166014	0.0179643445
3851.8283239745	0.0165137053
3853.7571313475	0.0133221056
3855.6859387205	0.0150129562
3857.6147460936	0.0179968979
3859.5435534666	0.0174276307
3861.4723608397	0.0173088908
3863.4011682127	0.0170118026
3865.3299755858	0.0160364155
3867.2587829588	0.0174976997
3869.1875903319	0.0161887743
3871.1163977049	0.0153754754
3873.0452050780	0.0173351802
3874.9740124510	0.0162808616
3876.9028198241	0.0173105393
3878.8316271971	0.0174102373
3880.7604345702	0.0155738704
3882.6892419432	0.0172313936
3884.6180493162	0.0163265429
3886.5468566893	0.0153248291
3888.4756640623	0.0172030032
3890.4044714354	0.0164175257
3892.3332788084	0.0157028921
3894.2620861815	0.0167520307
3896.1908935545	0.0168808792
3898.1197009276	0.0163415428
3900.0485083006	0.0156221921
3901.9773156737	0.0154835191
3903.9061230467	0.0152862314
3905.8349304198	0.0155375404
3907.7637377928	0.0165864713
3909.6925451659	0.0164505728
3911.6213525389	0.0163604058
3913.5501599119	0.0165635534
3915.4789672850	0.0162500702
3917.4077746580	0.0157695822
3919.3365820311	0.0156371053
3921.2653894041	0.0161419157
3923.1941967772	0.0160085373
3925.1230041502	0.0157387517
3927.0518115233	0.0158947445
3928.9806188963	0.0160118006
3930.9094262694	0.0157205928
3932.8382336424	0.0153799523
3934.7670410155	0.0157183707
3936.6958483885	0.0157372672
3938.6246557616	0.0157098882
3940.5534631346	0.0157605857
3942.4822705076	0.0153447669
3944.4110778807	0.0154303741
3946.3398852537	0.0156597402
3948.2686926268	0.0153329149
3950.1974999998	0.0152704371
3952.1263073729	0.0154554695
3954.0551147459	0.0154242655
3955.9839221190	0.0153707769
3957.9127294920	0.0152979549
3959.8415368651	0.0152557548
3961.7703442381	0.0150892772
3963.6991516112	0.0151723586
3965.6279589842	0.0152633740
3967.5567663573	0.0150253028
3969.4855737303	0.0150985857
3971.4143811034	0.0150705129
3973.3431884764	0.0150402654
3975.2719958494	0.0149867814
3977.2008032225	0.0148733556
3979.1296105955	0.0149153862
3981.0584179686	0.0148420427
3982.9872253416	0.0148619693
3984.9160327147	0.0147508290
3986.8448400877	0.0147188902
3988.7736474608	0.0146932732
3990.7024548338	0.0146108270
3992.6312622069	0.0146150477
3994.5600695799	0.0144939125
3996.4888769530	0.0144818071
3998.4176843260	0.0144293634
4000.3464916991	0.0145065403
4002.2752990721	0.0144422771
4004.2041064451	0.0143289845
4006.1329138182	0.0144204777
4008.0617211912	0.0142721841
4009.9905285643	0.0142592425
4011.9193359373	0.0142184366
4013.8481433104	0.0141573343
4015.7769506834	0.0141852628
4017.7057580565	0.0141504258
4019.6345654295	0.0141644012
4021.5633728026	0.0140004652
4023.4921801756	0.0139435129
4025.4209875487	0.0139728449
4027.3497949217	0.0138740772
4029.2786022948	0.0139182452
4031.2074096678	0.0139165856
4033.1362170408	0.0137606598
4035.0650244139	0.0137471352
4036.9938317869	0.0137634631
4038.9226391600	0.0137171671
4040.8514465330	0.0137151284
4042.7802539061	0.0136278719
4044.7090612791	0.0135832168
4046.6378686522	0.0136217400
4048.5666760252	0.0135437651
4050.4954833983	0.0134632792
4052.4242907713	0.0134669896
4054.3530981444	0.0134080462
4056.2819055174	0.0134062804
4058.2107128905	0.0134376027
4060.1395202635	0.0132758208
4062.0683276365	0.0132140592
4063.9971350096	0.0132863130
4065.9259423826	0.0132558234
4067.8547497557	0.0131713562
4069.7835571287	0.0131656658
4071.7123645018	0.0131941345
4073.6411718748	0.0130593795
4075.5699792479	0.0129763419
4077.4987866209	0.0129856952
4079.4275939940	0.0129235163
4081.3564013670	0.0129686855
4083.2852087401	0.0129575320
4085.2140161131	0.0128458906
4087.1428234862	0.0128447888
4089.0716308592	0.0128093073
4091.0004382323	0.0127854459
4092.9292456053	0.0127240401
4094.8580529783	0.0126916617
4096.7868603514	0.0127767278
4098.7156677244	0.0126802828
4100.6444750975	0.0125595368
4102.5732824705	0.0125110736
4104.5020898436	0.0125407949
4106.4308972166	0.0125238057
4108.3597045897	0.0124019459
4110.2885119627	0.0124194622
4112.2173193358	0.0124477241
4114.1461267088	0.0123689994
4116.0749340819	0.0122503238
4118.0037414549	0.0123150619
4119.9325488280	0.0122693712
4121.8613562010	0.0121624973
4123.7901635740	0.0122007001
4125.7189709471	0.0121813836
4127.6477783201	0.0122021884
4129.5765856932	0.0120637426
4131.5053930662	0.0120910630
4133.4342004393	0.0119939726
4135.3630078123	0.0118635632
4137.2918151854	0.0120372484
4139.2206225584	0.0119147096
4141.1494299315	0.0119714197
4143.0782373045	0.0119379377
4145.0070446776	0.0118473954
4146.9358520506	0.0118554495
4148.8646594237	0.0117605822
4150.7934667967	0.0118503161
4152.7222741697	0.0116822142
4154.6510815428	0.0116211027
4156.5798889158	0.0116982143
4158.5086962889	0.0116549619
4160.4375036619	0.0116161779
4162.3663110350	0.0115965605
4164.2951184080	0.0115804151
4166.2239257811	0.0115301516
4168.1527331541	0.0114957932
4170.0815405272	0.0113484468
4172.0103479002	0.0114757512
4173.9391552733	0.0114230998
4175.8679626463	0.0113715678
4177.7967700194	0.0114632007
4179.7255773924	0.0112106428
4181.6543847654	0.0112514887
4183.5831921385	0.0112252329
4185.5119995115	0.0112317931
4187.4408068846	0.0111898798
4189.3696142576	0.0110597135
4191.2984216307	0.0111710187
4193.2272290037	0.0111197624
4195.1560363768	0.0110978764
4197.0848437498	0.0109595433
4199.0136511229	0.0110235512
4200.9424584959	0.0110805929
4202.8712658690	0.0109301927
4204.8000732420	0.0109067271
4206.7288806151	0.0108894762
4208.6576879881	0.0109438160
4210.5864953611	0.0108344350
4212.5153027342	0.0108969025
4214.4441101072	0.0108290911
4216.3729174803	0.0106943958
4218.3017248533	0.0107814074
4220.2305322264	0.0106624998
4222.1593395994	0.0106509216
4224.0881469725	0.0106039606
4226.0169543455	0.0106061548
4227.9457617186	0.0106333867
4229.8745690916	0.0105956169
4231.8033764647	0.0105952825
4233.7321838377	0.0105128698
4235.6609912108	0.0104963509
4237.5897985838	0.0105012171
4239.5186059569	0.0104804691
4241.4474133299	0.0103839450
4243.3762207029	0.0103829820
4245.3050280760	0.0103476373
4247.2338354490	0.0102940183
4249.1626428221	0.0102896038
4251.0914501951	0.0102173854
4253.0202575682	0.0101748938
4254.9490649412	0.0101370020
4256.8778723143	0.0102770366
4258.8066796873	0.0101446835
4260.7354870604	0.0100158174
4262.6642944334	0.0101305014
4264.5931018065	0.0100569064
4266.5219091795	0.0100795142
4268.4507165526	0.0100426516
4270.3795239256	0.0099661853
4272.3083312986	0.0099041816
4274.2371386717	0.0099506415
4276.1659460447	0.0100183366
4278.0947534178	0.0099012731
4280.0235607908	0.0098413303
4281.9523681639	0.0098191127
4283.8811755369	0.0098296981
4285.8099829100	0.0097963838
4287.7387902830	0.0097888177
4289.6675976561	0.0097007584
4291.5964050291	0.0096765086
4293.5252124022	0.0096841212
4295.4540197752	0.0095712058
4297.3828271483	0.0096140113
4299.3116345213	0.0095623396
4301.2404418943	0.0095776524
4303.1692492674	0.0095708333
4305.0980566404	0.0095706824
4307.0268640135	0.0095837899
4308.9556713865	0.0094417389
4310.8844787596	0.0095146820
4312.8132861326	0.0094410097
4314.7420935057	0.0093947388
4316.6709008787	0.0094852746
4318.5997082518	0.0093794726
4320.5285156248	0.0092721963
4322.4573229979	0.0093044341
4324.3861303709	0.0093819005
4326.3149377440	0.0093273800
4328.2437451170	0.0092922840
4330.1725524900	0.0092900433
4332.1013598631	0.0092592593
4334.0301672361	0.0090908892
4335.9589746092	0.0090491083
4337.8877819822	0.0091083460
4339.8165893553	0.0090179350
4341.7453967283	0.0091141621
4343.6742041014	0.0091178082
4345.6030114744	0.0089974217
4347.5318188475	0.0089581348
4349.4606262205	0.0090099284
4351.3894335936	0.0089660604
4353.3182409666	0.0088204024
4355.2470483397	0.0088295816
4357.1758557127	0.0087899771
4359.1046630858	0.0088666696
4361.0334704588	0.0088284109
4362.9622778318	0.0087137315
4364.8910852049	0.0087759495
4366.8198925779	0.0087342747
4368.7486999510	0.0086776204
4370.6775073240	0.0086325062
4372.6063146971	0.0086713219
4374.5351220701	0.0086161857
4376.4639294432	0.0086047500
4378.3927368162	0.0086656380
4380.3215441893	0.0085937493
4382.2503515623	0.0086130574
4384.1791589354	0.0085340254
4386.1079663084	0.0085254367
4388.0367736815	0.0085262982
4389.9655810545	0.0083721839
4391.8943884275	0.0083970716
4393.8231958006	0.0084316619
4395.7520031736	0.0084135598
4397.6808105467	0.0083950572
4399.6096179197	0.0082833339
4401.5384252928	0.0082993284
4403.4672326658	0.0083074877
4405.3960400389	0.0081793647
4407.3248474119	0.0082472321
4409.2536547850	0.0082357060
4411.1824621580	0.0082490742
4413.1112695311	0.0083177201
4415.0400769041	0.0081692012
4416.9688842772	0.0081871944
4418.8976916502	0.0080987252
4420.8264990232	0.0080944803
4422.7553063963	0.0081711886
4424.6841137693	0.0079880487
4426.6129211424	0.0080435965
4428.5417285154	0.0080137309
4430.4705358885	0.0079663582
4432.3993432615	0.0080320742
4434.3281506346	0.0079331920
4436.2569580076	0.0079810694
4438.1857653807	0.0079199206
4440.1145727537	0.0078178905
4442.0433801268	0.0078982320
4443.9721874998	0.0078266114
4445.9009948729	0.0077685737
4447.8298022459	0.0077846032
4449.7586096189	0.0077616451
4451.6874169920	0.0077733947
4453.6162243650	0.0077619269
4455.5450317381	0.0077198208
4457.4738391111	0.0076740580
4459.4026464842	0.0076934849
4461.3314538572	0.0076838466
4463.2602612303	0.0076243095
4465.1890686033	0.0076168096
4467.1178759764	0.0075678164
4469.0466833494	0.0075710351
4470.9754907225	0.0075763254
4472.9042980955	0.0074872295
4474.8331054686	0.0074556875
4476.7619128416	0.0074883550
4478.6907202147	0.0074846717
4480.6195275877	0.0074958447
4482.5483349607	0.0074850656
4484.4771423338	0.0073998217
4486.4059497068	0.0073864218
4488.3347570799	0.0073492848
4490.2635644529	0.0073695630
4492.1923718260	0.0073577967
4494.1211791990	0.0072370833
4496.0499865721	0.0072856122
4497.9787939451	0.0073530991
4499.9076013182	0.0073273554
4501.8364086912	0.0071936827
4503.7652160643	0.0072369101
4505.6940234373	0.0073047401
4507.6228308104	0.0072106002
4509.5516381834	0.0072037755
4511.4804455564	0.0070764557
4513.4092529295	0.0071179075
4515.3380603025	0.0071588475
4517.2668676756	0.0070929723
4519.1956750486	0.0071144709
4521.1244824217	0.0070318189
4523.0532897947	0.0070302952
4524.9820971678	0.0069178138
4526.9109045408	0.0069395639
4528.8397119139	0.0069984016
4530.7685192869	0.0068527572
4532.6973266600	0.0069086114
4534.6261340330	0.0069069075
4536.5549414061	0.0069373082
4538.4837487791	0.0069781519
4540.4125561521	0.0068281260
4542.3413635252	0.0067916894
4544.2701708982	0.0067797722
4546.1989782713	0.0066906819
4548.1277856443	0.0067204298
4550.0565930174	0.0067350678
4551.9854003904	0.0067095188
4553.9142077635	0.0067835441
4555.8430151365	0.0067279218
4557.7718225096	0.0066978280
4559.7006298826	0.0066949371
4561.6294372557	0.0066129388
4563.5582446287	0.0066534476
4565.4870520018	0.0066283201
4567.4158593748	0.0065459544
4569.3446667478	0.0065006679
4571.2734741209	0.0064947451
4573.2022814939	0.0065228632
4575.1310888670	0.0064733261
4577.0598962400	0.0064065671
4578.9887036131	0.0064436076
4580.9175109861	0.0064595123
4582.8463183592	0.0064080418
4584.7751257322	0.0064741541
4586.7039331053	0.0064798896
4588.6327404783	0.0064158309
4590.5615478514	0.0063829524
4592.4903552244	0.0063402848
4594.4191625975	0.0063273739
4596.3479699705	0.0062780939
4598.2767773435	0.0062844427
4600.2055847166	0.0062208963
4602.1343920896	0.0061444361
4604.0631994627	0.0062118908
4605.9920068357	0.0061748424
4607.9208142088	0.0061842524
4609.8496215818	0.0062458459
4611.7784289549	0.0061873486
4613.7072363279	0.0061906958
4615.6360437010	0.0061448077
4617.5648510740	0.0060804281
4619.4936584471	0.0061146868
4621.4224658201	0.0060562016
4623.3512731932	0.0060551884
4625.2800805662	0.0060626669
4627.2088879393	0.0060182130
4629.1376953123	0.0060231099
4631.0665026853	0.0059557445
4632.9953100584	0.0059726313
4634.9241174314	0.0059845042
4636.8529248045	0.0059355060
4638.7817321775	0.0059194695
4640.7105395506	0.0058431122
4642.6393469236	0.0058523165
4644.5681542967	0.0059197554
4646.4969616697	0.0058680754
4648.4257690428	0.0058102151
4650.3545764158	0.0058665313
4652.2833837889	0.0058433786
4654.2121911619	0.0057590753
4656.1409985350	0.0057320730
4658.0698059080	0.0057403944
4659.9986132810	0.0057864413
4661.9274206541	0.0057564974
4663.8562280271	0.0056791045
4665.7850354002	0.0056523709
4667.7138427732	0.0057372628
4669.6426501463	0.0057186270
4671.5714575193	0.0056329314
4673.5002648924	0.0056353859
4675.4290722654	0.0055863825
4677.3578796385	0.0056199851
4679.2866870115	0.0055899261
4681.2154943846	0.0055750627
4683.1443017576	0.0056097480
4685.0731091307	0.0054973383
4687.0019165037	0.0054938691
4688.9307238767	0.0055232150
4690.8595312498	0.0054606139
4692.7883386228	0.0054199006
4694.7171459959	0.0054500243
4696.6459533689	0.0054194438
4698.5747607420	0.0054268702
4700.5035681150	0.0054516951
4702.4323754881	0.0053648325
4704.3611828611	0.0053827926
4706.2899902342	0.0053087687
4708.2187976072	0.0052872756
4710.1476049803	0.0053563411
4712.0764123533	0.0052960487
4714.0052197264	0.0053564524
4715.9340270994	0.0053697461
4717.8628344724	0.0052829878
4719.7916418455	0.0052733892
4721.7204492185	0.0052708057
4723.6492565916	0.0051814178
4725.5780639646	0.0051691486
4727.5068713377	0.0052869492
4729.4356787107	0.0052163233
4731.3644860838	0.0051318179
4733.2932934568	0.0052023921
4735.2221008299	0.0051726075
4737.1509082029	0.0051674130
4739.0797155760	0.0051933709
4741.0085229490	0.0050818743
4742.9373303221	0.0051182304
4744.8661376951	0.0051520122
4746.7949450682	0.0050087995
4748.7237524412	0.0049993554
4750.6525598142	0.0049962094
4752.5813671873	0.0049580587
4754.5101745603	0.0049895830
4756.4389819334	0.0049787038
4758.3677893064	0.0049746567
4760.2965966795	0.0049666017
4762.2254040525	0.0048860842
4764.1542114256	0.0049195653
4766.0830187986	0.0049594860
4768.0118261717	0.0048503689
4769.9406335447	0.0048543499
4771.8694409178	0.0048840586
4773.7982482908	0.0048087211
4775.7270556639	0.0047422135
4777.6558630369	0.0047703702
4779.5846704099	0.0048321001
4781.5134777830	0.0048179380
4783.4422851560	0.0047569191
4785.3710925291	0.0047391625
4787.2998999021	0.0048168395
4789.2287072752	0.0047570206
4791.1575146482	0.0047056973
4793.0863220213	0.0047247447
4795.0151293943	0.0046924958
4796.9439367674	0.0047334828
4798.8727441404	0.0047027576
4800.8015515135	0.0046534678
4802.7303588865	0.0046238378
4804.6591662596	0.0046734959
4806.5879736326	0.0046579787
4808.5167810056	0.0045772460
4810.4455883787	0.0045825331
4812.3743957517	0.0045535481
4814.3032031248	0.0046673417
4816.2320104978	0.0046050157
4818.1608178709	0.0044985362
4820.0896252439	0.0045438893
4822.0184326170	0.0045199934
4823.9472399900	0.0045386953
4825.8760473631	0.0044793934
4827.8048547361	0.0044931467
4829.7336621092	0.0045020226
4831.6624694822	0.0044553103
4833.5912768553	0.0044221198
4835.5200842283	0.0044329208
4837.4488916013	0.0044602863
4839.3776989744	0.0044318317
4841.3065063474	0.0044543142
4843.2353137205	0.0043472764
4845.1641210935	0.0043904507
4847.0929284666	0.0043522092
4849.0217358396	0.0042931461
4850.9505432127	0.0043881908
4852.8793505857	0.0042258203
4854.8081579588	0.0042905211
4856.7369653318	0.0042585456
4858.6657727049	0.0042063021
4860.5945800779	0.0044313665
4862.5233874510	0.0043775393
4864.4521948240	0.0042631524
4866.3810021971	0.0042629689
4868.3098095701	0.0042256070
4870.2386169431	0.0042033996
4872.1674243162	0.0043003019
4874.0962316892	0.0042140884
4876.0250390623	0.0041558710
4877.9538464353	0.0041971346
4879.8826538084	0.0041425996
4881.8114611814	0.0041975128
4883.7402685545	0.0041168220
4885.6690759275	0.0040974924
4887.5978833006	0.0040489635
4889.5266906736	0.0039857887
4891.4554980467	0.0040239329
4893.3843054197	0.0039692149
4895.3131127928	0.0040813098
4897.2419201658	0.0040841103
4899.1707275388	0.0040511223
4901.0995349119	0.0040347753
4903.0283422849	0.0039592586
4904.9571496580	0.0039842874
4906.8859570310	0.0039638034
4908.8147644041	0.0039525819
4910.7435717771	0.0039261580
4912.6723791502	0.0039621005
4914.6011865232	0.0039719329
4916.5299938963	0.0038951696
4918.4588012693	0.0038923901
4920.3876086424	0.0039406065
4922.3164160154	0.0039022253
4924.2452233885	0.0037716895
4926.1740307615	0.0037683703
4928.1028381345	0.0038170558
4930.0316455076	0.0038680341
4931.9604528806	0.0038889027
4933.8892602537	0.0038592652
4935.8180676267	0.0037777501
4937.7468749998	0.0037589781
4939.6756823728	0.0038196223
4941.6044897459	0.0037477822
4943.5332971189	0.0037497680
4945.4621044920	0.0036937362
4947.3909118650	0.0036282248
4949.3197192381	0.0037358333
4951.2485266111	0.0037556225
4953.1773339842	0.0036630360
4955.1061413572	0.0035905843
4957.0349487302	0.0036995888
4958.9637561033	0.0037607970
4960.8925634763	0.0036756517
4962.8213708494	0.0036189999
4964.7501782224	0.0036836020
4966.6789855955	0.0037049823
4968.6077929685	0.0035939422
4970.5366003416	0.0036261845
4972.4654077146	0.0035935063
4974.3942150877	0.0035596974
4976.3230224607	0.0036033061
4978.2518298338	0.0035519581
4980.1806372068	0.0035629822
4982.1094445799	0.0035429159
4984.0382519529	0.0035322320
4985.9670593259	0.0035350027
4987.8958666990	0.0034677705
4989.8246740720	0.0034887467
4991.7534814451	0.0034791939
4993.6822888181	0.0034218328
4995.6110961912	0.0035111983
4997.5399035642	0.0035058188
4999.4687109373	0.0034210435
5001.3975183103	0.0034367465
5003.3263256834	0.0033937129
5005.2551330564	0.0033883417
5007.1839404295	0.0033997977
5009.1127478025	0.0034212926
5011.0415551756	0.0034411079
5012.9703625486	0.0033850484
5014.8991699217	0.0033612433
5016.8279772947	0.0033487701
5018.7567846677	0.0033902712
5020.6855920408	0.0033588400
5022.6143994138	0.0032944623
5024.5432067869	0.0033480581
5026.4720141599	0.0033249035
5028.4008215330	0.0032804282
5030.3296289060	0.0033557601
5032.2584362791	0.0033028985
5034.1872436521	0.0032001103
5036.1160510252	0.0032908367
5038.0448583982	0.0032355015
5039.9736657713	0.0032123574
5041.9024731443	0.0033207680
5043.8312805174	0.0032492175
5045.7600878904	0.0032254120
5047.6888952634	0.0032308735
5049.6177026365	0.0031945449
5051.5465100095	0.0032067392
5053.4753173826	0.0032202387
5055.4041247556	0.0031738384
5057.3329321287	0.0031790915
5059.2617395017	0.0031648471
5061.1905468748	0.0030802237
5063.1193542478	0.0031248466
5065.0481616209	0.0030809855
5066.9769689939	0.0030833459
5068.9057763670	0.0031526210
5070.8345837400	0.0030748788
5072.7633911131	0.0030667488
5074.6921984861	0.0031067496
5076.6210058591	0.0031078733
5078.5498132322	0.0030291819
5080.4786206052	0.0030364427
5082.4074279783	0.0030915772
5084.3362353513	0.0030406462
5086.2650427244	0.0030491762
5088.1938500974	0.0030585085
5090.1226574705	0.0030392925
5092.0514648435	0.0030099433
5093.9802722166	0.0029412434
5095.9090795896	0.0029509868
5097.8378869627	0.0029970966
5099.7666943357	0.0029421856
5101.6955017088	0.0029312475
5103.6243090818	0.0029367148
5105.5531164548	0.0029110434
5107.4819238279	0.0029191016
5109.4107312009	0.0029270281
5111.3395385740	0.0029592481
5113.2683459470	0.0028720798
5115.1971533201	0.0028927748
5117.1259606931	0.0029392755
5119.0547680662	0.0028325976
5120.9835754392	0.0028757078
5122.9123828123	0.0028538830
5124.8411901853	0.0028233165
5126.7699975584	0.0028807633
5128.6988049314	0.0028564166
5130.6276123045	0.0028360947
5132.5564196775	0.0028366426
5134.4852270506	0.0027798978
5136.4140344236	0.0028068884
5138.3428417966	0.0028381846
5140.2716491697	0.0026605490
5142.2004565427	0.0026918412
5144.1292639158	0.0027494465
5146.0580712888	0.0027240189
5147.9868786619	0.0027717762
5149.9156860349	0.0026984394
5151.8444934080	0.0027436153
5153.7733007810	0.0027084081
5155.7021081541	0.0026918082
5157.6309155271	0.0027386532
5159.5597229002	0.0026569457
5161.4885302732	0.0026723696
5163.4173376463	0.0026282724
5165.3461450193	0.0026087072
5167.2749523923	0.0025931213
5169.2037597654	0.0025720592
5171.1325671384	0.0026468639
5173.0613745115	0.0026712604
5174.9901818845	0.0026720837
5176.9189892576	0.0026472367
5178.8477966306	0.0026349176
5180.7766040037	0.0026547438
5182.7054113767	0.0026453445
5184.6342187498	0.0025839955
5186.5630261228	0.0025814318
5188.4918334959	0.0025467793
5190.4206408689	0.0025051299
5192.3494482420	0.0025854527
5194.2782556150	0.0026073451
5196.2070629880	0.0026061672
5198.1358703611	0.0025884337
5200.0646777341	0.0025818148
5201.9934851072	0.0025418685
5203.9222924802	0.0025140913
5205.8510998533	0.0025346172
5207.7799072263	0.0024593761
5209.7087145994	0.0024664407
5211.6375219724	0.0025168590
5213.5663293455	0.0025545969
5215.4951367185	0.0024827225
5217.4239440916	0.0024174755
5219.3527514646	0.0024620635
5221.2815588377	0.0023995424
5223.2103662107	0.0024526147
5225.1391735837	0.0024560359
5227.0679809568	0.0023724162
5228.9967883298	0.0024479735
5230.9255957029	0.0024589370
5232.8544030759	0.0024115504
5234.7832104490	0.0024522012
5236.7120178220	0.0024668337
5238.6408251951	0.0023992481
5240.5696325681	0.0023695328
5242.4984399412	0.0023288229
5244.4272473142	0.0023594694
5246.3560546873	0.0024110735
5248.2848620603	0.0023345470
5250.2136694334	0.0022943590
5252.1424768064	0.0023249432
5254.0712841795	0.0023374851
5256.0000915525	0.0022667293
5257.9288989255	0.0023169657
5259.8577062986	0.0023655500
5261.7865136716	0.0022931811
5263.7153210447	0.0023020175
5265.6441284177	0.0022748641
5267.5729357908	0.0023379787
5269.5017431638	0.0023412690
5271.4305505369	0.0022497494
5273.3593579099	0.0023126379
5275.2881652830	0.0023274079
5277.2169726560	0.0023282617
5279.1457800291	0.0022832821
5281.0745874021	0.0022671358
5283.0033947752	0.0023381677
5284.9322021482	0.0022876651
5286.8610095212	0.0022643567
5288.7898168943	0.0022314866
5290.7186242673	0.0021638132
5292.6474316404	0.0021660975
5294.5762390134	0.0021615294
5296.5050463865	0.0021801675
5298.4338537595	0.0022073765
5300.3626611326	0.0022161424
5302.2914685056	0.0021771705
5304.2202758787	0.0021486161
5306.1490832517	0.0021696081
5308.0778906248	0.0021636023
5310.0066979978	0.0021730475
5311.9355053709	0.0021426943
5313.8643127439	0.0021428652
5315.7931201169	0.0021921271
5317.7219274900	0.0021700573
5319.6507348630	0.0021543826
5321.5795422361	0.0021383644
5323.5083496091	0.0021260185
5325.4371569822	0.0021386435
5327.3659643552	0.0021474743
5329.2947717283	0.0020868494
5331.2235791013	0.0020717711
5333.1523864744	0.0021310635
5335.0811938474	0.0020795944
5337.0100012205	0.0020817751
5338.9388085935	0.0020710039
5340.8676159666	0.0020463297
5342.7964233396	0.0021086535
5344.7252307126	0.0020521237
5346.6540380857	0.0019972874
5348.5828454587	0.0019955540
5350.5116528318	0.0020202398
5352.4404602048	0.0020172696
5354.3692675779	0.0019733733
5356.2980749509	0.0020566345
5358.2268823240	0.0020472696
5360.1556896970	0.0019593441
5362.0844970701	0.0020573689
5364.0133044431	0.0020575114
5365.9421118162	0.0019505658
5367.8709191892	0.0020245325
5369.7997265623	0.0020241935
5371.7285339353	0.0019530263
5373.6573413083	0.0019951719
5375.5861486814	0.0019619111
5377.5149560544	0.0019129287
5379.4437634275	0.0019693302
5381.3725708005	0.0019962310
5383.3013781736	0.0019600790
5385.2301855466	0.0019338658
5387.1589929197	0.0018924526
5389.0878002927	0.0019308527
5391.0166076658	0.0019738779
5392.9454150388	0.0018954023
5394.8742224119	0.0018587662
5396.8030297849	0.0019072482
5398.7318371580	0.0019617707
5400.6606445310	0.0018843380
5402.5894519041	0.0018678408
5404.5182592771	0.0019057067
5406.4470666501	0.0018472865
5408.3758740232	0.0018593236
5410.3046813962	0.0018504316
5412.2334887693	0.0018813850
5414.1622961423	0.0018070886
5416.0911035154	0.0017619182
5418.0199108884	0.0019283260
5419.9487182615	0.0018938195
5421.8775256345	0.0018042574
5423.8063330076	0.0017835173
5425.7351403806	0.0018266246
5427.6639477537	0.0018094513
5429.5927551267	0.0017232531
5431.5215624998	0.0017672654
5433.4503698728	0.0017258755
5435.3791772458	0.0016863616
5437.3079846189	0.0017292481
5439.2367919919	0.0017816080
5441.1655993650	0.0017513582
5443.0944067380	0.0017019676
5445.0232141111	0.0017404839
5446.9520214841	0.0016878801
5448.8808288572	0.0017004618
5450.8096362302	0.0017620447
5452.7384436033	0.0017635764
5454.6672509763	0.0017616677
5456.5960583494	0.0017912809
5458.5248657224	0.0018217119
5460.4536730955	0.0017125513
5462.3824804685	0.0017116145
5464.3112878415	0.0017832515
5466.2400952146	0.0017038649
5468.1689025876	0.0016805166
5470.0977099607	0.0017031425
5472.0265173337	0.0016689637
5473.9553247068	0.0017031899
5475.8841320798	0.0017115925
5477.8129394529	0.0016108888
5479.7417468259	0.0016095428
5481.6705541990	0.0016348229
5483.5993615720	0.0015882996
5485.5281689451	0.0015943513
5487.4569763181	0.0016503404
5489.3857836912	0.0016635380
5491.3145910642	0.0016460794
5493.2433984372	0.0016444207
5495.1722058103	0.0015816644
5497.1010131833	0.0015561879
5499.0298205564	0.0016051357
5500.9586279294	0.0015841252
5502.8874353025	0.0015589409
5504.8162426755	0.0015928540
5506.7450500486	0.0016209282
5508.6738574216	0.0016303293
5510.6026647947	0.0016022946
5512.5314721677	0.0015726748
5514.4602795408	0.0016032751
5516.3890869138	0.0015671463
5518.3178942869	0.0015598005
5520.2467016599	0.0015790672
5522.1755090330	0.0015318381
5524.1043164060	0.0015642282
5526.0331237790	0.0015513413
5527.9619311521	0.0015728283
5529.8907385251	0.0015734627
5531.8195458982	0.0015243846
5533.7483532712	0.0015730946
5535.6771606443	0.0015040662
5537.6059680173	0.0015353283
5539.5347753904	0.0015450645
5541.4635827634	0.0014441760
5543.3923901365	0.0015322880
5545.3211975095	0.0015579364
5547.2500048826	0.0015124092
5549.1788122556	0.0014502220
5551.1076196287	0.0014431254
5553.0364270017	0.0014950405
5554.9652343747	0.0014525363
5556.8940417478	0.0014367094
5558.8228491208	0.0014643734
5560.7516564939	0.0014770732
5562.6804638669	0.0014103227
5564.6092712400	0.0014319345
5566.5380786130	0.0014614325
5568.4668859861	0.0013981147
5570.3956933591	0.0014651604
5572.3245007322	0.0014404480
5574.2533081052	0.0013873407
5576.1821154783	0.0014115823
5578.1109228513	0.0014180586
5580.0397302244	0.0014659168
5581.9685375974	0.0014610058
5583.8973449704	0.0014502895
5585.8261523435	0.0014511410
5587.7549597165	0.0014142643
5589.6837670896	0.0013936226
5591.6125744626	0.0014212755
5593.5413818357	0.0013421865
5595.4701892087	0.0013506011
5597.3989965818	0.0014692973
5599.3278039548	0.0013445506
5601.2566113279	0.0013926974
5603.1854187009	0.0014092330
5605.1142260740	0.0012770745
5607.0430334470	0.0013990285
5608.9718408201	0.0014057006
5610.9006481931	0.0013875987
5612.8294555661	0.0013572413
5614.7582629392	0.0013283468
5616.6870703122	0.0013506601
5618.6158776853	0.0012544198
5620.5446850583	0.0013117231
5622.4734924314	0.0013306614
5624.4022998044	0.0013188813
5626.3311071775	0.0013590925
5628.2599145505	0.0012931023
5630.1887219236	0.0012787839
5632.1175292966	0.0012920187
5634.0463366697	0.0013599512
5635.9751440427	0.0013434786
5637.9039514158	0.0012488550
5639.8327587888	0.0012975035
5641.7615661619	0.0013202205
5643.6903735349	0.0012554574
5645.6191809079	0.0012462205
5647.5479882810	0.0013002995
5649.4767956540	0.0012722546
5651.4056030271	0.0012674027
5653.3344104001	0.0013206616
5655.2632177732	0.0012889535
5657.1920251462	0.0012681347
5659.1208325193	0.0012416563
5661.0496398923	0.0012642362
5662.9784472654	0.0012570811
5664.9072546384	0.0011841841
5666.8360620115	0.0012400143
5668.7648693845	0.0012037561
5670.6936767576	0.0011624980
5672.6224841306	0.0011885181
5674.5512915036	0.0011792574
5676.4800988767	0.0012149811
5678.4089062497	0.0011895713
5680.3377136228	0.0012703452
5682.2665209958	0.0012571476
5684.1953283689	0.0011320681
5686.1241357419	0.0012020050
5688.0529431150	0.0012086567
5689.9817504880	0.0011876094
5691.9105578611	0.0011949331
5693.8393652341	0.0012159385
5695.7681726072	0.0011729642
5697.6969799802	0.0011324384
5699.6257873533	0.0011836766
5701.5545947263	0.0011401940
5703.4834020993	0.0011578680
5705.4122094724	0.0011308604
5707.3410168454	0.0011423227
5709.2698242185	0.0011748176
5711.1986315915	0.0011214277
5713.1274389646	0.0011801262
5715.0562463376	0.0011270489
5716.9850537107	0.0011131894
5718.9138610837	0.0011218369
5720.8426684568	0.0010984046
5722.7714758298	0.0010966926
5724.7002832029	0.0010838442
5726.6290905759	0.0011739333
5728.5578979490	0.0011069602
5730.4867053220	0.0011214416
5732.4155126950	0.0011629043
5734.3443200681	0.0010694615
5736.2731274411	0.0011236753
5738.2019348142	0.0011327515
5740.1307421872	0.0011152842
5742.0595495603	0.0010871140
5743.9883569333	0.0010472594
5745.9171643064	0.0010702582
5747.8459716794	0.0010769556
5749.7747790525	0.0010746187
5751.7035864255	0.0010984924
5753.6323937986	0.0011053274
5755.5612011716	0.0010293926
5757.4900085447	0.0010078989
5759.4188159177	0.0010544041
5761.3476232907	0.0010657792
5763.2764306638	0.0010134429
5765.2052380368	0.0010416119
5767.1340454099	0.0011123256
5769.0628527829	0.0010230069
5770.9916601560	0.0009875183
5772.9204675290	0.0009989897
5774.8492749021	0.0009670753
5776.7780822751	0.0010211354
5778.7068896482	0.0010562933
5780.6356970212	0.0010183379
5782.5645043943	0.0010383581
5784.4933117673	0.0010700857
5786.4221191404	0.0010424865
5788.3509265134	0.0010194735
5790.2797338865	0.0010088105
5792.2085412595	0.0009828591
5794.1373486325	0.0009514104
5796.0661560056	0.0009945817
5797.9949633786	0.0009768541
5799.9237707517	0.0009431388
5801.8525781247	0.0010063825
5803.7813854978	0.0009669711
5805.7101928708	0.0009244687
5807.6390002439	0.0009543563
5809.5678076169	0.0009325866
5811.4966149900	0.0009047822
5813.4254223630	0.0009793093
5815.3542297361	0.0009059161
5817.2830371091	0.0008427630
5819.2118444822	0.0009787700
5821.1406518552	0.0009627526
5823.0694592282	0.0010145085
5824.9982666013	0.0009987954
5826.9270739743	0.0009230544
5828.8558813474	0.0009251924
5830.7846887204	0.0009206323
5832.7134960935	0.0009835309
5834.6423034665	0.0008483267
5836.5711108396	0.0009344279
5838.4999182126	0.0009641910
5840.4287255857	0.0008492116
5842.3575329587	0.0009615759
5844.2863403318	0.0009066230
5846.2151477048	0.0009385459
5848.1439550779	0.0008619098
5850.0727624509	0.0008621251
5852.0015698239	0.0009641121
5853.9303771970	0.0008820542
5855.8591845700	0.0009290280
5857.7879919431	0.0008421085
5859.7167993161	0.0008551572
5861.6456066892	0.0008721398
5863.5744140622	0.0008536511
5865.5032214353	0.0009360967
5867.4320288083	0.0009079281
5869.3608361814	0.0008956505
5871.2896435544	0.0007964051
5873.2184509275	0.0008805058
5875.1472583005	0.0008767606
5877.0760656736	0.0007599433
5879.0048730466	0.0008841148
5880.9336804196	0.0008425929
5882.8624877927	0.0008135666
5884.7912951657	0.0008279999
5886.7201025388	0.0008430746
5888.6489099118	0.0008888392
5890.5777172849	0.0008253052
5892.5065246579	0.0008297185
5894.4353320310	0.0008411345
5896.3641394040	0.0008317163
5898.2929467771	0.0008317836
5900.2217541501	0.0008094753
5902.1505615232	0.0007937070
5904.0793688962	0.0007985961
5906.0081762693	0.0007966095
5907.9369836423	0.0007255871
5909.8657910154	0.0007221234
5911.7945983884	0.0007799213
5913.7234057614	0.0008164328
5915.6522131345	0.0008694559
5917.5810205075	0.0008153410
5919.5098278806	0.0007352314
5921.4386352536	0.0007675097
5923.3674426267	0.0007901734
5925.2962499997	0.0007584100
5927.2250573728	0.0007426902
5929.1538647458	0.0007772838
5931.0826721189	0.0007987735
5933.0114794919	0.0008089847
5934.9402868650	0.0008033041
5936.8690942380	0.0007717781
5938.7979016111	0.0007423823
5940.7267089841	0.0007357456
5942.6555163571	0.0007603713
5944.5843237302	0.0007219336
5946.5131311032	0.0007190407
5948.4419384763	0.0007290138
5950.3707458493	0.0007272176
5952.2995532224	0.0007862672
5954.2283605954	0.0007775543
5956.1571679685	0.0007527309
5958.0859753415	0.0007584853
5960.0147827146	0.0007348633
5961.9435900876	0.0006484705
5963.8723974607	0.0007206232
5965.8012048337	0.0007617042
5967.7300122068	0.0006945645
5969.6588195798	0.0008191529
5971.5876269528	0.0007380756
5973.5164343259	0.0007101563
5975.4452416989	0.0007781913
5977.3740490720	0.0007081477
5979.3028564450	0.0007429649
5981.2316638181	0.0006925597
5983.1604711911	0.0007249702
5985.0892785642	0.0007563462
5987.0180859372	0.0007160640
5988.9468933103	0.0006849682
5990.8757006833	0.0007012002
5992.8045080564	0.0007437232
5994.7333154294	0.0006413909
5996.6621228025	0.0007282220
5998.5909301755	0.0007313184
6000.5197375485	0.0006949623
