399.2631262207	0.0002543767
401.1919335938	0.0006511175
403.1207409668	0.0002405465
405.0495483398	0.0000501440
406.9783557129	0.0007229093
408.9071630859	0.0003436297
410.8359704590	0.0004004651
412.7647778320	0.0004967412
414.6935852051	0.0000038124
416.6223925781	0.0004680952
418.5511999512	0.0004571243
420.4800073242	0.0000845284
422.4088146973	-0.0000605139
424.3376220703	0.0001925730
426.2664294434	0.0007407613
428.1952368164	0.0002798624
430.1240441895	-0.0000608780
432.0528515625	0.0002596437
433.9816589355	0.0007755287
435.9104663086	0.0008663111
437.8392736816	0.0003965821
439.7680810547	0.0004856634
441.6968884277	0.0006698552
443.6256958008	0.0007155162
445.5545031738	0.0003225505
447.4833105469	0.0001778590
449.4121179199	0.0006977700
451.3409252930	0.0000803131
453.2697326660	0.0001489603
455.1985400391	0.0007711708
457.1273474121	0.0001831372
459.0561547852	0.0002931465
460.9849621582	0.0003957951
462.9137695313	0.0003116021
464.8425769043	0.0002811998
466.7713842773	0.0001105844
468.7001916504	0.0006239169
470.6289990234	0.0004824529
472.5578063965	0.0002448663
474.4866137695	0.0001734764
476.4154211426	0.0000445120
478.3442285156	0.0003741932
480.2730358887	0.0001756360
482.2018432617	-0.0000263784
484.1306506348	-0.0001192134
486.0594580078	0.0003184866
487.9882653809	0.0007898608
489.9170727539	0.0002615507
491.8458801270	0.0000002862
493.7746875000	0.0000453857
495.7034948730	0.0003063487
497.6323022461	0.0003674967
499.5611096191	0.0001310509
501.4899169922	0.0001468181
503.4187243652	0.0001058255
505.3475317383	0.0002184616
507.2763391113	0.0000188361
509.2051464844	-0.0001312476
511.1339538574	0.0002940231
513.0627612305	0.0003212496
514.9915686035	0.0002583074
516.9203759766	0.0005591023
518.8491833496	0.0005511374
520.7779907227	0.0004497374
522.7067980957	0.0003696671
524.6356054688	-0.0000542861
526.5644128418	0.0000036519
528.4932202148	0.0002899449
530.4220275879	0.0001870087
532.3508349609	0.0002533428
534.2796423340	0.0002457752
536.2084497070	0.0000995055
538.1372570801	0.0002067974
540.0660644531	0.0004339918
541.9948718262	0.0003977680
543.9236791992	0.0003120568
545.8524865723	0.0004016707
547.7812939453	0.0002095822
549.7101013184	0.0002059515
551.6389086914	0.0004258752
553.5677160645	0.0001209762
555.4965234375	0.0001438509
557.4253308105	0.0003092956
559.3541381836	0.0000889069
561.2829455566	0.0003037885
563.2117529297	0.0002827272
565.1405603027	0.0001068248
567.0693676758	0.0001887021
568.9981750488	0.0002161866
570.9269824219	0.0000398361
572.8557897949	-0.0001192697
574.7845971680	0.0003878832
576.7134045410	0.0003365790
578.6422119141	0.0000353551
580.5710192871	0.0000873132
582.4998266602	0.0000518963
584.4286340332	0.0000941396
586.3574414063	0.0001753549
588.2862487793	0.0006127256
590.2150561523	0.0002763763
592.1438635254	0.0000948888
594.0726708984	0.0001730827
596.0014782715	0.0000137485
597.9302856445	0.0002203487
599.8590930176	-0.0002810353
601.7879003906	-0.0000359844
603.7167077637	0.0003254995
605.6455151367	-0.0001582506
607.5743225098	-0.0000340183
609.5031298828	-0.0000306467
611.4319372559	0.0003171471
613.3607446289	0.0001449328
615.2895520020	-0.0000046683
617.2183593750	-0.0000809992
619.1471667480	-0.0001681897
621.0759741211	0.0000762223
623.0047814941	-0.0000350935
624.9335888672	-0.0002926621
626.8623962402	-0.0002161041
628.7912036133	0.0001819600
630.7200109863	0.0000182529
632.6488183594	0.0001255613
634.5776257324	0.0004205256
636.5064331055	0.0003630700
638.4352404785	0.0004261098
640.3640478516	0.0004753620
642.2928552246	0.0008327123
644.2216625977	0.0007133175
646.1504699707	0.0005345492
648.0792773438	0.0007912812
650.0080847168	0.0006234460
651.9368920898	0.0007228118
653.8656994629	0.0009719589
655.7945068359	0.0009937818
657.7233142090	0.0008681559
659.6521215820	0.0008130398
661.5809289551	0.0010772928
663.5097363281	0.0011626841
665.4385437012	0.0012876149
667.3673510742	0.0012516368
669.2961584473	0.0012983487
671.2249658203	0.0015835578
673.1537731934	0.0016206049
675.0825805664	0.0017943988
677.0113879395	0.0015274258
678.9401953125	0.0015019306
680.8690026855	0.0017494812
682.7978100586	0.0016508813
684.7266174316	0.0017680888
686.6554248047	0.0014212104
688.5842321777	0.0017635655
690.5130395508	0.0019645370
692.4418469238	0.0015838883
694.3706542969	0.0020595756
696.2994616699	0.0019350555
698.2282690430	0.0023579109
700.1570764160	0.0028264900
702.0858837891	0.0024753166
704.0146911621	0.0023847320
705.9434985352	0.0019842163
707.8723059082	0.0019571315
709.8011132813	0.0013886862
711.7299206543	0.0008421077
713.6587280273	0.0007491325
715.5875354004	0.0003509581
717.5163427734	0.0006311764
719.4451501465	0.0003409476
721.3739575195	0.0003550564
723.3027648926	0.0003937355
725.2315722656	-0.0001772497
727.1603796387	0.0004008829
729.0891870117	0.0004067529
731.0179943848	0.0000198511
732.9468017578	0.0002067697
734.8756091309	0.0000648361
736.8044165039	0.0000827764
738.7332238770	0.0003794704
740.6620312500	0.0001553639
742.5908386230	0.0000800701
744.5196459961	0.0006522496
746.4484533691	0.0003259384
748.3772607422	0.0000264217
750.3060681152	0.0005336604
752.2348754883	0.0002453192
754.1636828613	0.0002385998
756.0924902344	0.0004230401
758.0212976074	0.0002161889
759.9501049805	0.0004154733
761.8789123535	0.0000624591
763.8077197266	0.0001474614
765.7365270996	0.0004160560
767.6653344727	0.0003043755
769.5941418457	0.0004697569
771.5229492188	0.0000296065
773.4517565918	0.0002443201
775.3805639648	0.0003862717
777.3093713379	0.0000019720
779.2381787109	0.0004621622
781.1669860840	0.0003144760
783.0957934570	0.0003146628
785.0246008301	0.0005343123
786.9534082031	0.0004043130
788.8822155762	0.0005355225
790.8110229492	0.0001953260
792.7398303223	0.0000376763
794.6686376953	0.0002107625
796.5974450684	0.0004092476
798.5262524414	0.0005140213
800.4550598145	0.0005348338
802.3838671875	0.0006022472
804.3126745605	0.0003137364
806.2414819336	0.0003356376
808.1702893066	0.0002987504
810.0990966797	0.0002144687
812.0279040527	0.0003399978
813.9567114258	0.0000812868
815.8855187988	0.0002279964
817.8143261719	0.0002510739
819.7431335449	0.0002015111
821.6719409180	0.0005605244
823.6007482910	0.0003325808
825.5295556641	0.0004475512
827.4583630371	0.0005535959
829.3871704102	0.0003899748
831.3159777832	0.0010103113
833.2447851563	0.0008496173
835.1735925293	0.0005660281
837.1023999023	0.0008146036
839.0312072754	0.0007910339
840.9600146484	0.0011096621
842.8888220215	0.0006787731
844.8176293945	0.0006524542
846.7464367676	0.0008988912
848.6752441406	0.0002349252
850.6040515137	0.0007277046
852.5328588867	0.0009096945
854.4616662598	0.0003144890
856.3904736328	0.0004137768
858.3192810059	0.0005123129
860.2480883789	0.0003443511
862.1768957520	0.0002704978
864.1057031250	0.0002949765
866.0345104980	0.0004014274
867.9633178711	0.0006865469
869.8921252441	0.0004561502
871.8209326172	0.0003277278
873.7497399902	0.0003701219
875.6785473633	0.0003344209
877.6073547363	0.0003885134
879.5361621094	0.0003245054
881.4649694824	0.0003414531
883.3937768555	0.0002727115
885.3225842285	0.0004300687
887.2513916016	0.0004235175
889.1801989746	0.0005023691
891.1090063477	0.0005839373
893.0378137207	0.0004565777
894.9666210938	0.0004375616
896.8954284668	0.0002063757
898.8242358398	0.0002694033
900.7530432129	0.0003124036
902.6818505859	0.0002896651
904.6106579590	0.0005220408
906.5394653320	0.0005338041
908.4682727051	0.0004105308
910.3970800781	0.0004841402
912.3258874512	0.0003822786
914.2546948242	0.0002930098
916.1835021973	0.0005085381
918.1123095703	0.0007554520
920.0411169434	0.0007146123
921.9699243164	0.0007116953
923.8987316895	0.0009474051
925.8275390625	0.0008767559
927.7563464355	0.0009664649
929.6851538086	0.0010831316
931.6139611816	0.0010191817
933.5427685547	0.0011131372
935.4715759277	0.0012388453
937.4003833008	0.0013583732
939.3291906738	0.0013190708
941.2579980469	0.0014837210
943.1868054199	0.0015138068
945.1156127930	0.0012794191
947.0444201660	0.0013435755
948.9732275391	0.0012915739
950.9020349121	0.0012762097
952.8308422852	0.0012766932
954.7596496582	0.0011870902
956.6884570313	0.0014398298
958.6172644043	0.0014421148
960.5460717773	0.0012427808
962.4748791504	0.0015593176
964.4036865234	0.0014736224
966.3324938965	0.0011711160
968.2613012695	0.0014576402
970.1901086426	0.0016385585
972.1189160156	0.0019490351
974.0477233887	0.0017912667
975.9765307617	0.0015355579
977.9053381348	0.0018935651
979.8341455078	0.0018439480
981.7629528809	0.0022995193
983.6917602539	0.0024727792
985.6205676270	0.0025290744
987.5493750000	0.0032486436
989.4781823730	0.0030828030
991.4069897461	0.0033949383
993.3357971191	0.0040774685
995.2646044922	0.0043380675
997.1934118652	0.0046827858
999.1222192383	0.0049351184
1001.0510266113	0.0054327399
1002.9798339844	0.0056604426
1004.9086413574	0.0061481204
1006.8374487305	0.0067308703
1008.7662561035	0.0068103103
1010.6950634766	0.0071688928
1012.6238708496	0.0075103492
1014.5526782227	0.0077346456
1016.4814855957	0.0081005814
1018.4102929688	0.0086229444
1020.3391003418	0.0087807933
1022.2679077148	0.0090468265
1024.1967150879	0.0096778031
1026.1255224609	0.0097683147
1028.0543298340	0.0101751816
1029.9831372070	0.0106489491
1031.9119445801	0.0107872896
1033.8407519531	0.0110986810
1035.7695593262	0.0112093128
1037.6983666992	0.0112781664
1039.6271740723	0.0111793829
1041.5559814453	0.0110585373
1043.4847888184	0.0111704404
1045.4135961914	0.0110850018
1047.3424035645	0.0106121637
1049.2712109375	0.0104722045
1051.2000183105	0.0105307670
1053.1288256836	0.0099877296
1055.0576330566	0.0099243447
1056.9864404297	0.0098270150
1058.9152478027	0.0093784072
1060.8440551758	0.0093902964
1062.7728625488	0.0088213291
1064.7016699219	0.0084347101
1066.6304772949	0.0083632050
1068.5592846680	0.0077572744
1070.4880920410	0.0075080828
1072.4168994141	0.0071459319
1074.3457067871	0.0065815495
1076.2745141602	0.0064355657
1078.2033215332	0.0061799381
1080.1321289062	0.0059719062
1082.0609362793	0.0056062378
1083.9897436523	0.0051805149
1085.9185510254	0.0052348757
1087.8473583984	0.0049085161
1089.7761657715	0.0047047469
1091.7049731445	0.0045440635
1093.6337805176	0.0041035460
1095.5625878906	0.0042704665
1097.4913952637	0.0040917909
1099.4202026367	0.0038981177
1101.3490100098	0.0040016552
1103.2778173828	0.0038141799
1105.2066247559	0.0037073405
1107.1354321289	0.0036506359
1109.0642395019	0.0037259362
1110.9930468750	0.0035850438
1112.9218542480	0.0035674609
1114.8506616211	0.0035948283
1116.7794689941	0.0033174213
1118.7082763672	0.0033730878
1120.6370837402	0.0035454216
1122.5658911133	0.0036120727
1124.4946984863	0.0035197488
1126.4235058594	0.0034923903
1128.3523132324	0.0036034947
1130.2811206055	0.0037354613
1132.2099279785	0.0037833047
1134.1387353516	0.0038292962
1136.0675427246	0.0040672249
1137.9963500977	0.0041450053
1139.9251574707	0.0043890011
1141.8539648437	0.0046979962
1143.7827722168	0.0050161234
1145.7115795898	0.0054686195
1147.6403869629	0.0055901939
1149.5691943359	0.0057914453
1151.4980017090	0.0061654015
1153.4268090820	0.0065144557
1155.3556164551	0.0068603447
1157.2844238281	0.0069091930
1159.2132312012	0.0069991276
1161.1420385742	0.0074839760
1163.0708459473	0.0076238988
1164.9996533203	0.0076751639
1166.9284606934	0.0081486842
1168.8572680664	0.0083836494
1170.7860754394	0.0087423529
1172.7148828125	0.0092226267
1174.6436901855	0.0093376897
1176.5724975586	0.0095946845
1178.5013049316	0.0099018011
1180.4301123047	0.0100040371
1182.3589196777	0.0106786806
1184.2877270508	0.0113779269
1186.2165344238	0.0113952486
1188.1453417969	0.0119154584
1190.0741491699	0.0125599373
1192.0029565430	0.0130822603
1193.9317639160	0.0137297530
1195.8605712891	0.0142039070
1197.7893786621	0.0150262024
1199.7181860351	0.0156847946
1201.6469934082	0.0160972066
1203.5758007812	0.0166260786
1205.5046081543	0.0173441358
1207.4334155273	0.0180792306
1209.3622229004	0.0186309908
1211.2910302734	0.0191731863
1213.2198376465	0.0195780434
1215.1486450195	0.0201353282
1217.0774523926	0.0202892050
1219.0062597656	0.0204875432
1220.9350671387	0.0211552456
1222.8638745117	0.0213527232
1224.7926818848	0.0214113537
1226.7214892578	0.0214714110
1228.6502966308	0.0216872003
1230.5791040039	0.0217837878
1232.5079113769	0.0216354560
1234.4367187500	0.0216808375
1236.3655261230	0.0217276532
1238.2943334961	0.0215974525
1240.2231408691	0.0213930756
1242.1519482422	0.0215023439
1244.0807556152	0.0215033460
1246.0095629883	0.0213681851
1247.9383703613	0.0211448669
1249.8671777344	0.0208538603
1251.7959851074	0.0208293609
1253.7247924805	0.0206180550
1255.6535998535	0.0203167610
1257.5824072266	0.0199649557
1259.5112145996	0.0195722561
1261.4400219726	0.0193464831
1263.3688293457	0.0192581862
1265.2976367187	0.0190496668
1267.2264440918	0.0187340677
1269.1552514648	0.0184600800
1271.0840588379	0.0181213170
1273.0128662109	0.0179667361
1274.9416735840	0.0175973121
1276.8704809570	0.0172169916
1278.7992883301	0.0168972015
1280.7280957031	0.0165887084
1282.6569030762	0.0164639167
1284.5857104492	0.0159716047
1286.5145178223	0.0156483613
1288.4433251953	0.0153016336
1290.3721325683	0.0150637254
1292.3009399414	0.0151083712
1294.2297473144	0.0150003554
1296.1585546875	0.0149380676
1298.0873620605	0.0146572078
1300.0161694336	0.0148616899
1301.9449768066	0.0148767186
1303.8737841797	0.0146567104
1305.8025915527	0.0152270533
1307.7313989258	0.0152918082
1309.6602062988	0.0153972656
1311.5890136719	0.0159445945
1313.5178210449	0.0160279311
1315.4466284180	0.0163899250
1317.3754357910	0.0168433264
1319.3042431640	0.0171147175
1321.2330505371	0.0177006237
1323.1618579101	0.0181219578
1325.0906652832	0.0185546391
1327.0194726562	0.0190823525
1328.9482800293	0.0195195042
1330.8770874023	0.0201418363
1332.8058947754	0.0205526985
1334.7347021484	0.0208396427
1336.6635095215	0.0209225863
1338.5923168945	0.0207549073
1340.5211242676	0.0211267509
1342.4499316406	0.0218365416
1344.3787390137	0.0219002888
1346.3075463867	0.0218905769
1348.2363537597	0.0220873281
1350.1651611328	0.0217615962
1352.0939685058	0.0217412189
1354.0227758789	0.0215560347
1355.9515832519	0.0211067032
1357.8803906250	0.0212085247
1359.8091979980	0.0209645629
1361.7380053711	0.0200433210
1363.6668127441	0.0197964236
1365.5956201172	0.0205561593
1367.5244274902	0.0201466512
1369.4532348633	0.0200667195
1371.3820422363	0.0202396363
1373.3108496094	0.0191779844
1375.2396569824	0.0193564929
1377.1684643555	0.0196111202
1379.0972717285	0.0195915289
1381.0260791015	0.0195436180
1382.9548864746	0.0193633400
1384.8836938476	0.0194608700
1386.8125012207	0.0187108926
1388.7413085937	0.0190334115
1390.6701159668	0.0204270892
1392.5989233398	0.0199523903
1394.5277307129	0.0187111944
1396.4565380859	0.0197444409
1398.3853454590	0.0197483450
1400.3141528320	0.0194567107
1402.2429602051	0.0208638199
1404.1717675781	0.0196590126
1406.1005749512	0.0199896321
1408.0293823242	0.0206092801
1409.9581896972	0.0197606459
1411.8869970703	0.0202057548
1413.8158044433	0.0194028318
1415.7446118164	0.0198401790
1417.6734191894	0.0181326903
1419.6022265625	0.0163761415
1421.5310339355	0.0185161959
1423.4598413086	0.0178581309
1425.3886486816	0.0172029119
1427.3174560547	0.0175046958
1429.2462634277	0.0163407512
1431.1750708008	0.0158985481
1433.1038781738	0.0162561499
1435.0326855469	0.0147545040
1436.9614929199	0.0127909724
1438.8903002929	0.0142082404
1440.8191076660	0.0143167861
1442.7479150390	0.0135180047
1444.6767224121	0.0141219730
1446.6055297851	0.0132133923
1448.5343371582	0.0132390922
1450.4631445312	0.0134173864
1452.3919519043	0.0136660300
1454.3207592773	0.0143150911
1456.2495666504	0.0123321861
1458.1783740234	0.0128228273
1460.1071813965	0.0161413662
1462.0359887695	0.0169628449
1463.9647961426	0.0171280243
1465.8936035156	0.0177145470
1467.8224108886	0.0199974850
1469.7512182617	0.0212908611
1471.6800256347	0.0192470495
1473.6088330078	0.0204152148
1475.5376403808	0.0229420885
1477.4664477539	0.0245264750
1479.3952551269	0.0264254510
1481.3240625000	0.0270069838
1483.2528698730	0.0286397971
1485.1816772461	0.0293246470
1487.1104846191	0.0290447138
1489.0392919922	0.0288407579
1490.9680993652	0.0292051453
1492.8969067383	0.0333270691
1494.8257141113	0.0324839205
1496.7545214843	0.0297100209
1498.6833288574	0.0331062675
1500.6121362304	0.0340389907
1502.5409436035	0.0361982882
1504.4697509765	0.0341376811
1506.3985583496	0.0261570439
1508.3273657226	0.0313676782
1510.2561730957	0.0356580690
1512.1849804687	0.0348593704
1514.1137878418	0.0371346138
1516.0425952148	0.0337581784
1517.9714025879	0.0352218971
1519.9002099609	0.0337708816
1521.8290173340	0.0301476680
1523.7578247070	0.0355813801
1525.6866320801	0.0347915292
1527.6154394531	0.0348854735
1529.5442468261	0.0377694964
1531.4730541992	0.0363359340
1533.4018615722	0.0337289572
1535.3306689453	0.0354675353
1537.2594763183	0.0371774510
1539.1882836914	0.0282263644
1541.1170910644	0.0294352919
1543.0458984375	0.0339219868
1544.9747058105	0.0329307392
1546.9035131836	0.0377591699
1548.8323205566	0.0355984271
1550.7611279297	0.0365041941
1552.6899353027	0.0359879136
1554.6187426758	0.0331387669
1556.5475500488	0.0349457487
1558.4763574218	0.0260052383
1560.4051647949	0.0279109739
1562.3339721679	0.0374500416
1564.2627795410	0.0353490971
1566.1915869140	0.0363001600
1568.1203942871	0.0358454585
1570.0492016601	0.0322332233
1571.9780090332	0.0363180861
1573.9068164062	0.0363123640
1575.8356237793	0.0296551567
1577.7644311523	0.0330106840
1579.6932385254	0.0368794575
1581.6220458984	0.0350676961
1583.5508532715	0.0356498584
1585.4796606445	0.0353732519
1587.4084680175	0.0354213789
1589.3372753906	0.0351237059
1591.2660827636	0.0349213555
1593.1948901367	0.0350245312
1595.1236975097	0.0347078070
1597.0525048828	0.0348537341
1598.9813122558	0.0345709994
1600.9101196289	0.0347713456
1602.8389270019	0.0341290906
1604.7677343750	0.0344585069
1606.6965417480	0.0340276547
1608.6253491211	0.0338615328
1610.5541564941	0.0338983722
1612.4829638672	0.0341776162
1614.4117712402	0.0343861803
1616.3405786132	0.0290035848
1618.2693859863	0.0312861353
1620.1981933593	0.0357245021
1622.1270007324	0.0324062556
1624.0558081054	0.0326051787
1625.9846154785	0.0341996513
1627.9134228515	0.0344522670
1629.8422302246	0.0344152227
1631.7710375976	0.0367278829
1633.6998449707	0.0343159698
1635.6286523437	0.0294981711
1637.5574597168	0.0341765620
1639.4862670898	0.0373404846
1641.4150744629	0.0369679406
1643.3438818359	0.0380824320
1645.2726892090	0.0351736397
1647.2014965820	0.0321511552
1649.1303039550	0.0391997471
1651.0591113281	0.0372759476
1652.9879187011	0.0260018241
1654.9167260742	0.0346440077
1656.8455334472	0.0422115177
1658.7743408203	0.0407696478
1660.7031481933	0.0422872081
1662.6319555664	0.0393956304
1664.5607629394	0.0417353436
1666.4895703125	0.0446272492
1668.4183776855	0.0401496738
1670.3471850586	0.0396469906
1672.2759924316	0.0443430319
1674.2047998047	0.0417794660
1676.1336071777	0.0407244787
1678.0624145507	0.0461483747
1679.9912219238	0.0451218709
1681.9200292968	0.0449648947
1683.8488366699	0.0376164839
1685.7776440429	0.0378620178
1687.7064514160	0.0498464853
1689.6352587890	0.0441279784
1691.5640661621	0.0483496636
1693.4928735351	0.0489754528
1695.4216809082	0.0375936106
1697.3504882812	0.0452568941
1699.2792956543	0.0404794365
1701.2081030273	0.0375811532
1703.1369104004	0.0489269011
1705.0657177734	0.0453598499
1706.9945251464	0.0459355265
1708.9233325195	0.0493068993
1710.8521398925	0.0475677289
1712.7809472656	0.0484738052
1714.7097546386	0.0455121621
1716.6385620117	0.0411958545
1718.5673693847	0.0409439467
1720.4961767578	0.0473669991
1722.4249841308	0.0486718602
1724.3537915039	0.0460256264
1726.2825988769	0.0488878861
1728.2114062500	0.0456273928
1730.1402136230	0.0461574234
1732.0690209961	0.0444675013
1733.9978283691	0.0356652215
1735.9266357421	0.0428901389
1737.8554431152	0.0464570895
1739.7842504882	0.0420897380
1741.7130578613	0.0451968089
1743.6418652343	0.0457186401
1745.5706726074	0.0457919315
1747.4994799804	0.0461361669
1749.4282873535	0.0440999120
1751.3570947265	0.0425867364
1753.2859020996	0.0465791151
1755.2147094726	0.0480142571
1757.1435168457	0.0444999859
1759.0723242187	0.0481479689
1761.0011315918	0.0453767478
1762.9299389648	0.0442973152
1764.8587463379	0.0495541692
1766.7875537109	0.0449873134
1768.7163610839	0.0454144552
1770.6451684570	0.0449623540
1772.5739758300	0.0411407650
1774.5027832031	0.0452008024
1776.4315905761	0.0469680950
1778.3603979492	0.0464325957
1780.2892053222	0.0458804928
1782.2180126953	0.0460248180
1784.1468200683	0.0460041538
1786.0756274414	0.0451077968
1788.0044348144	0.0469620898
1789.9332421875	0.0458129235
1791.8620495605	0.0420628339
1793.7908569336	0.0434432849
1795.7196643066	0.0459841788
1797.6484716796	0.0454748794
1799.5772790527	0.0448140204
1801.5060864257	0.0440955013
1803.4348937988	0.0451592468
1805.3637011718	0.0459061265
1807.2925085449	0.0453328118
1809.2213159179	0.0452641323
1811.1501232910	0.0442043245
1813.0789306640	0.0454582311
1815.0077380371	0.0454254039
1816.9365454101	0.0448994562
1818.8653527832	0.0452214107
1820.7941601562	0.0447768383
1822.7229675293	0.0452608764
1824.6517749023	0.0429142192
1826.5805822753	0.0440818518
1828.5093896484	0.0438633710
1830.4381970214	0.0416143984
1832.3670043945	0.0446114168
1834.2958117675	0.0442417786
1836.2246191406	0.0441343859
1838.1534265136	0.0438245684
1840.0822338867	0.0440185405
1842.0110412597	0.0438326560
1843.9398486328	0.0397115611
1845.8686560058	0.0419208780
1847.7974633789	0.0436290503
1849.7262707519	0.0428228378
1851.6550781250	0.0437396541
1853.5838854980	0.0431665182
1855.5126928710	0.0433043092
1857.4415002441	0.0427828133
1859.3703076171	0.0428517163
1861.2991149902	0.0428975858
1863.2279223632	0.0422294140
1865.1567297363	0.0425251871
1867.0855371093	0.0412492044
1869.0143444824	0.0398685187
1870.9431518554	0.0411307476
1872.8719592285	0.0423250869
1874.8007666015	0.0416459888
1876.7295739746	0.0417661667
1878.6583813476	0.0416644700
1880.5871887207	0.0414059535
1882.5159960937	0.0415188447
1884.4448034667	0.0408898443
1886.3736108398	0.0412690304
1888.3024182128	0.0405389033
1890.2312255859	0.0398990102
1892.1600329589	0.0408198312
1894.0888403320	0.0403627083
1896.0176477050	0.0402001813
1897.9464550781	0.0404678211
1899.8752624511	0.0403368324
1901.8040698242	0.0401677079
1903.7328771972	0.0398678780
1905.6616845703	0.0400257744
1907.5904919433	0.0395734683
1909.5192993164	0.0393994823
1911.4481066894	0.0394196324
1913.3769140625	0.0393985286
1915.3057214355	0.0397641957
1917.2345288085	0.0380535275
1919.1633361816	0.0381746218
1921.0921435546	0.0393212885
1923.0209509277	0.0380482003
1924.9497583007	0.0387253910
1926.8785656738	0.0389233083
1928.8073730468	0.0385760367
1930.7361804199	0.0389297754
1932.6649877929	0.0383207574
1934.5937951660	0.0384433530
1936.5226025390	0.0381187350
1938.4514099121	0.0383568183
1940.3802172851	0.0382334180
1942.3090246582	0.0372230038
1944.2378320312	0.0377290472
1946.1666394042	0.0378166288
1948.0954467773	0.0376457348
1950.0242541503	0.0377197154
1951.9530615234	0.0376670361
1953.8818688964	0.0377023108
1955.8106762695	0.0376291238
1957.7394836425	0.0375793390
1959.6682910156	0.0374696106
1961.5970983886	0.0374296382
1963.5259057617	0.0374248885
1965.4547131347	0.0372491106
1967.3835205078	0.0367314443
1969.3123278808	0.0369318128
1971.2411352539	0.0371677168
1973.1699426269	0.0367889106
1975.0987499999	0.0368042551
1977.0275573730	0.0367294513
1978.9563647460	0.0367687792
1980.8851721191	0.0365276933
1982.8139794921	0.0363955237
1984.7427868652	0.0364381969
1986.6715942382	0.0360638797
1988.6004016113	0.0362622216
1990.5292089843	0.0358516648
1992.4580163574	0.0354126021
1994.3868237304	0.0358504131
1996.3156311035	0.0357821807
1998.2444384765	0.0357692614
2000.1732458496	0.0357550979
2002.1020532226	0.0355030634
2004.0308605956	0.0354468375
2005.9596679687	0.0352141038
2007.8884753417	0.0351398103
2009.8172827148	0.0350712985
2011.7460900878	0.0348504707
2013.6748974609	0.0348787308
2015.6037048339	0.0345893875
2017.5325122070	0.0344103612
2019.4613195800	0.0345087461
2021.3901269531	0.0343552008
2023.3189343261	0.0343869850
2025.2477416992	0.0342244580
2027.1765490722	0.0340079181
2029.1053564453	0.0340392105
2031.0341638183	0.0338382013
2032.9629711914	0.0336927027
2034.8917785644	0.0336163305
2036.8205859374	0.0335358232
2038.7493933105	0.0334970206
2040.6782006835	0.0333207995
2042.6070080566	0.0332193226
2044.5358154296	0.0332404040
2046.4646228027	0.0331771709
2048.3934301757	0.0330240354
2050.3222375488	0.0329877287
2052.2510449218	0.0329092219
2054.1798522949	0.0326079018
2056.1086596679	0.0326434746
2058.0374670410	0.0327056497
2059.9662744140	0.0325177498
2061.8950817871	0.0325448141
2063.8238891601	0.0323273428
2065.7526965331	0.0320764706
2067.6815039062	0.0321453139
2069.6103112792	0.0321088359
2071.5391186523	0.0319280699
2073.4679260253	0.0318834856
2075.3967333984	0.0319914222
2077.3255407714	0.0318407975
2079.2543481445	0.0317230113
2081.1831555175	0.0317196772
2083.1119628906	0.0315954089
2085.0407702636	0.0315004066
2086.9695776367	0.0314166248
2088.8983850097	0.0313437805
2090.8271923828	0.0312347375
2092.7559997558	0.0311754197
2094.6848071288	0.0310627166
2096.6136145019	0.0311025418
2098.5424218749	0.0311725065
2100.4712292480	0.0309579745
2102.4000366210	0.0309877060
2104.3288439941	0.0308954865
2106.2576513671	0.0305824149
2108.1864587402	0.0306466036
2110.1152661132	0.0307035260
2112.0440734863	0.0305826105
2113.9728808593	0.0305865202
2115.9016882324	0.0304082111
2117.8304956054	0.0302747637
2119.7593029785	0.0304003637
2121.6881103515	0.0302382391
2123.6169177245	0.0301876776
2125.5457250976	0.0302743074
2127.4745324706	0.0302042849
2129.4033398437	0.0301499777
2131.3321472167	0.0300027356
2133.2609545898	0.0300258137
2135.1897619628	0.0300934371
2137.1185693359	0.0298243947
2139.0473767089	0.0297636762
2140.9761840820	0.0299649704
2142.9049914550	0.0297862105
2144.8337988281	0.0296724327
2146.7626062011	0.0296793133
2148.6914135742	0.0297793634
2150.6202209472	0.0298921987
2152.5490283203	0.0294963028
2154.4778356933	0.0295004677
2156.4066430663	0.0296284072
2158.3354504394	0.0294493511
2160.2642578124	0.0293261744
2162.1930651855	0.0293297246
2164.1218725585	0.0293890201
2166.0506799316	0.0290989168
2167.9794873046	0.0292368699
2169.9082946777	0.0292831957
2171.8371020507	0.0292056631
2173.7659094238	0.0293542519
2175.6947167968	0.0290610399
2177.6235241699	0.0291005448
2179.5523315429	0.0290196352
2181.4811389160	0.0289487988
2183.4099462890	0.0290368013
2185.3387536620	0.0288285948
2187.2675610351	0.0289359745
2189.1963684081	0.0288013089
2191.1251757812	0.0287028067
2193.0539831542	0.0288239475
2194.9827905273	0.0286059380
2196.9115979003	0.0286236834
2198.8404052734	0.0287036337
2200.7692126464	0.0285269041
2202.6980200195	0.0285914950
2204.6268273925	0.0285812467
2206.5556347656	0.0283735152
2208.4844421386	0.0283079408
2210.4132495117	0.0283675212
2212.3420568847	0.0284631364
2214.2708642577	0.0282265991
2216.1996716308	0.0282411799
2218.1284790038	0.0283553191
2220.0572863769	0.0282272734
2221.9860937499	0.0283023939
2223.9149011230	0.0281636305
2225.8437084960	0.0280967765
2227.7725158691	0.0280560330
2229.7013232421	0.0279594194
2231.6301306152	0.0278872568
2233.5589379882	0.0278722569
2235.4877453613	0.0279593971
2237.4165527343	0.0277324729
2239.3453601074	0.0276578553
2241.2741674804	0.0276220590
2243.2029748534	0.0275738202
2245.1317822265	0.0274994224
2247.0605895995	0.0274847932
2248.9893969726	0.0275173523
2250.9182043456	0.0272985771
2252.8470117187	0.0274092518
2254.7758190917	0.0272839703
2256.7046264648	0.0272058956
2258.6334338378	0.0272782557
2260.5622412109	0.0271534305
2262.4910485839	0.0271434337
2264.4198559570	0.0269362070
2266.3486633300	0.0270061754
2268.2774707031	0.0269644894
2270.2062780761	0.0268766545
2272.1350854491	0.0268754419
2274.0638928222	0.0267822742
2275.9927001952	0.0268637948
2277.9215075683	0.0267425422
2279.8503149413	0.0267431792
2281.7791223144	0.0265407003
2283.7079296874	0.0265451036
2285.6367370605	0.0267390441
2287.5655444335	0.0264315382
2289.4943518066	0.0263768416
2291.4231591796	0.0263550133
2293.3519665527	0.0262650046
2295.2807739257	0.0261780117
2297.2095812988	0.0260177217
2299.1383886718	0.0258574039
2301.0671960449	0.0258208681
2302.9960034179	0.0257776678
2304.9248107909	0.0253838040
2306.8536181640	0.0252287239
2308.7824255370	0.0250602886
2310.7112329101	0.0246701743
2312.6400402831	0.0244424623
2314.5688476562	0.0242128205
2316.4976550292	0.0239394214
2318.4264624023	0.0236169547
2320.3552697753	0.0232190490
2322.2840771484	0.0227719434
2324.2128845214	0.0224539619
2326.1416918945	0.0222054459
2328.0704992675	0.0219510347
2329.9993066406	0.0216213018
2331.9281140136	0.0214522630
2333.8569213866	0.0214084908
2335.7857287597	0.0210726224
2337.7145361327	0.0210496932
2339.6433435058	0.0210941471
2341.5721508788	0.0211063661
2343.5009582519	0.0214711316
2345.4297656249	0.0218351521
2347.3585729980	0.0229484141
2349.2873803710	0.0237964429
2351.2161877441	0.0228263959
2353.1449951171	0.0215072483
2355.0738024902	0.0205950141
2357.0026098632	0.0198449641
2358.9314172363	0.0194073208
2360.8602246093	0.0192472227
2362.7890319823	0.0192897506
2364.7178393554	0.0193321705
2366.6466467284	0.0196109228
2368.5754541015	0.0200781934
2370.5042614745	0.0205784291
2372.4330688476	0.0211949758
2374.3618762206	0.0218290947
2376.2906835937	0.0225028675
2378.2194909667	0.0230444521
2380.1482983398	0.0234822407
2382.0771057128	0.0237196740
2384.0059130859	0.0239588358
2385.9347204589	0.0241103619
2387.8635278320	0.0239888933
2389.7923352050	0.0241417810
2391.7211425780	0.0239826031
2393.6499499511	0.0237849262
2395.5787573241	0.0238557272
2397.5075646972	0.0236864127
2399.4363720702	0.0237639360
2401.3651794433	0.0238134060
2403.2939868163	0.0237456001
2405.2227941894	0.0237361845
2407.1516015624	0.0236363467
2409.0804089355	0.0235876068
2411.0092163085	0.0235227868
2412.9380236816	0.0234060064
2414.8668310546	0.0233751629
2416.7956384277	0.0234183837
2418.7244458007	0.0233578719
2420.6532531738	0.0233299024
2422.5820605468	0.0232508425
2424.5108679198	0.0231557097
2426.4396752929	0.0230997298
2428.3684826659	0.0229459442
2430.2972900390	0.0229954254
2432.2260974120	0.0231295843
2434.1549047851	0.0230782405
2436.0837121581	0.0229429379
2438.0125195312	0.0228628144
2439.9413269042	0.0228229724
2441.8701342773	0.0228627659
2443.7989416503	0.0227650888
2445.7277490234	0.0226762407
2447.6565563964	0.0227066353
2449.5853637695	0.0225003213
2451.5141711425	0.0225687288
2453.4429785155	0.0225217137
2455.3717858886	0.0223365910
2457.3005932616	0.0224085506
2459.2294006347	0.0222923867
2461.1582080077	0.0222765692
2463.0870153808	0.0222254880
2465.0158227538	0.0222210865
2466.9446301269	0.0221575201
2468.8734374999	0.0220531486
2470.8022448730	0.0220712405
2472.7310522460	0.0219469182
2474.6598596191	0.0220880695
2476.5886669921	0.0220336691
2478.5174743652	0.0219293013
2480.4462817382	0.0219923742
2482.3750891112	0.0218531676
2484.3038964843	0.0217955001
2486.2327038573	0.0216824543
2488.1615112304	0.0216462240
2490.0903186034	0.0216531120
2492.0191259765	0.0215725191
2493.9479333495	0.0214948133
2495.8767407226	0.0214178599
2497.8055480956	0.0214037895
2499.7343554687	0.0214345418
2501.6631628417	0.0214149188
2503.5919702148	0.0213066824
2505.5207775878	0.0212571137
2507.4495849609	0.0211505592
2509.3783923339	0.0211209692
2511.3071997069	0.0211425722
2513.2360070800	0.0210743062
2515.1648144530	0.0209747348
2517.0936218261	0.0209290311
2519.0224291991	0.0209889933
2520.9512365722	0.0208655819
2522.8800439452	0.0208320804
2524.8088513183	0.0208020024
2526.7376586913	0.0207499973
2528.6664660644	0.0207207724
2530.5952734374	0.0205525719
2532.5240808105	0.0206470005
2534.4528881835	0.0205968693
2536.3816955566	0.0204671640
2538.3105029296	0.0205035359
2540.2393103027	0.0204982962
2542.1681176757	0.0204795115
2544.0969250487	0.0203745291
2546.0257324218	0.0203779228
2547.9545397948	0.0203100480
2549.8833471679	0.0201981291
2551.8121545409	0.0202017110
2553.7409619140	0.0201908667
2555.6697692870	0.0201090295
2557.5985766601	0.0201112442
2559.5273840331	0.0201742463
2561.4561914062	0.0199619923
2563.3849987792	0.0199114159
2565.3138061523	0.0198985338
2567.2426135253	0.0197407678
2569.1714208984	0.0198004283
2571.1002282714	0.0197481029
2573.0290356444	0.0196792819
2574.9578430175	0.0196627341
2576.8866503905	0.0195497535
2578.8154577636	0.0194987860
2580.7442651366	0.0194227584
2582.6730725097	0.0194215216
2584.6018798827	0.0195097234
2586.5306872558	0.0194103718
2588.4594946288	0.0193147175
2590.3883020019	0.0192822628
2592.3171093749	0.0191482268
2594.2459167480	0.0191817563
2596.1747241210	0.0192564242
2598.1035314941	0.0190455057
2600.0323388671	0.0188738201
2601.9611462401	0.0189417917
2603.8899536132	0.0189929940
2605.8187609862	0.0189497266
2607.7475683593	0.0188922547
2609.6763757323	0.0188454278
2611.6051831054	0.0186930746
2613.5339904784	0.0186389722
2615.4627978515	0.0187110584
2617.3916052245	0.0185370632
2619.3204125976	0.0185727347
2621.2492199706	0.0186261386
2623.1780273437	0.0184818786
2625.1068347167	0.0185481273
2627.0356420898	0.0184449703
2628.9644494628	0.0182999931
2630.8932568358	0.0181933492
2632.8220642089	0.0182125084
2634.7508715819	0.0183057450
2636.6796789550	0.0181697700
2638.6084863280	0.0181941707
2640.5372937011	0.0181509703
2642.4661010741	0.0179597232
2644.3949084472	0.0179207288
2646.3237158202	0.0179503262
2648.2525231933	0.0178732984
2650.1813305663	0.0178181045
2652.1101379394	0.0178155117
2654.0389453124	0.0177093931
2655.9677526855	0.0177493282
2657.8965600585	0.0177066959
2659.8253674315	0.0176475346
2661.7541748046	0.0176413227
2663.6829821776	0.0175311640
2665.6117895507	0.0175183825
2667.5405969237	0.0174918622
2669.4694042968	0.0175134726
2671.3982116698	0.0174554382
2673.3270190429	0.0173603203
2675.2558264159	0.0172916204
2677.1846337890	0.0172018223
2679.1134411620	0.0171866268
2681.0422485351	0.0171809271
2682.9710559081	0.0172340460
2684.8998632812	0.0171175897
2686.8286706542	0.0170621425
2688.7574780273	0.0170577206
2690.6862854003	0.0169361085
2692.6150927733	0.0169283599
2694.5439001464	0.0168363303
2696.4727075194	0.0168273579
2698.4015148925	0.0168640390
2700.3303222655	0.0167939719
2702.2591296386	0.0167449974
2704.1879370116	0.0166994333
2706.1167443847	0.0166227184
2708.0455517577	0.0165987518
2709.9743591308	0.0166445822
2711.9031665038	0.0164947882
2713.8319738769	0.0164306536
2715.7607812499	0.0164930373
2717.6895886230	0.0164178796
2719.6183959960	0.0163306706
2721.5472033690	0.0162663534
2723.4760107421	0.0162942167
2725.4048181151	0.0162460953
2727.3336254882	0.0161465667
2729.2624328612	0.0161369964
2731.1912402343	0.0161394700
2733.1200476073	0.0161128156
2735.0488549804	0.0159477927
2736.9776623534	0.0159836151
2738.9064697265	0.0160741918
2740.8352770995	0.0158803761
2742.7640844726	0.0159649570
2744.6928918456	0.0159066468
2746.6216992187	0.0156530403
2748.5505065917	0.0158391409
2750.4793139647	0.0157366171
2752.4081213378	0.0155848721
2754.3369287108	0.0156195713
2756.2657360839	0.0155013567
2758.1945434569	0.0155434571
2760.1233508300	0.0154301431
2762.0521582030	0.0154149448
2763.9809655761	0.0154629909
2765.9097729491	0.0153559158
2767.8385803222	0.0154366102
2769.7673876952	0.0153491674
2771.6961950683	0.0152742714
2773.6250024413	0.0152311381
2775.5538098144	0.0151257738
2777.4826171874	0.0151486369
2779.4114245604	0.0150054032
2781.3402319335	0.0149919055
2783.2690393065	0.0150254946
2785.1978466796	0.0148384320
2787.1266540526	0.0149433818
2789.0554614257	0.0149510670
2790.9842687987	0.0146669522
2792.9130761718	0.0147476699
2794.8418835448	0.0148202181
2796.7706909179	0.0146335857
2798.6994982909	0.0146257514
2800.6283056640	0.0146759860
2802.5571130370	0.0145712495
2804.4859204101	0.0144800516
2806.4147277831	0.0144380080
2808.3435351562	0.0144168986
2810.2723425292	0.0144386441
2812.2011499022	0.0142966062
2814.1299572753	0.0142131737
2816.0587646483	0.0142870508
2817.9875720214	0.0142324809
2819.9163793944	0.0141401859
2821.8451867675	0.0140554504
2823.7739941405	0.0140341204
2825.7028015136	0.0140221110
2827.6316088866	0.0139647126
2829.5604162597	0.0139267035
2831.4892236327	0.0138748493
2833.4180310058	0.0138187511
2835.3468383788	0.0137530258
2837.2756457519	0.0136235775
2839.2044531249	0.0135387750
2841.1332604979	0.0136221750
2843.0620678710	0.0136156194
2844.9908752440	0.0135743096
2846.9196826171	0.0134322904
2848.8484899901	0.0132013354
2850.7772973632	0.0131908152
2852.7061047362	0.0131846685
2854.6349121093	0.0131646497
2856.5637194823	0.0130975693
2858.4925268554	0.0131303873
2860.4213342284	0.0131578203
2862.3501416015	0.0130898757
2864.2789489745	0.0130660366
2866.2077563476	0.0129401032
2868.1365637206	0.0129714999
2870.0653710936	0.0128928199
2871.9941784667	0.0129215904
2873.9229858397	0.0129519068
2875.8517932128	0.0127791082
2877.7806005858	0.0128750363
2879.7094079589	0.0127661694
2881.6382153319	0.0127686393
2883.5670227050	0.0127466526
2885.4958300780	0.0126347570
2887.4246374511	0.0126896426
2889.3534448241	0.0125450715
2891.2822521972	0.0125203775
2893.2110595702	0.0123650553
2895.1398669433	0.0123592857
2897.0686743163	0.0124470014
2898.9974816893	0.0122522786
2900.9262890624	0.0122573012
2902.8550964354	0.0123649463
2904.7839038085	0.0122966999
2906.7127111815	0.0120692421
2908.6415185546	0.0121111423
2910.5703259276	0.0120754531
2912.4991333007	0.0119587127
2914.4279406737	0.0119567905
2916.3567480468	0.0117940353
2918.2855554198	0.0118063372
2920.2143627929	0.0117287859
2922.1431701659	0.0116754649
2924.0719775390	0.0117041441
2926.0007849120	0.0116833141
2927.9295922851	0.0116918162
2929.8583996581	0.0115916794
2931.7872070311	0.0115932766
2933.7160144042	0.0115353428
2935.6448217772	0.0115746185
2937.5736291503	0.0115404986
2939.5024365233	0.0114554102
2941.4312438964	0.0115845976
2943.3600512694	0.0114594894
2945.2888586425	0.0114383483
2947.2176660155	0.0114522725
2949.1464733886	0.0113917030
2951.0752807616	0.0114416722
2953.0040881347	0.0113196820
2954.9328955077	0.0112597384
2956.8617028808	0.0112099424
2958.7905102538	0.0111767873
2960.7193176268	0.0111946780
2962.6481249999	0.0111040436
2964.5769323729	0.0111309513
2966.5057397460	0.0110533517
2968.4345471190	0.0109538324
2970.3633544921	0.0110487826
2972.2921618651	0.0109765632
2974.2209692382	0.0109359547
2976.1497766112	0.0109776407
2978.0785839843	0.0109251905
2980.0073913573	0.0109120943
2981.9361987304	0.0109166931
2983.8650061034	0.0109427329
2985.7938134765	0.0108505078
2987.7226208495	0.0108087398
2989.6514282225	0.0108800158
2991.5802355956	0.0107583851
2993.5090429686	0.0106711555
2995.4378503417	0.0107234269
2997.3666577147	0.0107424390
2999.2954650878	0.0106723849
3001.2242724608	0.0106622949
3003.1530798339	0.0107101463
3005.0818872069	0.0105365934
3007.0106945800	0.0104216188
3008.9395019530	0.0105363671
3010.8683093261	0.0104773538
3012.7971166991	0.0103709372
3014.7259240722	0.0103087109
3016.6547314452	0.0102007333
3018.5835388182	0.0103146583
3020.5123461913	0.0103032235
3022.4411535643	0.0102297869
3024.3699609374	0.0102777854
3026.2987683104	0.0101534091
3028.2275756835	0.0101845544
3030.1563830565	0.0100631509
3032.0851904296	0.0099436743
3034.0139978026	0.0101181669
3035.9428051757	0.0099890297
3037.8716125487	0.0099154180
3039.8004199218	0.0099686384
3041.7292272948	0.0099345418
3043.6580346679	0.0099133272
3045.5868420409	0.0098790340
3047.5156494139	0.0099059511
3049.4444567870	0.0097915828
3051.3732641600	0.0096916882
3053.3020715331	0.0096686054
3055.2308789061	0.0096076056
3057.1596862792	0.0096409265
3059.0884936522	0.0095327524
3061.0173010253	0.0094887540
3062.9461083983	0.0095639732
3064.8749157714	0.0094050616
3066.8037231444	0.0093787238
3068.7325305175	0.0094422400
3070.6613378905	0.0094523616
3072.5901452636	0.0094682090
3074.5189526366	0.0093238875
3076.4477600097	0.0093314555
3078.3765673827	0.0092752455
3080.3053747557	0.0091738235
3082.2341821288	0.0092826355
3084.1629895018	0.0091801044
3086.0917968749	0.0091205668
3088.0206042479	0.0091374703
3089.9494116210	0.0091608213
3091.8782189940	0.0091901626
3093.8070263671	0.0089841280
3095.7358337401	0.0089269392
3097.6646411132	0.0089181541
3099.5934484862	0.0088610565
3101.5222558593	0.0089016268
3103.4510632323	0.0088333506
3105.3798706054	0.0088064540
3107.3086779784	0.0088421553
3109.2374853514	0.0088140285
3111.1662927245	0.0087290704
3113.0951000975	0.0087283216
3115.0239074706	0.0087205321
3116.9527148436	0.0085951220
3118.8815222167	0.0086637661
3120.8103295897	0.0086670518
3122.7391369628	0.0085788779
3124.6679443358	0.0085917264
3126.5967517089	0.0085836146
3128.5255590819	0.0086566564
3130.4543664550	0.0084852055
3132.3831738280	0.0084108096
3134.3119812011	0.0085085351
3136.2407885741	0.0082773156
3138.1695959471	0.0082811043
3140.0984033202	0.0083392989
3142.0272106932	0.0082900766
3143.9560180663	0.0083750896
3145.8848254393	0.0083222194
3147.8136328124	0.0082673989
3149.7424401854	0.0082194582
3151.6712475585	0.0081896894
3153.6000549315	0.0082093701
3155.5288623046	0.0082059857
3157.4576696776	0.0081578922
3159.3864770507	0.0080869328
3161.3152844237	0.0081248283
3163.2440917968	0.0081055127
3165.1728991698	0.0080280947
3167.1017065428	0.0079842610
3169.0305139159	0.0079777483
3170.9593212889	0.0080151297
3172.8881286620	0.0079720421
3174.8169360350	0.0079518557
3176.7457434081	0.0079897726
3178.6745507811	0.0079128118
3180.6033581542	0.0078643402
3182.5321655272	0.0079152938
3184.4609729003	0.0078782849
3186.3897802733	0.0078254296
3188.3185876464	0.0078221308
3190.2473950194	0.0078816134
3192.1762023925	0.0078693498
3194.1050097655	0.0078093279
3196.0338171386	0.0078361155
3197.9626245116	0.0078262333
3199.8914318846	0.0078934934
3201.8202392577	0.0078761280
3203.7490466307	0.0078859292
3205.6778540038	0.0078943912
3207.6066613768	0.0077470327
3209.5354687499	0.0078429142
3211.4642761229	0.0078605236
3213.3930834960	0.0078188553
3215.3218908690	0.0077785067
3217.2506982421	0.0076929247
3219.1795056151	0.0077369860
3221.1083129882	0.0077147530
3223.0371203612	0.0078285281
3224.9659277343	0.0078499112
3226.8947351073	0.0077835890
3228.8235424803	0.0077850511
3230.7523498534	0.0076842560
3232.6811572264	0.0077872677
3234.6099645995	0.0079102796
3236.5387719725	0.0078330934
3238.4675793456	0.0077761677
3240.3963867186	0.0078150667
3242.3251940917	0.0078522898
3244.2540014647	0.0078915013
3246.1828088378	0.0079134945
3248.1116162108	0.0079186503
3250.0404235839	0.0078667458
3251.9692309569	0.0077803601
3253.8980383300	0.0078945970
3255.8268457030	0.0080239978
3257.7556530760	0.0080940649
3259.6844604491	0.0079827551
3261.6132678221	0.0078729745
3263.5420751952	0.0079696067
3265.4708825682	0.0079302844
3267.3996899413	0.0080144620
3269.3284973143	0.0080537545
3271.2573046874	0.0079347938
3273.1861120604	0.0079807499
3275.1149194335	0.0080308747
3277.0437268065	0.0080451611
3278.9725341796	0.0081414804
3280.9013415526	0.0081857573
3282.8301489257	0.0080996547
3284.7589562987	0.0081800818
3286.6877636717	0.0081735700
3288.6165710448	0.0081104329
3290.5453784178	0.0081199072
3292.4741857909	0.0080633471
3294.4029931639	0.0081857741
3296.3318005370	0.0081342952
3298.2606079100	0.0081111994
3300.1894152831	0.0082640583
3302.1182226561	0.0082042906
3304.0470300292	0.0082000205
3305.9758374022	0.0083192615
3307.9046447753	0.0082995091
3309.8334521483	0.0081507359
3311.7622595214	0.0081100743
3313.6910668944	0.0081318626
3315.6198742675	0.0082937442
3317.5486816405	0.0083383461
3319.4774890135	0.0082665365
3321.4062963866	0.0083908504
3323.3351037596	0.0083329957
3325.2639111327	0.0083169946
3327.1927185057	0.0083390335
3329.1215258788	0.0083053298
3331.0503332518	0.0083434135
3332.9791406249	0.0083537139
3334.9079479979	0.0083989538
3336.8367553710	0.0083622579
3338.7655627440	0.0084156711
3340.6943701171	0.0084144967
3342.6231774901	0.0083887763
3344.5519848632	0.0084577454
3346.4807922362	0.0084526148
3348.4095996092	0.0085090222
3350.3384069823	0.0084932381
3352.2672143553	0.0085005090
3354.1960217284	0.0085416948
3356.1248291014	0.0085836984
3358.0536364745	0.0085798074
3359.9824438475	0.0085753091
3361.9112512206	0.0087130740
3363.8400585936	0.0086951135
3365.7688659667	0.0086647682
3367.6976733397	0.0086530000
3369.6264807128	0.0087135909
3371.5552880858	0.0087806955
3373.4840954589	0.0087113231
3375.4129028319	0.0088107530
3377.3417102049	0.0088135526
3379.2705175780	0.0087800287
3381.1993249510	0.0088615324
3383.1281323241	0.0089180246
3385.0569396971	0.0089761857
3386.9857470702	0.0090057794
3388.9145544432	0.0090578571
3390.8433618163	0.0090494230
3392.7721691893	0.0091128657
3394.7009765624	0.0091655198
3396.6297839354	0.0091138855
3398.5585913085	0.0091617126
3400.4873986815	0.0092371032
3402.4162060546	0.0093027111
3404.3450134276	0.0092925988
3406.2738208006	0.0093210991
3408.2026281737	0.0094117532
3410.1314355467	0.0094660781
3412.0602429198	0.0095103737
3413.9890502928	0.0095329545
3415.9178576659	0.0096071493
3417.8466650389	0.0096157920
3419.7754724120	0.0096407048
3421.7042797850	0.0096466411
3423.6330871581	0.0096789245
3425.5618945311	0.0097958269
3427.4907019042	0.0096705928
3429.4195092772	0.0097499909
3431.3483166503	0.0099134129
3433.2771240233	0.0098657524
3435.2059313963	0.0099430932
3437.1347387694	0.0099787228
3439.0635461424	0.0100484258
3440.9923535155	0.0100069670
3442.9211608885	0.0100246780
3444.8499682616	0.0101587316
3446.7787756346	0.0099940654
3448.7075830077	0.0101132076
3450.6363903807	0.0103065660
3452.5651977538	0.0102482028
3454.4940051268	0.0103432741
3456.4228124999	0.0103684720
3458.3516198729	0.0104233976
3460.2804272460	0.0105208922
3462.2092346190	0.0104513206
3464.1380419921	0.0105377380
3466.0668493651	0.0106277773
3467.9956567381	0.0105482992
3469.9244641112	0.0105652940
3471.8532714842	0.0106819086
3473.7820788573	0.0108067626
3475.7108862303	0.0107657257
3477.6396936034	0.0107999546
3479.5685009764	0.0108827632
3481.4973083495	0.0107812164
3483.4261157225	0.0108591793
3485.3549230956	0.0108972080
3487.2837304686	0.0109562073
3489.2125378417	0.0110886106
3491.1413452147	0.0111109894
3493.0701525878	0.0112045612
3494.9989599608	0.0111630466
3496.9277673338	0.0111355176
3498.8565747069	0.0112266466
3500.7853820799	0.0112552587
3502.7141894530	0.0111307260
3504.6429968260	0.0112873726
3506.5718041991	0.0115521755
3508.5006115721	0.0113922283
3510.4294189452	0.0114512593
3512.3582263182	0.0114656026
3514.2870336913	0.0115735894
3516.2158410643	0.0117810881
3518.1446484374	0.0115970559
3520.0734558104	0.0117988903
3522.0022631835	0.0118591599
3523.9310705565	0.0116142267
3525.8598779295	0.0117109260
3527.7886853026	0.0118178707
3529.7174926756	0.0118568204
3531.6463000487	0.0119808754
3533.5751074217	0.0120984372
3535.5039147948	0.0120545831
3537.4327221678	0.0120379282
3539.3615295409	0.0121697364
3541.2903369139	0.0122767314
3543.2191442870	0.0121822413
3545.1479516600	0.0120177381
3547.0767590331	0.0120033119
3549.0055664061	0.0122339074
3550.9343737792	0.0123262331
3552.8631811522	0.0122200549
3554.7919885252	0.0124302814
3556.7207958983	0.0125137633
3558.6496032713	0.0125047434
3560.5784106444	0.0124426382
3562.5072180174	0.0125281373
3564.4360253905	0.0127097946
3566.3648327635	0.0119155021
3568.2936401366	0.0117118666
3570.2224475096	0.0126092173
3572.1512548827	0.0128602590
3574.0800622557	0.0127740949
3576.0088696288	0.0128215589
3577.9376770018	0.0128039867
3579.8664843749	0.0128746685
3581.7952917479	0.0129554812
3583.7240991210	0.0130115729
3585.6529064940	0.0126634473
3587.5817138670	0.0119081009
3589.5105212401	0.0123349130
3591.4393286131	0.0131073371
3593.3681359862	0.0128560811
3595.2969433592	0.0127140479
3597.2257507323	0.0129227415
3599.1545581053	0.0130330864
3601.0833654784	0.0128886998
3603.0121728514	0.0130716339
3604.9409802245	0.0133807072
3606.8697875975	0.0131045934
3608.7985949706	0.0125063276
3610.7274023436	0.0127019687
3612.6562097167	0.0129420664
3614.5850170897	0.0126506481
3616.5138244627	0.0134147042
3618.4426318358	0.0126672043
3620.3714392088	0.0124597363
3622.3002465819	0.0136730475
3624.2290539549	0.0133878104
3626.1578613280	0.0139933703
3628.0866687010	0.0121095944
3630.0154760741	0.0113476701
3631.9442834471	0.0138358995
3633.8730908202	0.0134943919
3635.8018981932	0.0137469079
3637.7307055663	0.0140355788
3639.6595129393	0.0138212629
3641.5883203124	0.0140596023
3643.5171276854	0.0140068941
3645.4459350584	0.0140639385
3647.3747424315	0.0129767917
3649.3035498045	0.0121496115
3651.2323571776	0.0123075163
3653.1611645506	0.0143130161
3655.0899719237	0.0140741225
3657.0187792967	0.0129332561
3658.9475866698	0.0146948472
3660.8763940428	0.0144143021
3662.8052014159	0.0146268941
3664.7340087889	0.0146660469
3666.6628161620	0.0147339199
3668.5916235350	0.0143095674
3670.5204309081	0.0120360414
3672.4492382811	0.0142461564
3674.3780456541	0.0135961268
3676.3068530272	0.0117134647
3678.2356604002	0.0142652802
3680.1644677733	0.0145089673
3682.0932751463	0.0145648383
3684.0220825194	0.0149762826
3685.9508898924	0.0146951452
3687.8796972655	0.0132837128
3689.8085046385	0.0124790017
3691.7373120116	0.0139903473
3693.6661193846	0.0143179111
3695.5949267577	0.0146173192
3697.5237341307	0.0145274987
3699.4525415038	0.0145498458
3701.3813488768	0.0141249076
3703.3101562499	0.0135634150
3705.2389636229	0.0147121046
3707.1677709959	0.0139759751
3709.0965783690	0.0137729980
3711.0253857420	0.0130206533
3712.9541931151	0.0123528419
3714.8830004881	0.0141373575
3716.8118078612	0.0138559919
3718.7406152342	0.0139455386
3720.6694226073	0.0136418650
3722.5982299803	0.0132200178
3724.5270373534	0.0134575590
3726.4558447264	0.0126249827
3728.3846520995	0.0135158338
3730.3134594725	0.0132717593
3732.2422668456	0.0124425804
3734.1710742186	0.0121232644
3736.0998815916	0.0116060469
3738.0286889647	0.0121446028
3739.9574963377	0.0129445698
3741.8863037108	0.0134004457
3743.8151110838	0.0106963729
3745.7439184569	0.0103248181
3747.6727258299	0.0127713140
3749.6015332030	0.0110520832
3751.5303405760	0.0103309164
3753.4591479491	0.0116305603
3755.3879553221	0.0123131657
3757.3167626952	0.0126714418
3759.2455700682	0.0118631031
3761.1743774413	0.0122150462
3763.1031848143	0.0128150769
3765.0319921873	0.0120101012
3766.9607995604	0.0121532064
3768.8896069334	0.0120622562
3770.8184143065	0.0116099752
3772.7472216795	0.0123094488
3774.6760290526	0.0123633239
3776.6048364256	0.0122899581
3778.5336437987	0.0119281597
3780.4624511717	0.0116202105
3782.3912585448	0.0121606430
3784.3200659178	0.0120002460
3786.2488732909	0.0118333083
3788.1776806639	0.0119406655
3790.1064880370	0.0120217567
3792.0352954100	0.0117526362
3793.9641027830	0.0119130518
3795.8929101561	0.0113110673
3797.8217175291	0.0111272130
3799.7505249022	0.0115564074
3801.6793322752	0.0094527388
3803.6081396483	0.0108655952
3805.5369470213	0.0114664417
3807.4657543944	0.0098111136
3809.3945617674	0.0115342280
3811.3233691405	0.0112103615
3813.2521765135	0.0116162309
3815.1809838866	0.0104909558
3817.1097912596	0.0095199533
3819.0385986327	0.0114752594
3820.9674060057	0.0095030554
3822.8962133787	0.0100847045
3824.8250207518	0.0113611510
3826.7538281248	0.0104204668
3828.6826354979	0.0110256439
3830.6114428709	0.0105343396
3832.5402502440	0.0102846660
3834.4690576170	0.0104892971
3836.3978649901	0.0099309608
3838.3266723631	0.0090924148
3840.2554797362	0.0097657088
3842.1842871092	0.0104272868
3844.1130944823	0.0100205112
3846.0419018553	0.0105424095
3847.9707092284	0.0103936605
3849.8995166014	0.0104682576
3851.8283239745	0.0094915433
3853.7571313475	0.0073966496
3855.6859387205	0.0085549336
3857.6147460936	0.0104428940
3859.5435534666	0.0101664905
3861.4723608397	0.0100097973
3863.4011682127	0.0097268354
3865.3299755858	0.0092458818
3867.2587829588	0.0101196365
3869.1875903319	0.0092376405
3871.1163977049	0.0087607037
3873.0452050780	0.0099707935
3874.9740124510	0.0092581790
3876.9028198241	0.0099169873
3878.8316271971	0.0099536199
3880.7604345702	0.0087843956
3882.6892419432	0.0098942639
3884.6180493162	0.0093024988
3886.5468566893	0.0086809462
3888.4756640623	0.0098880650
3890.4044714354	0.0093147634
3892.3332788084	0.0088655939
3894.2620861815	0.0096816793
3896.1908935545	0.0097011663
3898.1197009276	0.0092459563
3900.0485083006	0.0088892551
3901.9773156737	0.0087635759
3903.9061230467	0.0086700600
3905.8349304198	0.0088437982
3907.7637377928	0.0094198566
3909.6925451659	0.0093690995
3911.6213525389	0.0093034683
3913.5501599119	0.0094154980
3915.4789672850	0.0091483984
3917.4077746580	0.0088921618
3919.3365820311	0.0088685853
3921.2653894041	0.0090888478
3923.1941967772	0.0090336502
3925.1230041502	0.0088998023
3927.0518115233	0.0089986166
3928.9806188963	0.0090594348
3930.9094262694	0.0088481717
3932.8382336424	0.0086590955
3934.7670410155	0.0089428285
3936.6958483885	0.0089549953
3938.6246557616	0.0088469181
3940.5534631346	0.0089176483
3942.4822705076	0.0086596794
3944.4110778807	0.0086124623
3946.3398852537	0.0087323384
3948.2686926268	0.0086053386
3950.1974999998	0.0086404160
3952.1263073729	0.0086739017
3954.0551147459	0.0086179916
3955.9839221190	0.0086077796
3957.9127294920	0.0085262703
3959.8415368651	0.0085652499
3961.7703442381	0.0084752589
3963.6991516112	0.0084932260
3965.6279589842	0.0086513702
3967.5567663573	0.0084764296
3969.4855737303	0.0084076393
3971.4143811034	0.0083478121
3973.3431884764	0.0083182901
3975.2719958494	0.0083380546
3977.2008032225	0.0082644494
3979.1296105955	0.0083219344
3981.0584179686	0.0083123781
3982.9872253416	0.0082772523
3984.9160327147	0.0082654525
3986.8448400877	0.0082734311
3988.7736474608	0.0081702080
3990.7024548338	0.0081728976
3992.6312622069	0.0082017947
3994.5600695799	0.0079998374
3996.4888769530	0.0081191938
3998.4176843260	0.0080880132
4000.3464916991	0.0079949303
4002.2752990721	0.0080435192
4004.2041064451	0.0079413000
4006.1329138182	0.0080351019
4008.0617211912	0.0078968639
4009.9905285643	0.0078929765
4011.9193359373	0.0080012232
4013.8481433104	0.0077962191
4015.7769506834	0.0078264903
4017.7057580565	0.0078338115
4019.6345654295	0.0077833892
4021.5633728026	0.0076891482
4023.4921801756	0.0076747742
4025.4209875487	0.0077655390
4027.3497949217	0.0076997429
4029.2786022948	0.0077489996
4031.2074096678	0.0076573379
4033.1362170408	0.0076540653
4035.0650244139	0.0076645222
4036.9938317869	0.0075321612
4038.9226391600	0.0076264343
4040.8514465330	0.0075263199
4042.7802539061	0.0075129829
4044.7090612791	0.0074827466
4046.6378686522	0.0073447204
4048.5666760252	0.0074501471
4050.4954833983	0.0074180989
4052.4242907713	0.0073870560
4054.3530981444	0.0073662503
4056.2819055174	0.0073812241
4058.2107128905	0.0073680114
4060.1395202635	0.0072532371
4062.0683276365	0.0072432393
4063.9971350096	0.0072341869
4065.9259423826	0.0072550196
4067.8547497557	0.0071661673
4069.7835571287	0.0071378089
4071.7123645018	0.0071537849
4073.6411718748	0.0071045039
4075.5699792479	0.0071438355
4077.4987866209	0.0070895171
4079.4275939940	0.0070659304
4081.3564013670	0.0070740720
4083.2852087401	0.0069998102
4085.2140161131	0.0069415942
4087.1428234862	0.0069483733
4089.0716308592	0.0069483453
4091.0004382323	0.0069732666
4092.9292456053	0.0069244914
4094.8580529783	0.0069042910
4096.7868603514	0.0070074806
4098.7156677244	0.0068612816
4100.6444750975	0.0068005826
4102.5732824705	0.0067832600
4104.5020898436	0.0067922310
4106.4308972166	0.0067897085
4108.3597045897	0.0066245799
4110.2885119627	0.0067312336
4112.2173193358	0.0066796248
4114.1461267088	0.0066995546
4116.0749340819	0.0067189503
4118.0037414549	0.0066325213
4119.9325488280	0.0067290529
4121.8613562010	0.0065764985
4123.7901635740	0.0065998929
4125.7189709471	0.0065845847
4127.6477783201	0.0065986388
4129.5765856932	0.0066439137
4131.5053930662	0.0064687859
4133.4342004393	0.0065913172
4135.3630078123	0.0065453257
4137.2918151854	0.0064677070
4139.2206225584	0.0064573474
4141.1494299315	0.0063238335
4143.0782373045	0.0064159650
4145.0070446776	0.0064774957
4146.9358520506	0.0063372171
4148.8646594237	0.0062752999
4150.7934667967	0.0063437745
4152.7222741697	0.0063527068
4154.6510815428	0.0063283728
4156.5798889158	0.0062925601
4158.5086962889	0.0063276542
4160.4375036619	0.0062867925
4162.3663110350	0.0062858230
4164.2951184080	0.0063064378
4166.2239257811	0.0061510098
4168.1527331541	0.0062097302
4170.0815405272	0.0061924858
4172.0103479002	0.0061428957
4173.9391552733	0.0061537260
4175.8679626463	0.0061252010
4177.7967700194	0.0061156005
4179.7255773924	0.0060481802
4181.6543847654	0.0061043222
4183.5831921385	0.0059952778
4185.5119995115	0.0059844255
4187.4408068846	0.0060142400
4189.3696142576	0.0059613604
4191.2984216307	0.0060144430
4193.2272290037	0.0059242761
4195.1560363768	0.0059323092
4197.0848437498	0.0058495095
4199.0136511229	0.0058644805
4200.9424584959	0.0059473529
4202.8712658690	0.0058318628
4204.8000732420	0.0058305962
4206.7288806151	0.0058483509
4208.6576879881	0.0058395229
4210.5864953611	0.0057878420
4212.5153027342	0.0058333166
4214.4441101072	0.0057381438
4216.3729174803	0.0056055095
4218.3017248533	0.0056981845
4220.2305322264	0.0057259705
4222.1593395994	0.0057359841
4224.0881469725	0.0056861741
4226.0169543455	0.0056652976
4227.9457617186	0.0056340899
4229.8745690916	0.0056051835
4231.8033764647	0.0056592515
4233.7321838377	0.0056475317
4235.6609912108	0.0055433521
4237.5897985838	0.0055037392
4239.5186059569	0.0054966137
4241.4474133299	0.0054133255
4243.3762207029	0.0055650431
4245.3050280760	0.0055181049
4247.2338354490	0.0054118130
4249.1626428221	0.0055377395
4251.0914501951	0.0054493137
4253.0202575682	0.0054251100
4254.9490649412	0.0054214075
4256.8778723143	0.0053961147
4258.8066796873	0.0053631002
4260.7354870604	0.0053708982
4262.6642944334	0.0053528752
4264.5931018065	0.0052656606
4266.5219091795	0.0053074444
4268.4507165526	0.0052418062
4270.3795239256	0.0052850675
4272.3083312986	0.0052500241
4274.2371386717	0.0051652845
4276.1659460447	0.0052580070
4278.0947534178	0.0052270498
4280.0235607908	0.0051680487
4281.9523681639	0.0051494725
4283.8811755369	0.0052526128
4285.8099829100	0.0051995665
4287.7387902830	0.0050983215
4289.6675976561	0.0051213070
4291.5964050291	0.0051103001
4293.5252124022	0.0051187351
4295.4540197752	0.0050579850
4297.3828271483	0.0051159663
4299.3116345213	0.0050710188
4301.2404418943	0.0049638869
4303.1692492674	0.0050605601
4305.0980566404	0.0050469008
4307.0268640135	0.0049428418
4308.9556713865	0.0049855444
4310.8844787596	0.0049802223
4312.8132861326	0.0048296293
4314.7420935057	0.0049212929
4316.6709008787	0.0049305698
4318.5997082518	0.0048343632
4320.5285156248	0.0049173911
4322.4573229979	0.0048702126
4324.3861303709	0.0048410087
4326.3149377440	0.0048303884
4328.2437451170	0.0048020016
4330.1725524900	0.0048291017
4332.1013598631	0.0047963737
4334.0301672361	0.0047794599
4335.9589746092	0.0048176544
4337.8877819822	0.0047524823
4339.8165893553	0.0046425411
4341.7453967283	0.0047082463
4343.6742041014	0.0047652321
4345.6030114744	0.0047167363
4347.5318188475	0.0046776822
4349.4606262205	0.0047153533
4351.3894335936	0.0047550537
4353.3182409666	0.0046728938
4355.2470483397	0.0046185949
4357.1758557127	0.0046526315
4359.1046630858	0.0046068523
4361.0334704588	0.0045517394
4362.9622778318	0.0045578992
4364.8910852049	0.0045094285
4366.8198925779	0.0045734816
4368.7486999510	0.0045626052
4370.6775073240	0.0044712867
4372.6063146971	0.0044863168
4374.5351220701	0.0044248458
4376.4639294432	0.0044294111
4378.3927368162	0.0043775877
4380.3215441893	0.0043725651
4382.2503515623	0.0044386946
4384.1791589354	0.0044169612
4386.1079663084	0.0043897945
4388.0367736815	0.0043373541
4389.9655810545	0.0044171000
4391.8943884275	0.0043632882
4393.8231958006	0.0043357830
4395.7520031736	0.0044056652
4397.6808105467	0.0043385318
4399.6096179197	0.0042899894
4401.5384252928	0.0042438121
4403.4672326658	0.0042994833
4405.3960400389	0.0042273570
4407.3248474119	0.0041906592
4409.2536547850	0.0042287381
4411.1824621580	0.0041676480
4413.1112695311	0.0042375736
4415.0400769041	0.0041984916
4416.9688842772	0.0041538700
4418.8976916502	0.0042058649
4420.8264990232	0.0042049130
4422.7553063963	0.0041380501
4424.6841137693	0.0041525085
4426.6129211424	0.0042086486
4428.5417285154	0.0040966999
4430.4705358885	0.0040685795
4432.3993432615	0.0040959306
4434.3281506346	0.0040428694
4436.2569580076	0.0040192995
4438.1857653807	0.0040576411
4440.1145727537	0.0040627485
4442.0433801268	0.0041039307
4443.9721874998	0.0040971432
4445.9009948729	0.0039957818
4447.8298022459	0.0040675560
4449.7586096189	0.0040804073
4451.6874169920	0.0040039988
4453.6162243650	0.0039681541
4455.5450317381	0.0040155025
4457.4738391111	0.0039845998
4459.4026464842	0.0038994169
4461.3314538572	0.0039850650
4463.2602612303	0.0039131511
4465.1890686033	0.0038635293
4467.1178759764	0.0038291621
4469.0466833494	0.0038824440
4470.9754907225	0.0039362176
4472.9042980955	0.0037317993
4474.8331054686	0.0037841252
4476.7619128416	0.0038200694
4478.6907202147	0.0038210035
4480.6195275877	0.0038395624
4482.5483349607	0.0037888163
4484.4771423338	0.0037894393
4486.4059497068	0.0037067491
4488.3347570799	0.0037776905
4490.2635644529	0.0037623178
4492.1923718260	0.0037062026
4494.1211791990	0.0037278491
4496.0499865721	0.0037035425
4497.9787939451	0.0036730506
4499.9076013182	0.0035985566
4501.8364086912	0.0036997870
4503.7652160643	0.0037209680
4505.6940234373	0.0036596518
4507.6228308104	0.0036238069
4509.5516381834	0.0035771262
4511.4804455564	0.0036446752
4513.4092529295	0.0036233864
4515.3380603025	0.0035887798
4517.2668676756	0.0036143709
4519.1956750486	0.0035949736
4521.1244824217	0.0035640146
4523.0532897947	0.0036220090
4524.9820971678	0.0035868178
4526.9109045408	0.0034616343
4528.8397119139	0.0034776349
4530.7685192869	0.0035347480
4532.6973266600	0.0035841314
4534.6261340330	0.0034363610
4536.5549414061	0.0034066127
4538.4837487791	0.0035824114
4540.4125561521	0.0034941409
4542.3413635252	0.0034313051
4544.2701708982	0.0034273304
4546.1989782713	0.0034237518
4548.1277856443	0.0034516230
4550.0565930174	0.0033573040
4551.9854003904	0.0033378438
4553.9142077635	0.0033417051
4555.8430151365	0.0033900649
4557.7718225096	0.0034844326
4559.7006298826	0.0034228298
4561.6294372557	0.0034070599
4563.5582446287	0.0033758853
4565.4870520018	0.0032966556
4567.4158593748	0.0033051879
4569.3446667478	0.0033089430
4571.2734741209	0.0033114539
4573.2022814939	0.0032993157
4575.1310888670	0.0033307541
4577.0598962400	0.0032355229
4578.9887036131	0.0032120794
4580.9175109861	0.0033180923
4582.8463183592	0.0032002905
4584.7751257322	0.0032579214
4586.7039331053	0.0032367213
4588.6327404783	0.0032126296
4590.5615478514	0.0033512930
4592.4903552244	0.0031825993
4594.4191625975	0.0032089348
4596.3479699705	0.0032420042
4598.2767773435	0.0031484324
4600.2055847166	0.0031764514
4602.1343920896	0.0031235018
4604.0631994627	0.0031435138
4605.9920068357	0.0031698234
4607.9208142088	0.0031336085
4609.8496215818	0.0030367363
4611.7784289549	0.0030651386
4613.7072363279	0.0031010003
4615.6360437010	0.0030349628
4617.5648510740	0.0030853492
4619.4936584471	0.0030923327
4621.4224658201	0.0031161006
4623.3512731932	0.0030433456
4625.2800805662	0.0030744276
4627.2088879393	0.0031480757
4629.1376953123	0.0030461694
4631.0665026853	0.0030934054
4632.9953100584	0.0029443451
4634.9241174314	0.0029108343
4636.8529248045	0.0029759326
4638.7817321775	0.0028848294
4640.7105395506	0.0030162141
4642.6393469236	0.0029358291
4644.5681542967	0.0029210430
4646.4969616697	0.0029705984
4648.4257690428	0.0028405485
4650.3545764158	0.0029655420
4652.2833837889	0.0029389993
4654.2121911619	0.0028672055
4656.1409985350	0.0029032552
4658.0698059080	0.0028426158
4659.9986132810	0.0029235133
4661.9274206541	0.0029224216
4663.8562280271	0.0028871302
4665.7850354002	0.0029220316
4667.7138427732	0.0028258385
4669.6426501463	0.0028135581
4671.5714575193	0.0028547975
4673.5002648924	0.0028338868
4675.4290722654	0.0028547416
4677.3578796385	0.0028684712
4679.2866870115	0.0028218217
4681.2154943846	0.0027367598
4683.1443017576	0.0027972627
4685.0731091307	0.0028498301
4687.0019165037	0.0027370304
4688.9307238767	0.0027985834
4690.8595312498	0.0027744367
4692.7883386228	0.0026348648
4694.7171459959	0.0027502300
4696.6459533689	0.0027683959
4698.5747607420	0.0027138167
4700.5035681150	0.0027026671
4702.4323754881	0.0026066632
4704.3611828611	0.0026447505
4706.2899902342	0.0027165527
4708.2187976072	0.0027088108
4710.1476049803	0.0027468442
4712.0764123533	0.0027021165
4714.0052197264	0.0026094129
4715.9340270994	0.0026463564
4717.8628344724	0.0026491373
4719.7916418455	0.0026203648
4721.7204492185	0.0026370678
4723.6492565916	0.0026236216
4725.5780639646	0.0026332284
4727.5068713377	0.0025636912
4729.4356787107	0.0025176296
4731.3644860838	0.0025853319
4733.2932934568	0.0025738059
4735.2221008299	0.0025172762
4737.1509082029	0.0024708412
4739.0797155760	0.0024539563
4741.0085229490	0.0024595540
4742.9373303221	0.0025154739
4744.8661376951	0.0025700065
4746.7949450682	0.0025391506
4748.7237524412	0.0025400119
4750.6525598142	0.0025452925
4752.5813671873	0.0025315271
4754.5101745603	0.0025150727
4756.4389819334	0.0024712035
4758.3677893064	0.0024531977
4760.2965966795	0.0024219584
4762.2254040525	0.0024199346
4764.1542114256	0.0024846150
4766.0830187986	0.0025193635
4768.0118261717	0.0025448333
4769.9406335447	0.0024370481
4771.8694409178	0.0023584664
4773.7982482908	0.0024807337
4775.7270556639	0.0024092253
4777.6558630369	0.0023563863
4779.5846704099	0.0023592417
4781.5134777830	0.0023170898
4783.4422851560	0.0024334402
4785.3710925291	0.0023806379
4787.2998999021	0.0023604459
4789.2287072752	0.0023595539
4791.1575146482	0.0023504922
4793.0863220213	0.0024266252
4795.0151293943	0.0023010478
4796.9439367674	0.0024040304
4798.8727441404	0.0024224748
4800.8015515135	0.0023041612
4802.7303588865	0.0024270895
4804.6591662596	0.0023008497
4806.5879736326	0.0021994205
4808.5167810056	0.0022578232
4810.4455883787	0.0022554365
4812.3743957517	0.0023036399
4814.3032031248	0.0023088928
4816.2320104978	0.0022394010
4818.1608178709	0.0022438662
4820.0896252439	0.0023004489
4822.0184326170	0.0022488460
4823.9472399900	0.0022349581
4825.8760473631	0.0022396650
4827.8048547361	0.0022188129
4829.7336621092	0.0022370184
4831.6624694822	0.0021908572
4833.5912768553	0.0022042454
4835.5200842283	0.0022031062
4837.4488916013	0.0021177274
4839.3776989744	0.0021707476
4841.3065063474	0.0022121654
4843.2353137205	0.0021477388
4845.1641210935	0.0021605038
4847.0929284666	0.0021444135
4849.0217358396	0.0021082677
4850.9505432127	0.0021192201
4852.8793505857	0.0021109069
4854.8081579588	0.0021015750
4856.7369653318	0.0020501746
4858.6657727049	0.0021224299
4860.5945800779	0.0021646009
4862.5233874510	0.0020476277
4864.4521948240	0.0020935629
4866.3810021971	0.0021093143
4868.3098095701	0.0019983563
4870.2386169431	0.0019819702
4872.1674243162	0.0020482587
4874.0962316892	0.0020656358
4876.0250390623	0.0020289249
4877.9538464353	0.0020863386
4879.8826538084	0.0021070098
4881.8114611814	0.0020136791
4883.7402685545	0.0019643700
4885.6690759275	0.0019377435
4887.5978833006	0.0019513979
4889.5266906736	0.0020254171
4891.4554980467	0.0020080819
4893.3843054197	0.0019316652
4895.3131127928	0.0018969073
4897.2419201658	0.0019417682
4899.1707275388	0.0019880375
4901.0995349119	0.0019349701
4903.0283422849	0.0019149876
4904.9571496580	0.0018915855
4906.8859570310	0.0019152316
4908.8147644041	0.0019690385
4910.7435717771	0.0019126467
4912.6723791502	0.0019155135
4914.6011865232	0.0018814522
4916.5299938963	0.0018506901
4918.4588012693	0.0019417596
4920.3876086424	0.0019641903
4922.3164160154	0.0018916212
4924.2452233885	0.0018498870
4926.1740307615	0.0019296503
4928.1028381345	0.0019689994
4930.0316455076	0.0019249816
4931.9604528806	0.0018545389
4933.8892602537	0.0017942513
4935.8180676267	0.0018479349
4937.7468749998	0.0018555450
4939.6756823728	0.0018381223
4941.6044897459	0.0018707729
4943.5332971189	0.0018100345
4945.4621044920	0.0017755060
4947.3909118650	0.0018179732
4949.3197192381	0.0018122857
4951.2485266111	0.0018067958
4953.1773339842	0.0018069174
4955.1061413572	0.0017794081
4957.0349487302	0.0017854365
4958.9637561033	0.0018229263
4960.8925634763	0.0018239997
4962.8213708494	0.0017921699
4964.7501782224	0.0017502285
4966.6789855955	0.0017230457
4968.6077929685	0.0017595050
4970.5366003416	0.0017739986
4972.4654077146	0.0017230298
4974.3942150877	0.0016729301
4976.3230224607	0.0017146918
4978.2518298338	0.0017508764
4980.1806372068	0.0016975638
4982.1094445799	0.0017267173
4984.0382519529	0.0017103276
4985.9670593259	0.0017209433
4987.8958666990	0.0017266318
4989.8246740720	0.0016371100
4991.7534814451	0.0017011231
4993.6822888181	0.0016568173
4995.6110961912	0.0016794202
4997.5399035642	0.0017451951
4999.4687109373	0.0016701093
5001.3975183103	0.0017249212
5003.3263256834	0.0016322010
5005.2551330564	0.0016119515
5007.1839404295	0.0016375198
5009.1127478025	0.0015372823
5011.0415551756	0.0015932100
5012.9703625486	0.0016192514
5014.8991699217	0.0016530794
5016.8279772947	0.0016399816
5018.7567846677	0.0015827629
5020.6855920408	0.0015616715
5022.6143994138	0.0015584297
5024.5432067869	0.0016374844
5026.4720141599	0.0015786593
5028.4008215330	0.0015602355
5030.3296289060	0.0016103061
5032.2584362791	0.0015586633
5034.1872436521	0.0016028932
5036.1160510252	0.0015923132
5038.0448583982	0.0015200481
5039.9736657713	0.0015634100
5041.9024731443	0.0015268329
5043.8312805174	0.0014945687
5045.7600878904	0.0015666141
5047.6888952634	0.0015513587
5049.6177026365	0.0015228982
5051.5465100095	0.0015026643
5053.4753173826	0.0015046676
5055.4041247556	0.0014896237
5057.3329321287	0.0014507587
5059.2617395017	0.0015590505
5061.1905468748	0.0015731000
5063.1193542478	0.0014887846
5065.0481616209	0.0015028932
5066.9769689939	0.0015150139
5068.9057763670	0.0014240406
5070.8345837400	0.0014002116
5072.7633911131	0.0015539546
5074.6921984861	0.0015010021
5076.6210058591	0.0013947510
5078.5498132322	0.0014315343
5080.4786206052	0.0014143651
5082.4074279783	0.0014252577
5084.3362353513	0.0014225456
5086.2650427244	0.0014125002
5088.1938500974	0.0013863158
5090.1226574705	0.0014047511
5092.0514648435	0.0014448463
5093.9802722166	0.0013902251
5095.9090795896	0.0014252688
5097.8378869627	0.0014617204
5099.7666943357	0.0014147363
5101.6955017088	0.0013880795
5103.6243090818	0.0013758653
5105.5531164548	0.0013276392
5107.4819238279	0.0013282031
5109.4107312009	0.0013602236
5111.3395385740	0.0013428706
5113.2683459470	0.0013994233
5115.1971533201	0.0013486247
5117.1259606931	0.0013119864
5119.0547680662	0.0013809942
5120.9835754392	0.0013456205
5122.9123828123	0.0013800497
5124.8411901853	0.0013332031
5126.7699975584	0.0012565933
5128.6988049314	0.0013436317
5130.6276123045	0.0013986873
5132.5564196775	0.0013852429
5134.4852270506	0.0013520070
5136.4140344236	0.0013619987
5138.3428417966	0.0013437378
5140.2716491697	0.0013021796
5142.2004565427	0.0013309482
5144.1292639158	0.0013186412
5146.0580712888	0.0012437709
5147.9868786619	0.0012710863
5149.9156860349	0.0013250530
5151.8444934080	0.0012762035
5153.7733007810	0.0012660465
5155.7021081541	0.0013044074
5157.6309155271	0.0013003724
5159.5597229002	0.0012591215
5161.4885302732	0.0013060661
5163.4173376463	0.0013008009
5165.3461450193	0.0012811749
5167.2749523923	0.0013769224
5169.2037597654	0.0012972936
5171.1325671384	0.0012664681
5173.0613745115	0.0012273113
5174.9901818845	0.0011926859
5176.9189892576	0.0013119290
5178.8477966306	0.0012225686
5180.7766040037	0.0012098455
5182.7054113767	0.0012457212
5184.6342187498	0.0011999635
5186.5630261228	0.0012338960
5188.4918334959	0.0012209944
5190.4206408689	0.0011676990
5192.3494482420	0.0012121716
5194.2782556150	0.0012713268
5196.2070629880	0.0011673438
5198.1358703611	0.0012242369
5200.0646777341	0.0011943110
5201.9934851072	0.0010919282
5203.9222924802	0.0012250500
5205.8510998533	0.0011914892
5207.7799072263	0.0011644713
5209.7087145994	0.0011563350
5211.6375219724	0.0011795022
5213.5663293455	0.0012375299
5215.4951367185	0.0012056278
5217.4239440916	0.0011390969
5219.3527514646	0.0010674526
5221.2815588377	0.0011702435
5223.2103662107	0.0011240097
5225.1391735837	0.0010966095
5227.0679809568	0.0011331087
5228.9967883298	0.0011248257
5230.9255957029	0.0012036783
5232.8544030759	0.0010756741
5234.7832104490	0.0010815209
5236.7120178220	0.0011173013
5238.6408251951	0.0010587107
5240.5696325681	0.0011417822
5242.4984399412	0.0011244263
5244.4272473142	0.0010478350
5246.3560546873	0.0010857275
5248.2848620603	0.0010773791
5250.2136694334	0.0010008966
5252.1424768064	0.0011450630
5254.0712841795	0.0011054396
5256.0000915525	0.0010729604
5257.9288989255	0.0011960801
5259.8577062986	0.0010987388
5261.7865136716	0.0011683644
5263.7153210447	0.0010781740
5265.6441284177	0.0010054535
5267.5729357908	0.0011118233
5269.5017431638	0.0010340596
5271.4305505369	0.0010846190
5273.3593579099	0.0010992633
5275.2881652830	0.0010483074
5277.2169726560	0.0010443444
5279.1457800291	0.0010729288
5281.0745874021	0.0011025884
5283.0033947752	0.0010608401
5284.9322021482	0.0010068442
5286.8610095212	0.0010430621
5288.7898168943	0.0010682164
5290.7186242673	0.0009566073
5292.6474316404	0.0010221658
5294.5762390134	0.0010220062
5296.5050463865	0.0009847641
5298.4338537595	0.0010606344
5300.3626611326	0.0010230687
5302.2914685056	0.0010525989
5304.2202758787	0.0010070277
5306.1490832517	0.0010515095
5308.0778906248	0.0010590593
5310.0066979978	0.0008953403
5311.9355053709	0.0009611973
5313.8643127439	0.0010134192
5315.7931201169	0.0010146309
5317.7219274900	0.0010337188
5319.6507348630	0.0009995651
5321.5795422361	0.0009618194
5323.5083496091	0.0009729868
5325.4371569822	0.0010243638
5327.3659643552	0.0009812741
5329.2947717283	0.0009646516
5331.2235791013	0.0009952118
5333.1523864744	0.0009758226
5335.0811938474	0.0009967624
5337.0100012205	0.0009730205
5338.9388085935	0.0008853031
5340.8676159666	0.0009442705
5342.7964233396	0.0009914368
5344.7252307126	0.0009132449
5346.6540380857	0.0008873774
5348.5828454587	0.0009654142
5350.5116528318	0.0010340215
5352.4404602048	0.0009453916
5354.3692675779	0.0008816727
5356.2980749509	0.0008907492
5358.2268823240	0.0009217164
5360.1556896970	0.0009352513
5362.0844970701	0.0009185087
5364.0133044431	0.0009649610
5365.9421118162	0.0009184361
5367.8709191892	0.0009188884
5369.7997265623	0.0009036093
5371.7285339353	0.0008309733
5373.6573413083	0.0008377206
5375.5861486814	0.0008059951
5377.5149560544	0.0008898012
5379.4437634275	0.0008812386
5381.3725708005	0.0008319933
5383.3013781736	0.0008958585
5385.2301855466	0.0008689722
5387.1589929197	0.0008572398
5389.0878002927	0.0008532971
5391.0166076658	0.0009235814
5392.9454150388	0.0009113897
5394.8742224119	0.0008317429
5396.8030297849	0.0008709710
5398.7318371580	0.0008533744
5400.6606445310	0.0009000914
5402.5894519041	0.0008531073
5404.5182592771	0.0007470350
5406.4470666501	0.0008594719
5408.3758740232	0.0008670660
5410.3046813962	0.0007721168
5412.2334887693	0.0008027171
5414.1622961423	0.0008693874
5416.0911035154	0.0008819428
5418.0199108884	0.0008893438
5419.9487182615	0.0008684214
5421.8775256345	0.0008264494
5423.8063330076	0.0008258066
5425.7351403806	0.0007540600
5427.6639477537	0.0008032243
5429.5927551267	0.0008722504
5431.5215624998	0.0007781340
5433.4503698728	0.0008207900
5435.3791772458	0.0007800483
5437.3079846189	0.0007859812
5439.2367919919	0.0008951578
5441.1655993650	0.0007745985
5443.0944067380	0.0007825779
5445.0232141111	0.0008005726
5446.9520214841	0.0007437123
5448.8808288572	0.0007598983
5450.8096362302	0.0007201201
5452.7384436033	0.0007873401
5454.6672509763	0.0008184183
5456.5960583494	0.0007732521
5458.5248657224	0.0007816322
5460.4536730955	0.0007498953
5462.3824804685	0.0007934787
5464.3112878415	0.0008398930
5466.2400952146	0.0008084035
5468.1689025876	0.0008269551
5470.0977099607	0.0007800397
5472.0265173337	0.0007090262
5473.9553247068	0.0007039678
5475.8841320798	0.0007277695
5477.8129394529	0.0008190522
5479.7417468259	0.0007775101
5481.6705541990	0.0006862282
5483.5993615720	0.0007174485
5485.5281689451	0.0007617842
5487.4569763181	0.0007677813
5489.3857836912	0.0007309676
5491.3145910642	0.0007470631
5493.2433984372	0.0007333936
5495.1722058103	0.0007401947
5497.1010131833	0.0007091010
5499.0298205564	0.0006565403
5500.9586279294	0.0007609198
5502.8874353025	0.0007056587
5504.8162426755	0.0006578232
5506.7450500486	0.0007097459
5508.6738574216	0.0006781030
5510.6026647947	0.0006830874
5512.5314721677	0.0006954288
5514.4602795408	0.0007373416
5516.3890869138	0.0007275424
5518.3178942869	0.0006659662
5520.2467016599	0.0006583204
5522.1755090330	0.0007219649
5524.1043164060	0.0007285809
5526.0331237790	0.0006903447
5527.9619311521	0.0007026292
5529.8907385251	0.0006629383
5531.8195458982	0.0007281674
5533.7483532712	0.0006889725
5535.6771606443	0.0005836498
5537.6059680173	0.0006875352
5539.5347753904	0.0006915635
5541.4635827634	0.0006799009
5543.3923901365	0.0006840095
5545.3211975095	0.0006490621
5547.2500048826	0.0006601076
5549.1788122556	0.0006491637
5551.1076196287	0.0006575881
5553.0364270017	0.0006599608
5554.9652343747	0.0007071107
5556.8940417478	0.0006934407
5558.8228491208	0.0005943179
5560.7516564939	0.0006435007
5562.6804638669	0.0006464631
5564.6092712400	0.0005813439
5566.5380786130	0.0005818703
5568.4668859861	0.0005787144
5570.3956933591	0.0006336706
5572.3245007322	0.0005893987
5574.2533081052	0.0005623052
5576.1821154783	0.0006691749
5578.1109228513	0.0006540184
5580.0397302244	0.0006288441
5581.9685375974	0.0005907081
5583.8973449704	0.0005663428
5585.8261523435	0.0005675356
5587.7549597165	0.0005461765
5589.6837670896	0.0005963203
5591.6125744626	0.0005804234
5593.5413818357	0.0005980618
5595.4701892087	0.0005875174
5597.3989965818	0.0005652022
5599.3278039548	0.0006539226
5601.2566113279	0.0006048725
5603.1854187009	0.0005630260
5605.1142260740	0.0005954792
5607.0430334470	0.0006098433
5608.9718408201	0.0006416088
5610.9006481931	0.0006152963
5612.8294555661	0.0006076529
5614.7582629392	0.0006216040
5616.6870703122	0.0005539769
5618.6158776853	0.0005287802
5620.5446850583	0.0005531223
5622.4734924314	0.0005505758
5624.4022998044	0.0005666659
5626.3311071775	0.0005454993
5628.2599145505	0.0005470545
5630.1887219236	0.0005787453
5632.1175292966	0.0006367783
5634.0463366697	0.0006340769
5635.9751440427	0.0005484747
5637.9039514158	0.0006278539
5639.8327587888	0.0006166945
5641.7615661619	0.0005589777
5643.6903735349	0.0006114332
5645.6191809079	0.0005234799
5647.5479882810	0.0004804361
5649.4767956540	0.0005246823
5651.4056030271	0.0005219762
5653.3344104001	0.0005492702
5655.2632177732	0.0005589712
5657.1920251462	0.0005020949
5659.1208325193	0.0005611487
5661.0496398923	0.0005598472
5662.9784472654	0.0004473888
5664.9072546384	0.0005219339
5666.8360620115	0.0004991791
5668.7648693845	0.0004386769
5670.6936767576	0.0005148881
5672.6224841306	0.0005339830
5674.5512915036	0.0005433250
5676.4800988767	0.0005203050
5678.4089062497	0.0005074667
5680.3377136228	0.0005304111
5682.2665209958	0.0005227216
5684.1953283689	0.0005167229
5686.1241357419	0.0005058021
5688.0529431150	0.0004861583
5689.9817504880	0.0005127729
5691.9105578611	0.0004707501
5693.8393652341	0.0004403928
5695.7681726072	0.0005477387
5697.6969799802	0.0005382719
5699.6257873533	0.0005145922
5701.5545947263	0.0004975337
5703.4834020993	0.0004754982
5705.4122094724	0.0004919113
5707.3410168454	0.0004222055
5709.2698242185	0.0004761838
5711.1986315915	0.0004897368
5713.1274389646	0.0004341133
5715.0562463376	0.0004844193
5716.9850537107	0.0004836619
5718.9138610837	0.0004716032
5720.8426684568	0.0004869924
5722.7714758298	0.0005012611
5724.7002832029	0.0004674976
5726.6290905759	0.0004312316
5728.5578979490	0.0004578541
5730.4867053220	0.0005149354
5732.4155126950	0.0004735148
5734.3443200681	0.0004184156
5736.2731274411	0.0005092474
5738.2019348142	0.0004907185
5740.1307421872	0.0004061179
5742.0595495603	0.0004382949
5743.9883569333	0.0004938342
5745.9171643064	0.0004951893
5747.8459716794	0.0004631659
5749.7747790525	0.0004129679
5751.7035864255	0.0003584657
5753.6323937986	0.0003870297
5755.5612011716	0.0004438754
5757.4900085447	0.0004592731
5759.4188159177	0.0004011045
5761.3476232907	0.0004414478
5763.2764306638	0.0004844115
5765.2052380368	0.0003949645
5767.1340454099	0.0004630854
5769.0628527829	0.0004957782
5770.9916601560	0.0004148340
5772.9204675290	0.0004020590
5774.8492749021	0.0004228611
5776.7780822751	0.0004020770
5778.7068896482	0.0003829559
5780.6356970212	0.0004179325
5782.5645043943	0.0003785054
5784.4933117673	0.0004387035
5786.4221191404	0.0005033099
5788.3509265134	0.0004663995
5790.2797338865	0.0004603655
5792.2085412595	0.0003961313
5794.1373486325	0.0003839789
5796.0661560056	0.0003734871
5797.9949633786	0.0003686788
5799.9237707517	0.0003574558
5801.8525781247	0.0003369043
5803.7813854978	0.0004001830
5805.7101928708	0.0003588703
5807.6390002439	0.0003839091
5809.5678076169	0.0004253888
5811.4966149900	0.0003612941
5813.4254223630	0.0004169470
5815.3542297361	0.0004327269
5817.2830371091	0.0003892538
5819.2118444822	0.0003649194
5821.1406518552	0.0003514278
5823.0694592282	0.0004012473
5824.9982666013	0.0004410102
5826.9270739743	0.0004193929
5828.8558813474	0.0003670390
5830.7846887204	0.0004042709
5832.7134960935	0.0003911717
5834.6423034665	0.0003935873
5836.5711108396	0.0004657857
5838.4999182126	0.0003574733
5840.4287255857	0.0004234193
5842.3575329587	0.0004561459
5844.2863403318	0.0003397159
5846.2151477048	0.0003892556
5848.1439550779	0.0003070338
5850.0727624509	0.0003544490
5852.0015698239	0.0003861899
5853.9303771970	0.0002804792
5855.8591845700	0.0003654307
5857.7879919431	0.0003746011
5859.7167993161	0.0003737679
5861.6456066892	0.0003756012
5863.5744140622	0.0003559832
5865.5032214353	0.0003295372
5867.4320288083	0.0003205077
5869.3608361814	0.0003740462
5871.2896435544	0.0003119309
5873.2184509275	0.0003196638
5875.1472583005	0.0003649493
5877.0760656736	0.0003387551
5879.0048730466	0.0003407984
5880.9336804196	0.0003385811
5882.8624877927	0.0003226095
5884.7912951657	0.0003552022
5886.7201025388	0.0003631943
5888.6489099118	0.0002813048
5890.5777172849	0.0003208276
5892.5065246579	0.0003555225
5894.4353320310	0.0003719385
5896.3641394040	0.0003676944
5898.2929467771	0.0002900466
5900.2217541501	0.0003036414
5902.1505615232	0.0002699309
5904.0793688962	0.0003208556
5906.0081762693	0.0003465540
5907.9369836423	0.0003378591
5909.8657910154	0.0004186085
5911.7945983884	0.0003047326
5913.7234057614	0.0002541810
5915.6522131345	0.0003165701
5917.5810205075	0.0002875689
5919.5098278806	0.0002995595
5921.4386352536	0.0003859448
5923.3674426267	0.0003172304
5925.2962499997	0.0002550790
5927.2250573728	0.0003793004
5929.1538647458	0.0003397896
5931.0826721189	0.0002602806
5933.0114794919	0.0002796405
5934.9402868650	0.0003556245
5936.8690942380	0.0003248452
5938.7979016111	0.0002364231
5940.7267089841	0.0003370258
5942.6555163571	0.0002952923
5944.5843237302	0.0002444870
5946.5131311032	0.0002720091
5948.4419384763	0.0002772149
5950.3707458493	0.0003206980
5952.2995532224	0.0002913276
5954.2283605954	0.0003058364
5956.1571679685	0.0003022065
5958.0859753415	0.0002805969
5960.0147827146	0.0002303411
5961.9435900876	0.0002427742
5963.8723974607	0.0003524811
5965.8012048337	0.0002941163
5967.7300122068	0.0002687252
5969.6588195798	0.0003145926
5971.5876269528	0.0002976252
5973.5164343259	0.0002819813
5975.4452416989	0.0002927555
5977.3740490720	0.0002424590
5979.3028564450	0.0002170170
5981.2316638181	0.0002946550
5983.1604711911	0.0002510734
5985.0892785642	0.0002939242
5987.0180859372	0.0003373757
5988.9468933103	0.0002442920
5990.8757006833	0.0003114116
5992.8045080564	0.0003170588
5994.7333154294	0.0002723164
5996.6621228025	0.0003223213
5998.5909301755	0.0002900005
6000.5197375485	0.0002261492
