399.2631262207	0.2256559581
401.1919335938	0.2697279155
403.1207409668	0.0706475824
405.0495483398	0.0684812739
406.9783557129	0.0415195152
408.9071630859	0.0490437560
410.8359704590	0.1850727350
412.7647778320	0.2546178997
414.6935852051	0.1976177543
416.6223925781	0.0905097201
418.5511999512	0.3519885242
420.4800073242	0.2566282749
422.4088146973	0.1295115352
424.3376220703	0.2032036185
426.2664294434	0.2996825576
428.1952368164	0.1715557873
430.1240441895	0.1357104182
432.0528515625	0.3248952627
433.9816589355	0.1642988920
435.9104663086	0.1972409338
437.8392736816	0.2104467452
439.7680810547	0.3609983623
441.6968884277	0.4472321272
443.6256958008	-0.0153832799
445.5545031738	0.0646964237
447.4833105469	0.2407346964
449.4121179199	0.3650461137
451.3409252930	0.5015807748
453.2697326660	0.2037767917
455.1985400391	0.1272705942
457.1273474121	0.0908822268
459.0561547852	0.1697175652
460.9849621582	0.1246303618
462.9137695313	0.1585652679
464.8425769043	0.8219926953
466.7713842773	-0.0296867117
468.7001916504	0.1299518347
470.6289990234	0.5195553899
472.5578063965	0.2112217546
474.4866137695	0.4338190258
476.4154211426	0.4509710968
478.3442285156	0.1527088732
480.2730358887	0.5080976486
482.2018432617	0.2388958335
484.1306506348	0.0529104024
486.0594580078	1.5237592459
487.9882653809	0.4283341765
489.9170727539	5.4639649391
491.8458801270	-2.7488718033
493.7746875000	-0.2717791200
495.7034948730	9.6878576279
497.6323022461	1.1010187864
499.5611096191	0.2439355105
501.4899169922	0.0284541827
503.4187243652	0.0237922147
505.3475317383	-0.3422768414
507.2763391113	-0.7422972322
509.2051464844	1.3425109386
511.1339538574	0.0885427445
513.0627612305	0.0955805555
514.9915686035	0.8433253169
516.9203759766	0.5213564634
518.8491833496	0.0342655219
520.7779907227	0.6318755746
522.7067980957	-0.5327723622
524.6356054688	-0.0777627826
526.5644128418	0.8457105756
528.4932202148	0.0917654037
530.4220275879	0.1007215306
532.3508349609	-3.1379384995
534.2796423340	1.2100512981
536.2084497070	0.5863040090
538.1372570801	19.3701324463
540.0660644531	0.7944529653
541.9948718262	0.7043495774
543.9236791992	0.9587398171
545.8524865723	1.4926798344
547.7812939453	1.4249097109
549.7101013184	0.3445153534
551.6389086914	0.4147701561
553.5677160645	-3.5081651211
555.4965234375	-0.6585882902
557.4253308105	-0.1124469489
559.3541381836	0.5606250763
561.2829455566	0.1693793237
563.2117529297	0.4213337898
565.1405603027	1.3564262390
567.0693676758	0.1142021641
568.9981750488	-5.5530438423
570.9269824219	-1.1199470758
572.8557897949	-0.3837361932
574.7845971680	1.6412584782
576.7134045410	0.4558318853
578.6422119141	-0.2796605825
580.5710192871	1.7787469625
582.4998266602	0.8962889314
584.4286340332	1.3465281725
586.3574414063	0.8308909535
588.2862487793	-0.0876521692
590.2150561523	-0.0919027105
592.1438635254	-0.1656750143
594.0726708984	0.3619244993
596.0014782715	0.2304793149
597.9302856445	0.6090869904
599.8590930176	1.7038387060
601.7879003906	-0.1564717144
603.7167077637	0.2105745375
605.6455151367	-1.6352920532
607.5743225098	-6.3925123215
609.5031298828	6.4757990837
611.4319372559	0.8449236155
613.3607446289	1.3334304094
615.2895520020	-1.3047720194
617.2183593750	-0.3381533027
619.1471667480	-0.6071903110
621.0759741211	-0.6071903110
623.0047814941	1.1257119179
624.9335888672	2.2901246548
626.8623962402	-3.4306416512
628.7912036133	23.2410316467
630.7200109863	1.5600959063
632.6488183594	0.2945704162
634.5776257324	0.3950853944
636.5064331055	0.2854968011
638.4352404785	0.2440878302
640.3640478516	0.4659529626
642.2928552246	0.3233264983
644.2216625977	0.2179626822
646.1504699707	0.3345638514
648.0792773438	0.3355498612
650.0080847168	0.3839042783
651.9368920898	0.2990369797
653.8656994629	0.2550447881
655.7945068359	0.3992249966
657.7233142090	0.2558316588
659.6521215820	0.3384585977
661.5809289551	0.3998941779
663.5097363281	0.2376874089
665.4385437012	0.3791522384
667.3673510742	0.3241797090
669.2961584473	0.3048875630
671.2249658203	0.3174069524
673.1537731934	0.2213386744
675.0825805664	0.3660851419
677.0113879395	0.3488506377
678.9401953125	0.2494021505
680.8690026855	0.3159703910
682.7978100586	0.3493197262
684.7266174316	0.3014417589
686.6554248047	0.3337090313
688.5842321777	0.3514410555
690.5130395508	0.3079084158
692.4418469238	0.3835763633
694.3706542969	0.3621229529
696.2994616699	0.3426806033
698.2282690430	0.3442230225
700.1570764160	0.3457716107
702.0858837891	0.3665809035
704.0146911621	0.3018087149
705.9434985352	0.3654831648
707.8723059082	0.3672366142
709.8011132813	0.2887073159
711.7299206543	0.4482789934
713.6587280273	0.4067962170
715.5875354004	0.4085867107
717.5163427734	0.6140919328
719.4451501465	0.2518438399
721.3739575195	0.8807122111
723.3027648926	0.7736985087
725.2315722656	-1.4438282251
727.1603796387	47.7799377441
729.0891870117	0.6414712071
731.0179943848	-14.7191505432
732.9468017578	1.1238492727
734.8756091309	0.4797102511
736.8044165039	1.4983384609
738.7332238770	0.5855380297
740.6620312500	-13.7773323059
742.5908386230	26.2514019012
744.5196459961	-1.3249056339
746.4484533691	3.3416357040
748.3772607422	5.8211178780
750.3060681152	2.7006390095
752.2348754883	0.0428349152
754.1636828613	0.2855795622
756.0924902344	1.0217987299
758.0212976074	1.4164485931
759.9501049805	4.6174273491
761.8789123535	1.0216720104
763.8077197266	-73.2648239136
765.7365270996	1.0210267305
767.6653344727	0.1107699797
769.5941418457	1.4961178303
771.5229492188	0.4645457566
773.4517565918	0.9507583380
775.3805639648	1.8104801178
777.3093713379	0.0906473398
779.2381787109	0.7221174240
781.1669860840	1.0101954937
783.0957934570	0.5888163447
785.0246008301	0.6788524389
786.9534082031	0.5186236501
788.8822155762	0.4747087061
790.8110229492	0.5428761840
792.7398303223	-0.0940628871
794.6686376953	0.7288452387
796.5974450684	0.8322684765
798.5262524414	0.7101330161
800.4550598145	0.6539797783
802.3838671875	0.4229675233
804.3126745605	0.6832206249
806.2414819336	0.5784263015
808.1702893066	0.3073420227
810.0990966797	0.9448562264
812.0279040527	0.9639061093
813.9567114258	1.2649066448
815.8855187988	0.4493862092
817.8143261719	0.5265330672
819.7431335449	1.9074510336
821.6719409180	1.1925400496
823.6007482910	1.4694310427
825.5295556641	1.1097078323
827.4583630371	0.9784297347
829.3871704102	0.9518076181
831.3159777832	0.4647639096
833.2447851563	0.6787955761
835.1735925293	0.6173818111
837.1023999023	0.5013509393
839.0312072754	0.5146232247
840.9600146484	0.4091792703
842.8888220215	0.5670214891
844.8176293945	0.5692886114
846.7464367676	0.3098109066
848.6752441406	0.5591520071
850.6040515137	0.6526664495
852.5328588867	0.7544981241
854.4616662598	1.0899764299
856.3904736328	0.4967302084
858.3192810059	0.5930660367
860.2480883789	0.8807455897
862.1768957520	0.7075147629
864.1057031250	1.3261078596
866.0345104980	0.5355502963
867.9633178711	0.2527374923
869.8921252441	0.7574091554
871.8209326172	0.2786909938
873.7497399902	0.6687084436
875.6785473633	0.7283408046
877.6073547363	0.6342039108
879.5361621094	1.1784297228
881.4649694824	1.1264362335
883.3937768555	0.9448992610
885.3225842285	0.8617208004
887.2513916016	0.6746361256
889.1801989746	0.7275435328
891.1090063477	2.5856485367
893.0378137207	0.8488347530
894.9666210938	0.0775521323
896.8954284668	1.1304773092
898.8242358398	1.7932586670
900.7530432129	1.4828978777
902.6818505859	0.9916341305
904.6106579590	1.1685290337
906.5394653320	0.7150106430
908.4682727051	0.4262599349
910.3970800781	0.7944330573
912.3258874512	0.1740014255
914.2546948242	0.6141663194
916.1835021973	0.9348480701
918.1123095703	0.4253903329
920.0411169434	0.6265221834
921.9699243164	0.5226584673
923.8987316895	0.5930553079
925.8275390625	0.6140511632
927.7563464355	0.4369054437
929.6851538086	0.4958899319
931.6139611816	0.4682077765
933.5427685547	0.4780971408
935.4715759277	0.4284557104
937.4003833008	0.4672961831
939.3291906738	0.4924486279
941.2579980469	0.4206325412
943.1868054199	0.4928317964
945.1156127930	0.4821805954
947.0444201660	0.4680460989
948.9732275391	0.5190737247
950.9020349121	0.5834047794
952.8308422852	0.4970308542
954.7596496582	0.3782545924
956.6884570313	0.5102461576
958.6172644043	0.5032268763
960.5460717773	0.5199864507
962.4748791504	0.5786519647
964.4036865234	0.4223137796
966.3324938965	0.4908304811
968.2613012695	0.4913901389
970.1901086426	0.4300816655
972.1189160156	0.4971602559
974.0477233887	0.5526089668
975.9765307617	0.5714179873
977.9053381348	0.4460486472
979.8341455078	0.4316326082
981.7629528809	0.4947556853
983.6917602539	0.4043923020
985.6205676270	0.3780152202
987.5493750000	0.4325568974
989.4781823730	0.4287894070
991.4069897461	0.4144399166
993.3357971191	0.4365496635
995.2646044922	0.4445644319
997.1934118652	0.4096562862
999.1222192383	0.3782797754
1001.0510266113	0.4044074118
1002.9798339844	0.4165833890
1004.9086413574	0.3999673724
1006.8374487305	0.4191211760
1008.7662561035	0.4202824235
1010.6950634766	0.4022460580
1012.6238708496	0.4027928114
1014.5526782227	0.4000599384
1016.4814855957	0.3991647065
1018.4102929688	0.4086441398
1020.3391003418	0.4044637680
1022.2679077148	0.3935261667
1024.1967150879	0.3933125734
1026.1255224609	0.3878409564
1028.0543298340	0.3892692924
1029.9831372070	0.3838981390
1031.9119445801	0.3806358874
1033.8407519531	0.3949925900
1035.7695593262	0.3826719820
1037.6983666992	0.3750805557
1039.6271740723	0.3817805648
1041.5559814453	0.3829759955
1043.4847888184	0.3814297616
1045.4135961914	0.3770743310
1047.3424035645	0.3833572567
1049.2712109375	0.3739507496
1051.2000183105	0.3713336289
1053.1288256836	0.3728451431
1055.0576330566	0.3598330915
1056.9864404297	0.3710291982
1058.9152478027	0.3829960525
1060.8440551758	0.3787738383
1062.7728625488	0.3733675778
1064.7016699219	0.3730582595
1066.6304772949	0.3726818562
1068.5592846680	0.3751072884
1070.4880920410	0.3628309965
1072.4168994141	0.3750610352
1074.3457067871	0.3986153603
1076.2745141602	0.3627180457
1078.2033215332	0.3875522912
1080.1321289062	0.3846471906
1082.0609362793	0.3680502176
1083.9897436523	0.4074473083
1085.9185510254	0.3670183122
1087.8473583984	0.4043031633
1089.7761657715	0.3973291814
1091.7049731445	0.3500090539
1093.6337805176	0.3903615773
1095.5625878906	0.3733324707
1097.4913952637	0.3893858492
1099.4202026367	0.3912095129
1101.3490100098	0.4023896754
1103.2778173828	0.3801364899
1105.2066247559	0.3614998758
1107.1354321289	0.4132754207
1109.0642395019	0.3878296018
1110.9930468750	0.4110438824
1112.9218542480	0.4066043794
1114.8506616211	0.4003981054
1116.7794689941	0.3996039033
1118.7082763672	0.3751056790
1120.6370837402	0.4167256057
1122.5658911133	0.4287014306
1124.4946984863	0.4251224101
1126.4235058594	0.3838828802
1128.3523132324	0.3910584152
1130.2811206055	0.3997025192
1132.2099279785	0.3855448067
1134.1387353516	0.3841078281
1136.0675427246	0.3569220304
1137.9963500977	0.3946718872
1139.9251574707	0.3680314422
1141.8539648437	0.3879987895
1143.7827722168	0.4243147969
1145.7115795898	0.3550669551
1147.6403869629	0.3597708941
1149.5691943359	0.3778010011
1151.4980017090	0.3733188510
1153.4268090820	0.3701432943
1155.3556164551	0.3853547275
1157.2844238281	0.3909412324
1159.2132312012	0.3611634374
1161.1420385742	0.3679564893
1163.0708459473	0.3686324358
1164.9996533203	0.3618306816
1166.9284606934	0.3593591750
1168.8572680664	0.3601357639
1170.7860754394	0.3691592813
1172.7148828125	0.3553691804
1174.6436901855	0.3516816795
1176.5724975586	0.3564247191
1178.5013049316	0.3520819545
1180.4301123047	0.3483204246
1182.3589196777	0.3508177698
1184.2877270508	0.3511308134
1186.2165344238	0.3474026322
1188.1453417969	0.3504051566
1190.0741491699	0.3508232534
1192.0029565430	0.3534511328
1193.9317639160	0.3482100368
1195.8605712891	0.3351516724
1197.7893786621	0.3349127173
1199.7181860351	0.3430791497
1201.6469934082	0.3463868499
1203.5758007812	0.3402254283
1205.5046081543	0.3416245878
1207.4334155273	0.3450560272
1209.3622229004	0.3382683396
1211.2910302734	0.3382782340
1213.2198376465	0.3386589587
1215.1486450195	0.3366216719
1217.0774523926	0.3411875665
1219.0062597656	0.3390333354
1220.9350671387	0.3367410302
1222.8638745117	0.3357987106
1224.7926818848	0.3319304883
1226.7214892578	0.3374337852
1228.6502966308	0.3364963531
1230.5791040039	0.3340871632
1232.5079113769	0.3357864320
1234.4367187500	0.3313031495
1236.3655261230	0.3345372081
1238.2943334961	0.3333743215
1240.2231408691	0.3323702216
1242.1519482422	0.3361080587
1244.0807556152	0.3315286338
1246.0095629883	0.3312030137
1247.9383703613	0.3313814402
1249.8671777344	0.3330523670
1251.7959851074	0.3370798230
1253.7247924805	0.3370823860
1255.6535998535	0.3336920142
1257.5824072266	0.3320744336
1259.5112145996	0.3361399472
1261.4400219726	0.3344163895
1263.3688293457	0.3355026543
1265.2976367187	0.3352292478
1267.2264440918	0.3335072994
1269.1552514648	0.3379420936
1271.0840588379	0.3325035274
1273.0128662109	0.3308857977
1274.9416735840	0.3342305422
1276.8704809570	0.3369714916
1278.7992883301	0.3389557898
1280.7280957031	0.3365773857
1282.6569030762	0.3386595547
1284.5857104492	0.3360633850
1286.5145178223	0.3338639140
1288.4433251953	0.3356744051
1290.3721325683	0.3421329558
1292.3009399414	0.3438377082
1294.2297473144	0.3320109844
1296.1585546875	0.3332086802
1298.0873620605	0.3375432491
1300.0161694336	0.3398979008
1301.9449768066	0.3396975696
1303.8737841797	0.3321851194
1305.8025915527	0.3367232382
1307.7313989258	0.3389061391
1309.6602062988	0.3368345201
1311.5890136719	0.3385179043
1313.5178210449	0.3368932903
1315.4466284180	0.3371389508
1317.3754357910	0.3358625472
1319.3042431640	0.3315846920
1321.2330505371	0.3319072425
1323.1618579101	0.3351655006
1325.0906652832	0.3342061341
1327.0194726562	0.3308926523
1328.9482800293	0.3299191296
1330.8770874023	0.3314988613
1332.8058947754	0.3315238059
1334.7347021484	0.3295022249
1336.6635095215	0.3293149471
1338.5923168945	0.3303399086
1340.5211242676	0.3307157457
1342.4499316406	0.3289907277
1344.3787390137	0.3273262382
1346.3075463867	0.3278390169
1348.2363537597	0.3300082982
1350.1651611328	0.3279227614
1352.0939685058	0.3266852498
1354.0227758789	0.3304652572
1355.9515832519	0.3262598217
1357.8803906250	0.3246083260
1359.8091979980	0.3282140195
1361.7380053711	0.3280097842
1363.6668127441	0.3278561831
1365.5956201172	0.3277987540
1367.5244274902	0.3278655410
1369.4532348633	0.3226378560
1371.3820422363	0.3273102939
1373.3108496094	0.3350271285
1375.2396569824	0.3286842108
1377.1684643555	0.3282065094
1379.0972717285	0.3270295262
1381.0260791015	0.3252071142
1382.9548864746	0.3270116448
1384.8836938476	0.3265050054
1386.8125012207	0.3292800486
1388.7413085937	0.3276650012
1390.6701159668	0.3240602016
1392.5989233398	0.3274726868
1394.5277307129	0.3297791481
1396.4565380859	0.3258232474
1398.3853454590	0.3264262080
1400.3141528320	0.3264318407
1402.2429602051	0.3253662288
1404.1717675781	0.3288084865
1406.1005749512	0.3276190758
1408.0293823242	0.3265376985
1409.9581896972	0.3286669850
1411.8869970703	0.3317203224
1413.8158044433	0.3308277428
1415.7446118164	0.3272036314
1417.6734191894	0.3290195763
1419.6022265625	0.3292138577
1421.5310339355	0.3275073171
1423.4598413086	0.3271679878
1425.3886486816	0.3306956291
1427.3174560547	0.3297829926
1429.2462634277	0.3256886899
1431.1750708008	0.3321382105
1433.1038781738	0.3339216709
1435.0326855469	0.3324833810
1436.9614929199	0.3373956382
1438.8903002929	0.3360822797
1440.8191076660	0.3322273791
1442.7479150390	0.3317711949
1444.6767224121	0.3317525089
1446.6055297851	0.3357731700
1448.5343371582	0.3359868228
1450.4631445312	0.3315973282
1452.3919519043	0.3337609470
1454.3207592773	0.3316397071
1456.2495666504	0.3380827904
1458.1783740234	0.3363458812
1460.1071813965	0.3263493478
1462.0359887695	0.3308480978
1463.9647961426	0.3245074153
1465.8936035156	0.3213644326
1467.8224108886	0.3222153485
1469.7512182617	0.3202540576
1471.6800256347	0.3242144287
1473.6088330078	0.3199207783
1475.5376403808	0.3189010918
1477.4664477539	0.3164100647
1479.3952551269	0.3142075539
1481.3240625000	0.3194271922
1483.2528698730	0.3179818392
1485.1816772461	0.3176453710
1487.1104846191	0.3165936470
1489.0392919922	0.3114191592
1490.9680993652	0.3130807281
1492.8969067383	0.3134343028
1494.8257141113	0.3110702336
1496.7545214843	0.3118551373
1498.6833288574	0.3105469942
1500.6121362304	0.3082086742
1502.5409436035	0.3091914952
1504.4697509765	0.3101615608
1506.3985583496	0.3083105981
1508.3273657226	0.3065616190
1510.2561730957	0.3077998161
1512.1849804687	0.3090789318
1514.1137878418	0.3085977733
1516.0425952148	0.3075914383
1517.9714025879	0.3078367412
1519.9002099609	0.3078605533
1521.8290173340	0.3067116141
1523.7578247070	0.3071787953
1525.6866320801	0.3052106202
1527.6154394531	0.3033153117
1529.5442468261	0.3050048649
1531.4730541992	0.3046587706
1533.4018615722	0.3044951558
1535.3306689453	0.3050141335
1537.2594763183	0.3036524355
1539.1882836914	0.3024354279
1541.1170910644	0.3026386797
1543.0458984375	0.3030931652
1544.9747058105	0.3019141555
1546.9035131836	0.3008138239
1548.8323205566	0.3016454279
1550.7611279297	0.3003562093
1552.6899353027	0.3003433645
1554.6187426758	0.3021603823
1556.5475500488	0.2983334363
1558.4763574218	0.2984803021
1560.4051647949	0.3025845885
1562.3339721679	0.2998241782
1564.2627795410	0.2990468144
1566.1915869140	0.2984870076
1568.1203942871	0.2976828814
1570.0492016601	0.2974033654
1571.9780090332	0.2971714139
1573.9068164062	0.2974652052
1575.8356237793	0.2971346974
1577.7644311523	0.2966194153
1579.6932385254	0.2957530320
1581.6220458984	0.2957561314
1583.5508532715	0.2955634892
1585.4796606445	0.2948194742
1587.4084680175	0.2950710952
1589.3372753906	0.2944301069
1591.2660827636	0.2933363318
1593.1948901367	0.2941666245
1595.1236975097	0.2958761454
1597.0525048828	0.2937406600
1598.9813122558	0.2916864455
1600.9101196289	0.2934219539
1602.8389270019	0.2922140658
1604.7677343750	0.2908450663
1606.6965417480	0.2938896418
1608.6253491211	0.2936767340
1610.5541564941	0.2914883196
1612.4829638672	0.2927046418
1614.4117712402	0.2931431532
1616.3405786132	0.2937395871
1618.2693859863	0.2946032882
1620.1981933593	0.2955153883
1622.1270007324	0.2973642647
1624.0558081054	0.2985801101
1625.9846154785	0.3010024726
1627.9134228515	0.3014800847
1629.8422302246	0.3037630916
1631.7710375976	0.3062097728
1633.6998449707	0.3071095943
1635.6286523437	0.3117291927
1637.5574597168	0.3124437630
1639.4862670898	0.3152876496
1641.4150744629	0.3195245266
1643.3438818359	0.3217393458
1645.2726892090	0.3271341324
1647.2014965820	0.3305693567
1649.1303039550	0.3317520916
1651.0591113281	0.3356299400
1652.9879187011	0.3379108906
1654.9167260742	0.3378958106
1656.8455334472	0.3424046338
1658.7743408203	0.3440680802
1660.7031481933	0.3477638662
1662.6319555664	0.3505096138
1664.5607629394	0.3494864106
1666.4895703125	0.3546990156
1668.4183776855	0.3542567492
1670.3471850586	0.3560785055
1672.2759924316	0.3610360026
1674.2047998047	0.3619807959
1676.1336071777	0.3634821475
1678.0624145507	0.3623112142
1679.9912219238	0.3645443916
1681.9200292968	0.3666710556
1683.8488366699	0.3685979545
1685.7776440429	0.3682865500
1687.7064514160	0.3683565259
1689.6352587890	0.3712185919
1691.5640661621	0.3692477643
1693.4928735351	0.3704012930
1695.4216809082	0.3723785281
1697.3504882812	0.3720876575
1699.2792956543	0.3716319501
1701.2081030273	0.3705303371
1703.1369104004	0.3723401427
1705.0657177734	0.3721943796
1706.9945251464	0.3716662228
1708.9233325195	0.3713297844
1710.8521398925	0.3707529008
1712.7809472656	0.3694623709
1714.7097546386	0.3688742816
1716.6385620117	0.3694643676
1718.5673693847	0.3679070771
1720.4961767578	0.3677844703
1722.4249841308	0.3673256338
1724.3537915039	0.3650130630
1726.2825988769	0.3649531305
1728.2114062500	0.3654348552
1730.1402136230	0.3624251485
1732.0690209961	0.3614239097
1733.9978283691	0.3614332080
1735.9266357421	0.3597672284
1737.8554431152	0.3606124222
1739.7842504882	0.3582458496
1741.7130578613	0.3564942181
1743.6418652343	0.3571664393
1745.5706726074	0.3559804559
1747.4994799804	0.3563457727
1749.4282873535	0.3549073040
1751.3570947265	0.3537477553
1753.2859020996	0.3535763025
1755.2147094726	0.3507856429
1757.1435168457	0.3505593836
1759.0723242187	0.3511239886
1761.0011315918	0.3497711718
1762.9299389648	0.3496583104
1764.8587463379	0.3493710458
1766.7875537109	0.3486095965
1768.7163610839	0.3467441201
1770.6451684570	0.3458143175
1772.5739758300	0.3463529944
1774.5027832031	0.3441759050
1776.4315905761	0.3429365754
1778.3603979492	0.3439229429
1780.2892053222	0.3434114158
1782.2180126953	0.3423482478
1784.1468200683	0.3424060345
1786.0756274414	0.3418686688
1788.0044348144	0.3413108587
1789.9332421875	0.3411239684
1791.8620495605	0.3397376537
1793.7908569336	0.3398463428
1795.7196643066	0.3398546278
1797.6484716796	0.3383743167
1799.5772790527	0.3380463719
1801.5060864257	0.3378115892
1803.4348937988	0.3364361525
1805.3637011718	0.3359340131
1807.2925085449	0.3364668787
1809.2213159179	0.3358106613
1811.1501232910	0.3350517154
1813.0789306640	0.3342224956
1815.0077380371	0.3348312676
1816.9365454101	0.3352136314
1818.8653527832	0.3339348733
1820.7941601562	0.3339322507
1822.7229675293	0.3328179419
1824.6517749023	0.3334368467
1826.5805822753	0.3326746225
1828.5093896484	0.3314108253
1830.4381970214	0.3330170214
1832.3670043945	0.3316137195
1834.2958117675	0.3307485282
1836.2246191406	0.3294359446
1838.1534265136	0.3298997283
1840.0822338867	0.3298868835
1842.0110412597	0.3278530538
1843.9398486328	0.3297216594
1845.8686560058	0.3299278021
1847.7974633789	0.3295792043
1849.7262707519	0.3273157179
1851.6550781250	0.3262692988
1853.5838854980	0.3278616071
1855.5126928710	0.3258893788
1857.4415002441	0.3260682225
1859.3703076171	0.3273068964
1861.2991149902	0.3267225325
1863.2279223632	0.3250813782
1865.1567297363	0.3251506090
1867.0855371093	0.3249234259
1869.0143444824	0.3236328065
1870.9431518554	0.3253796697
1872.8719592285	0.3242850006
1874.8007666015	0.3241879344
1876.7295739746	0.3257514536
1878.6583813476	0.3256474435
1880.5871887207	0.3256962001
1882.5159960937	0.3243634403
1884.4448034667	0.3235636055
1886.3736108398	0.3222483397
1888.3024182128	0.3222279847
1890.2312255859	0.3241451979
1892.1600329589	0.3247220218
1894.0888403320	0.3232428432
1896.0176477050	0.3221755624
1897.9464550781	0.3238110840
1899.8752624511	0.3223475516
1901.8040698242	0.3219015300
1903.7328771972	0.3223303556
1905.6616845703	0.3197307587
1907.5904919433	0.3218483627
1909.5192993164	0.3223616481
1911.4481066894	0.3198882937
1913.3769140625	0.3204818666
1915.3057214355	0.3209802508
1917.2345288085	0.3219650686
1919.1633361816	0.3204583824
1921.0921435546	0.3196313381
1923.0209509277	0.3200764656
1924.9497583007	0.3181906939
1926.8785656738	0.3194947541
1928.8073730468	0.3196898997
1930.7361804199	0.3181918561
1932.6649877929	0.3172854781
1934.5937951660	0.3182733655
1936.5226025390	0.3197853863
1938.4514099121	0.3163620234
1940.3802172851	0.3173828721
1942.3090246582	0.3180365562
1944.2378320312	0.3162878156
1946.1666394042	0.3182005286
1948.0954467773	0.3170969486
1950.0242541503	0.3176168203
1951.9530615234	0.3179839551
1953.8818688964	0.3175689280
1955.8106762695	0.3172401786
1957.7394836425	0.3156667352
1959.6682910156	0.3170735240
1961.5970983886	0.3168984354
1963.5259057617	0.3171907663
1965.4547131347	0.3168451786
1967.3835205078	0.3154747784
1969.3123278808	0.3158889115
1971.2411352539	0.3156143427
1973.1699426269	0.3161179125
1975.0987499999	0.3151915669
1977.0275573730	0.3154011369
1978.9563647460	0.3154702783
1980.8851721191	0.3152501881
1982.8139794921	0.3163996339
1984.7427868652	0.3151235878
1986.6715942382	0.3150316775
1988.6004016113	0.3141287267
1990.5292089843	0.3145879507
1992.4580163574	0.3153406382
1994.3868237304	0.3132817447
1996.3156311035	0.3137664795
1998.2444384765	0.3137676418
2000.1732458496	0.3151557148
2002.1020532226	0.3144183159
2004.0308605956	0.3122979403
2005.9596679687	0.3135581315
2007.8884753417	0.3126932681
2009.8172827148	0.3133127093
2011.7460900878	0.3124915957
2013.6748974609	0.3129177094
2015.6037048339	0.3141385615
2017.5325122070	0.3115662932
2019.4613195800	0.3137229681
2021.3901269531	0.3125266135
2023.3189343261	0.3113156259
2025.2477416992	0.3134078979
2027.1765490722	0.3117188215
2029.1053564453	0.3125187755
2031.0341638183	0.3129176497
2032.9629711914	0.3118967414
2034.8917785644	0.3115448058
2036.8205859374	0.3130700588
2038.7493933105	0.3122631013
2040.6782006835	0.3101517856
2042.6070080566	0.3129598796
2044.5358154296	0.3117530942
2046.4646228027	0.3099332154
2048.3934301757	0.3108436763
2050.3222375488	0.3126044571
2052.2510449218	0.3117090464
2054.1798522949	0.3092973530
2056.1086596679	0.3131998479
2058.0374670410	0.3128462732
2059.9662744140	0.3117490411
2061.8950817871	0.3129609525
2063.8238891601	0.3122763038
2065.7526965331	0.3132256567
2067.6815039062	0.3124719560
2069.6103112792	0.3123184443
2071.5391186523	0.3117964268
2073.4679260253	0.3114958107
2075.3967333984	0.3114859164
2077.3255407714	0.3111140430
2079.2543481445	0.3094764650
2081.1831555175	0.3083523810
2083.1119628906	0.3119970858
2085.0407702636	0.3111935258
2086.9695776367	0.3110525310
2088.8983850097	0.3128722310
2090.8271923828	0.3128507435
2092.7559997558	0.3134653270
2094.6848071288	0.3115900159
2096.6136145019	0.3114733994
2098.5424218749	0.3114868402
2100.4712292480	0.3125166297
2102.4000366210	0.3117982149
2104.3288439941	0.3105405569
2106.2576513671	0.3122619987
2108.1864587402	0.3107476234
2110.1152661132	0.3116501272
2112.0440734863	0.3118666708
2113.9728808593	0.3102788031
2115.9016882324	0.3106127381
2117.8304956054	0.3120943606
2119.7593029785	0.3122598231
2121.6881103515	0.3099381626
2123.6169177245	0.3116931617
2125.5457250976	0.3117024899
2127.4745324706	0.3107878566
2129.4033398437	0.3107323945
2131.3321472167	0.3091573715
2133.2609545898	0.3108991086
2135.1897619628	0.3126665950
2137.1185693359	0.3114322126
2139.0473767089	0.3098376393
2140.9761840820	0.3112473488
2142.9049914550	0.3103281856
2144.8337988281	0.3098233044
2146.7626062011	0.3114191592
2148.6914135742	0.3111651838
2150.6202209472	0.3118705153
2152.5490283203	0.3098068237
2154.4778356933	0.3102481663
2156.4066430663	0.3107494712
2158.3354504394	0.3100678921
2160.2642578124	0.3108540177
2162.1930651855	0.3086049855
2164.1218725585	0.3097518682
2166.0506799316	0.3096661866
2167.9794873046	0.3092113137
2169.9082946777	0.3105616271
2171.8371020507	0.3114882112
2173.7659094238	0.3121216595
2175.6947167968	0.3089853227
2177.6235241699	0.3105039895
2179.5523315429	0.3110761642
2181.4811389160	0.3084481359
2183.4099462890	0.3094276190
2185.3387536620	0.3092592657
2187.2675610351	0.3085315824
2189.1963684081	0.3087506890
2191.1251757812	0.3100769222
2193.0539831542	0.3091802895
2194.9827905273	0.3086484671
2196.9115979003	0.3101543784
2198.8404052734	0.3092567921
2200.7692126464	0.3087979853
2202.6980200195	0.3086897135
2204.6268273925	0.3076336682
2206.5556347656	0.3077753782
2208.4844421386	0.3085725605
2210.4132495117	0.3083472848
2212.3420568847	0.3103092015
2214.2708642577	0.3106424809
2216.1996716308	0.3089517057
2218.1284790038	0.3091754615
2220.0572863769	0.3072226644
2221.9860937499	0.3082120717
2223.9149011230	0.3090424836
2225.8437084960	0.3078784049
2227.7725158691	0.3084566891
2229.7013232421	0.3082023561
2231.6301306152	0.3087175488
2233.5589379882	0.3069942594
2235.4877453613	0.3073846102
2237.4165527343	0.3080416918
2239.3453601074	0.3065619171
2241.2741674804	0.3080814481
2243.2029748534	0.3088606596
2245.1317822265	0.3092111051
2247.0605895995	0.3079447150
2248.9893969726	0.3072737157
2250.9182043456	0.3070929945
2252.8470117187	0.3074400723
2254.7758190917	0.3089461327
2256.7046264648	0.3079284728
2258.6334338378	0.3082482815
2260.5622412109	0.3074705303
2262.4910485839	0.3081775010
2264.4198559570	0.3096650839
2266.3486633300	0.3084883690
2268.2774707031	0.3079936802
2270.2062780761	0.3067496717
2272.1350854491	0.3067320287
2274.0638928222	0.3064598441
2275.9927001952	0.3077195585
2277.9215075683	0.3082161248
2279.8503149413	0.3073797822
2281.7791223144	0.3074413836
2283.7079296874	0.3057502806
2285.6367370605	0.3069909215
2287.5655444335	0.3063545227
2289.4943518066	0.3056621253
2291.4231591796	0.3064433932
2293.3519665527	0.3061006665
2295.2807739257	0.3067150414
2297.2095812988	0.3057493269
2299.1383886718	0.3069311976
2301.0671960449	0.3067376912
2302.9960034179	0.3073071837
2304.9248107909	0.3082465231
2306.8536181640	0.3063977361
2308.7824255370	0.3055224121
2310.7112329101	0.3037233949
2312.6400402831	0.3062230647
2314.5688476562	0.3059970140
2316.4976550292	0.3048885763
2318.4264624023	0.3070465922
2320.3552697753	0.3042087555
2322.2840771484	0.3044594228
2324.2128845214	0.3049649000
2326.1416918945	0.3029925525
2328.0704992675	0.3036643565
2329.9993066406	0.3043967783
2331.9281140136	0.3045503497
2333.8569213866	0.3043649793
2335.7857287597	0.3016963899
2337.7145361327	0.3019213676
2339.6433435058	0.3043633997
2341.5721508788	0.3011656404
2343.5009582519	0.3031603694
2345.4297656249	0.3029177785
2347.3585729980	0.2998052835
2349.2873803710	0.3041236103
2351.2161877441	0.3044421673
2353.1449951171	0.3047870100
2355.0738024902	0.3032929301
2357.0026098632	0.3006021082
2358.9314172363	0.3026241660
2360.8602246093	0.3014528751
2362.7890319823	0.3000893891
2364.7178393554	0.2988780439
2366.6466467284	0.3002891839
2368.5754541015	0.3018276095
2370.5042614745	0.3020880520
2372.4330688476	0.3026611209
2374.3618762206	0.3027524650
2376.2906835937	0.3038071692
2378.2194909667	0.3020893633
2380.1482983398	0.3032882214
2382.0771057128	0.3050837815
2384.0059130859	0.3035762608
2385.9347204589	0.3017600775
2387.8635278320	0.3008458614
2389.7923352050	0.3030360341
2391.7211425780	0.3026693761
2393.6499499511	0.3018925190
2395.5787573241	0.3005792499
2397.5075646972	0.2998384535
2399.4363720702	0.3033120334
2401.3651794433	0.3035172224
2403.2939868163	0.3028735518
2405.2227941894	0.3020450473
2407.1516015624	0.3000318110
2409.0804089355	0.3015658259
2411.0092163085	0.3034362197
2412.9380236816	0.3017104864
2414.8668310546	0.3009459376
2416.7956384277	0.3009087443
2418.7244458007	0.2994656265
2420.6532531738	0.3001854718
2422.5820605468	0.2990068197
2424.5108679198	0.2993328273
2426.4396752929	0.3012550771
2428.3684826659	0.2999105155
2430.2972900390	0.3006307781
2432.2260974120	0.3009554148
2434.1549047851	0.3009730279
2436.0837121581	0.3004334867
2438.0125195312	0.2996519208
2439.9413269042	0.3002914488
2441.8701342773	0.3006266356
2443.7989416503	0.3011589348
2445.7277490234	0.2991950214
2447.6565563964	0.2997123897
2449.5853637695	0.3005241454
2451.5141711425	0.2994023860
2453.4429785155	0.2999390662
2455.3717858886	0.2986855805
2457.3005932616	0.2987318635
2459.2294006347	0.2992407084
2461.1582080077	0.2995501161
2463.0870153808	0.2994479537
2465.0158227538	0.2997739911
2466.9446301269	0.2999725938
2468.8734374999	0.2985053957
2470.8022448730	0.2998558283
2472.7310522460	0.2980268002
2474.6598596191	0.2981650233
2476.5886669921	0.3002572358
2478.5174743652	0.2986134291
2480.4462817382	0.2988499999
2482.3750891112	0.2974485159
2484.3038964843	0.2986491024
2486.2327038573	0.2994389534
2488.1615112304	0.2981392145
2490.0903186034	0.2973776460
2492.0191259765	0.2960315347
2493.9479333495	0.2980334759
2495.8767407226	0.2971328199
2497.8055480956	0.2977124751
2499.7343554687	0.2970461547
2501.6631628417	0.2960945666
2503.5919702148	0.2997236848
2505.5207775878	0.2973265350
2507.4495849609	0.2971892655
2509.3783923339	0.2965398431
2511.3071997069	0.2957081795
2513.2360070800	0.2984856069
2515.1648144530	0.2967169881
2517.0936218261	0.2972052693
2519.0224291991	0.2965527475
2520.9512365722	0.2957409620
2522.8800439452	0.2971903086
2524.8088513183	0.2956768274
2526.7376586913	0.2951068282
2528.6664660644	0.2967243791
2530.5952734374	0.2969839871
2532.5240808105	0.2944766581
2534.4528881835	0.2962398529
2536.3816955566	0.2981384993
2538.3105029296	0.2965610921
2540.2393103027	0.2959210873
2542.1681176757	0.2953667641
2544.0969250487	0.2968145311
2546.0257324218	0.2964646816
2547.9545397948	0.2959409654
2549.8833471679	0.2953646779
2551.8121545409	0.2940757573
2553.7409619140	0.2947188914
2555.6697692870	0.2941811681
2557.5985766601	0.2961819172
2559.5273840331	0.2952132225
2561.4561914062	0.2929481268
2563.3849987792	0.2942944467
2565.3138061523	0.2934422195
2567.2426135253	0.2947361469
2569.1714208984	0.2944947183
2571.1002282714	0.2939572334
2573.0290356444	0.2946273983
2574.9578430175	0.2936017811
2576.8866503905	0.2963745594
2578.8154577636	0.2947357297
2580.7442651366	0.2917204797
2582.6730725097	0.2935101688
2584.6018798827	0.2933090329
2586.5306872558	0.2930372059
2588.4594946288	0.2921625674
2590.3883020019	0.2919862866
2592.3171093749	0.2930951715
2594.2459167480	0.2931820154
2596.1747241210	0.2930873632
2598.1035314941	0.2927051783
2600.0323388671	0.2929585874
2601.9611462401	0.2916770577
2603.8899536132	0.2910161316
2605.8187609862	0.2913610637
2607.7475683593	0.2919727266
2609.6763757323	0.2936352193
2611.6051831054	0.2921403348
2613.5339904784	0.2914224565
2615.4627978515	0.2915759981
2617.3916052245	0.2917817235
2619.3204125976	0.2935034335
2621.2492199706	0.2917923629
2623.1780273437	0.2908256054
2625.1068347167	0.2934761643
2627.0356420898	0.2928308547
2628.9644494628	0.2890920043
2630.8932568358	0.2902820110
2632.8220642089	0.2906823456
2634.7508715819	0.2886866033
2636.6796789550	0.2903821766
2638.6084863280	0.2890221477
2640.5372937011	0.2901481986
2642.4661010741	0.2910802364
2644.3949084472	0.2888299227
2646.3237158202	0.2915217578
2648.2525231933	0.2890205681
2650.1813305663	0.2878061235
2652.1101379394	0.2905685604
2654.0389453124	0.2882691920
2655.9677526855	0.2879878879
2657.8965600585	0.2892882526
2659.8253674315	0.2903122306
2661.7541748046	0.2891674936
2663.6829821776	0.2873058915
2665.6117895507	0.2888215780
2667.5405969237	0.2888929248
2669.4694042968	0.2880501449
2671.3982116698	0.2884715796
2673.3270190429	0.2870628238
2675.2558264159	0.2859367430
2677.1846337890	0.2872565687
2679.1134411620	0.2861999869
2681.0422485351	0.2872096598
2682.9710559081	0.2885359228
2684.8998632812	0.2856746614
2686.8286706542	0.2868832648
2688.7574780273	0.2864854038
2690.6862854003	0.2857009470
2692.6150927733	0.2872335613
2694.5439001464	0.2855757177
2696.4727075194	0.2856625021
2698.4015148925	0.2864618599
2700.3303222655	0.2870293558
2702.2591296386	0.2847622335
2704.1879370116	0.2846376598
2706.1167443847	0.2867723107
2708.0455517577	0.2825642526
2709.9743591308	0.2833100557
2711.9031665038	0.2851875722
2713.8319738769	0.2837055326
2715.7607812499	0.2844734490
2717.6895886230	0.2850285470
2719.6183959960	0.2844991982
2721.5472033690	0.2807496786
2723.4760107421	0.2820932269
2725.4048181151	0.2845292687
2727.3336254882	0.2848247290
2729.2624328612	0.2855977416
2731.1912402343	0.2813919783
2733.1200476073	0.2842059135
2735.0488549804	0.2859254181
2736.9776623534	0.2816326320
2738.9064697265	0.2831406295
2740.8352770995	0.2831074595
2742.7640844726	0.2834714651
2744.6928918456	0.2840555012
2746.6216992187	0.2840290666
2748.5505065917	0.2847248912
2750.4793139647	0.2832637131
2752.4081213378	0.2839718759
2754.3369287108	0.2825633585
2756.2657360839	0.2813282609
2758.1945434569	0.2835403085
2760.1233508300	0.2823264301
2762.0521582030	0.2816201150
2763.9809655761	0.2820505798
2765.9097729491	0.2793169916
2767.8385803222	0.2809258401
2769.7673876952	0.2840150595
2771.6961950683	0.2807813585
2773.6250024413	0.2804470062
2775.5538098144	0.2799059749
2777.4826171874	0.2783730626
2779.4114245604	0.2803069055
2781.3402319335	0.2785464525
2783.2690393065	0.2801950574
2785.1978466796	0.2809412479
2787.1266540526	0.2778708637
2789.0554614257	0.2801491916
2790.9842687987	0.2808288932
2792.9130761718	0.2793946266
2794.8418835448	0.2779744565
2796.7706909179	0.2784501016
2798.6994982909	0.2784752548
2800.6283056640	0.2768338025
2802.5571130370	0.2777008414
2804.4859204101	0.2766149640
2806.4147277831	0.2768761814
2808.3435351562	0.2756890059
2810.2723425292	0.2748149633
2812.2011499022	0.2774741352
2814.1299572753	0.2772367001
2816.0587646483	0.2787873745
2817.9875720214	0.2761923671
2819.9163793944	0.2748286128
2821.8451867675	0.2773671448
2823.7739941405	0.2741263509
2825.7028015136	0.2748176455
2827.6316088866	0.2739104629
2829.5604162597	0.2731760442
2831.4892236327	0.2772978246
2833.4180310058	0.2753185034
2835.3468383788	0.2735449672
2837.2756457519	0.2732394934
2839.2044531249	0.2728844881
2841.1332604979	0.2735529840
2843.0620678710	0.2727809548
2844.9908752440	0.2728173435
2846.9196826171	0.2731042802
2848.8484899901	0.2742240131
2850.7772973632	0.2736440003
2852.7061047362	0.2725786567
2854.6349121093	0.2741940320
2856.5637194823	0.2743611038
2858.4925268554	0.2740251422
2860.4213342284	0.2723941803
2862.3501416015	0.2712939680
2864.2789489745	0.2722096443
2866.2077563476	0.2717263997
2868.1365637206	0.2729761899
2870.0653710936	0.2737745941
2871.9941784667	0.2737158537
2873.9229858397	0.2750214338
2875.8517932128	0.2728624940
2877.7806005858	0.2694542110
2879.7094079589	0.2692643404
2881.6382153319	0.2708364427
2883.5670227050	0.2703274488
2885.4958300780	0.2678173184
2887.4246374511	0.2667047083
2889.3534448241	0.2676028609
2891.2822521972	0.2697384655
2893.2110595702	0.2683179975
2895.1398669433	0.2652695477
2897.0686743163	0.2672591805
2898.9974816893	0.2677097321
2900.9262890624	0.2670450211
2902.8550964354	0.2692242265
2904.7839038085	0.2668968439
2906.7127111815	0.2656223774
2908.6415185546	0.2672902048
2910.5703259276	0.2674652636
2912.4991333007	0.2683753669
2914.4279406737	0.2654841840
2916.3567480468	0.2663343847
2918.2855554198	0.2677469552
2920.2143627929	0.2635808289
2922.1431701659	0.2662662268
2924.0719775390	0.2665607035
2926.0007849120	0.2635328472
2927.9295922851	0.2629600763
2929.8583996581	0.2634711564
2931.7872070311	0.2680721581
2933.7160144042	0.2660630345
2935.6448217772	0.2642143071
2937.5736291503	0.2655730546
2939.5024365233	0.2621771395
2941.4312438964	0.2642889917
2943.3600512694	0.2653685212
2945.2888586425	0.2624808848
2947.2176660155	0.2649937272
2949.1464733886	0.2649221718
2951.0752807616	0.2619655132
2953.0040881347	0.2624864578
2954.9328955077	0.2622688711
2956.8617028808	0.2608168721
2958.7905102538	0.2604359984
2960.7193176268	0.2614046037
2962.6481249999	0.2612602115
2964.5769323729	0.2597155273
2966.5057397460	0.2617126107
2968.4345471190	0.2605764866
2970.3633544921	0.2566302419
2972.2921618651	0.2576137483
2974.2209692382	0.2575982809
2976.1497766112	0.2583865523
2978.0785839843	0.2611299753
2980.0073913573	0.2607877851
2981.9361987304	0.2595598102
2983.8650061034	0.2588242888
2985.7938134765	0.2595822215
2987.7226208495	0.2601223886
2989.6514282225	0.2581863701
2991.5802355956	0.2581820786
2993.5090429686	0.2588046789
2995.4378503417	0.2558710873
2997.3666577147	0.2559284270
2999.2954650878	0.2564524114
3001.2242724608	0.2537374496
3003.1530798339	0.2550037503
3005.0818872069	0.2554363608
3007.0106945800	0.2570007145
3008.9395019530	0.2583554685
3010.8683093261	0.2532902956
3012.7971166991	0.2552295029
3014.7259240722	0.2563486397
3016.6547314452	0.2518830001
3018.5835388182	0.2539641857
3020.5123461913	0.2547502518
3022.4411535643	0.2532723248
3024.3699609374	0.2532718778
3026.2987683104	0.2530480027
3028.2275756835	0.2526689768
3030.1563830565	0.2532497942
3032.0851904296	0.2529382110
3034.0139978026	0.2516823411
3035.9428051757	0.2527214885
3037.8716125487	0.2498226315
3039.8004199218	0.2504990995
3041.7292272948	0.2510929704
3043.6580346679	0.2469384521
3045.5868420409	0.2497424185
3047.5156494139	0.2484744787
3049.4444567870	0.2500319481
3051.3732641600	0.2524623275
3053.3020715331	0.2504221797
3055.2308789061	0.2533699274
3057.1596862792	0.2488331050
3059.0884936522	0.2487401962
3061.0173010253	0.2512834072
3062.9461083983	0.2479224801
3064.8749157714	0.2464165688
3066.8037231444	0.2433375865
3068.7325305175	0.2486270517
3070.6613378905	0.2522850633
3072.5901452636	0.2485920638
3074.5189526366	0.2473301888
3076.4477600097	0.2459182888
3078.3765673827	0.2450515777
3080.3053747557	0.2453235090
3082.2341821288	0.2457590401
3084.1629895018	0.2425077260
3086.0917968749	0.2436815202
3088.0206042479	0.2474099845
3089.9494116210	0.2449571937
3091.8782189940	0.2436022162
3093.8070263671	0.2445405871
3095.7358337401	0.2451796830
3097.6646411132	0.2422526628
3099.5934484862	0.2425491959
3101.5222558593	0.2440418601
3103.4510632323	0.2415670604
3105.3798706054	0.2429490685
3107.3086779784	0.2440942675
3109.2374853514	0.2434607595
3111.1662927245	0.2400051057
3113.0951000975	0.2395068407
3115.0239074706	0.2429176569
3116.9527148436	0.2431068867
3118.8815222167	0.2454142272
3120.8103295897	0.2426698953
3122.7391369628	0.2397233397
3124.6679443358	0.2409271151
3126.5967517089	0.2400115728
3128.5255590819	0.2421060801
3130.4543664550	0.2412962615
3132.3831738280	0.2429350615
3134.3119812011	0.2447115928
3136.2407885741	0.2422928810
3138.1695959471	0.2441390157
3140.0984033202	0.2407668531
3142.0272106932	0.2387906164
3143.9560180663	0.2385394424
3145.8848254393	0.2373097837
3147.8136328124	0.2410306484
3149.7424401854	0.2390827090
3151.6712475585	0.2408829182
3153.6000549315	0.2452560067
3155.5288623046	0.2418391407
3157.4576696776	0.2421871126
3159.3864770507	0.2458365560
3161.3152844237	0.2436261922
3163.2440917968	0.2406249642
3165.1728991698	0.2408020049
3167.1017065428	0.2400265783
3169.0305139159	0.2429677248
3170.9593212889	0.2424740791
3172.8881286620	0.2422206700
3174.8169360350	0.2439612299
3176.7457434081	0.2395930588
3178.6745507811	0.2424490005
3180.6033581542	0.2422691137
3182.5321655272	0.2429977655
3184.4609729003	0.2474176884
3186.3897802733	0.2442901433
3188.3185876464	0.2455902845
3190.2473950194	0.2457101047
3192.1762023925	0.2455065846
3194.1050097655	0.2469364256
3196.0338171386	0.2474960238
3197.9626245116	0.2455196977
3199.8914318846	0.2455272675
3201.8202392577	0.2471040189
3203.7490466307	0.2447017878
3205.6778540038	0.2516900301
3207.6066613768	0.2493910044
3209.5354687499	0.2479227185
3211.4642761229	0.2519283593
3213.3930834960	0.2441258878
3215.3218908690	0.2495454550
3217.2506982421	0.2517001629
3219.1795056151	0.2493550181
3221.1083129882	0.2515845895
3223.0371203612	0.2515897751
3224.9659277343	0.2548070252
3226.8947351073	0.2523156106
3228.8235424803	0.2541940212
3230.7523498534	0.2559387386
3232.6811572264	0.2543695271
3234.6099645995	0.2540303171
3236.5387719725	0.2548762262
3238.4675793456	0.2613438070
3240.3963867186	0.2610326111
3242.3251940917	0.2585470378
3244.2540014647	0.2564452589
3246.1828088378	0.2581441402
3248.1116162108	0.2623919547
3250.0404235839	0.2596028745
3251.9692309569	0.2607085109
3253.8980383300	0.2613157034
3255.8268457030	0.2632107437
3257.7556530760	0.2674211264
3259.6844604491	0.2641158700
3261.6132678221	0.2642777264
3263.5420751952	0.2665446103
3265.4708825682	0.2666457295
3267.3996899413	0.2671482265
3269.3284973143	0.2693377137
3271.2573046874	0.2751940191
3273.1861120604	0.2708533108
3275.1149194335	0.2668402791
3277.0437268065	0.2719403505
3278.9725341796	0.2718611658
3280.9013415526	0.2747209370
3282.8301489257	0.2750320137
3284.7589562987	0.2722502649
3286.6877636717	0.2743784189
3288.6165710448	0.2759677172
3290.5453784178	0.2764517963
3292.4741857909	0.2736583054
3294.4029931639	0.2756449580
3296.3318005370	0.2784959972
3298.2606079100	0.2783733308
3300.1894152831	0.2766022682
3302.1182226561	0.2752015293
3304.0470300292	0.2778033316
3305.9758374022	0.2771074176
3307.9046447753	0.2812260091
3309.8334521483	0.2827638984
3311.7622595214	0.2829690576
3313.6910668944	0.2853882909
3315.6198742675	0.2854509354
3317.5486816405	0.2913721502
3319.4774890135	0.2887633145
3321.4062963866	0.2884912491
3323.3351037596	0.2918517292
3325.2639111327	0.2911385298
3327.1927185057	0.2922237217
3329.1215258788	0.2877236605
3331.0503332518	0.2915247977
3332.9791406249	0.2962332368
3334.9079479979	0.2946903706
3336.8367553710	0.2931118309
3338.7655627440	0.2937502265
3340.6943701171	0.2986532152
3342.6231774901	0.2991081774
3344.5519848632	0.3008076251
3346.4807922362	0.3011607230
3348.4095996092	0.3033383489
3350.3384069823	0.3044040203
3352.2672143553	0.3035971224
3354.1960217284	0.3092730939
3356.1248291014	0.3063539863
3358.0536364745	0.3088356256
3359.9824438475	0.3114567697
3361.9112512206	0.3075318336
3363.8400585936	0.3133604825
3365.7688659667	0.3090297878
3367.6976733397	0.3086842895
3369.6264807128	0.3184531331
3371.5552880858	0.3182779849
3373.4840954589	0.3201987743
3375.4129028319	0.3207322955
3377.3417102049	0.3195186853
3379.2705175780	0.3232452571
3381.1993249510	0.3270297647
3383.1281323241	0.3280297518
3385.0569396971	0.3281467259
3386.9857470702	0.3313263953
3388.9145544432	0.3295119107
3390.8433618163	0.3309330344
3392.7721691893	0.3359931707
3394.7009765624	0.3366928399
3396.6297839354	0.3400141299
3398.5585913085	0.3399271965
3400.4873986815	0.3440776765
3402.4162060546	0.3484552801
3404.3450134276	0.3467257619
3406.2738208006	0.3472588956
3408.2026281737	0.3479936123
3410.1314355467	0.3529706001
3412.0602429198	0.3535657823
3413.9890502928	0.3541257083
3415.9178576659	0.3586144745
3417.8466650389	0.3614826798
3419.7754724120	0.3634907603
3421.7042797850	0.3622723520
3423.6330871581	0.3671017885
3425.5618945311	0.3683411479
3427.4907019042	0.3697498143
3429.4195092772	0.3742605150
3431.3483166503	0.3726904988
3433.2771240233	0.3757486641
3435.2059313963	0.3781301379
3437.1347387694	0.3798555136
3439.0635461424	0.3805114627
3440.9923535155	0.3857561350
3442.9211608885	0.3911757469
3444.8499682616	0.3860152066
3446.7787756346	0.3900170922
3448.7075830077	0.3935117424
3450.6363903807	0.3933584690
3452.5651977538	0.3971802592
3454.4940051268	0.3988345265
3456.4228124999	0.4031581283
3458.3516198729	0.4034756124
3460.2804272460	0.4026067257
3462.2092346190	0.4060348868
3464.1380419921	0.4074785411
3466.0668493651	0.4066263735
3467.9956567381	0.4095534980
3469.9244641112	0.4150400460
3471.8532714842	0.4124968052
3473.7820788573	0.4128466845
3475.7108862303	0.4186177850
3477.6396936034	0.4200381041
3479.5685009764	0.4273662269
3481.4973083495	0.4294905663
3483.4261157225	0.4245715439
3485.3549230956	0.4306370616
3487.2837304686	0.4324087799
3489.2125378417	0.4282205999
3491.1413452147	0.4302355647
3493.0701525878	0.4351371527
3494.9989599608	0.4356266856
3496.9277673338	0.4355531335
3498.8565747069	0.4407294095
3500.7853820799	0.4377673864
3502.7141894530	0.4397507012
3504.6429968260	0.4473221898
3506.5718041991	0.4447467327
3508.5006115721	0.4468365312
3510.4294189452	0.4502398670
3512.3582263182	0.4509542584
3514.2870336913	0.4524001777
3516.2158410643	0.4541793466
3518.1446484374	0.4513997734
3520.0734558104	0.4501710832
3522.0022631835	0.4573221803
3523.9310705565	0.4574225843
3525.8598779295	0.4604827166
3527.7886853026	0.4621029198
3529.7174926756	0.4622659683
3531.6463000487	0.4690232873
3533.5751074217	0.4653636217
3535.5039147948	0.4702516794
3537.4327221678	0.4734762907
3539.3615295409	0.4681463540
3541.2903369139	0.4750898778
3543.2191442870	0.4711872339
3545.1479516600	0.4694966376
3547.0767590331	0.4774636924
3549.0055664061	0.4745913446
3550.9343737792	0.4771605730
3552.8631811522	0.4813387990
3554.7919885252	0.4835506082
3556.7207958983	0.4877146780
3558.6496032713	0.4858216941
3560.5784106444	0.4836982191
3562.5072180174	0.4826516807
3564.4360253905	0.4858617783
3566.3648327635	0.4882299900
3568.2936401366	0.4849762917
3570.2224475096	0.4873436093
3572.1512548827	0.4915214777
3574.0800622557	0.4935745895
3576.0088696288	0.4918547869
3577.9376770018	0.4915734231
3579.8664843749	0.4955267310
3581.7952917479	0.4964832962
3583.7240991210	0.4967461824
3585.6529064940	0.4960450232
3587.5817138670	0.4934593439
3589.5105212401	0.4965596795
3591.4393286131	0.4985637069
3593.3681359862	0.4970195591
3595.2969433592	0.5036135316
3597.2257507323	0.5026426911
3599.1545581053	0.4994421899
3601.0833654784	0.5088031292
3603.0121728514	0.5083491206
3604.9409802245	0.5045832396
3606.8697875975	0.5079647303
3608.7985949706	0.5088413358
3610.7274023436	0.5039003491
3612.6562097167	0.5055643916
3614.5850170897	0.5072763562
3616.5138244627	0.5029299259
3618.4426318358	0.5108436942
3620.3714392088	0.5127457380
3622.3002465819	0.5132001042
3624.2290539549	0.5166564584
3626.1578613280	0.5131735206
3628.0866687010	0.5136901736
3630.0154760741	0.5098373294
3631.9442834471	0.5211843848
3633.8730908202	0.5243299603
3635.8018981932	0.5171423554
3637.7307055663	0.5257111192
3639.6595129393	0.5220710635
3641.5883203124	0.5210325122
3643.5171276854	0.5299819708
3645.4459350584	0.5311023593
3647.3747424315	0.5280070901
3649.3035498045	0.5293051600
3651.2323571776	0.5320780873
3653.1611645506	0.5278576016
3655.0899719237	0.5304000974
3657.0187792967	0.5344786048
3658.9475866698	0.5387945175
3660.8763940428	0.5431078076
3662.8052014159	0.5396693349
3664.7340087889	0.5386304259
3666.6628161620	0.5419224501
3668.5916235350	0.5429269075
3670.5204309081	0.5409205556
3672.4492382811	0.5457201004
3674.3780456541	0.5452780128
3676.3068530272	0.5390259624
3678.2356604002	0.5437564850
3680.1644677733	0.5446097851
3682.0932751463	0.5404250026
3684.0220825194	0.5419818163
3685.9508898924	0.5416343808
3687.8796972655	0.5358888507
3689.8085046385	0.5412756801
3691.7373120116	0.5398313999
3693.6661193846	0.5364186168
3695.5949267577	0.5440366268
3697.5237341307	0.5365388989
3699.4525415038	0.5325005651
3701.3813488768	0.5323564410
3703.3101562499	0.5260267258
3705.2389636229	0.5289842486
3707.1677709959	0.5279125571
3709.0965783690	0.5278875828
3711.0253857420	0.5226373672
3712.9541931151	0.5148326755
3714.8830004881	0.5224843621
3716.8118078612	0.5181164742
3718.7406152342	0.5115643740
3720.6694226073	0.5153864026
3722.5982299803	0.5107144117
3724.5270373534	0.5061017871
3726.4558447264	0.5059773326
3728.3846520995	0.5063377023
3730.3134594725	0.5039736629
3732.2422668456	0.5033687949
3734.1710742186	0.5026594996
3736.0998815916	0.4924108088
3738.0286889647	0.4923889339
3739.9574963377	0.4963109195
3741.8863037108	0.4954434633
3743.8151110838	0.4921006560
3745.7439184569	0.4895795584
3747.6727258299	0.4921607375
3749.6015332030	0.4842336178
3751.5303405760	0.4836196303
3753.4591479491	0.4841430783
3755.3879553221	0.4788447320
3757.3167626952	0.4818446338
3759.2455700682	0.4774678349
3761.1743774413	0.4771479070
3763.1031848143	0.4763780534
3765.0319921873	0.4721398652
3766.9607995604	0.4730669260
3768.8896069334	0.4719580114
3770.8184143065	0.4735175967
3772.7472216795	0.4714447558
3774.6760290526	0.4687323272
3776.6048364256	0.4661909640
3778.5336437987	0.4642209411
3780.4624511717	0.4632603228
3782.3912585448	0.4612604678
3784.3200659178	0.4645051062
3786.2488732909	0.4624537528
3788.1776806639	0.4594552517
3790.1064880370	0.4621184170
3792.0352954100	0.4594993591
3793.9641027830	0.4544408619
3795.8929101561	0.4526081979
3797.8217175291	0.4558980763
3799.7505249022	0.4579848051
3801.6793322752	0.4533082247
3803.6081396483	0.4522070587
3805.5369470213	0.4540517032
3807.4657543944	0.4525965452
3809.3945617674	0.4518481195
3811.3233691405	0.4489129186
3813.2521765135	0.4485168457
3815.1809838866	0.4481097162
3817.1097912596	0.4470309615
3819.0385986327	0.4516105950
3820.9674060057	0.4443521202
3822.8962133787	0.4374723434
3824.8250207518	0.4402986765
3826.7538281248	0.4369774461
3828.6826354979	0.4401292503
3830.6114428709	0.4432676136
3832.5402502440	0.4395050108
3834.4690576170	0.4377624691
3836.3978649901	0.4390053451
3838.3266723631	0.4375171959
3840.2554797362	0.4356168211
3842.1842871092	0.4362426996
3844.1130944823	0.4363726079
3846.0419018553	0.4351305962
3847.9707092284	0.4287780821
3849.8995166014	0.4282618165
3851.8283239745	0.4306350946
3853.7571313475	0.4255589545
3855.6859387205	0.4289828837
3857.6147460936	0.4264514744
3859.5435534666	0.4231793582
3861.4723608397	0.4265446067
3863.4011682127	0.4232915938
3865.3299755858	0.4282116890
3867.2587829588	0.4277813137
3869.1875903319	0.4229658544
3871.1163977049	0.4282438755
3873.0452050780	0.4204834402
3874.9740124510	0.4206099510
3876.9028198241	0.4232074320
3878.8316271971	0.4173891246
3880.7604345702	0.4207137227
3882.6892419432	0.4145871997
3884.6180493162	0.4129021764
3886.5468566893	0.4169858098
3888.4756640623	0.4173590243
3890.4044714354	0.4183963239
3892.3332788084	0.4066050053
3894.2620861815	0.4119471908
3896.1908935545	0.4191016853
3898.1197009276	0.4144060910
3900.0485083006	0.4170467854
3901.9773156737	0.4115959406
3903.9061230467	0.4108817875
3905.8349304198	0.4112712741
3907.7637377928	0.4112986326
3909.6925451659	0.4153296351
3911.6213525389	0.4099363089
3913.5501599119	0.4081175625
3915.4789672850	0.4074842036
3917.4077746580	0.4091518521
3919.3365820311	0.4044326544
3921.2653894041	0.4031012952
3923.1941967772	0.4107652009
3925.1230041502	0.4010898769
3927.0518115233	0.4064966440
3928.9806188963	0.4123655558
3930.9094262694	0.4063453078
3932.8382336424	0.4120722413
3934.7670410155	0.4065127373
3936.6958483885	0.3976700306
3938.6246557616	0.3971791565
3940.5534631346	0.4060162604
3942.4822705076	0.4017496407
3944.4110778807	0.3987376690
3946.3398852537	0.4053260982
3948.2686926268	0.3938769698
3950.1974999998	0.4010429382
3952.1263073729	0.4004903734
3954.0551147459	0.3933798373
3955.9839221190	0.4048618078
3957.9127294920	0.3993187547
3959.8415368651	0.3951275051
3961.7703442381	0.3968251646
3963.6991516112	0.3991756737
3965.6279589842	0.3946590722
3967.5567663573	0.3929505348
3969.4855737303	0.3988856673
3971.4143811034	0.3930876255
3973.3431884764	0.3945078254
3975.2719958494	0.3928361237
3977.2008032225	0.3894414902
3979.1296105955	0.3936392963
3981.0584179686	0.3996010125
3982.9872253416	0.4000045061
3984.9160327147	0.3901707232
3986.8448400877	0.3935399055
3988.7736474608	0.3964348733
3990.7024548338	0.3892307281
3992.6312622069	0.3899549246
3994.5600695799	0.3965653181
3996.4888769530	0.3941343725
3998.4176843260	0.3900864422
4000.3464916991	0.3892583549
4002.2752990721	0.3860493600
4004.2041064451	0.3895093501
4006.1329138182	0.3850627840
4008.0617211912	0.3860595822
4009.9905285643	0.3916880190
4011.9193359373	0.3878037333
4013.8481433104	0.3891631961
4015.7769506834	0.3870636225
4017.7057580565	0.3871719539
4019.6345654295	0.3871901929
4021.5633728026	0.3894871771
4023.4921801756	0.3930334747
4025.4209875487	0.3887333572
4027.3497949217	0.3837902844
4029.2786022948	0.3840311170
4031.2074096678	0.3883185685
4033.1362170408	0.3817971349
4035.0650244139	0.3813422322
4036.9938317869	0.3815760016
4038.9226391600	0.3869637251
4040.8514465330	0.3909829557
4042.7802539061	0.3761080503
4044.7090612791	0.3813523352
4046.6378686522	0.3798135221
4048.5666760252	0.3786108196
4050.4954833983	0.3852511346
4052.4242907713	0.3806176186
4054.3530981444	0.3832179010
4056.2819055174	0.3749460280
4058.2107128905	0.3832739592
4060.1395202635	0.3883971274
4062.0683276365	0.3808354735
4063.9971350096	0.3882855773
4065.9259423826	0.3845586777
4067.8547497557	0.3874766827
4069.7835571287	0.3830284476
4071.7123645018	0.3772546947
4073.6411718748	0.3793679476
4075.5699792479	0.3762609065
4077.4987866209	0.3822599649
4079.4275939940	0.3753235638
4081.3564013670	0.3737313747
4083.2852087401	0.3815071285
4085.2140161131	0.3794960380
4087.1428234862	0.3754243255
4089.0716308592	0.3711497784
4091.0004382323	0.3735519350
4092.9292456053	0.3750495017
4094.8580529783	0.3836582601
4096.7868603514	0.3808903992
4098.7156677244	0.3678586185
4100.6444750975	0.3768418431
4102.5732824705	0.3764202297
4104.5020898436	0.3727363050
4106.4308972166	0.3783889413
4108.3597045897	0.3722244501
4110.2885119627	0.3700395525
4112.2173193358	0.3742565811
4114.1461267088	0.3743343055
4116.0749340819	0.3743839860
4118.0037414549	0.3737297058
4119.9325488280	0.3737097383
4121.8613562010	0.3770918846
4123.7901635740	0.3733718991
4125.7189709471	0.3675460815
4127.6477783201	0.3713486791
4129.5765856932	0.3733050823
4131.5053930662	0.3718546331
4133.4342004393	0.3755156994
4135.3630078123	0.3775687814
4137.2918151854	0.3702616394
4139.2206225584	0.3667598963
4141.1494299315	0.3699314594
4143.0782373045	0.3691493571
4145.0070446776	0.3687735200
4146.9358520506	0.3693679571
4148.8646594237	0.3724135458
4150.7934667967	0.3711650074
4152.7222741697	0.3663658202
4154.6510815428	0.3671533167
4156.5798889158	0.3633650541
4158.5086962889	0.3677944541
4160.4375036619	0.3740945160
4162.3663110350	0.3643972576
4164.2951184080	0.3643600047
4166.2239257811	0.3641273975
4168.1527331541	0.3583661318
4170.0815405272	0.3715970218
4172.0103479002	0.3726919591
4173.9391552733	0.3639632761
4175.8679626463	0.3709336817
4177.7967700194	0.3660895824
4179.7255773924	0.3655012548
4181.6543847654	0.3735115230
4183.5831921385	0.3669111133
4185.5119995115	0.3641770184
4187.4408068846	0.3625257015
4189.3696142576	0.3640482426
4191.2984216307	0.3665778637
4193.2272290037	0.3618749082
4195.1560363768	0.3659949601
4197.0848437498	0.3631488979
4199.0136511229	0.3606263697
4200.9424584959	0.3670494556
4202.8712658690	0.3651334941
4204.8000732420	0.3666614592
4206.7288806151	0.3646335304
4208.6576879881	0.3631781042
4210.5864953611	0.3656870127
4212.5153027342	0.3616511822
4214.4441101072	0.3630178571
4216.3729174803	0.3610412180
4218.3017248533	0.3600300252
4220.2305322264	0.3588336110
4222.1593395994	0.3545565605
4224.0881469725	0.3552857041
4226.0169543455	0.3564080596
4227.9457617186	0.3644911945
4229.8745690916	0.3628642857
4231.8033764647	0.3593098521
4233.7321838377	0.3594871461
4235.6609912108	0.3572637737
4237.5897985838	0.3603906333
4239.5186059569	0.3568725586
4241.4474133299	0.3603750467
4243.3762207029	0.3628785312
4245.3050280760	0.3676367700
4247.2338354490	0.3668745756
4249.1626428221	0.3563101590
4251.0914501951	0.3653551936
4253.0202575682	0.3617488742
4254.9490649412	0.3605048954
4256.8778723143	0.3620153069
4258.8066796873	0.3541410565
4260.7354870604	0.3573054671
4262.6642944334	0.3561632335
4264.5931018065	0.3608716130
4266.5219091795	0.3587787449
4268.4507165526	0.3553536832
4270.3795239256	0.3569973707
4272.3083312986	0.3537708521
4274.2371386717	0.3556804359
4276.1659460447	0.3567640781
4278.0947534178	0.3607780337
4280.0235607908	0.3595764041
4281.9523681639	0.3552474082
4283.8811755369	0.3511140943
4285.8099829100	0.3575862348
4287.7387902830	0.3602004349
4289.6675976561	0.3521256447
4291.5964050291	0.3593773246
4293.5252124022	0.3547560275
4295.4540197752	0.3520175517
4297.3828271483	0.3554017246
4299.3116345213	0.3554798365
4301.2404418943	0.3600519001
4303.1692492674	0.3562315404
4305.0980566404	0.3509795964
4307.0268640135	0.3493801653
4308.9556713865	0.3561765254
4310.8844787596	0.3521600366
4312.8132861326	0.3516854942
4314.7420935057	0.3515146673
4316.6709008787	0.3506793976
4318.5997082518	0.3647333086
4320.5285156248	0.3530510962
4322.4573229979	0.3474210501
4324.3861303709	0.3520829380
4326.3149377440	0.3539255559
4328.2437451170	0.3574647605
4330.1725524900	0.3588464260
4332.1013598631	0.3575437665
4334.0301672361	0.3404557109
4335.9589746092	0.3504434526
4337.8877819822	0.3523335159
4339.8165893553	0.3514029384
4341.7453967283	0.3580842316
4343.6742041014	0.3414158821
4345.6030114744	0.3520233929
4347.5318188475	0.3515191078
4349.4606262205	0.3515848219
4351.3894335936	0.3530634940
4353.3182409666	0.3466680944
4355.2470483397	0.3592384160
4357.1758557127	0.3448169529
4359.1046630858	0.3519053757
4361.0334704588	0.3526745439
4362.9622778318	0.3420687020
4364.8910852049	0.3586798310
4366.8198925779	0.3454781175
4368.7486999510	0.3498136997
4370.6775073240	0.3536798954
4372.6063146971	0.3449667990
4374.5351220701	0.3510975540
4376.4639294432	0.3408466280
4378.3927368162	0.3536169529
4380.3215441893	0.3576569855
4382.2503515623	0.3510912359
4384.1791589354	0.3642147779
4386.1079663084	0.3539794981
4388.0367736815	0.3539844155
4389.9655810545	0.3578381240
4391.8943884275	0.3508917391
4393.8231958006	0.3541060984
4395.7520031736	0.3488234580
4397.6808105467	0.3494887948
4399.6096179197	0.3532649875
4401.5384252928	0.3527922332
4403.4672326658	0.3586287498
4405.3960400389	0.3545922339
4407.3248474119	0.3428404629
4409.2536547850	0.3504780233
4411.1824621580	0.3523199260
4413.1112695311	0.3430303633
4415.0400769041	0.3522653580
4416.9688842772	0.3402205110
4418.8976916502	0.3371964097
4420.8264990232	0.3527853787
4422.7553063963	0.3447941244
4424.6841137693	0.3486720920
4426.6129211424	0.3459540606
4428.5417285154	0.3419920504
4430.4705358885	0.3489090800
4432.3993432615	0.3494920731
4434.3281506346	0.3506394923
4436.2569580076	0.3504175544
4438.1857653807	0.3549444973
4440.1145727537	0.3396925330
4442.0433801268	0.3330918252
4443.9721874998	0.3484013379
4445.9009948729	0.3474298716
4447.8298022459	0.3418895602
4449.7586096189	0.3392928839
4451.6874169920	0.3442178071
4453.6162243650	0.3440631032
4455.5450317381	0.3376145959
4457.4738391111	0.3412144184
4459.4026464842	0.3501904905
4461.3314538572	0.3542608023
4463.2602612303	0.3480358720
4465.1890686033	0.3434493244
4467.1178759764	0.3501731157
4469.0466833494	0.3604009151
4470.9754907225	0.3517203033
4472.9042980955	0.3445225656
4474.8331054686	0.3432870805
4476.7619128416	0.3402588069
4478.6907202147	0.3501091301
4480.6195275877	0.3457001448
4482.5483349607	0.3410029411
4484.4771423338	0.3443034887
4486.4059497068	0.3450969458
4488.3347570799	0.3491256237
4490.2635644529	0.3394311965
4492.1923718260	0.3316757977
4494.1211791990	0.3344253898
4496.0499865721	0.3468682766
4497.9787939451	0.3507676423
4499.9076013182	0.3416327238
4501.8364086912	0.3485757709
4503.7652160643	0.3475353122
4505.6940234373	0.3462398946
4507.6228308104	0.3499711752
4509.5516381834	0.3343025148
4511.4804455564	0.3342922628
4513.4092529295	0.3454161882
4515.3380603025	0.3428035080
4517.2668676756	0.3439774811
4519.1956750486	0.3403201401
4521.1244824217	0.3338364363
4523.0532897947	0.3389905691
4524.9820971678	0.3396041393
4526.9109045408	0.3411085606
4528.8397119139	0.3468932807
4530.7685192869	0.3432221413
4532.6973266600	0.3394576311
4534.6261340330	0.3363649845
4536.5549414061	0.3369440436
4538.4837487791	0.3432466686
4540.4125561521	0.3460950553
4542.3413635252	0.3448551297
4544.2701708982	0.3391055763
4546.1989782713	0.3431095183
4548.1277856443	0.3479165137
4550.0565930174	0.3439647257
4551.9854003904	0.3396003544
4553.9142077635	0.3390403092
4555.8430151365	0.3439882994
4557.7718225096	0.3381738663
4559.7006298826	0.3439472914
4561.6294372557	0.3478088677
4563.5582446287	0.3410571218
4565.4870520018	0.3461731970
4567.4158593748	0.3340182602
4569.3446667478	0.3328286409
4571.2734741209	0.3327156007
4573.2022814939	0.3309892416
4575.1310888670	0.3412670493
4577.0598962400	0.3309654295
4578.9887036131	0.3337152600
4580.9175109861	0.3386943936
4582.8463183592	0.3445784748
4584.7751257322	0.3468625247
4586.7039331053	0.3416975439
4588.6327404783	0.3497124910
4590.5615478514	0.3408231139
4592.4903552244	0.3435568810
4594.4191625975	0.3462103307
4596.3479699705	0.3444972336
4598.2767773435	0.3456564844
4600.2055847166	0.3319765031
4602.1343920896	0.3332903981
4604.0631994627	0.3341217935
4605.9920068357	0.3385428488
4607.9208142088	0.3350204229
4609.8496215818	0.3236431479
4611.7784289549	0.3330358565
4613.7072363279	0.3439086974
4615.6360437010	0.3395770490
4617.5648510740	0.3278975189
4619.4936584471	0.3385519385
4621.4224658201	0.3378949761
4623.3512731932	0.3288772404
4625.2800805662	0.3270771801
4627.2088879393	0.3265553117
4629.1376953123	0.3501464128
4631.0665026853	0.3456688225
4632.9953100584	0.3351270556
4634.9241174314	0.3397208750
4636.8529248045	0.3300447762
4638.7817321775	0.3397664428
4640.7105395506	0.3461943567
4642.6393469236	0.3435538411
4644.5681542967	0.3481366634
4646.4969616697	0.3409083188
4648.4257690428	0.3332636356
4650.3545764158	0.3347432315
4652.2833837889	0.3334984183
4654.2121911619	0.3346966803
4656.1409985350	0.3476264179
4658.0698059080	0.3406257629
4659.9986132810	0.3283368349
4661.9274206541	0.3449870944
4663.8562280271	0.3372993469
4665.7850354002	0.3212405145
4667.7138427732	0.3336938024
4669.6426501463	0.3370501697
4671.5714575193	0.3398377895
4673.5002648924	0.3401091695
4675.4290722654	0.3388453126
4677.3578796385	0.3440996408
4679.2866870115	0.3358446956
4681.2154943846	0.3299282193
4683.1443017576	0.3295126259
4685.0731091307	0.3345894217
4687.0019165037	0.3436514437
4688.9307238767	0.3450475633
4690.8595312498	0.3416225910
4692.7883386228	0.3433208466
4694.7171459959	0.3398858607
4696.6459533689	0.3339339495
4698.5747607420	0.3452023268
4700.5035681150	0.3402068615
4702.4323754881	0.3321879804
4704.3611828611	0.3303514123
4706.2899902342	0.3284321129
4708.2187976072	0.3389136493
4710.1476049803	0.3252877593
4712.0764123533	0.3248019218
4714.0052197264	0.3403708637
4715.9340270994	0.3365616798
4717.8628344724	0.3391963542
4719.7916418455	0.3401571810
4721.7204492185	0.3351827860
4723.6492565916	0.3365762532
4725.5780639646	0.3422946334
4727.5068713377	0.3382967710
4729.4356787107	0.3417037427
4731.3644860838	0.3387548029
4733.2932934568	0.3258718848
4735.2221008299	0.3328552246
4737.1509082029	0.3295936882
4739.0797155760	0.3219069839
4741.0085229490	0.3233617842
4742.9373303221	0.3373691142
4744.8661376951	0.3436622918
4746.7949450682	0.3360186219
4748.7237524412	0.3349298239
4750.6525598142	0.3215915561
4752.5813671873	0.3265673518
4754.5101745603	0.3363442123
4756.4389819334	0.3365519643
4758.3677893064	0.3331822157
4760.2965966795	0.3146002889
4762.2254040525	0.3293654323
4764.1542114256	0.3484130204
4766.0830187986	0.3344649374
4768.0118261717	0.3284115791
4769.9406335447	0.3414168656
4771.8694409178	0.3291493058
4773.7982482908	0.3208817840
4775.7270556639	0.3429790437
4777.6558630369	0.3322931230
4779.5846704099	0.3355971575
4781.5134777830	0.3360986114
4783.4422851560	0.3208824694
4785.3710925291	0.3400419056
4787.2998999021	0.3253884017
4789.2287072752	0.3297675848
4791.1575146482	0.3469096720
4793.0863220213	0.3323158324
4795.0151293943	0.3413560092
4796.9439367674	0.3263411224
4798.8727441404	0.3311116099
4800.8015515135	0.3490644693
4802.7303588865	0.3334673345
4804.6591662596	0.3394912481
4806.5879736326	0.3272579312
4808.5167810056	0.3075201809
4810.4455883787	0.3116696775
4812.3743957517	0.3234370053
4814.3032031248	0.3380712271
4816.2320104978	0.3400060236
4818.1608178709	0.3316839933
4820.0896252439	0.3376934230
4822.0184326170	0.3467980325
4823.9472399900	0.3146559596
4825.8760473631	0.3243037462
4827.8048547361	0.3490245640
4829.7336621092	0.3255259991
4831.6624694822	0.3456640542
4833.5912768553	0.3472986221
4835.5200842283	0.3275694549
4837.4488916013	0.3158183992
4839.3776989744	0.3114334643
4841.3065063474	0.3456974626
4843.2353137205	0.3354648054
4845.1641210935	0.3291491866
4847.0929284666	0.3417228758
4849.0217358396	0.3217716217
4850.9505432127	0.3159579933
4852.8793505857	0.3176787198
4854.8081579588	0.3124132752
4856.7369653318	0.3138681352
4858.6657727049	0.3443875313
4860.5945800779	0.3480033576
4862.5233874510	0.3182213306
4864.4521948240	0.3294092715
4866.3810021971	0.3443141580
4868.3098095701	0.3332952559
4870.2386169431	0.3212638199
4872.1674243162	0.3429997265
4874.0962316892	0.3491194248
4876.0250390623	0.3302963972
4877.9538464353	0.3425740600
4879.8826538084	0.3380257785
4881.8114611814	0.3326249421
4883.7402685545	0.3285531104
4885.6690759275	0.3266716599
4887.5978833006	0.3423893452
4889.5266906736	0.3189279437
4891.4554980467	0.3276664913
4893.3843054197	0.3420333564
4895.3131127928	0.3211821318
4897.2419201658	0.3396978676
4899.1707275388	0.3267141879
4901.0995349119	0.3072005510
4903.0283422849	0.3191890121
4904.9571496580	0.3154550195
4906.8859570310	0.3216187060
4908.8147644041	0.3298277259
4910.7435717771	0.3150805831
4912.6723791502	0.3140242398
4914.6011865232	0.3371815979
4916.5299938963	0.3329498768
4918.4588012693	0.3229534626
4920.3876086424	0.3309237957
4922.3164160154	0.3408730626
4924.2452233885	0.3395283520
4926.1740307615	0.3312144876
4928.1028381345	0.3352732956
4930.0316455076	0.3170887530
4931.9604528806	0.3275693059
4933.8892602537	0.3428845108
4935.8180676267	0.3254440427
4937.7468749998	0.3171966076
4939.6756823728	0.2989299893
4941.6044897459	0.3218799531
4943.5332971189	0.3328094184
4945.4621044920	0.3307717144
4947.3909118650	0.3395054638
4949.3197192381	0.3170848787
4951.2485266111	0.3280283809
4953.1773339842	0.3383444846
4955.1061413572	0.3367702961
4957.0349487302	0.3336595297
4958.9637561033	0.3368162811
4960.8925634763	0.3264514804
4962.8213708494	0.3180875480
4964.7501782224	0.3375750482
4966.6789855955	0.3094944358
4968.6077929685	0.3162466884
4970.5366003416	0.3270000219
4972.4654077146	0.3213956356
4974.3942150877	0.3321248591
4976.3230224607	0.3244554400
4978.2518298338	0.3395316601
4980.1806372068	0.3211213648
4982.1094445799	0.3290555179
4984.0382519529	0.3308053911
4985.9670593259	0.3056004047
4987.8958666990	0.3212325275
4989.8246740720	0.3131525815
4991.7534814451	0.3254307806
4993.6822888181	0.3254515827
4995.6110961912	0.3296572566
4997.5399035642	0.3391631544
4999.4687109373	0.3230050504
5001.3975183103	0.3323364258
5003.3263256834	0.3221410513
5005.2551330564	0.3237501085
5007.1839404295	0.3226661384
5009.1127478025	0.3139759004
5011.0415551756	0.3240289986
5012.9703625486	0.3211493194
5014.8991699217	0.3100524545
5016.8279772947	0.3133353591
5018.7567846677	0.3217990398
5020.6855920408	0.3039591312
5022.6143994138	0.3247922957
5024.5432067869	0.3279484808
5026.4720141599	0.3075413108
5028.4008215330	0.3286292553
5030.3296289060	0.3291024268
5032.2584362791	0.3319361210
5034.1872436521	0.3158750236
5036.1160510252	0.3199505508
5038.0448583982	0.3486505449
5039.9736657713	0.3261590004
5041.9024731443	0.3175279796
5043.8312805174	0.3151658773
5045.7600878904	0.3183962107
5047.6888952634	0.3256540000
5049.6177026365	0.3152337670
5051.5465100095	0.3209534287
5053.4753173826	0.3237746358
5055.4041247556	0.3250163496
5057.3329321287	0.3216780424
5059.2617395017	0.3235492408
5061.1905468748	0.3368291259
5063.1193542478	0.3287435174
5065.0481616209	0.3240540922
5066.9769689939	0.3139353991
5068.9057763670	0.3105678558
5070.8345837400	0.3257568181
5072.7633911131	0.3176740110
5074.6921984861	0.3267979622
5076.6210058591	0.3323709667
5078.5498132322	0.3251464665
5080.4786206052	0.3337796032
5082.4074279783	0.3165851235
5084.3362353513	0.3252319098
5086.2650427244	0.3411403596
5088.1938500974	0.3291839063
5090.1226574705	0.3321208358
5092.0514648435	0.3196338117
5093.9802722166	0.3201046586
5095.9090795896	0.3267076612
5097.8378869627	0.3079638481
5099.7666943357	0.3158605695
5101.6955017088	0.3302357197
5103.6243090818	0.3124125600
5105.5531164548	0.2982631922
5107.4819238279	0.3113152683
5109.4107312009	0.3226870000
5111.3395385740	0.3233971596
5113.2683459470	0.3234867454
5115.1971533201	0.3172987103
5117.1259606931	0.3216941059
5119.0547680662	0.3275727034
5120.9835754392	0.3144556582
5122.9123828123	0.3009955287
5124.8411901853	0.3009409308
5126.7699975584	0.3158245385
5128.6988049314	0.3148575723
5130.6276123045	0.3158763647
5132.5564196775	0.3273628652
5134.4852270506	0.3124319911
5136.4140344236	0.3219616115
5138.3428417966	0.3208310902
5140.2716491697	0.3181175292
5142.2004565427	0.3297780454
5144.1292639158	0.3020472825
5146.0580712888	0.3236935139
5147.9868786619	0.3345990777
5149.9156860349	0.3059045076
5151.8444934080	0.3191480339
5153.7733007810	0.3299342394
5155.7021081541	0.3308664560
5157.6309155271	0.3181754947
5159.5597229002	0.3179634511
5161.4885302732	0.3263136446
5163.4173376463	0.3216381073
5165.3461450193	0.3398046494
5167.2749523923	0.3230283558
5169.2037597654	0.2960332036
5171.1325671384	0.3263568282
5173.0613745115	0.3423855901
5174.9901818845	0.3237498999
5176.9189892576	0.3129722774
5178.8477966306	0.3184917569
5180.7766040037	0.3396924734
5182.7054113767	0.3285176456
5184.6342187498	0.3242502213
5186.5630261228	0.3287711143
5188.4918334959	0.2946005464
5190.4206408689	0.3129535913
5192.3494482420	0.3150458038
5194.2782556150	0.3083337247
5196.2070629880	0.3471382260
5198.1358703611	0.3209851682
5200.0646777341	0.3174978793
5201.9934851072	0.3185551167
5203.9222924802	0.2954485118
5205.8510998533	0.3149515390
5207.7799072263	0.3180607557
5209.7087145994	0.3372807503
5211.6375219724	0.3247749209
5213.5663293455	0.3163954616
5215.4951367185	0.3495748937
5217.4239440916	0.3265388310
5219.3527514646	0.3340474069
5221.2815588377	0.3372548223
5223.2103662107	0.3203028738
5225.1391735837	0.3302788436
5227.0679809568	0.3170754910
5228.9967883298	0.3143193126
5230.9255957029	0.3009109199
5232.8544030759	0.3104484677
5234.7832104490	0.3297176361
5236.7120178220	0.3289671838
5238.6408251951	0.3426743746
5240.5696325681	0.3227341175
5242.4984399412	0.3226113319
5244.4272473142	0.3086696565
5246.3560546873	0.3055857122
5248.2848620603	0.3469231725
5250.2136694334	0.3379035592
5252.1424768064	0.3313852251
5254.0712841795	0.3178821206
5256.0000915525	0.3002147973
5257.9288989255	0.3299964964
5259.8577062986	0.3339437246
5261.7865136716	0.2971621454
5263.7153210447	0.3115501404
5265.6441284177	0.3242211640
5267.5729357908	0.2948027551
5269.5017431638	0.3046788573
5271.4305505369	0.3009044528
5273.3593579099	0.3153595626
5275.2881652830	0.3050344884
5277.2169726560	0.2866490781
5279.1457800291	0.3067902923
5281.0745874021	0.2788582742
5283.0033947752	0.3188385069
5284.9322021482	0.3343854249
5286.8610095212	0.3121833801
5288.7898168943	0.3222208321
5290.7186242673	0.3024323285
5292.6474316404	0.3303878605
5294.5762390134	0.3076476157
5296.5050463865	0.2914082706
5298.4338537595	0.3162551224
5300.3626611326	0.2926437259
5302.2914685056	0.2911891341
5304.2202758787	0.3035737574
5306.1490832517	0.3171362579
5308.0778906248	0.3259930909
5310.0066979978	0.3526793718
5311.9355053709	0.3436070681
5313.8643127439	0.3030713797
5315.7931201169	0.3102295995
5317.7219274900	0.3226837516
5319.6507348630	0.3133188486
5321.5795422361	0.2968700528
5323.5083496091	0.3147566319
5325.4371569822	0.2961269319
5327.3659643552	0.2917568088
5329.2947717283	0.3528521359
5331.2235791013	0.3186762333
5333.1523864744	0.2892822325
5335.0811938474	0.3110692501
5337.0100012205	0.2996389866
5338.9388085935	0.3183120489
5340.8676159666	0.3387353420
5342.7964233396	0.3278019428
5344.7252307126	0.2843643725
5346.6540380857	0.2967962325
5348.5828454587	0.3513297439
5350.5116528318	0.3239923120
5352.4404602048	0.3330408931
5354.3692675779	0.3297789693
5356.2980749509	0.3117494285
5358.2268823240	0.3092941940
5360.1556896970	0.2879229486
5362.0844970701	0.3582649529
5364.0133044431	0.3284286857
5365.9421118162	0.3075586855
5367.8709191892	0.3505462408
5369.7997265623	0.3206750154
5371.7285339353	0.3524990380
5373.6573413083	0.2780776322
5375.5861486814	0.2895300686
5377.5149560544	0.3614871502
5379.4437634275	0.3072707951
5381.3725708005	0.3434691727
5383.3013781736	0.3156187236
5385.2301855466	0.2986485064
5387.1589929197	0.3175430000
5389.0878002927	0.3115165830
5391.0166076658	0.3439235091
5392.9454150388	0.3230785131
5394.8742224119	0.3068616986
5396.8030297849	0.3334977627
5398.7318371580	0.3399223983
5400.6606445310	0.3004645407
5402.5894519041	0.3221811056
5404.5182592771	0.3350907564
5406.4470666501	0.3123165667
5408.3758740232	0.3374861479
5410.3046813962	0.3289760649
5412.2334887693	0.3361220062
5414.1622961423	0.3062617481
5416.0911035154	0.2714658082
5418.0199108884	0.2859070003
5419.9487182615	0.2879976332
5421.8775256345	0.2936392725
5423.8063330076	0.3091411591
5425.7351403806	0.3242711723
5427.6639477537	0.3023772836
5429.5927551267	0.3186284900
5431.5215624998	0.2927564979
5433.4503698728	0.2902235389
5435.3791772458	0.3091630340
5437.3079846189	0.2919214070
5439.2367919919	0.3155340850
5441.1655993650	0.2785927653
5443.0944067380	0.3169203997
5445.0232141111	0.2926103175
5446.9520214841	0.2363706231
5448.8808288572	0.3230387568
5450.8096362302	0.3284526169
5452.7384436033	0.3169482648
5454.6672509763	0.3073416352
5456.5960583494	0.3206481636
5458.5248657224	0.3105136752
5460.4536730955	0.2987421155
5462.3824804685	0.3288667798
5464.3112878415	0.2978477478
5466.2400952146	0.3389206827
5468.1689025876	0.3127214909
5470.0977099607	0.2887528539
5472.0265173337	0.3176744878
5473.9553247068	0.2847864330
5475.8841320798	0.3384242356
5477.8129394529	0.3452317417
5479.7417468259	0.3031912744
5481.6705541990	0.2952385843
5483.5993615720	0.2994550467
5485.5281689451	0.3367739916
5487.4569763181	0.3286992908
5489.3857836912	0.2997688651
5491.3145910642	0.2989173532
5493.2433984372	0.2985227108
5495.1722058103	0.3036943376
5497.1010131833	0.3185546398
5499.0298205564	0.3243189752
5500.9586279294	0.3418522179
5502.8874353025	0.3189372122
5504.8162426755	0.3009197414
5506.7450500486	0.3316915929
5508.6738574216	0.3107285500
5510.6026647947	0.3123287261
5512.5314721677	0.3317326605
5514.4602795408	0.3264439106
5516.3890869138	0.3243397474
5518.3178942869	0.3194116950
5520.2467016599	0.3035967648
5522.1755090330	0.2869963050
5524.1043164060	0.3231456578
5526.0331237790	0.3018568158
5527.9619311521	0.2614921927
5529.8907385251	0.2784602344
5531.8195458982	0.2820221186
5533.7483532712	0.3133835495
5535.6771606443	0.3089423180
5537.6059680173	0.2875392437
5539.5347753904	0.3383461833
5541.4635827634	0.3530913889
5543.3923901365	0.3410505652
5545.3211975095	0.3396056294
5547.2500048826	0.3048107326
5549.1788122556	0.2849189937
5551.1076196287	0.3133994639
5553.0364270017	0.3031063378
5554.9652343747	0.2871020436
5556.8940417478	0.3146416545
5558.8228491208	0.3338358700
5560.7516564939	0.3529633284
5562.6804638669	0.3439077437
5564.6092712400	0.3201979995
5566.5380786130	0.3242478073
5568.4668859861	0.3072032928
5570.3956933591	0.2984851003
5572.3245007322	0.3221454322
5574.2533081052	0.3281790018
5576.1821154783	0.3128391802
5578.1109228513	0.3236926794
5580.0397302244	0.3127875924
5581.9685375974	0.3133841157
5583.8973449704	0.3404676914
5585.8261523435	0.2937447131
5587.7549597165	0.3107114434
5589.6837670896	0.3438681066
5591.6125744626	0.3220663667
5593.5413818357	0.3081941903
5595.4701892087	0.2931786478
5597.3989965818	0.3224743605
5599.3278039548	0.2948136330
5601.2566113279	0.3105476201
5603.1854187009	0.3314090669
5605.1142260740	0.3094631433
5607.0430334470	0.3153646290
5608.9718408201	0.2270663381
5610.9006481931	0.2781069577
5612.8294555661	0.3320855200
5614.7582629392	0.3027231991
5616.6870703122	0.3757655621
5618.6158776853	0.3354769945
5620.5446850583	0.3296051323
5622.4734924314	0.3308394849
5624.4022998044	0.2965010107
5626.3311071775	0.2972081304
5628.2599145505	0.2646742761
5630.1887219236	0.3044083118
5632.1175292966	0.3254105151
5634.0463366697	0.3101933002
5635.9751440427	0.2820850313
5637.9039514158	0.2812920511
5639.8327587888	0.2994692922
5641.7615661619	0.3158463240
5643.6903735349	0.3786051273
5645.6191809079	0.3020653725
5647.5479882810	0.2825616002
5649.4767956540	0.3314240575
5651.4056030271	0.2754602432
5653.3344104001	0.2802219391
5655.2632177732	0.3228133917
5657.1920251462	0.3622679114
5659.1208325193	0.3182929456
5661.0496398923	0.2889014184
5662.9784472654	0.2949067950
5664.9072546384	0.2640179396
5666.8360620115	0.2858786881
5668.7648693845	0.2550455630
5670.6936767576	0.2849648893
5672.6224841306	0.3138194382
5674.5512915036	0.2751438022
5676.4800988767	0.3524684608
5678.4089062497	0.3686849177
5680.3377136228	0.3207961917
5682.2665209958	0.2873289883
5684.1953283689	0.3203810155
5686.1241357419	0.3136069775
5688.0529431150	0.2601834834
5689.9817504880	0.3666476309
5691.9105578611	0.3293988407
5693.8393652341	0.2584082782
5695.7681726072	0.3097167909
5697.6969799802	0.2885621190
5699.6257873533	0.3187135756
5701.5545947263	0.3156161606
5703.4834020993	0.2919760644
5705.4122094724	0.3328090906
5707.3410168454	0.3013398051
5709.2698242185	0.2921247482
5711.1986315915	0.3309289515
5713.1274389646	0.3336172104
5715.0562463376	0.3521531224
5716.9850537107	0.2878428400
5718.9138610837	0.2921358645
5720.8426684568	0.4208582938
5722.7714758298	0.3134554029
5724.7002832029	0.2811454237
5726.6290905759	0.3555223346
5728.5578979490	0.3075227737
5730.4867053220	0.3073764145
5732.4155126950	0.2773083746
5734.3443200681	0.3178129196
5736.2731274411	0.3504074812
5738.2019348142	0.3000609875
5740.1307421872	0.2908597589
5742.0595495603	0.2670034170
5743.9883569333	0.3048593998
5745.9171643064	0.2994466424
5747.8459716794	0.2893428802
5749.7747790525	0.3433253169
5751.7035864255	0.4017402232
5753.6323937986	0.3081241250
5755.5612011716	0.2465751171
5757.4900085447	0.3762845695
5759.4188159177	0.3176245391
5761.3476232907	0.2813051641
5763.2764306638	0.3408124149
5765.2052380368	0.3167767823
5767.1340454099	0.3498021960
5769.0628527829	0.3356982768
5770.9916601560	0.3217745721
5772.9204675290	0.3135580420
5774.8492749021	0.3117299974
5776.7780822751	0.3452332616
5778.7068896482	0.3338852823
5780.6356970212	0.2872999907
5782.5645043943	0.2889606059
5784.4933117673	0.3401827514
5786.4221191404	0.3445791304
5788.3509265134	0.3473540246
5790.2797338865	0.3124067783
5792.2085412595	0.3110249043
5794.1373486325	0.3206917048
5796.0661560056	0.2890078425
5797.9949633786	0.3373670876
5799.9237707517	0.3344812095
5801.8525781247	0.3005086780
5803.7813854978	0.3172889948
5805.7101928708	0.3104970753
5807.6390002439	0.2667462230
5809.5678076169	0.2882660031
5811.4966149900	0.2887265384
5813.4254223630	0.3093143404
5815.3542297361	0.4149390459
5817.2830371091	0.3024772406
5819.2118444822	0.3285009861
5821.1406518552	0.3424247205
5823.0694592282	0.2672869861
5824.9982666013	0.3455101550
5826.9270739743	0.2493370622
5828.8558813474	0.3107329905
5830.7846887204	0.3094184995
5832.7134960935	0.2460052967
5834.6423034665	0.3582141995
5836.5711108396	0.2525006831
5838.4999182126	0.3032578528
5840.4287255857	0.3418575823
5842.3575329587	0.2630456984
5844.2863403318	0.2768424153
5846.2151477048	0.2658722997
5848.1439550779	0.3643817902
5850.0727624509	0.2788796127
5852.0015698239	0.2603993118
5853.9303771970	0.3763352633
5855.8591845700	0.3259465396
5857.7879919431	0.3100574315
5859.7167993161	0.2839457691
5861.6456066892	0.3394881785
5863.5744140622	0.3461478949
5865.5032214353	0.3546936810
5867.4320288083	0.4108534753
5869.3608361814	0.2477814853
5871.2896435544	0.2424646765
5873.2184509275	0.2942600846
5875.1472583005	0.3078145385
5877.0760656736	0.3406312168
5879.0048730466	0.3170697391
5880.9336804196	0.3417510092
5882.8624877927	0.2823455036
5884.7912951657	0.3385021091
5886.7201025388	0.3191482723
5888.6489099118	0.2164730579
5890.5777172849	0.2759228945
5892.5065246579	0.2335731089
5894.4353320310	0.2955595255
5896.3641394040	0.3670390546
5898.2929467771	0.3179074824
5900.2217541501	0.3239082098
5902.1505615232	0.3042261302
5904.0793688962	0.3584453762
5906.0081762693	0.4094268680
5907.9369836423	0.3819476962
5909.8657910154	0.3570811749
5911.7945983884	0.3654047847
5913.7234057614	0.3137067258
5915.6522131345	0.2635264993
5917.5810205075	0.2879996598
5919.5098278806	0.2977998555
5921.4386352536	0.3235287070
5923.3674426267	0.2800564170
5925.2962499997	0.2720580697
5927.2250573728	0.3213897049
5929.1538647458	0.3140413463
5931.0826721189	0.2735397220
5933.0114794919	0.2425022870
5934.9402868650	0.3342253566
5936.8690942380	0.3101727962
5938.7979016111	0.2840709090
5940.7267089841	0.3711584210
5942.6555163571	0.2619812489
5944.5843237302	0.2276024371
5946.5131311032	0.3404403329
5948.4419384763	0.3218578994
5950.3707458493	0.3207719922
5952.2995532224	0.3728354871
5954.2283605954	0.3554030061
5956.1571679685	0.3422360718
5958.0859753415	0.3422871530
5960.0147827146	0.3248534203
5961.9435900876	0.2350327224
5963.8723974607	0.2342940569
5965.8012048337	0.3291297853
5967.7300122068	0.3131742477
5969.6588195798	0.3722396195
5971.5876269528	0.3973706365
5973.5164343259	0.2749083042
5975.4452416989	0.2274842709
5977.3740490720	0.3180373013
5979.3028564450	0.3334966302
5981.2316638181	0.2440010756
5983.1604711911	0.3530804813
5985.0892785642	0.3228105605
5987.0180859372	0.2986449003
5988.9468933103	0.3726013899
5990.8757006833	0.3466526866
5992.8045080564	0.3876580596
5994.7333154294	0.2572261393
5996.6621228025	0.2526375055
5998.5909301755	0.3127717674
6000.5197375485	0.2375220954
