399.2631262207	0.1755535454
401.1919335938	0.3087668717
403.1207409668	0.1671569198
405.0495483398	0.0040361802
406.9783557129	0.1056171656
408.9071630859	0.1095970944
410.8359704590	0.2355353832
412.7647778320	0.1525479406
414.6935852051	0.2514726818
416.6223925781	0.1527159512
418.5511999512	-0.0440051928
420.4800073242	0.0899935812
422.4088146973	0.0767516941
424.3376220703	0.1427410245
426.2664294434	0.1858834922
428.1952368164	0.1818977445
430.1240441895	0.1852634847
432.0528515625	0.2490236610
433.9816589355	0.2323256880
435.9104663086	0.1147400662
437.8392736816	0.0382598974
439.7680810547	0.1998159140
441.6968884277	0.2738668621
443.6256958008	-0.0173406750
445.5545031738	0.0494799241
447.4833105469	0.1108934954
449.4121179199	0.0387579501
451.3409252930	0.1707407534
453.2697326660	0.1930098981
455.1985400391	0.1713613868
457.1273474121	0.0724898875
459.0561547852	0.2034979314
460.9849621582	0.1278514713
462.9137695313	0.2829357386
464.8425769043	0.1922732741
466.7713842773	0.1685447991
468.7001916504	0.5068482161
470.6289990234	-0.0523983091
472.5578063965	0.0222512186
474.4866137695	-0.0611096993
476.4154211426	-0.0340445116
478.3442285156	0.4825020432
480.2730358887	0.2166425288
482.2018432617	0.6561489701
484.1306506348	0.2953817248
486.0594580078	0.2371993959
487.9882653809	0.2711260617
489.9170727539	0.4838685095
491.8458801270	1.1167776585
493.7746875000	0.2543184161
495.7034948730	0.3970954418
497.6323022461	0.9101638198
499.5611096191	0.3653813601
501.4899169922	0.4874946773
503.4187243652	0.5233370662
505.3475317383	0.0910244808
507.2763391113	0.9674231410
509.2051464844	0.3908421695
511.1339538574	0.0084379995
513.0627612305	0.9495258331
514.9915686035	-0.4329917133
516.9203759766	0.1375879347
518.8491833496	0.5691428185
520.7779907227	0.2550683320
522.7067980957	0.8366134167
524.6356054688	0.4000488520
526.5644128418	0.2270499617
528.4932202148	-1.0452928543
530.4220275879	-1.3434462547
532.3508349609	1.2542253733
534.2796423340	1.0613168478
536.2084497070	0.8548460007
538.1372570801	0.4868193269
540.0660644531	0.4441420138
541.9948718262	0.5757187009
543.9236791992	3.6701681614
545.8524865723	0.8053355813
547.7812939453	1.3198926449
549.7101013184	0.8348473907
551.6389086914	0.0034849853
553.5677160645	1.0072836876
555.4965234375	0.2504795790
557.4253308105	0.2458901107
559.3541381836	2.0009808540
561.2829455566	-0.0922664180
563.2117529297	-0.2045810521
565.1405603027	0.9065737128
567.0693676758	0.8841403127
568.9981750488	-0.0134871267
570.9269824219	0.2735162973
572.8557897949	0.7830666304
574.7845971680	0.3087745905
576.7134045410	0.4822455049
578.6422119141	0.4431570470
580.5710192871	0.5318226218
582.4998266602	0.4091776311
584.4286340332	0.3487493396
586.3574414063	1.3037240505
588.2862487793	0.3278266490
590.2150561523	0.4316424727
592.1438635254	1.5950493813
594.0726708984	0.6071791649
596.0014782715	0.5592693090
597.9302856445	0.9475253820
599.8590930176	1.2801959515
601.7879003906	0.9998490214
603.7167077637	0.3823713660
605.6455151367	0.3408629298
607.5743225098	2.3543124199
609.5031298828	1.0007529259
611.4319372559	0.6410407424
613.3607446289	0.4056486487
615.2895520020	-1.4231135845
617.2183593750	2.7112188339
619.1471667480	0.0106798103
621.0759741211	0.3579078913
623.0047814941	-1.2189663649
624.9335888672	3.7253289223
626.8623962402	-1.5122663975
628.7912036133	-0.9301619530
630.7200109863	0.3706892431
632.6488183594	0.1012512222
634.5776257324	0.1368240565
636.5064331055	0.3278732002
638.4352404785	0.3199573159
640.3640478516	0.3043909371
642.2928552246	0.4041666985
644.2216625977	0.3230282664
646.1504699707	0.3423054814
648.0792773438	0.3344227076
650.0080847168	0.2979660034
651.9368920898	0.4801450670
653.8656994629	0.3722037673
655.7945068359	0.3812077641
657.7233142090	0.3766517937
659.6521215820	0.3492063284
661.5809289551	0.3973112702
663.5097363281	0.3280735016
665.4385437012	0.4718638361
667.3673510742	0.4234730899
669.2961584473	0.3672612011
671.2249658203	0.3948389888
673.1537731934	0.3713290393
675.0825805664	0.4168349802
677.0113879395	0.3583327830
678.9401953125	0.3904346824
680.8690026855	0.3678945601
682.7978100586	0.3972703815
684.7266174316	0.4545746446
686.6554248047	0.3619258404
688.5842321777	0.4020721614
690.5130395508	0.4220471382
692.4418469238	0.4292509556
694.3706542969	0.4064023197
696.2994616699	0.4061913192
698.2282690430	0.4409502149
700.1570764160	0.4163521826
702.0858837891	0.4503299296
704.0146911621	0.4609974623
705.9434985352	0.4349724352
707.8723059082	0.4430544078
709.8011132813	0.4323697090
711.7299206543	0.3445040882
713.6587280273	0.3240456283
715.5875354004	0.4962001443
717.5163427734	0.5798925757
719.4451501465	0.5582343936
721.3739575195	-0.3766806424
723.3027648926	0.0013937448
725.2315722656	0.3845310509
727.1603796387	-0.2434511334
729.0891870117	0.0117591070
731.0179943848	2.4396364689
732.9468017578	0.3346565366
734.8756091309	0.2471810132
736.8044165039	-33.5620040894
738.7332238770	0.7570939064
740.6620312500	5.9158401489
742.5908386230	-0.4387391508
744.5196459961	-0.4785969257
746.4484533691	0.3850422800
748.3772607422	-0.5861676931
750.3060681152	-6.6265330315
752.2348754883	-0.4260898530
754.1636828613	-0.1216686890
756.0924902344	0.1558112651
758.0212976074	0.1319289058
759.9501049805	0.4251266122
761.8789123535	0.8911388516
763.8077197266	0.2896575034
765.7365270996	0.4750247598
767.6653344727	0.1900438070
769.5941418457	0.9529148340
771.5229492188	1.1368176937
773.4517565918	-0.0078523820
775.3805639648	0.8307660222
777.3093713379	0.6930670738
779.2381787109	0.0394916907
781.1669860840	0.5678839684
783.0957934570	0.1264006644
785.0246008301	0.0809342265
786.9534082031	0.2610105872
788.8822155762	0.1000535488
790.8110229492	0.4017712474
792.7398303223	0.5023900867
794.6686376953	0.2191082090
796.5974450684	0.6347693801
798.5262524414	0.6971401572
800.4550598145	0.4345881641
802.3838671875	0.6625245810
804.3126745605	0.6332758665
806.2414819336	0.6889752150
808.1702893066	1.1916729212
810.0990966797	0.5427916646
812.0279040527	0.7328207493
813.9567114258	0.7065333128
815.8855187988	0.9934555888
817.8143261719	0.6681755781
819.7431335449	0.7224541306
821.6719409180	1.6948198080
823.6007482910	1.0204976797
825.5295556641	0.9298761487
827.4583630371	0.6187148094
829.3871704102	0.5674777031
831.3159777832	0.8400155306
833.2447851563	0.6834114194
835.1735925293	0.6418420076
837.1023999023	0.5764003396
839.0312072754	0.5185808539
840.9600146484	0.5456406474
842.8888220215	0.7263676524
844.8176293945	0.7162041068
846.7464367676	0.5843490362
848.6752441406	0.7696199417
850.6040515137	0.7780037522
852.5328588867	0.5844470859
854.4616662598	0.4967481196
856.3904736328	0.7447592616
858.3192810059	0.6624509692
860.2480883789	0.4837597311
862.1768957520	0.4378371537
864.1057031250	0.5380674601
866.0345104980	0.7833835483
867.9633178711	0.6731826067
869.8921252441	1.5586022139
871.8209326172	0.3803189993
873.7497399902	0.1298693568
875.6785473633	0.6775946617
877.6073547363	0.5200208426
879.5361621094	0.2255637646
881.4649694824	0.4789843857
883.3937768555	1.0514329672
885.3225842285	0.5366857648
887.2513916016	0.4673904777
889.1801989746	1.7008101940
891.1090063477	1.0086150169
893.0378137207	0.2484164834
894.9666210938	0.7299212813
896.8954284668	0.9545165896
898.8242358398	0.5124742389
900.7530432129	0.7909448743
902.6818505859	0.7348414660
904.6106579590	0.5469506383
906.5394653320	0.5089309216
908.4682727051	0.6294488311
910.3970800781	0.9564231038
912.3258874512	0.6290312409
914.2546948242	0.6669123769
916.1835021973	0.5550937057
918.1123095703	0.6949514747
920.0411169434	0.9801812768
921.9699243164	0.8446464539
923.8987316895	0.9040364027
925.8275390625	0.8625646830
927.7563464355	0.9054766297
929.6851538086	0.8438289762
931.6139611816	0.8636772037
933.5427685547	0.8726900220
935.4715759277	0.6872673631
937.4003833008	0.8499928117
939.3291906738	0.8207341433
941.2579980469	0.7869131565
943.1868054199	0.9409819245
945.1156127930	0.8310564756
947.0444201660	0.7998133898
948.9732275391	0.8216557503
950.9020349121	0.8242003322
952.8308422852	0.8372673988
954.7596496582	0.8219665289
956.6884570313	0.8281193376
958.6172644043	0.8406604528
960.5460717773	0.9060523510
962.4748791504	0.8837772608
964.4036865234	0.8120758533
966.3324938965	0.8547486663
968.2613012695	0.9116956592
970.1901086426	0.8746740222
972.1189160156	0.8083859682
974.0477233887	0.8635657430
975.9765307617	0.8785954714
977.9053381348	0.8026240468
979.8341455078	0.8571806550
981.7629528809	0.8597755432
983.6917602539	0.7916502953
985.6205676270	0.8267577887
987.5493750000	0.8488331437
989.4781823730	0.8368471265
991.4069897461	0.8454694152
993.3357971191	0.8697414994
995.2646044922	0.8569040895
997.1934118652	0.8491205573
999.1222192383	0.8563081622
1001.0510266113	0.8466190100
1002.9798339844	0.8717408180
1004.9086413574	0.8695513606
1006.8374487305	0.8611176610
1008.7662561035	0.8723300695
1010.6950634766	0.8647273183
1012.6238708496	0.8707405329
1014.5526782227	0.8649424911
1016.4814855957	0.8584398627
1018.4102929688	0.8648692966
1020.3391003418	0.8613536358
1022.2679077148	0.8525384068
1024.1967150879	0.8638789654
1026.1255224609	0.8805184364
1028.0543298340	0.8638178110
1029.9831372070	0.8612108827
1031.9119445801	0.8657001257
1033.8407519531	0.8623220921
1035.7695593262	0.8684903383
1037.6983666992	0.8679586649
1039.6271740723	0.8674443364
1041.5559814453	0.8591309190
1043.4847888184	0.8654332757
1045.4135961914	0.8692182302
1047.3424035645	0.8625268936
1049.2712109375	0.8739151359
1051.2000183105	0.8606114388
1053.1288256836	0.8685766459
1055.0576330566	0.8707794547
1056.9864404297	0.8425611258
1058.9152478027	0.8614764810
1060.8440551758	0.8608024716
1062.7728625488	0.8587884903
1064.7016699219	0.8703237176
1066.6304772949	0.8602585793
1068.5592846680	0.8677443266
1070.4880920410	0.8614358306
1072.4168994141	0.8705118299
1074.3457067871	0.8541250825
1076.2745141602	0.8378993273
1078.2033215332	0.8834956884
1080.1321289062	0.8659158945
1082.0609362793	0.8560227156
1083.9897436523	0.8752359748
1085.9185510254	0.8653604388
1087.8473583984	0.8679859042
1089.7761657715	0.8730469942
1091.7049731445	0.8719551563
1093.6337805176	0.8450264931
1095.5625878906	0.8511040807
1097.4913952637	0.8681417108
1099.4202026367	0.8677015901
1101.3490100098	0.8763492703
1103.2778173828	0.8734833002
1105.2066247559	0.8744222522
1107.1354321289	0.8599915504
1109.0642395019	0.8683381677
1110.9930468750	0.8712948561
1112.9218542480	0.8492647409
1114.8506616211	0.8417615891
1116.7794689941	0.8588598967
1118.7082763672	0.8675316572
1120.6370837402	0.8542626500
1122.5658911133	0.8768956661
1124.4946984863	0.8456137776
1126.4235058594	0.8359019160
1128.3523132324	0.8657392263
1130.2811206055	0.8416877389
1132.2099279785	0.8526597023
1134.1387353516	0.8633289337
1136.0675427246	0.8616702557
1137.9963500977	0.8646589518
1139.9251574707	0.8697600365
1141.8539648437	0.8689228296
1143.7827722168	0.8662487268
1145.7115795898	0.8653827906
1147.6403869629	0.8489708304
1149.5691943359	0.8720787764
1151.4980017090	0.8749468327
1153.4268090820	0.8565368056
1155.3556164551	0.8645716310
1157.2844238281	0.8595752716
1159.2132312012	0.8617808223
1161.1420385742	0.8574898839
1163.0708459473	0.8565631509
1164.9996533203	0.8718128800
1166.9284606934	0.8722202778
1168.8572680664	0.8576049209
1170.7860754394	0.8479842544
1172.7148828125	0.8565121293
1174.6436901855	0.8592861295
1176.5724975586	0.8633992672
1178.5013049316	0.8685020208
1180.4301123047	0.8627827168
1182.3589196777	0.8624262214
1184.2877270508	0.8611862659
1186.2165344238	0.8592478633
1188.1453417969	0.8624356389
1190.0741491699	0.8620945811
1192.0029565430	0.8636581898
1193.9317639160	0.8657690883
1195.8605712891	0.8550787568
1197.7893786621	0.8568655849
1199.7181860351	0.8621516824
1201.6469934082	0.8526390195
1203.5758007812	0.8572123647
1205.5046081543	0.8622688055
1207.4334155273	0.8577757478
1209.3622229004	0.8545612097
1211.2910302734	0.8564259410
1213.2198376465	0.8598221540
1215.1486450195	0.8557605147
1217.0774523926	0.8571245670
1219.0062597656	0.8574510217
1220.9350671387	0.8556739092
1222.8638745117	0.8586724401
1224.7926818848	0.8577069044
1226.7214892578	0.8554607034
1228.6502966308	0.8545846939
1230.5791040039	0.8563259840
1232.5079113769	0.8572260141
1234.4367187500	0.8564361930
1236.3655261230	0.8543011546
1238.2943334961	0.8556571603
1240.2231408691	0.8558015823
1242.1519482422	0.8520240784
1244.0807556152	0.8580967784
1246.0095629883	0.8577087522
1247.9383703613	0.8562243581
1249.8671777344	0.8593341708
1251.7959851074	0.8560025692
1253.7247924805	0.8573193550
1255.6535998535	0.8536639214
1257.5824072266	0.8532611132
1259.5112145996	0.8560143709
1261.4400219726	0.8519752026
1263.3688293457	0.8564125896
1265.2976367187	0.8560603857
1267.2264440918	0.8529810309
1269.1552514648	0.8575547338
1271.0840588379	0.8547088504
1273.0128662109	0.8546548486
1274.9416735840	0.8584763408
1276.8704809570	0.8537455201
1278.7992883301	0.8583357334
1280.7280957031	0.8611372113
1282.6569030762	0.8552126288
1284.5857104492	0.8576117754
1286.5145178223	0.8566821814
1288.4433251953	0.8558057547
1290.3721325683	0.8552631140
1292.3009399414	0.8594953418
1294.2297473144	0.8603258133
1296.1585546875	0.8519655466
1298.0873620605	0.8551946878
1300.0161694336	0.8510402441
1301.9449768066	0.8529474139
1303.8737841797	0.8585155606
1305.8025915527	0.8502283692
1307.7313989258	0.8553002477
1309.6602062988	0.8563537598
1311.5890136719	0.8517175913
1313.5178210449	0.8588808179
1315.4466284180	0.8595459461
1317.3754357910	0.8553575873
1319.3042431640	0.8596646190
1321.2330505371	0.8607124090
1323.1618579101	0.8585525751
1325.0906652832	0.8569022417
1327.0194726562	0.8522379398
1328.9482800293	0.8536946774
1330.8770874023	0.8545165062
1332.8058947754	0.8556808233
1334.7347021484	0.8575769067
1336.6635095215	0.8539589047
1338.5923168945	0.8530437946
1340.5211242676	0.8544620275
1342.4499316406	0.8557467461
1344.3787390137	0.8525339365
1346.3075463867	0.8529597521
1348.2363537597	0.8557915688
1350.1651611328	0.8523260951
1352.0939685058	0.8534584045
1354.0227758789	0.8542476892
1355.9515832519	0.8541164398
1357.8803906250	0.8540846705
1359.8091979980	0.8512757421
1361.7380053711	0.8526757360
1363.6668127441	0.8528897762
1365.5956201172	0.8480618000
1367.5244274902	0.8489639759
1369.4532348633	0.8543184996
1371.3820422363	0.8521884084
1373.3108496094	0.8523643017
1375.2396569824	0.8536469340
1377.1684643555	0.8512871861
1379.0972717285	0.8525115848
1381.0260791015	0.8527681828
1382.9548864746	0.8518343568
1384.8836938476	0.8498598337
1386.8125012207	0.8515086770
1388.7413085937	0.8509182930
1390.6701159668	0.8483002782
1392.5989233398	0.8510252237
1394.5277307129	0.8497280478
1396.4565380859	0.8503980637
1398.3853454590	0.8507671356
1400.3141528320	0.8491218686
1402.2429602051	0.8490228057
1404.1717675781	0.8469101787
1406.1005749512	0.8491958380
1408.0293823242	0.8488512635
1409.9581896972	0.8466263413
1411.8869970703	0.8474975824
1413.8158044433	0.8478023410
1415.7446118164	0.8488037586
1417.6734191894	0.8509471416
1419.6022265625	0.8509747982
1421.5310339355	0.8454863429
1423.4598413086	0.8459835649
1425.3886486816	0.8459680676
1427.3174560547	0.8416364193
1429.2462634277	0.8454231024
1431.1750708008	0.8473494053
1433.1038781738	0.8445321918
1435.0326855469	0.8450000286
1436.9614929199	0.8466030359
1438.8903002929	0.8432179093
1440.8191076660	0.8404026031
1442.7479150390	0.8434156775
1444.6767224121	0.8450447917
1446.6055297851	0.8442543149
1448.5343371582	0.8428862691
1450.4631445312	0.8433870673
1452.3919519043	0.8408436179
1454.3207592773	0.8395298123
1456.2495666504	0.8474394083
1458.1783740234	0.8487802148
1460.1071813965	0.8438364267
1462.0359887695	0.8423181772
1463.9647961426	0.8428658843
1465.8936035156	0.8435712457
1467.8224108886	0.8398185968
1469.7512182617	0.8374422789
1471.6800256347	0.8389027119
1473.6088330078	0.8384706378
1475.5376403808	0.8370402455
1477.4664477539	0.8367539644
1479.3952551269	0.8357951045
1481.3240625000	0.8356820345
1483.2528698730	0.8345625401
1485.1816772461	0.8331208825
1487.1104846191	0.8329166770
1489.0392919922	0.8314082026
1490.9680993652	0.8293181658
1492.8969067383	0.8288775086
1494.8257141113	0.8300785422
1496.7545214843	0.8284451365
1498.6833288574	0.8270090222
1500.6121362304	0.8264009356
1502.5409436035	0.8232629299
1504.4697509765	0.8255882859
1506.3985583496	0.8283886313
1508.3273657226	0.8224532008
1510.2561730957	0.8199413419
1512.1849804687	0.8184264898
1514.1137878418	0.8164173365
1516.0425952148	0.8179855347
1517.9714025879	0.8173705339
1519.9002099609	0.8140735030
1521.8290173340	0.8163685203
1523.7578247070	0.8139266372
1525.6866320801	0.8113253117
1527.6154394531	0.8117412925
1529.5442468261	0.8074297309
1531.4730541992	0.8055351377
1533.4018615722	0.8068711162
1535.3306689453	0.8052631617
1537.2594763183	0.8022648096
1539.1882836914	0.8058041930
1541.1170910644	0.8043269515
1543.0458984375	0.7972925305
1544.9747058105	0.7962212563
1546.9035131836	0.7925006151
1548.8323205566	0.7910679579
1550.7611279297	0.7909417152
1552.6899353027	0.7885947227
1554.6187426758	0.7853033543
1556.5475500488	0.7831997275
1558.4763574218	0.7873209715
1560.4051647949	0.7823902369
1562.3339721679	0.7744581699
1564.2627795410	0.7721594572
1566.1915869140	0.7706856132
1568.1203942871	0.7665873766
1570.0492016601	0.7658896446
1571.9780090332	0.7616854906
1573.9068164062	0.7558286190
1575.8356237793	0.7580786943
1577.7644311523	0.7491598725
1579.6932385254	0.7446653843
1581.6220458984	0.7430523038
1583.5508532715	0.7344716191
1585.4796606445	0.7321120501
1587.4084680175	0.7263493538
1589.3372753906	0.7203294635
1591.2660827636	0.7152417898
1593.1948901367	0.7111083269
1595.1236975097	0.7062911391
1597.0525048828	0.6979432702
1598.9813122558	0.6922885180
1600.9101196289	0.6849526763
1602.8389270019	0.6789198518
1604.7677343750	0.6722216010
1606.6965417480	0.6656970382
1608.6253491211	0.6608899236
1610.5541564941	0.6532203555
1612.4829638672	0.6456852555
1614.4117712402	0.6400737166
1616.3405786132	0.6356546283
1618.2693859863	0.6292058825
1620.1981933593	0.6222485900
1622.1270007324	0.6183871627
1624.0558081054	0.6158120036
1625.9846154785	0.6112943888
1627.9134228515	0.6094226241
1629.8422302246	0.6082924604
1631.7710375976	0.6061317325
1633.6998449707	0.6083441973
1635.6286523437	0.6134338975
1637.5574597168	0.6127190590
1639.4862670898	0.6131974459
1641.4150744629	0.6166385412
1643.3438818359	0.6205931902
1645.2726892090	0.6271157861
1647.2014965820	0.6338196397
1649.1303039550	0.6366131306
1651.0591113281	0.6424207091
1652.9879187011	0.6566797495
1654.9167260742	0.6565198302
1656.8455334472	0.6592443585
1658.7743408203	0.6685097218
1660.7031481933	0.6750965118
1662.6319555664	0.6842454076
1664.5607629394	0.6889784932
1666.4895703125	0.6950483918
1668.4183776855	0.7038298845
1670.3471850586	0.7135006189
1672.2759924316	0.7195650339
1674.2047998047	0.7260711193
1676.1336071777	0.7358126044
1678.0624145507	0.7395517826
1679.9912219238	0.7486252785
1681.9200292968	0.7558210492
1683.8488366699	0.7654048800
1685.7776440429	0.7737123370
1687.7064514160	0.7754658461
1689.6352587890	0.7853449583
1691.5640661621	0.7887777090
1693.4928735351	0.7963562608
1695.4216809082	0.8076004982
1697.3504882812	0.8103427291
1699.2792956543	0.8208093047
1701.2081030273	0.8275646567
1703.1369104004	0.8263069391
1705.0657177734	0.8333155513
1706.9945251464	0.8395764232
1708.9233325195	0.8415394425
1710.8521398925	0.8497956395
1712.7809472656	0.8543128967
1714.7097546386	0.8582360148
1716.6385620117	0.8654311299
1718.5673693847	0.8679014444
1720.4961767578	0.8696471453
1722.4249841308	0.8736321926
1724.3537915039	0.8792741299
1726.2825988769	0.8798469901
1728.2114062500	0.8835467696
1730.1402136230	0.8871228695
1732.0690209961	0.8901122212
1733.9978283691	0.8978941441
1735.9266357421	0.8962024450
1737.8554431152	0.8972615004
1739.7842504882	0.9007123113
1741.7130578613	0.9024308920
1743.6418652343	0.9042077065
1745.5706726074	0.9060589075
1747.4994799804	0.9066427946
1749.4282873535	0.9081242681
1751.3570947265	0.9117125273
1753.2859020996	0.9112698436
1755.2147094726	0.9144262671
1757.1435168457	0.9154643416
1759.0723242187	0.9148911834
1761.0011315918	0.9193465114
1762.9299389648	0.9202917814
1764.8587463379	0.9198558927
1766.7875537109	0.9213684797
1768.7163610839	0.9217686057
1770.6451684570	0.9227957129
1772.5739758300	0.9272320867
1774.5027832031	0.9264206886
1776.4315905761	0.9251575470
1778.3603979492	0.9258311391
1780.2892053222	0.9267258644
1782.2180126953	0.9287176728
1784.1468200683	0.9270929694
1786.0756274414	0.9300522804
1788.0044348144	0.9297716022
1789.9332421875	0.9284180999
1791.8620495605	0.9332153201
1793.7908569336	0.9318941832
1795.7196643066	0.9322355390
1797.6484716796	0.9334182739
1799.5772790527	0.9318115711
1801.5060864257	0.9319590926
1803.4348937988	0.9331688881
1805.3637011718	0.9331844449
1807.2925085449	0.9326338768
1809.2213159179	0.9343898296
1811.1501232910	0.9355102777
1813.0789306640	0.9351543784
1815.0077380371	0.9336242676
1816.9365454101	0.9336684942
1818.8653527832	0.9359863997
1820.7941601562	0.9366216063
1822.7229675293	0.9349182248
1824.6517749023	0.9342130423
1826.5805822753	0.9359648228
1828.5093896484	0.9369935989
1830.4381970214	0.9358775020
1832.3670043945	0.9349929690
1834.2958117675	0.9371398687
1836.2246191406	0.9361088276
1838.1534265136	0.9367053509
1840.0822338867	0.9373888969
1842.0110412597	0.9346275926
1843.9398486328	0.9391984344
1845.8686560058	0.9386502504
1847.7974633789	0.9374673963
1849.7262707519	0.9389123321
1851.6550781250	0.9352235198
1853.5838854980	0.9370803833
1855.5126928710	0.9368819594
1857.4415002441	0.9348140359
1859.3703076171	0.9358481169
1861.2991149902	0.9355120063
1863.2279223632	0.9371944070
1865.1567297363	0.9370758533
1867.0855371093	0.9361745119
1869.0143444824	0.9374235272
1870.9431518554	0.9354405403
1872.8719592285	0.9357929230
1874.8007666015	0.9371948838
1876.7295739746	0.9345299006
1878.6583813476	0.9359509945
1880.5871887207	0.9352097511
1882.5159960937	0.9344999790
1884.4448034667	0.9374327064
1886.3736108398	0.9339972734
1888.3024182128	0.9346228838
1890.2312255859	0.9363660812
1892.1600329589	0.9343552589
1894.0888403320	0.9360751510
1896.0176477050	0.9354864359
1897.9464550781	0.9345104694
1899.8752624511	0.9360019565
1901.8040698242	0.9357616901
1903.7328771972	0.9345520735
1905.6616845703	0.9348763227
1907.5904919433	0.9350914359
1909.5192993164	0.9333040714
1911.4481066894	0.9326801896
1913.3769140625	0.9342083335
1915.3057214355	0.9334487915
1917.2345288085	0.9327485561
1919.1633361816	0.9335221052
1921.0921435546	0.9313594103
1923.0209509277	0.9324789643
1924.9497583007	0.9333960414
1926.8785656738	0.9311574697
1928.8073730468	0.9325858355
1930.7361804199	0.9312369227
1932.6649877929	0.9291771650
1934.5937951660	0.9304747581
1936.5226025390	0.9298529029
1938.4514099121	0.9288523793
1940.3802172851	0.9291927814
1942.3090246582	0.9291799068
1944.2378320312	0.9281894565
1946.1666394042	0.9278547168
1948.0954467773	0.9282702804
1950.0242541503	0.9276622534
1951.9530615234	0.9268486500
1953.8818688964	0.9265561104
1955.8106762695	0.9264824390
1957.7394836425	0.9260230660
1959.6682910156	0.9250196815
1961.5970983886	0.9259174466
1963.5259057617	0.9247303009
1965.4547131347	0.9221405983
1967.3835205078	0.9242250323
1969.3123278808	0.9239137769
1971.2411352539	0.9213798642
1973.1699426269	0.9220272899
1975.0987499999	0.9223449230
1977.0275573730	0.9212222695
1978.9563647460	0.9201973081
1980.8851721191	0.9195834398
1982.8139794921	0.9207664132
1984.7427868652	0.9208813310
1986.6715942382	0.9175844193
1988.6004016113	0.9187079072
1990.5292089843	0.9199154973
1992.4580163574	0.9179301262
1994.3868237304	0.9167325497
1996.3156311035	0.9143938422
1998.2444384765	0.9155348539
2000.1732458496	0.9158146977
2002.1020532226	0.9154434800
2004.0308605956	0.9161172509
2005.9596679687	0.9143419862
2007.8884753417	0.9147581458
2009.8172827148	0.9135076404
2011.7460900878	0.9118874669
2013.6748974609	0.9134688973
2015.6037048339	0.9135976434
2017.5325122070	0.9114125967
2019.4613195800	0.9120138884
2021.3901269531	0.9111779332
2023.3189343261	0.9087544084
2025.2477416992	0.9117355943
2027.1765490722	0.9093641639
2029.1053564453	0.9078848362
2031.0341638183	0.9105268121
2032.9629711914	0.9086186886
2034.8917785644	0.9073071480
2036.8205859374	0.9060249329
2038.7493933105	0.9077849388
2040.6782006835	0.9069787860
2042.6070080566	0.9050562382
2044.5358154296	0.9053540230
2046.4646228027	0.9024164677
2048.3934301757	0.9048767686
2050.3222375488	0.9061613083
2052.2510449218	0.9039213061
2054.1798522949	0.9033442736
2056.1086596679	0.9026274681
2058.0374670410	0.9027878046
2059.9662744140	0.9011137486
2061.8950817871	0.9010708928
2063.8238891601	0.9006776214
2065.7526965331	0.8997837901
2067.6815039062	0.9011116028
2069.6103112792	0.9003780484
2071.5391186523	0.8995938897
2073.4679260253	0.8986422420
2075.3967333984	0.8986626863
2077.3255407714	0.9000137448
2079.2543481445	0.8988581896
2081.1831555175	0.8972872496
2083.1119628906	0.8983363509
2085.0407702636	0.8985426426
2086.9695776367	0.8959085345
2088.8983850097	0.8966904879
2090.8271923828	0.8980455995
2092.7559997558	0.8977290988
2094.6848071288	0.8983587623
2096.6136145019	0.8972646594
2098.5424218749	0.8982307911
2100.4712292480	0.8984337449
2102.4000366210	0.8967116475
2104.3288439941	0.8966862559
2106.2576513671	0.8964244723
2108.1864587402	0.8978135586
2110.1152661132	0.8971987367
2112.0440734863	0.8957627416
2113.9728808593	0.8963264227
2115.9016882324	0.8968749046
2117.8304956054	0.8972061276
2119.7593029785	0.8957379460
2121.6881103515	0.8955850005
2123.6169177245	0.8957800269
2125.5457250976	0.8959002495
2127.4745324706	0.8960314393
2129.4033398437	0.8953600526
2131.3321472167	0.8951597810
2133.2609545898	0.8952691555
2135.1897619628	0.8970299363
2137.1185693359	0.8963867426
2139.0473767089	0.8963720202
2140.9761840820	0.8980522156
2142.9049914550	0.8977212310
2144.8337988281	0.8974080086
2146.7626062011	0.8971266747
2148.6914135742	0.8984116316
2150.6202209472	0.8977924585
2152.5490283203	0.8964343667
2154.4778356933	0.8967854977
2156.4066430663	0.8988319635
2158.3354504394	0.8992238641
2160.2642578124	0.8962711096
2162.1930651855	0.8982363939
2164.1218725585	0.8992018700
2166.0506799316	0.8993404508
2167.9794873046	0.9003329277
2169.9082946777	0.8992857337
2171.8371020507	0.9007721543
2173.7659094238	0.9004962444
2175.6947167968	0.9003939033
2177.6235241699	0.9007361531
2179.5523315429	0.9011868238
2181.4811389160	0.9018277526
2183.4099462890	0.9014197588
2185.3387536620	0.9041173458
2187.2675610351	0.9032047987
2189.1963684081	0.9011102319
2191.1251757812	0.9032550454
2193.0539831542	0.9039377570
2194.9827905273	0.9043793082
2196.9115979003	0.9048014283
2198.8404052734	0.9035552144
2200.7692126464	0.9047780633
2202.6980200195	0.9059867263
2204.6268273925	0.9050575495
2206.5556347656	0.9061375260
2208.4844421386	0.9061743617
2210.4132495117	0.9063280821
2212.3420568847	0.9080585837
2214.2708642577	0.9083166718
2216.1996716308	0.9072462916
2218.1284790038	0.9071266651
2220.0572863769	0.9098162651
2221.9860937499	0.9104947448
2223.9149011230	0.9094323516
2225.8437084960	0.9090809822
2227.7725158691	0.9093450308
2229.7013232421	0.9097605944
2231.6301306152	0.9100117683
2233.5589379882	0.9111316800
2235.4877453613	0.9116124511
2237.4165527343	0.9116975069
2239.3453601074	0.9116984010
2241.2741674804	0.9135977030
2243.2029748534	0.9142566323
2245.1317822265	0.9136331677
2247.0605895995	0.9138287306
2248.9893969726	0.9138790965
2250.9182043456	0.9153915644
2252.8470117187	0.9135926366
2254.7758190917	0.9151917696
2256.7046264648	0.9177388549
2258.6334338378	0.9165155292
2260.5622412109	0.9179230332
2262.4910485839	0.9175378084
2264.4198559570	0.9181272388
2266.3486633300	0.9170308709
2268.2774707031	0.9169574976
2270.2062780761	0.9199803472
2272.1350854491	0.9197565913
2274.0638928222	0.9194078445
2275.9927001952	0.9185524583
2277.9215075683	0.9195769429
2279.8503149413	0.9192132354
2281.7791223144	0.9194049239
2283.7079296874	0.9205271006
2285.6367370605	0.9191702008
2287.5655444335	0.9199869633
2289.4943518066	0.9194604754
2291.4231591796	0.9216123819
2293.3519665527	0.9222429991
2295.2807739257	0.9195200205
2297.2095812988	0.9227523804
2299.1383886718	0.9249231219
2301.0671960449	0.9243898392
2302.9960034179	0.9254341125
2304.9248107909	0.9257846475
2306.8536181640	0.9263701439
2308.7824255370	0.9290100336
2310.7112329101	0.9296735525
2312.6400402831	0.9302817583
2314.5688476562	0.9319603443
2316.4976550292	0.9329329729
2318.4264624023	0.9351234436
2320.3552697753	0.9366605878
2322.2840771484	0.9399142861
2324.2128845214	0.9424169660
2326.1416918945	0.9436089396
2328.0704992675	0.9461116791
2329.9993066406	0.9486486316
2331.9281140136	0.9500848055
2333.8569213866	0.9490743876
2335.7857287597	0.9509802461
2337.7145361327	0.9515014291
2339.6433435058	0.9525413513
2341.5721508788	0.9528046846
2343.5009582519	0.9476705194
2345.4297656249	0.9469761252
2347.3585729980	0.9411732554
2349.2873803710	0.9348700047
2351.2161877441	0.9404611588
2353.1449951171	0.9489430189
2355.0738024902	0.9558444023
2357.0026098632	0.9606356025
2358.9314172363	0.9624865055
2360.8602246093	0.9638850093
2362.7890319823	0.9632776380
2364.7178393554	0.9617994428
2366.6466467284	0.9596582055
2368.5754541015	0.9555082917
2370.5042614745	0.9536533952
2372.4330688476	0.9501537681
2374.3618762206	0.9447365403
2376.2906835937	0.9419798255
2378.2194909667	0.9378033876
2380.1482983398	0.9353254437
2382.0771057128	0.9340701699
2384.0059130859	0.9320133328
2385.9347204589	0.9313248992
2387.8635278320	0.9314364791
2389.7923352050	0.9334714413
2391.7211425780	0.9328444600
2393.6499499511	0.9312144518
2395.5787573241	0.9317779541
2397.5075646972	0.9316056967
2399.4363720702	0.9319267869
2401.3651794433	0.9331122637
2403.2939868163	0.9339213967
2405.2227941894	0.9319351315
2407.1516015624	0.9310285449
2409.0804089355	0.9339281917
2411.0092163085	0.9349955320
2412.9380236816	0.9336842299
2414.8668310546	0.9324677587
2416.7956384277	0.9311933517
2418.7244458007	0.9321053028
2420.6532531738	0.9352604151
2422.5820605468	0.9351515174
2424.5108679198	0.9345505238
2426.4396752929	0.9349787831
2428.3684826659	0.9338994026
2430.2972900390	0.9346448779
2432.2260974120	0.9351219535
2434.1549047851	0.9345147610
2436.0837121581	0.9348428249
2438.0125195312	0.9351344109
2439.9413269042	0.9349375367
2441.8701342773	0.9348708987
2443.7989416503	0.9351070523
2445.7277490234	0.9348888993
2447.6565563964	0.9357901812
2449.5853637695	0.9365709424
2451.5141711425	0.9360849857
2453.4429785155	0.9345234632
2455.3717858886	0.9340189099
2457.3005932616	0.9359293580
2459.2294006347	0.9346534014
2461.1582080077	0.9338216782
2463.0870153808	0.9364115000
2465.0158227538	0.9363845587
2466.9446301269	0.9367429614
2468.8734374999	0.9379099011
2470.8022448730	0.9350556135
2472.7310522460	0.9339402914
2474.6598596191	0.9353978038
2476.5886669921	0.9352899194
2478.5174743652	0.9363089204
2480.4462817382	0.9359651208
2482.3750891112	0.9359598756
2484.3038964843	0.9371443987
2486.2327038573	0.9369003177
2488.1615112304	0.9374698997
2490.0903186034	0.9366864562
2492.0191259765	0.9358652234
2493.9479333495	0.9347689748
2495.8767407226	0.9354941249
2497.8055480956	0.9368461370
2499.7343554687	0.9356183410
2501.6631628417	0.9364378452
2503.5919702148	0.9360074401
2505.5207775878	0.9378683567
2507.4495849609	0.9386447072
2509.3783923339	0.9361979961
2511.3071997069	0.9379935861
2513.2360070800	0.9372918010
2515.1648144530	0.9356464744
2517.0936218261	0.9362018108
2519.0224291991	0.9366754889
2520.9512365722	0.9344973564
2522.8800439452	0.9343458414
2524.8088513183	0.9382250309
2526.7376586913	0.9372598529
2528.6664660644	0.9363106489
2530.5952734374	0.9368528724
2532.5240808105	0.9370035529
2534.4528881835	0.9365600944
2536.3816955566	0.9369501472
2538.3105029296	0.9375133514
2540.2393103027	0.9356870651
2542.1681176757	0.9379064441
2544.0969250487	0.9370010495
2546.0257324218	0.9356533885
2547.9545397948	0.9378519654
2549.8833471679	0.9352251291
2551.8121545409	0.9344626069
2553.7409619140	0.9362902641
2555.6697692870	0.9352738857
2557.5985766601	0.9346719384
2559.5273840331	0.9371286035
2561.4561914062	0.9355976582
2563.3849987792	0.9344587326
2565.3138061523	0.9368317127
2567.2426135253	0.9359816909
2569.1714208984	0.9366627932
2571.1002282714	0.9355364442
2573.0290356444	0.9349873662
2574.9578430175	0.9371913075
2576.8866503905	0.9363031387
2578.8154577636	0.9361421466
2580.7442651366	0.9358086586
2582.6730725097	0.9338592291
2584.6018798827	0.9346784353
2586.5306872558	0.9362047315
2588.4594946288	0.9339867830
2590.3883020019	0.9355598688
2592.3171093749	0.9363417625
2594.2459167480	0.9337581396
2596.1747241210	0.9351921678
2598.1035314941	0.9354923964
2600.0323388671	0.9357837439
2601.9611462401	0.9342244864
2603.8899536132	0.9351233840
2605.8187609862	0.9371663928
2607.7475683593	0.9339262843
2609.6763757323	0.9333997369
2611.6051831054	0.9342614412
2613.5339904784	0.9352558851
2615.4627978515	0.9330114126
2617.3916052245	0.9333839417
2619.3204125976	0.9355087876
2621.2492199706	0.9316277504
2623.1780273437	0.9316469431
2625.1068347167	0.9333377481
2627.0356420898	0.9344276786
2628.9644494628	0.9328521490
2630.8932568358	0.9320569634
2632.8220642089	0.9339615107
2634.7508715819	0.9307104945
2636.6796789550	0.9301006794
2638.6084863280	0.9315884113
2640.5372937011	0.9320969582
2642.4661010741	0.9328885078
2644.3949084472	0.9319889545
2646.3237158202	0.9304675460
2648.2525231933	0.9298352003
2650.1813305663	0.9299214482
2652.1101379394	0.9290149808
2654.0389453124	0.9310314059
2655.9677526855	0.9310211539
2657.8965600585	0.9282038808
2659.8253674315	0.9293060303
2661.7541748046	0.9278144836
2663.6829821776	0.9261540771
2665.6117895507	0.9289951324
2667.5405969237	0.9288315177
2669.4694042968	0.9272349477
2671.3982116698	0.9280807972
2673.3270190429	0.9268689156
2675.2558264159	0.9260991216
2677.1846337890	0.9269078970
2679.1134411620	0.9262988567
2681.0422485351	0.9269936085
2682.9710559081	0.9264494777
2684.8998632812	0.9232869744
2686.8286706542	0.9240958691
2688.7574780273	0.9258121252
2690.6862854003	0.9234253764
2692.6150927733	0.9239281416
2694.5439001464	0.9244804978
2696.4727075194	0.9220094681
2698.4015148925	0.9228983521
2700.3303222655	0.9229877591
2702.2591296386	0.9208366275
2704.1879370116	0.9201217890
2706.1167443847	0.9206196070
2708.0455517577	0.9213790298
2709.9743591308	0.9206884503
2711.9031665038	0.9188856483
2713.8319738769	0.9188855290
2715.7607812499	0.9196051359
2717.6895886230	0.9188652635
2719.6183959960	0.9186584949
2721.5472033690	0.9182688594
2723.4760107421	0.9193489552
2725.4048181151	0.9190792441
2727.3336254882	0.9151401520
2729.2624328612	0.9147552252
2731.1912402343	0.9154914021
2733.1200476073	0.9156733155
2735.0488549804	0.9155927300
2736.9776623534	0.9124148488
2738.9064697265	0.9126234651
2740.8352770995	0.9137807488
2742.7640844726	0.9108330011
2744.6928918456	0.9127997756
2746.6216992187	0.9139246941
2748.5505065917	0.9106515646
2750.4793139647	0.9104688168
2752.4081213378	0.9093062878
2754.3369287108	0.9103912115
2756.2657360839	0.9098731875
2758.1945434569	0.9077668786
2760.1233508300	0.9087546468
2762.0521582030	0.9066494107
2763.9809655761	0.9066742659
2765.9097729491	0.9057601690
2767.8385803222	0.9050905704
2769.7673876952	0.9053043127
2771.6961950683	0.9022147655
2773.6250024413	0.9017717242
2775.5538098144	0.9010148644
2777.4826171874	0.9000747204
2779.4114245604	0.8982326388
2781.3402319335	0.8986852765
2783.2690393065	0.9000737667
2785.1978466796	0.8984745145
2787.1266540526	0.8988160491
2789.0554614257	0.8973962069
2790.9842687987	0.8969088197
2792.9130761718	0.8968114257
2794.8418835448	0.8963927031
2796.7706909179	0.8959364891
2798.6994982909	0.8941786289
2800.6283056640	0.8930897713
2802.5571130370	0.8906729221
2804.4859204101	0.8908681870
2806.4147277831	0.8897291422
2808.3435351562	0.8889020085
2810.2723425292	0.8885052800
2812.2011499022	0.8844606876
2814.1299572753	0.8843986392
2816.0587646483	0.8843457103
2817.9875720214	0.8848586082
2819.9163793944	0.8855059147
2821.8451867675	0.8811306953
2823.7739941405	0.8783342838
2825.7028015136	0.8792397976
2827.6316088866	0.8784656525
2829.5604162597	0.8765313029
2831.4892236327	0.8774110675
2833.4180310058	0.8759748936
2835.3468383788	0.8732807636
2837.2756457519	0.8734092116
2839.2044531249	0.8716953993
2841.1332604979	0.8699683547
2843.0620678710	0.8700322509
2844.9908752440	0.8661286235
2846.9196826171	0.8636839390
2848.8484899901	0.8636793494
2850.7772973632	0.8593196273
2852.7061047362	0.8585779071
2854.6349121093	0.8575481772
2856.5637194823	0.8571634293
2858.4925268554	0.8589920998
2860.4213342284	0.8554319739
2862.3501416015	0.8565920591
2864.2789489745	0.8551810980
2866.2077563476	0.8523317575
2868.1365637206	0.8546608686
2870.0653710936	0.8514497280
2871.9941784667	0.8494364023
2873.9229858397	0.8491593003
2875.8517932128	0.8485025764
2877.7806005858	0.8480025530
2879.7094079589	0.8432099223
2881.6382153319	0.8399618864
2883.5670227050	0.8410801888
2885.4958300780	0.8398525715
2887.4246374511	0.8381336331
2889.3534448241	0.8392679691
2891.2822521972	0.8352198601
2893.2110595702	0.8323097825
2895.1398669433	0.8328619599
2897.0686743163	0.8284645677
2898.9974816893	0.8272072077
2900.9262890624	0.8269943595
2902.8550964354	0.8216783404
2904.7839038085	0.8193323612
2906.7127111815	0.8198204637
2908.6415185546	0.8182638288
2910.5703259276	0.8145871758
2912.4991333007	0.8100073934
2914.4279406737	0.8097784519
2916.3567480468	0.8091060519
2918.2855554198	0.8044651747
2920.2143627929	0.8012431264
2922.1431701659	0.7981340289
2924.0719775390	0.7988727689
2926.0007849120	0.7973672152
2927.9295922851	0.7946007848
2929.8583996581	0.7953885198
2931.7872070311	0.7917048335
2933.7160144042	0.7926778197
2935.6448217772	0.7912622690
2937.5736291503	0.7868925929
2939.5024365233	0.7879159451
2941.4312438964	0.7841741443
2943.3600512694	0.7825099230
2945.2888586425	0.7814667225
2947.2176660155	0.7794001698
2949.1464733886	0.7785001397
2951.0752807616	0.7743405104
2953.0040881347	0.7710512877
2954.9328955077	0.7693449855
2956.8617028808	0.7684843540
2958.7905102538	0.7654898167
2960.7193176268	0.7638826966
2962.6481249999	0.7618685365
2964.5769323729	0.7586845160
2966.5057397460	0.7576618195
2968.4345471190	0.7544800043
2970.3633544921	0.7539939284
2972.2921618651	0.7497340441
2974.2209692382	0.7461073399
2976.1497766112	0.7478826642
2978.0785839843	0.7438916564
2980.0073913573	0.7404317260
2981.9361987304	0.7375199795
2983.8650061034	0.7342771292
2985.7938134765	0.7322809696
2987.7226208495	0.7301184535
2989.6514282225	0.7262848020
2991.5802355956	0.7224406004
2993.5090429686	0.7232179642
2995.4378503417	0.7192578912
2997.3666577147	0.7145589590
2999.2954650878	0.7141740918
3001.2242724608	0.7107547522
3003.1530798339	0.7072284818
3005.0818872069	0.7050939202
3007.0106945800	0.7018581033
3008.9395019530	0.6981129050
3010.8683093261	0.6959909797
3012.7971166991	0.6934600472
3014.7259240722	0.6889868379
3016.6547314452	0.6859325767
3018.5835388182	0.6843258142
3020.5123461913	0.6786413789
3022.4411535643	0.6745324731
3024.3699609374	0.6736983061
3026.2987683104	0.6700420976
3028.2275756835	0.6690790057
3030.1563830565	0.6641348600
3032.0851904296	0.6599366665
3034.0139978026	0.6602618098
3035.9428051757	0.6532836556
3037.8716125487	0.6490996480
3039.8004199218	0.6482874751
3041.7292272948	0.6436024308
3043.6580346679	0.6389017105
3045.5868420409	0.6376935244
3047.5156494139	0.6340479851
3049.4444567870	0.6286156774
3051.3732641600	0.6279378533
3053.3020715331	0.6244994998
3055.2308789061	0.6192740798
3057.1596862792	0.6152178645
3059.0884936522	0.6137692928
3061.0173010253	0.6115817428
3062.9461083983	0.6071227193
3064.8749157714	0.6052112579
3066.8037231444	0.6016937494
3068.7325305175	0.5973959565
3070.6613378905	0.5929812193
3072.5901452636	0.5914187431
3074.5189526366	0.5883086324
3076.4477600097	0.5830698609
3078.3765673827	0.5801001787
3080.3053747557	0.5770111680
3082.2341821288	0.5747996569
3084.1629895018	0.5677116513
3086.0917968749	0.5657213926
3088.0206042479	0.5642330647
3089.9494116210	0.5581765175
3091.8782189940	0.5558998585
3093.8070263671	0.5503495932
3095.7358337401	0.5492917299
3097.6646411132	0.5464369655
3099.5934484862	0.5416164398
3101.5222558593	0.5396606326
3103.4510632323	0.5354931951
3105.3798706054	0.5345618725
3107.3086779784	0.5301480889
3109.2374853514	0.5262563229
3111.1662927245	0.5226895213
3113.0951000975	0.5185496807
3115.0239074706	0.5170813203
3116.9527148436	0.5135660172
3118.8815222167	0.5116310120
3120.8103295897	0.5065232515
3122.7391369628	0.5024592280
3124.6679443358	0.5010402203
3126.5967517089	0.4964447320
3128.5255590819	0.4947811365
3130.4543664550	0.4917316139
3132.3831738280	0.4867467582
3134.3119812011	0.4857101142
3136.2407885741	0.4826313555
3138.1695959471	0.4787300527
3140.0984033202	0.4771463871
3142.0272106932	0.4740899801
3143.9560180663	0.4724824727
3145.8848254393	0.4682888389
3147.8136328124	0.4640534520
3149.7424401854	0.4640924037
3151.6712475585	0.4612446427
3153.6000549315	0.4591301382
3155.5288623046	0.4556666315
3157.4576696776	0.4520623684
3159.3864770507	0.4510635138
3161.3152844237	0.4477505088
3163.2440917968	0.4461510181
3165.1728991698	0.4437669516
3167.1017065428	0.4402978420
3169.0305139159	0.4385862350
3170.9593212889	0.4372874796
3172.8881286620	0.4363161922
3174.8169360350	0.4326126277
3176.7457434081	0.4294348955
3178.6745507811	0.4288791120
3180.6033581542	0.4285440147
3182.5321655272	0.4264545143
3184.4609729003	0.4226737916
3186.3897802733	0.4223561585
3188.3185876464	0.4208342731
3190.2473950194	0.4188656509
3192.1762023925	0.4191976190
3194.1050097655	0.4177871644
3196.0338171386	0.4190676510
3197.9626245116	0.4161413014
3199.8914318846	0.4119171500
3201.8202392577	0.4117988050
3203.7490466307	0.4107019305
3205.6778540038	0.4110583365
3207.6066613768	0.4081410170
3209.5354687499	0.4084824026
3211.4642761229	0.4088615477
3213.3930834960	0.4063288867
3215.3218908690	0.4085845947
3217.2506982421	0.4069463313
3219.1795056151	0.4056876898
3221.1083129882	0.4049647748
3223.0371203612	0.4037654102
3224.9659277343	0.4047582150
3226.8947351073	0.4060134590
3228.8235424803	0.4067746699
3230.7523498534	0.4039408565
3232.6811572264	0.4038852751
3234.6099645995	0.4049269855
3236.5387719725	0.4050003886
3238.4675793456	0.4038012028
3240.3963867186	0.4033349752
3242.3251940917	0.4049333334
3244.2540014647	0.4050424993
3246.1828088378	0.4066691101
3248.1116162108	0.4050112665
3250.0404235839	0.4061615169
3251.9692309569	0.4084430039
3253.8980383300	0.4061110914
3255.8268457030	0.4063250721
3257.7556530760	0.4072328806
3259.6844604491	0.4082714617
3261.6132678221	0.4076266289
3263.5420751952	0.4089766443
3265.4708825682	0.4091872573
3267.3996899413	0.4087715149
3269.3284973143	0.4112470448
3271.2573046874	0.4100706875
3273.1861120604	0.4086862206
3275.1149194335	0.4076684117
3277.0437268065	0.4118514359
3278.9725341796	0.4142011702
3280.9013415526	0.4121892750
3282.8301489257	0.4143297374
3284.7589562987	0.4143793881
3286.6877636717	0.4156292975
3288.6165710448	0.4141107202
3290.5453784178	0.4130787849
3292.4741857909	0.4162343442
3294.4029931639	0.4150685370
3296.3318005370	0.4164118469
3298.2606079100	0.4173278213
3300.1894152831	0.4162760675
3302.1182226561	0.4175900817
3304.0470300292	0.4166056216
3305.9758374022	0.4171925783
3307.9046447753	0.4209942520
3309.8334521483	0.4211373329
3311.7622595214	0.4200091064
3313.6910668944	0.4220936596
3315.6198742675	0.4226970971
3317.5486816405	0.4221999943
3319.4774890135	0.4224812388
3321.4062963866	0.4208698869
3323.3351037596	0.4234450758
3325.2639111327	0.4270233214
3327.1927185057	0.4259631336
3329.1215258788	0.4280636609
3331.0503332518	0.4281476140
3332.9791406249	0.4263718724
3334.9079479979	0.4262657166
3336.8367553710	0.4260914028
3338.7655627440	0.4276895523
3340.6943701171	0.4273191094
3342.6231774901	0.4307650924
3344.5519848632	0.4317794740
3346.4807922362	0.4292350411
3348.4095996092	0.4309067428
3350.3384069823	0.4330438673
3352.2672143553	0.4350408018
3354.1960217284	0.4334465265
3356.1248291014	0.4376417398
3358.0536364745	0.4381655157
3359.9824438475	0.4347908497
3361.9112512206	0.4384850860
3363.8400585936	0.4391503036
3365.7688659667	0.4449488521
3367.6976733397	0.4448121786
3369.6264807128	0.4426841438
3371.5552880858	0.4458468556
3373.4840954589	0.4465384185
3375.4129028319	0.4512307346
3377.3417102049	0.4500023425
3379.2705175780	0.4536043108
3381.1993249510	0.4567657411
3383.1281323241	0.4548012912
3385.0569396971	0.4591838121
3386.9857470702	0.4597231448
3388.9145544432	0.4615436196
3390.8433618163	0.4625965059
3392.7721691893	0.4660798311
3394.7009765624	0.4687659144
3396.6297839354	0.4678093791
3398.5585913085	0.4745598435
3400.4873986815	0.4771008193
3402.4162060546	0.4771726429
3404.3450134276	0.4795413911
3406.2738208006	0.4827767015
3408.2026281737	0.4863717556
3410.1314355467	0.4868309796
3412.0602429198	0.4883883893
3413.9890502928	0.4905925989
3415.9178576659	0.4919347763
3417.8466650389	0.4943425953
3419.7754724120	0.5006557107
3421.7042797850	0.5049420595
3423.6330871581	0.5052486062
3425.5618945311	0.5071609020
3427.4907019042	0.5114956498
3429.4195092772	0.5131868124
3431.3483166503	0.5120018721
3433.2771240233	0.5195395947
3435.2059313963	0.5245014429
3437.1347387694	0.5238725543
3439.0635461424	0.5288043618
3440.9923535155	0.5317311287
3442.9211608885	0.5343823433
3444.8499682616	0.5362877846
3446.7787756346	0.5376338363
3448.7075830077	0.5424184799
3450.6363903807	0.5473200679
3452.5651977538	0.5494505763
3454.4940051268	0.5485715270
3456.4228124999	0.5528163314
3458.3516198729	0.5580120087
3460.2804272460	0.5584229827
3462.2092346190	0.5622467995
3464.1380419921	0.5670241714
3466.0668493651	0.5683596134
3467.9956567381	0.5720787048
3469.9244641112	0.5761949420
3471.8532714842	0.5785688162
3473.7820788573	0.5830321312
3475.7108862303	0.5842013955
3477.6396936034	0.5855919719
3479.5685009764	0.5919799209
3481.4973083495	0.5960307121
3483.4261157225	0.5970340967
3485.3549230956	0.5968327522
3487.2837304686	0.6009252667
3489.2125378417	0.6070172787
3491.1413452147	0.6084285378
3493.0701525878	0.6119654775
3494.9989599608	0.6149281263
3496.9277673338	0.6196077466
3498.8565747069	0.6250119209
3500.7853820799	0.6229259372
3502.7141894530	0.6289724112
3504.6429968260	0.6342665553
3506.5718041991	0.6319199204
3508.5006115721	0.6366257071
3510.4294189452	0.6402509809
3512.3582263182	0.6447404623
3514.2870336913	0.6489172578
3516.2158410643	0.6517341733
3518.1446484374	0.6524962783
3520.0734558104	0.6522100568
3522.0022631835	0.6608054042
3523.9310705565	0.6625854969
3525.8598779295	0.6646364927
3527.7886853026	0.6700666547
3529.7174926756	0.6736732125
3531.6463000487	0.6781048179
3533.5751074217	0.6744619012
3535.5039147948	0.6811305285
3537.4327221678	0.6874487400
3539.3615295409	0.6889922023
3541.2903369139	0.6952753663
3543.2191442870	0.6938633919
3545.1479516600	0.6979319453
3547.0767590331	0.7043367624
3549.0055664061	0.7072222829
3550.9343737792	0.7063880563
3552.8631811522	0.7066991329
3554.7919885252	0.7150249481
3556.7207958983	0.7196140885
3558.6496032713	0.7200936079
3560.5784106444	0.7208664417
3562.5072180174	0.7293862700
3564.4360253905	0.7322589755
3566.3648327635	0.7314186692
3568.2936401366	0.7392092347
3570.2224475096	0.7410748005
3572.1512548827	0.7436161637
3574.0800622557	0.7473685145
3576.0088696288	0.7491728663
3577.9376770018	0.7520344257
3579.8664843749	0.7554206252
3581.7952917479	0.7573463321
3583.7240991210	0.7607566714
3585.6529064940	0.7662112117
3587.5817138670	0.7671614289
3589.5105212401	0.7715463042
3591.4393286131	0.7748166919
3593.3681359862	0.7768470645
3595.2969433592	0.7788825631
3597.2257507323	0.7805040479
3599.1545581053	0.7835089564
3601.0833654784	0.7855626345
3603.0121728514	0.7937213182
3604.9409802245	0.7955843210
3606.8697875975	0.7956617475
3608.7985949706	0.8004234433
3610.7274023436	0.8059337139
3612.6562097167	0.8081678748
3614.5850170897	0.8039957881
3616.5138244627	0.8112649322
3618.4426318358	0.8152864575
3620.3714392088	0.8183094263
3622.3002465819	0.8236427903
3624.2290539549	0.8228065372
3626.1578613280	0.8275793195
3628.0866687010	0.8302226067
3630.0154760741	0.8347979188
3631.9442834471	0.8367335200
3633.8730908202	0.8367310762
3635.8018981932	0.8399724960
3637.7307055663	0.8439320326
3639.6595129393	0.8505032659
3641.5883203124	0.8535738587
3643.5171276854	0.8576050997
3645.4459350584	0.8593657017
3647.3747424315	0.8644626737
3649.3035498045	0.8696864247
3651.2323571776	0.8728432655
3653.1611645506	0.8773788810
3655.0899719237	0.8805795908
3657.0187792967	0.8920084834
3658.9475866698	0.8888100982
3660.8763940428	0.8892289400
3662.8052014159	0.8974820971
3664.7340087889	0.8965200782
3666.6628161620	0.9004795551
3668.5916235350	0.9052876830
3670.5204309081	0.9183808565
3672.4492382811	0.9200693369
3674.3780456541	0.9203628898
3676.3068530272	0.9292024970
3678.2356604002	0.9217010140
3680.1644677733	0.9261978269
3682.0932751463	0.9342679381
3684.0220825194	0.9308795929
3685.9508898924	0.9327406287
3687.8796972655	0.9420635104
3689.8085046385	0.9465758801
3691.7373120116	0.9414715767
3693.6661193846	0.9431627393
3695.5949267577	0.9488875270
3697.5237341307	0.9491174221
3699.4525415038	0.9469900727
3701.3813488768	0.9523320794
3703.3101562499	0.9575098157
3705.2389636229	0.9542793632
3707.1677709959	0.9577823877
3709.0965783690	0.9588778615
3711.0253857420	0.9535096884
3712.9541931151	0.9601526260
3714.8830004881	0.9626052380
3716.8118078612	0.9587652087
3718.7406152342	0.9624295235
3720.6694226073	0.9638639092
3722.5982299803	0.9640032649
3724.5270373534	0.9621880651
3726.4558447264	0.9616057277
3728.3846520995	0.9665620923
3730.3134594725	0.9661110044
3732.2422668456	0.9679197073
3734.1710742186	0.9695878029
3736.0998815916	0.9679604769
3738.0286889647	0.9676411748
3739.9574963377	0.9664269090
3741.8863037108	0.9662353396
3743.8151110838	0.9695729017
3745.7439184569	0.9743365049
3747.6727258299	0.9691497684
3749.6015332030	0.9700669646
3751.5303405760	0.9705224633
3753.4591479491	0.9645769000
3755.3879553221	0.9660990238
3757.3167626952	0.9629975557
3759.2455700682	0.9657269120
3761.1743774413	0.9697280526
3763.1031848143	0.9678087831
3765.0319921873	0.9723383784
3766.9607995604	0.9685198665
3768.8896069334	0.9667726159
3770.8184143065	0.9700734615
3772.7472216795	0.9682816267
3774.6760290526	0.9701966643
3776.6048364256	0.9676414728
3778.5336437987	0.9653612971
3780.4624511717	0.9710288048
3782.3912585448	0.9684318304
3784.3200659178	0.9644153714
3786.2488732909	0.9696825147
3788.1776806639	0.9719885588
3790.1064880370	0.9692519903
3792.0352954100	0.9654045105
3793.9641027830	0.9639169574
3795.8929101561	0.9670702815
3797.8217175291	0.9695683718
3799.7505249022	0.9702882171
3801.6793322752	0.9715586305
3803.6081396483	0.9690821767
3805.5369470213	0.9684100747
3807.4657543944	0.9735982418
3809.3945617674	0.9747801423
3811.3233691405	0.9733884335
3813.2521765135	0.9702875614
3815.1809838866	0.9691562653
3817.1097912596	0.9705530405
3819.0385986327	0.9699156880
3820.9674060057	0.9734644890
3822.8962133787	0.9722241163
3824.8250207518	0.9717276692
3826.7538281248	0.9731999040
3828.6826354979	0.9674226642
3830.6114428709	0.9684143662
3832.5402502440	0.9708319902
3834.4690576170	0.9689960480
3836.3978649901	0.9697899818
3838.3266723631	0.9717903733
3840.2554797362	0.9692468047
3842.1842871092	0.9707313180
3844.1130944823	0.9742330313
3846.0419018553	0.9691840410
3847.9707092284	0.9716482759
3849.8995166014	0.9734439850
3851.8283239745	0.9719574451
3853.7571313475	0.9731030464
3855.6859387205	0.9669485092
3857.6147460936	0.9682820439
3859.5435534666	0.9694394469
3861.4723608397	0.9690718651
3863.4011682127	0.9711164832
3865.3299755858	0.9716808200
3867.2587829588	0.9696419835
3869.1875903319	0.9691467285
3871.1163977049	0.9727749825
3873.0452050780	0.9724258184
3874.9740124510	0.9739349484
3876.9028198241	0.9706325531
3878.8316271971	0.9676800370
3880.7604345702	0.9712153077
3882.6892419432	0.9701485038
3884.6180493162	0.9722108841
3886.5468566893	0.9745064378
3888.4756640623	0.9697787166
3890.4044714354	0.9695052505
3892.3332788084	0.9735831618
3894.2620861815	0.9712532759
3896.1908935545	0.9700911641
3898.1197009276	0.9724684358
3900.0485083006	0.9749781489
3901.9773156737	0.9760823250
3903.9061230467	0.9693113565
3905.8349304198	0.9673858881
3907.7637377928	0.9662368894
3909.6925451659	0.9668708444
3911.6213525389	0.9697933793
3913.5501599119	0.9714528322
3915.4789672850	0.9779695272
3917.4077746580	0.9674106836
3919.3365820311	0.9643932581
3921.2653894041	0.9716261625
3923.1941967772	0.9661731720
3925.1230041502	0.9682106376
3927.0518115233	0.9658902884
3928.9806188963	0.9650427103
3930.9094262694	0.9687522650
3932.8382336424	0.9668234587
3934.7670410155	0.9682122469
3936.6958483885	0.9699152112
3938.6246557616	0.9732217193
3940.5534631346	0.9724153280
3942.4822705076	0.9705873728
3944.4110778807	0.9693318605
3946.3398852537	0.9653986692
3948.2686926268	0.9659963846
3950.1974999998	0.9687249660
3952.1263073729	0.9713704586
3954.0551147459	0.9695504904
3955.9839221190	0.9656275511
3957.9127294920	0.9669460058
3959.8415368651	0.9684853554
3961.7703442381	0.9687434435
3963.6991516112	0.9700401425
3965.6279589842	0.9707066417
3967.5567663573	0.9692021608
3969.4855737303	0.9685801268
3971.4143811034	0.9724820852
3973.3431884764	0.9704623222
3975.2719958494	0.9669990540
3977.2008032225	0.9735386372
3979.1296105955	0.9702132940
3981.0584179686	0.9666645527
3982.9872253416	0.9705266953
3984.9160327147	0.9672343135
3986.8448400877	0.9749799967
3988.7736474608	0.9765710235
3990.7024548338	0.9657908678
3992.6312622069	0.9712730050
3994.5600695799	0.9733958840
3996.4888769530	0.9696264267
3998.4176843260	0.9729979038
4000.3464916991	0.9709525108
4002.2752990721	0.9679491520
4004.2041064451	0.9697885513
4006.1329138182	0.9721406102
4008.0617211912	0.9701689482
4009.9905285643	0.9678758979
4011.9193359373	0.9698577523
4013.8481433104	0.9675658941
4015.7769506834	0.9687448144
4017.7057580565	0.9695515633
4019.6345654295	0.9680466056
4021.5633728026	0.9704190493
4023.4921801756	0.9649158120
4025.4209875487	0.9664813876
4027.3497949217	0.9700028300
4029.2786022948	0.9692484736
4031.2074096678	0.9713636637
4033.1362170408	0.9701390266
4035.0650244139	0.9741802216
4036.9938317869	0.9715092182
4038.9226391600	0.9695554972
4040.8514465330	0.9699203372
4042.7802539061	0.9680020809
4044.7090612791	0.9706635475
4046.6378686522	0.9675968289
4048.5666760252	0.9696387053
4050.4954833983	0.9658870697
4052.4242907713	0.9650771022
4054.3530981444	0.9669423699
4056.2819055174	0.9664703608
4058.2107128905	0.9737930298
4060.1395202635	0.9612838030
4062.0683276365	0.9641467333
4063.9971350096	0.9737223387
4065.9259423826	0.9677498341
4067.8547497557	0.9720443487
4069.7835571287	0.9678441882
4071.7123645018	0.9678512216
4073.6411718748	0.9673509598
4075.5699792479	0.9640498757
4077.4987866209	0.9638516903
4079.4275939940	0.9609181285
4081.3564013670	0.9640877247
4083.2852087401	0.9635304809
4085.2140161131	0.9696137309
4087.1428234862	0.9702598453
4089.0716308592	0.9632605910
4091.0004382323	0.9661967754
4092.9292456053	0.9674113989
4094.8580529783	0.9641226530
4096.7868603514	0.9650682211
4098.7156677244	0.9719758630
4100.6444750975	0.9703108072
4102.5732824705	0.9724385738
4104.5020898436	0.9732946754
4106.4308972166	0.9675852656
4108.3597045897	0.9684608579
4110.2885119627	0.9674907327
4112.2173193358	0.9743569493
4114.1461267088	0.9713611603
4116.0749340819	0.9650450349
4118.0037414549	0.9725480676
4119.9325488280	0.9714289904
4121.8613562010	0.9686755538
4123.7901635740	0.9707451463
4125.7189709471	0.9720477462
4127.6477783201	0.9664904475
4129.5765856932	0.9623590112
4131.5053930662	0.9655095935
4133.4342004393	0.9716012478
4135.3630078123	0.9735770822
4137.2918151854	0.9697617292
4139.2206225584	0.9708274007
4141.1494299315	0.9664618969
4143.0782373045	0.9655373096
4145.0070446776	0.9668090343
4146.9358520506	0.9668803215
4148.8646594237	0.9705402255
4150.7934667967	0.9659598470
4152.7222741697	0.9694311023
4154.6510815428	0.9698369503
4156.5798889158	0.9696246982
4158.5086962889	0.9735540748
4160.4375036619	0.9663073421
4162.3663110350	0.9699802399
4164.2951184080	0.9720147848
4166.2239257811	0.9704867601
4168.1527331541	0.9724001884
4170.0815405272	0.9654299021
4172.0103479002	0.9622330666
4173.9391552733	0.9632961750
4175.8679626463	0.9705011845
4177.7967700194	0.9735925794
4179.7255773924	0.9698614478
4181.6543847654	0.9732829928
4183.5831921385	0.9651960731
4185.5119995115	0.9616687298
4187.4408068846	0.9703701735
4189.3696142576	0.9705135822
4191.2984216307	0.9755678177
4193.2272290037	0.9727813601
4195.1560363768	0.9699232578
4197.0848437498	0.9727017879
4199.0136511229	0.9657253027
4200.9424584959	0.9736068249
4202.8712658690	0.9738916755
4204.8000732420	0.9653198719
4206.7288806151	0.9710689187
4208.6576879881	0.9708055854
4210.5864953611	0.9662922621
4212.5153027342	0.9659796953
4214.4441101072	0.9711971283
4216.3729174803	0.9731920362
4218.3017248533	0.9772471189
4220.2305322264	0.9763405323
4222.1593395994	0.9699291587
4224.0881469725	0.9776852131
4226.0169543455	0.9747687578
4227.9457617186	0.9748268723
4229.8745690916	0.9784890413
4231.8033764647	0.9687848091
4233.7321838377	0.9719190001
4235.6609912108	0.9738385677
4237.5897985838	0.9747473598
4239.5186059569	0.9775840044
4241.4474133299	0.9679059982
4243.3762207029	0.9716474414
4245.3050280760	0.9794479609
4247.2338354490	0.9706178904
4249.1626428221	0.9733959436
4251.0914501951	0.9792171717
4253.0202575682	0.9721797705
4254.9490649412	0.9701875448
4256.8778723143	0.9723976254
4258.8066796873	0.9711268544
4260.7354870604	0.9659964442
4262.6642944334	0.9680668712
4264.5931018065	0.9740148783
4266.5219091795	0.9747068882
4268.4507165526	0.9701178670
4270.3795239256	0.9650000334
4272.3083312986	0.9658741355
4274.2371386717	0.9636240602
4276.1659460447	0.9664366841
4278.0947534178	0.9668085575
4280.0235607908	0.9654396772
4281.9523681639	0.9674628377
4283.8811755369	0.9667013884
4285.8099829100	0.9762508273
4287.7387902830	0.9742974043
4289.6675976561	0.9707379341
4291.5964050291	0.9721413851
4293.5252124022	0.9683151841
4295.4540197752	0.9689360857
4297.3828271483	0.9708514810
4299.3116345213	0.9763000607
4301.2404418943	0.9677065611
4303.1692492674	0.9691526890
4305.0980566404	0.9714217782
4307.0268640135	0.9650670886
4308.9556713865	0.9743179083
4310.8844787596	0.9692926407
4312.8132861326	0.9736672640
4314.7420935057	0.9738816023
4316.6709008787	0.9668570161
4318.5997082518	0.9727615118
4320.5285156248	0.9684922099
4322.4573229979	0.9738994837
4324.3861303709	0.9697274566
4326.3149377440	0.9635652304
4328.2437451170	0.9665048718
4330.1725524900	0.9689411521
4332.1013598631	0.9759647250
4334.0301672361	0.9696016312
4335.9589746092	0.9705693722
4337.8877819822	0.9693016410
4339.8165893553	0.9662175775
4341.7453967283	0.9721325040
4343.6742041014	0.9705409408
4345.6030114744	0.9683588147
4347.5318188475	0.9632022381
4349.4606262205	0.9677979946
4351.3894335936	0.9670826793
4353.3182409666	0.9634250998
4355.2470483397	0.9711210728
4357.1758557127	0.9645130038
4359.1046630858	0.9657630324
4361.0334704588	0.9698560238
4362.9622778318	0.9638496637
4364.8910852049	0.9677243829
4366.8198925779	0.9723941684
4368.7486999510	0.9694960713
4370.6775073240	0.9682683349
4372.6063146971	0.9739162326
4374.5351220701	0.9722996354
4376.4639294432	0.9726967812
4378.3927368162	0.9716231823
4380.3215441893	0.9663730264
4382.2503515623	0.9682943225
4384.1791589354	0.9613538384
4386.1079663084	0.9661916494
4388.0367736815	0.9688791633
4389.9655810545	0.9682929516
4391.8943884275	0.9727032185
4393.8231958006	0.9660598040
4395.7520031736	0.9809879661
4397.6808105467	0.9727422595
4399.6096179197	0.9590643644
4401.5384252928	0.9734160304
4403.4672326658	0.9739994407
4405.3960400389	0.9763497710
4407.3248474119	0.9659960270
4409.2536547850	0.9617903829
4411.1824621580	0.9614409208
4413.1112695311	0.9639971256
4415.0400769041	0.9759411216
4416.9688842772	0.9664214253
4418.8976916502	0.9774329066
4420.8264990232	0.9780113697
4422.7553063963	0.9689264894
4424.6841137693	0.9691651464
4426.6129211424	0.9607465863
4428.5417285154	0.9700895548
4430.4705358885	0.9650619030
4432.3993432615	0.9631130099
4434.3281506346	0.9698137045
4436.2569580076	0.9698019624
4438.1857653807	0.9709568620
4440.1145727537	0.9683076739
4442.0433801268	0.9710639119
4443.9721874998	0.9612715244
4445.9009948729	0.9628985524
4447.8298022459	0.9672868252
4449.7586096189	0.9631318450
4451.6874169920	0.9676915407
4453.6162243650	0.9672514796
4455.5450317381	0.9672151804
4457.4738391111	0.9650735259
4459.4026464842	0.9739984274
4461.3314538572	0.9707660079
4463.2602612303	0.9645205736
4465.1890686033	0.9716802239
4467.1178759764	0.9634662867
4469.0466833494	0.9711113572
4470.9754907225	0.9717420936
4472.9042980955	0.9692658782
4474.8331054686	0.9780240059
4476.7619128416	0.9640061855
4478.6907202147	0.9665639400
4480.6195275877	0.9804992080
4482.5483349607	0.9720284343
4484.4771423338	0.9622310400
4486.4059497068	0.9692354798
4488.3347570799	0.9715027213
4490.2635644529	0.9641907215
4492.1923718260	0.9706247449
4494.1211791990	0.9698639512
4496.0499865721	0.9647721052
4497.9787939451	0.9668118954
4499.9076013182	0.9649667740
4501.8364086912	0.9731262326
4503.7652160643	0.9766437411
4505.6940234373	0.9653650522
4507.6228308104	0.9686620831
4509.5516381834	0.9812512994
4511.4804455564	0.9734306335
4513.4092529295	0.9671541452
4515.3380603025	0.9697778821
4517.2668676756	0.9577306509
4519.1956750486	0.9618988633
4521.1244824217	0.9687879086
4523.0532897947	0.9639746547
4524.9820971678	0.9720936418
4526.9109045408	0.9689437747
4528.8397119139	0.9732030630
4530.7685192869	0.9773672223
4532.6973266600	0.9617882967
4534.6261340330	0.9656858444
4536.5549414061	0.9731515646
4538.4837487791	0.9695811272
4540.4125561521	0.9685447216
4542.3413635252	0.9687744379
4544.2701708982	0.9663664699
4546.1989782713	0.9660680294
4548.1277856443	0.9687789679
4550.0565930174	0.9683797956
4551.9854003904	0.9665973783
4553.9142077635	0.9640510082
4555.8430151365	0.9651522040
4557.7718225096	0.9676495194
4559.7006298826	0.9742863178
4561.6294372557	0.9711149335
4563.5582446287	0.9642919898
4565.4870520018	0.9702704549
4567.4158593748	0.9722555876
4569.3446667478	0.9752559066
4571.2734741209	0.9690148234
4573.2022814939	0.9675771594
4575.1310888670	0.9711943865
4577.0598962400	0.9640371203
4578.9887036131	0.9646160603
4580.9175109861	0.9644000530
4582.8463183592	0.9735735059
4584.7751257322	0.9747803807
4586.7039331053	0.9688650370
4588.6327404783	0.9715968370
4590.5615478514	0.9665361643
4592.4903552244	0.9702717066
4594.4191625975	0.9737274647
4596.3479699705	0.9703913927
4598.2767773435	0.9716044664
4600.2055847166	0.9751326442
4602.1343920896	0.9606555700
4604.0631994627	0.9549864531
4605.9920068357	0.9698005915
4607.9208142088	0.9674852490
4609.8496215818	0.9694345593
4611.7784289549	0.9668383598
4613.7072363279	0.9687069058
4615.6360437010	0.9725274444
4617.5648510740	0.9660803080
4619.4936584471	0.9729231596
4621.4224658201	0.9613304734
4623.3512731932	0.9571908712
4625.2800805662	0.9651511312
4627.2088879393	0.9666641951
4629.1376953123	0.9801964760
4631.0665026853	0.9823932648
4632.9953100584	0.9611120224
4634.9241174314	0.9616916180
4636.8529248045	0.9854177237
4638.7817321775	0.9701231122
4640.7105395506	0.9673156142
4642.6393469236	0.9714539647
4644.5681542967	0.9538434148
4646.4969616697	0.9664508104
4648.4257690428	0.9662936926
4650.3545764158	0.9674697518
4652.2833837889	0.9752311707
4654.2121911619	0.9680079818
4656.1409985350	0.9708951712
4658.0698059080	0.9677982330
4659.9986132810	0.9658023119
4661.9274206541	0.9691560268
4663.8562280271	0.9721531272
4665.7850354002	0.9656237364
4667.7138427732	0.9656499028
4669.6426501463	0.9792505503
4671.5714575193	0.9724011421
4673.5002648924	0.9632056952
4675.4290722654	0.9687296152
4677.3578796385	0.9706008434
4679.2866870115	0.9630698562
4681.2154943846	0.9637475014
4683.1443017576	0.9706165791
4685.0731091307	0.9742975235
4687.0019165037	0.9768964648
4688.9307238767	0.9681520462
4690.8595312498	0.9628315568
4692.7883386228	0.9746704698
4694.7171459959	0.9722267985
4696.6459533689	0.9566926360
4698.5747607420	0.9615778327
4700.5035681150	0.9604047537
4702.4323754881	0.9588590860
4704.3611828611	0.9710959196
4706.2899902342	0.9700732827
4708.2187976072	0.9712306857
4710.1476049803	0.9734506011
4712.0764123533	0.9743588567
4714.0052197264	0.9729771018
4715.9340270994	0.9703111053
4717.8628344724	0.9634023309
4719.7916418455	0.9600477815
4721.7204492185	0.9716283679
4723.6492565916	0.9587473869
4725.5780639646	0.9583232403
4727.5068713377	0.9720699191
4729.4356787107	0.9695547819
4731.3644860838	0.9747663736
4733.2932934568	0.9786087275
4735.2221008299	0.9764931202
4737.1509082029	0.9644182324
4739.0797155760	0.9673531055
4741.0085229490	0.9635635018
4742.9373303221	0.9578261375
4744.8661376951	0.9708972573
4746.7949450682	0.9559628367
4748.7237524412	0.9531559348
4750.6525598142	0.9621958733
4752.5813671873	0.9654816985
4754.5101745603	0.9659500718
4756.4389819334	0.9720680714
4758.3677893064	0.9868202806
4760.2965966795	0.9700819254
4762.2254040525	0.9643543363
4764.1542114256	0.9671356678
4766.0830187986	0.9677187204
4768.0118261717	0.9703269005
4769.9406335447	0.9684745669
4771.8694409178	0.9708937407
4773.7982482908	0.9590932727
4775.7270556639	0.9686483741
4777.6558630369	0.9710612893
4779.5846704099	0.9690291286
4781.5134777830	0.9715415239
4783.4422851560	0.9520204663
4785.3710925291	0.9631360769
4787.2998999021	0.9691800475
4789.2287072752	0.9635647535
4791.1575146482	0.9632060528
4793.0863220213	0.9591881037
4795.0151293943	0.9623042941
4796.9439367674	0.9630981088
4798.8727441404	0.9712468386
4800.8015515135	0.9646803141
4802.7303588865	0.9501676559
4804.6591662596	0.9500183463
4806.5879736326	0.9649899602
4808.5167810056	0.9664993286
4810.4455883787	0.9553360343
4812.3743957517	0.9663580656
4814.3032031248	0.9677162170
4816.2320104978	0.9655192494
4818.1608178709	0.9637178779
4820.0896252439	0.9701380730
4822.0184326170	0.9800908566
4823.9472399900	0.9687097073
4825.8760473631	0.9669653177
4827.8048547361	0.9651536942
4829.7336621092	0.9635985494
4831.6624694822	0.9683865905
4833.5912768553	0.9744470119
4835.5200842283	0.9638109207
4837.4488916013	0.9561367035
4839.3776989744	0.9717155099
4841.3065063474	0.9565671682
4843.2353137205	0.9511044025
4845.1641210935	0.9619690776
4847.0929284666	0.9575420618
4849.0217358396	0.9638339281
4850.9505432127	0.9651607871
4852.8793505857	0.9589221478
4854.8081579588	0.9602968097
4856.7369653318	0.9646095037
4858.6657727049	0.9583172202
4860.5945800779	0.9650189281
4862.5233874510	0.9670732021
4864.4521948240	0.9550375342
4866.3810021971	0.9614226222
4868.3098095701	0.9555190802
4870.2386169431	0.9610078931
4872.1674243162	0.9798323512
4874.0962316892	0.9790371656
4876.0250390623	0.9829455018
4877.9538464353	0.9703206420
4879.8826538084	0.9555151463
4881.8114611814	0.9720095992
4883.7402685545	0.9696682096
4885.6690759275	0.9635058641
4887.5978833006	0.9726214409
4889.5266906736	0.9650377631
4891.4554980467	0.9724934101
4893.3843054197	0.9553004503
4895.3131127928	0.9470244646
4897.2419201658	0.9739258289
4899.1707275388	0.9597710371
4901.0995349119	0.9707868695
4903.0283422849	0.9710461497
4904.9571496580	0.9515045881
4906.8859570310	0.9656950235
4908.8147644041	0.9565238357
4910.7435717771	0.9566935897
4912.6723791502	0.9608637691
4914.6011865232	0.9501403570
4916.5299938963	0.9519708157
4918.4588012693	0.9647905827
4920.3876086424	0.9660268426
4922.3164160154	0.9536480904
4924.2452233885	0.9590243697
4926.1740307615	0.9581010938
4928.1028381345	0.9556892514
4930.0316455076	0.9661852717
4931.9604528806	0.9607107639
4933.8892602537	0.9478392601
4935.8180676267	0.9618073106
4937.7468749998	0.9748459458
4939.6756823728	0.9591137767
4941.6044897459	0.9562121034
4943.5332971189	0.9675441980
4945.4621044920	0.9699219465
4947.3909118650	0.9593859911
4949.3197192381	0.9631074667
4951.2485266111	0.9600048661
4953.1773339842	0.9509395361
4955.1061413572	0.9691807032
4957.0349487302	0.9636237621
4958.9637561033	0.9697180390
4960.8925634763	0.9768813848
4962.8213708494	0.9533646107
4964.7501782224	0.9635248780
4966.6789855955	0.9775111079
4968.6077929685	0.9692937732
4970.5366003416	0.9684975743
4972.4654077146	0.9737278223
4974.3942150877	0.9648214579
4976.3230224607	0.9621923566
4978.2518298338	0.9601110220
4980.1806372068	0.9499261975
4982.1094445799	0.9544917941
4984.0382519529	0.9600071907
4985.9670593259	0.9733854532
4987.8958666990	0.9649577737
4989.8246740720	0.9498928189
4991.7534814451	0.9692180157
4993.6822888181	0.9593364596
4995.6110961912	0.9452455640
4997.5399035642	0.9795935750
4999.4687109373	0.9710875154
5001.3975183103	0.9492264986
5003.3263256834	0.9869645834
5005.2551330564	0.9658566117
5007.1839404295	0.9365596771
5009.1127478025	0.9638662338
5011.0415551756	0.9708889723
5012.9703625486	0.9690612555
5014.8991699217	0.9636350274
5016.8279772947	0.9630389214
5018.7567846677	0.9494241476
5020.6855920408	0.9541373849
5022.6143994138	0.9659262300
5024.5432067869	0.9480137229
5026.4720141599	0.9615742564
5028.4008215330	0.9567248225
5030.3296289060	0.9528037906
5032.2584362791	0.9615001678
5034.1872436521	0.9564586878
5036.1160510252	0.9556023479
5038.0448583982	0.9459815025
5039.9736657713	0.9660618901
5041.9024731443	0.9628450871
5043.8312805174	0.9421259761
5045.7600878904	0.9533488750
5047.6888952634	0.9602702856
5049.6177026365	0.9531899095
5051.5465100095	0.9447742701
5053.4753173826	0.9555128217
5055.4041247556	0.9568466544
5057.3329321287	0.9588766694
5059.2617395017	0.9698841572
5061.1905468748	0.9717339873
5063.1193542478	0.9695064425
5065.0481616209	0.9633750319
5066.9769689939	0.9564949870
5068.9057763670	0.9607920647
5070.8345837400	0.9771260023
5072.7633911131	0.9565761685
5074.6921984861	0.9545452595
5076.6210058591	0.9647566080
5078.5498132322	0.9552191496
5080.4786206052	0.9679813385
5082.4074279783	0.9574717879
5084.3362353513	0.9539794326
5086.2650427244	0.9535782337
5088.1938500974	0.9540154934
5090.1226574705	0.9584832191
5092.0514648435	0.9527049065
5093.9802722166	0.9708701968
5095.9090795896	0.9688847065
5097.8378869627	0.9628239870
5099.7666943357	0.9565169215
5101.6955017088	0.9598640800
5103.6243090818	0.9499362111
5105.5531164548	0.9430851340
5107.4819238279	0.9702239633
5109.4107312009	0.9402016997
5111.3395385740	0.9511365891
5113.2683459470	0.9601293802
5115.1971533201	0.9398630857
5117.1259606931	0.9632160068
5119.0547680662	0.9436524510
5120.9835754392	0.9490256310
5122.9123828123	0.9596774578
5124.8411901853	0.9614434242
5126.7699975584	0.9623591900
5128.6988049314	0.9416453838
5130.6276123045	0.9436424971
5132.5564196775	0.9401131272
5134.4852270506	0.9572369456
5136.4140344236	0.9467676878
5138.3428417966	0.9485312104
5140.2716491697	0.9652618766
5142.2004565427	0.9417430162
5144.1292639158	0.9633182883
5146.0580712888	0.9637453556
5147.9868786619	0.9471021295
5149.9156860349	0.9429486990
5151.8444934080	0.9562776089
5153.7733007810	0.9640319347
5155.7021081541	0.9358193278
5157.6309155271	0.9696636200
5159.5597229002	0.9664034843
5161.4885302732	0.9336604476
5163.4173376463	0.9537807703
5165.3461450193	0.9546845555
5167.2749523923	0.9620509148
5169.2037597654	0.9654659033
5171.1325671384	0.9675002098
5173.0613745115	0.9627809525
5174.9901818845	0.9452577829
5176.9189892576	0.9665456414
5178.8477966306	0.9649638534
5180.7766040037	0.9528971910
5182.7054113767	0.9672662616
5184.6342187498	0.9431771636
5186.5630261228	0.9471095204
5188.4918334959	0.9749820828
5190.4206408689	0.9500936270
5192.3494482420	0.9513558745
5194.2782556150	0.9696699381
5196.2070629880	0.9555552602
5198.1358703611	0.9408251047
5200.0646777341	0.9552572966
5201.9934851072	0.9662991762
5203.9222924802	0.9641017914
5205.8510998533	0.9780464768
5207.7799072263	0.9559786916
5209.7087145994	0.9404724240
5211.6375219724	0.9458584189
5213.5663293455	0.9431486726
5215.4951367185	0.9676990509
5217.4239440916	0.9749048948
5219.3527514646	0.9517508149
5221.2815588377	0.9441756606
5223.2103662107	0.9644308090
5225.1391735837	0.9642108679
5227.0679809568	0.9633533955
5228.9967883298	0.9557695389
5230.9255957029	0.9429786801
5232.8544030759	0.9725134373
5234.7832104490	0.9593850374
5236.7120178220	0.9487424493
5238.6408251951	0.9580498934
5240.5696325681	0.9723597169
5242.4984399412	0.9661505818
5244.4272473142	0.9332690835
5246.3560546873	0.9647958279
5248.2848620603	0.9406243563
5250.2136694334	0.9340677857
5252.1424768064	0.9551699758
5254.0712841795	0.9457980394
5256.0000915525	0.9870148301
5257.9288989255	0.9508904815
5259.8577062986	0.9506031275
5261.7865136716	0.9651506543
5263.7153210447	0.9294752479
5265.6441284177	0.9499105215
5267.5729357908	0.9560221434
5269.5017431638	0.9679280519
5271.4305505369	0.9532131553
5273.3593579099	0.9509625435
5275.2881652830	0.9751484990
5277.2169726560	0.9584472179
5279.1457800291	0.9629836082
5281.0745874021	0.9587498307
5283.0033947752	0.9459490776
5284.9322021482	0.9673033953
5286.8610095212	0.9873201251
5288.7898168943	0.9640013576
5290.7186242673	0.9611162543
5292.6474316404	0.9603385329
5294.5762390134	0.9516689777
5296.5050463865	0.9779132009
5298.4338537595	0.9552901983
5300.3626611326	0.9452829957
5302.2914685056	0.9493390918
5304.2202758787	0.9525890350
5306.1490832517	0.9723391533
5308.0778906248	0.9390370250
5310.0066979978	0.9444486499
5311.9355053709	0.9623183012
5313.8643127439	0.9520730376
5315.7931201169	0.9453791380
5317.7219274900	0.9421404004
5319.6507348630	0.9647036791
5321.5795422361	0.9521231651
5323.5083496091	0.9401097298
5325.4371569822	0.9424856305
5327.3659643552	0.9511891007
5329.2947717283	0.9639815688
5331.2235791013	0.9381725788
5333.1523864744	0.9608134031
5335.0811938474	0.9735543728
5337.0100012205	0.9474079609
5338.9388085935	0.9732999206
5340.8676159666	0.9695581794
5342.7964233396	0.9553171396
5344.7252307126	0.9779956937
5346.6540380857	0.9650062919
5348.5828454587	0.9444681406
5350.5116528318	0.9543914795
5352.4404602048	0.9502106309
5354.3692675779	0.9416904449
5356.2980749509	0.9673183560
5358.2268823240	0.9612428546
5360.1556896970	0.9483147264
5362.0844970701	0.9717420340
5364.0133044431	0.9676117897
5365.9421118162	0.9579091668
5367.8709191892	0.9574948549
5369.7997265623	0.9593362212
5371.7285339353	0.9700409770
5373.6573413083	0.9697342515
5375.5861486814	0.9654263854
5377.5149560544	0.9464981556
5379.4437634275	0.9570973516
5381.3725708005	0.9691528082
5383.3013781736	0.9236898422
5385.2301855466	0.9495559931
5387.1589929197	0.9848635197
5389.0878002927	0.9393985868
5391.0166076658	0.9610887766
5392.9454150388	0.9787970781
5394.8742224119	0.9773244858
5396.8030297849	0.9924894571
5398.7318371580	0.9433519244
5400.6606445310	0.9439356923
5402.5894519041	0.9540711045
5404.5182592771	0.9444192648
5406.4470666501	0.9897851944
5408.3758740232	0.9953576922
5410.3046813962	0.9511913061
5412.2334887693	0.9294454455
5414.1622961423	0.9616886973
5416.0911035154	0.9608671069
5418.0199108884	0.9559664130
5419.9487182615	0.9668095708
5421.8775256345	0.9315912127
5423.8063330076	0.9600171447
5425.7351403806	0.9520154595
5427.6639477537	0.9352051616
5429.5927551267	0.9812710881
5431.5215624998	0.9432781339
5433.4503698728	0.9491344094
5435.3791772458	0.9804959297
5437.3079846189	0.9615074992
5439.2367919919	0.9749383330
5441.1655993650	0.9572430849
5443.0944067380	0.9348152280
5445.0232141111	0.9658565521
5446.9520214841	0.9849658608
5448.8808288572	0.9851388335
5450.8096362302	0.9721264839
5452.7384436033	0.9599667192
5454.6672509763	0.9922766685
5456.5960583494	0.9876174927
5458.5248657224	0.9667494297
5460.4536730955	0.9753172994
5462.3824804685	0.9649265409
5464.3112878415	0.9757720828
5466.2400952146	0.9889124036
5468.1689025876	0.9929239750
5470.0977099607	0.9640399814
5472.0265173337	0.9348357916
5473.9553247068	0.9725943804
5475.8841320798	0.9652913809
5477.8129394529	0.9346596003
5479.7417468259	0.9507232308
5481.6705541990	0.9608505964
5483.5993615720	0.9566540718
5485.5281689451	0.9719605446
5487.4569763181	0.9827224612
5489.3857836912	0.9540148973
5491.3145910642	0.9490500093
5493.2433984372	0.9607806802
5495.1722058103	0.9593401551
5497.1010131833	0.9498739839
5499.0298205564	0.9459380507
5500.9586279294	0.9721268415
5502.8874353025	0.9699310660
5504.8162426755	0.9567762613
5506.7450500486	0.9723359346
5508.6738574216	0.9743641019
5510.6026647947	0.9858330488
5512.5314721677	0.9938086867
5514.4602795408	0.9508778453
5516.3890869138	0.9347949624
5518.3178942869	0.9524174333
5520.2467016599	0.9546211958
5522.1755090330	0.9532770514
5524.1043164060	0.9452474713
5526.0331237790	0.9550521970
5527.9619311521	0.9545229077
5529.8907385251	0.9542151093
5531.8195458982	0.9928278327
5533.7483532712	0.9836154580
5535.6771606443	0.9620608091
5537.6059680173	0.9684412479
5539.5347753904	0.9840858579
5541.4635827634	0.9846715331
5543.3923901365	0.9506146312
5545.3211975095	0.9403308630
5547.2500048826	0.9184631109
5549.1788122556	0.9229773283
5551.1076196287	0.9492427707
5553.0364270017	0.9326241016
5554.9652343747	0.9614493251
5556.8940417478	0.9583831429
5558.8228491208	0.9309056401
5560.7516564939	0.9543371201
5562.6804638669	0.9561991692
5564.6092712400	0.9530586600
5566.5380786130	0.9501391649
5568.4668859861	0.9492663145
5570.3956933591	0.9541748166
5572.3245007322	0.9643991590
5574.2533081052	0.9616203904
5576.1821154783	0.9490723610
5578.1109228513	0.9652972817
5580.0397302244	0.9444406033
5581.9685375974	0.9576554298
5583.8973449704	0.9853118658
5585.8261523435	0.9343669415
5587.7549597165	0.9413937926
5589.6837670896	0.9708178639
5591.6125744626	0.9695060849
5593.5413818357	0.9519872069
5595.4701892087	0.9498643279
5597.3989965818	0.9838313460
5599.3278039548	0.9631182551
5601.2566113279	0.9691150188
5603.1854187009	0.9631766677
5605.1142260740	0.9372298717
5607.0430334470	0.9629865885
5608.9718408201	0.9392022491
5610.9006481931	0.9467902184
5612.8294555661	0.9528350234
5614.7582629392	0.9517604113
5616.6870703122	0.9793265462
5618.6158776853	0.9391920567
5620.5446850583	0.9424826503
5622.4734924314	0.9599158168
5624.4022998044	0.9668182731
5626.3311071775	0.9797430038
5628.2599145505	0.9769995809
5630.1887219236	0.9833328724
5632.1175292966	0.9484529495
5634.0463366697	0.9410236478
5635.9751440427	0.9507268071
5637.9039514158	0.9705296755
5639.8327587888	0.9687702060
5641.7615661619	0.9173107147
5643.6903735349	0.9358210564
5645.6191809079	0.9519883990
5647.5479882810	0.9333874583
5649.4767956540	0.9294602275
5651.4056030271	0.9471294880
5653.3344104001	0.9601082802
5655.2632177732	0.9521012306
5657.1920251462	0.9500219822
5659.1208325193	0.9448775053
5661.0496398923	0.9486126304
5662.9784472654	0.9503675699
5664.9072546384	0.9493818283
5666.8360620115	0.9110802412
5668.7648693845	0.9624661803
5670.6936767576	0.9958376288
5672.6224841306	0.9107102752
5674.5512915036	0.9715481400
5676.4800988767	0.9676526785
5678.4089062497	0.9525353312
5680.3377136228	0.9787240624
5682.2665209958	0.9398201108
5684.1953283689	0.9780173898
5686.1241357419	0.9256188273
5688.0529431150	0.9379442930
5689.9817504880	0.9673379660
5691.9105578611	0.9390853047
5693.8393652341	0.9801520705
5695.7681726072	0.9474074841
5697.6969799802	0.9526349306
5699.6257873533	0.9742028713
5701.5545947263	0.9676528573
5703.4834020993	0.9442849159
5705.4122094724	0.9243904948
5707.3410168454	0.9375836253
5709.2698242185	0.9710137248
5711.1986315915	0.9669027328
5713.1274389646	0.9110088348
5715.0562463376	0.9595502615
5716.9850537107	0.9493932724
5718.9138610837	0.9605005383
5720.8426684568	0.9637869000
5722.7714758298	0.8946186900
5724.7002832029	0.9693390727
5726.6290905759	0.9390885830
5728.5578979490	0.9072163701
5730.4867053220	0.9471999407
5732.4155126950	0.9983031750
5734.3443200681	0.9654842615
5736.2731274411	0.8869979978
5738.2019348142	0.9642453790
5740.1307421872	0.9190098047
5742.0595495603	0.9224293828
5743.9883569333	0.9258944392
5745.9171643064	0.9112490416
5747.8459716794	1.0079103708
5749.7747790525	0.9293880463
5751.7035864255	0.9735673666
5753.6323937986	0.9840196967
5755.5612011716	0.9212002754
5757.4900085447	0.9546788335
5759.4188159177	0.9384734035
5761.3476232907	0.9993882179
5763.2764306638	0.9686843753
5765.2052380368	0.9430139661
5767.1340454099	0.9548671842
5769.0628527829	0.9320490360
5770.9916601560	0.9774591327
5772.9204675290	0.9347638488
5774.8492749021	0.9685556889
5776.7780822751	0.9987834096
5778.7068896482	0.9270501733
5780.6356970212	0.9588747025
5782.5645043943	0.9819895029
5784.4933117673	1.0111027956
5786.4221191404	0.9911068082
5788.3509265134	0.9255530238
5790.2797338865	0.9630656838
5792.2085412595	0.9591953754
5794.1373486325	0.9502826333
5796.0661560056	0.9358491302
5797.9949633786	0.9381202459
5799.9237707517	0.9907867312
5801.8525781247	0.9265989661
5803.7813854978	0.9123250842
5805.7101928708	0.9486312270
5807.6390002439	0.9243800044
5809.5678076169	0.9378372431
5811.4966149900	0.9330930114
5813.4254223630	0.9242521524
5815.3542297361	0.9523352981
5817.2830371091	0.9213322997
5819.2118444822	0.9120055437
5821.1406518552	1.0038419962
5823.0694592282	1.0122457743
5824.9982666013	0.9772284031
5826.9270739743	0.9553186297
5828.8558813474	0.9052554369
5830.7846887204	0.9061335921
5832.7134960935	0.9102270007
5834.6423034665	0.9422635436
5836.5711108396	0.9318887591
5838.4999182126	0.9554443955
5840.4287255857	1.0005521774
5842.3575329587	0.9366447330
5844.2863403318	0.9650990367
5846.2151477048	0.9608199596
5848.1439550779	0.9395607710
5850.0727624509	0.9652584195
5852.0015698239	0.9634179473
5853.9303771970	0.9806015491
5855.8591845700	0.9390946031
5857.7879919431	0.9222018719
5859.7167993161	0.9605419040
5861.6456066892	0.9668909907
5863.5744140622	0.9379231930
5865.5032214353	0.9406647086
5867.4320288083	0.9568487406
5869.3608361814	0.9846214056
5871.2896435544	0.9844383001
5873.2184509275	0.9338680506
5875.1472583005	0.9964592457
5877.0760656736	1.0038973093
5879.0048730466	0.9725432992
5880.9336804196	0.9829695821
5882.8624877927	0.9247789383
5884.7912951657	0.9231416583
5886.7201025388	0.9516081214
5888.6489099118	0.9367350936
5890.5777172849	0.9482414126
5892.5065246579	0.9866451621
5894.4353320310	0.9656569958
5896.3641394040	0.9620746970
5898.2929467771	0.9837470651
5900.2217541501	0.9944549203
5902.1505615232	0.9536280632
5904.0793688962	0.8619046807
5906.0081762693	0.9101435542
5907.9369836423	0.9716875553
5909.8657910154	0.9877983332
5911.7945983884	0.9955496192
5913.7234057614	0.9387317896
5915.6522131345	0.9408588409
5917.5810205075	0.9295980334
5919.5098278806	0.9395776987
5921.4386352536	0.9394556880
5923.3674426267	0.9559780359
5925.2962499997	0.9624043703
5927.2250573728	0.9441636801
5929.1538647458	0.9609025121
5931.0826721189	0.9129707813
5933.0114794919	0.9282454252
5934.9402868650	0.9571962357
5936.8690942380	0.9575057030
5938.7979016111	0.9416924715
5940.7267089841	0.9707143903
5942.6555163571	0.9755280614
5944.5843237302	0.9059070945
5946.5131311032	0.9977147579
5948.4419384763	0.9406435490
5950.3707458493	0.9425441027
5952.2995532224	1.0750013590
5954.2283605954	0.9587460756
5956.1571679685	0.9579970837
5958.0859753415	0.9556059241
5960.0147827146	0.9037923813
5961.9435900876	0.9495956302
5963.8723974607	0.9338244796
5965.8012048337	0.9215878844
5967.7300122068	0.9808181524
5969.6588195798	0.9452118874
5971.5876269528	0.9353364110
5973.5164343259	0.9634857774
5975.4452416989	0.8864939809
5977.3740490720	0.9366413355
5979.3028564450	0.9285875559
5981.2316638181	0.9521723986
5983.1604711911	1.0033205748
5985.0892785642	0.8840822577
5987.0180859372	0.9303926826
5988.9468933103	0.9576744437
5990.8757006833	1.0357148647
5992.8045080564	0.9736005664
5994.7333154294	0.8443866372
5996.6621228025	1.0070835352
5998.5909301755	0.9636347890
6000.5197375485	0.9137532115
