399.2631262207	0.0006235021
401.1919335938	0.0001240798
403.1207409668	0.0000581718
405.0495483398	0.0000910230
406.9783557129	0.0003773044
408.9071630859	0.0001036866
410.8359704590	0.0002085412
412.7647778320	0.0003250039
414.6935852051	-0.0002503838
416.6223925781	0.0002469633
418.5511999512	0.0002043495
420.4800073242	0.0002311535
422.4088146973	0.0003710732
424.3376220703	0.0000797601
426.2664294434	0.0003667999
428.1952368164	0.0001852187
430.1240441895	0.0002536321
432.0528515625	0.0003897437
433.9816589355	0.0001166408
435.9104663086	0.0004053025
437.8392736816	0.0005080969
439.7680810547	0.0000950130
441.6968884277	0.0001969120
443.6256958008	0.0004821339
445.5545031738	0.0001852230
447.4833105469	-0.0000356369
449.4121179199	-0.0001487017
451.3409252930	-0.0000365106
453.2697326660	0.0003417498
455.1985400391	0.0002829534
457.1273474121	0.0003136009
459.0561547852	0.0003213210
460.9849621582	0.0002581858
462.9137695313	0.0002118485
464.8425769043	0.0001828594
466.7713842773	0.0004025273
468.7001916504	-0.0001206842
470.6289990234	-0.0001670670
472.5578063965	0.0001169688
474.4866137695	0.0001108912
476.4154211426	0.0003346992
478.3442285156	0.0003179488
480.2730358887	0.0003246228
482.2018432617	0.0001456592
484.1306506348	0.0003721118
486.0594580078	0.0004642587
487.9882653809	0.0001922298
489.9170727539	0.0002317812
491.8458801270	0.0002187588
493.7746875000	0.0003713036
495.7034948730	0.0002015851
497.6323022461	0.0000381086
499.5611096191	0.0002845846
501.4899169922	0.0000275187
503.4187243652	-0.0001194549
505.3475317383	0.0000147688
507.2763391113	-0.0000545667
509.2051464844	0.0002442634
511.1339538574	0.0005696983
513.0627612305	0.0004499637
514.9915686035	0.0001880897
516.9203759766	0.0001834942
518.8491833496	0.0003428001
520.7779907227	0.0000782878
522.7067980957	0.0000893818
524.6356054688	0.0002856351
526.5644128418	0.0000602079
528.4932202148	0.0002163539
530.4220275879	0.0001491073
532.3508349609	0.0000431096
534.2796423340	0.0001838354
536.2084497070	-0.0002975483
538.1372570801	-0.0000244531
540.0660644531	0.0001999293
541.9948718262	-0.0001448421
543.9236791992	0.0001594825
545.8524865723	0.0000556122
547.7812939453	0.0001947672
549.7101013184	0.0002003672
551.6389086914	-0.0000437346
553.5677160645	0.0004498617
555.4965234375	0.0001409084
557.4253308105	0.0001468833
559.3541381836	0.0002845760
561.2829455566	-0.0000282701
563.2117529297	0.0003574587
565.1405603027	-0.0000502141
567.0693676758	-0.0000036718
568.9981750488	0.0001879700
570.9269824219	-0.0000123229
572.8557897949	0.0000376789
574.7845971680	0.0001052937
576.7134045410	0.0002501221
578.6422119141	0.0001769081
580.5710192871	0.0002132288
582.4998266602	0.0003609827
584.4286340332	0.0004977676
586.3574414063	0.0001083169
588.2862487793	-0.0001502082
590.2150561523	0.0003198749
592.1438635254	0.0001270389
594.0726708984	0.0001659313
596.0014782715	0.0005603681
597.9302856445	0.0003674002
599.8590930176	0.0002731430
601.7879003906	0.0002215795
603.7167077637	0.0001799744
605.6455151367	0.0001776268
607.5743225098	0.0001308794
609.5031298828	0.0000899742
611.4319372559	0.0000076267
613.3607446289	0.0001930230
615.2895520020	0.0003403015
617.2183593750	0.0002544433
619.1471667480	0.0003974175
621.0759741211	0.0005593529
623.0047814941	0.0002603290
624.9335888672	-0.0000521209
626.8623962402	0.0001433693
628.7912036133	0.0002509365
630.7200109863	0.0002968899
632.6488183594	0.0003908659
634.5776257324	0.0001580918
636.5064331055	0.0003416795
638.4352404785	0.0003584860
640.3640478516	0.0002416235
642.2928552246	0.0003857180
644.2216625977	0.0001693775
646.1504699707	0.0001872536
648.0792773438	0.0002643651
650.0080847168	0.0002730103
651.9368920898	0.0003608626
653.8656994629	0.0002659354
655.7945068359	0.0001798498
657.7233142090	0.0003465552
659.6521215820	0.0005401057
661.5809289551	0.0004276490
663.5097363281	0.0005936765
665.4385437012	0.0007381086
667.3673510742	0.0004677315
669.2961584473	0.0004729023
671.2249658203	0.0007153987
673.1537731934	0.0006502297
675.0825805664	0.0006000223
677.0113879395	0.0005434803
678.9401953125	0.0002434256
680.8690026855	0.0005850784
682.7978100586	0.0008319883
684.7266174316	0.0007994376
686.6554248047	0.0008446357
688.5842321777	0.0005697599
690.5130395508	0.0006696134
692.4418469238	0.0007091817
694.3706542969	0.0008288739
696.2994616699	0.0008731965
698.2282690430	0.0009318553
700.1570764160	0.0012647971
702.0858837891	0.0009502930
704.0146911621	0.0009476749
705.9434985352	0.0008097962
707.8723059082	0.0005519515
709.8011132813	0.0006586224
711.7299206543	0.0003808275
713.6587280273	0.0003619194
715.5875354004	0.0005063522
717.5163427734	0.0004927558
719.4451501465	0.0002222871
721.3739575195	0.0001945398
723.3027648926	0.0001867257
725.2315722656	-0.0000362170
727.1603796387	-0.0000308901
729.0891870117	0.0000572035
731.0179943848	0.0005827355
732.9468017578	0.0004084366
734.8756091309	0.0001491970
736.8044165039	0.0004003160
738.7332238770	0.0001661010
740.6620312500	0.0002083878
742.5908386230	0.0002766272
744.5196459961	0.0002544621
746.4484533691	0.0001525905
748.3772607422	0.0002288037
750.3060681152	0.0002964603
752.2348754883	0.0001105177
754.1636828613	0.0002504905
756.0924902344	0.0001484597
758.0212976074	0.0002197821
759.9501049805	0.0003305074
761.8789123535	0.0001651521
763.8077197266	0.0003417488
765.7365270996	0.0005953887
767.6653344727	0.0003253052
769.5941418457	0.0002271188
771.5229492188	0.0005511467
773.4517565918	0.0002954535
775.3805639648	0.0002648165
777.3093713379	0.0002767979
779.2381787109	0.0001821579
781.1669860840	0.0003550149
783.0957934570	0.0003137303
785.0246008301	0.0003056939
786.9534082031	0.0000940243
788.8822155762	0.0004241581
790.8110229492	0.0006470351
792.7398303223	0.0002997094
794.6686376953	0.0004855141
796.5974450684	0.0004136024
798.5262524414	0.0003185497
800.4550598145	0.0004708386
802.3838671875	0.0004275113
804.3126745605	0.0003729496
806.2414819336	0.0003723306
808.1702893066	0.0002756898
810.0990966797	0.0002707977
812.0279040527	0.0003857486
813.9567114258	0.0002860309
815.8855187988	0.0003387971
817.8143261719	0.0003312268
819.7431335449	0.0004030589
821.6719409180	0.0005317859
823.6007482910	0.0004429288
825.5295556641	0.0004556963
827.4583630371	0.0001793992
829.3871704102	0.0000128280
831.3159777832	0.0003667266
833.2447851563	0.0004263133
835.1735925293	0.0003194209
837.1023999023	0.0006358327
839.0312072754	0.0003810793
840.9600146484	0.0002369621
842.8888220215	0.0006755123
844.8176293945	0.0003919948
846.7464367676	0.0003165562
848.6752441406	0.0004877430
850.6040515137	0.0005118697
852.5328588867	0.0005237865
854.4616662598	0.0004622068
856.3904736328	0.0004406821
858.3192810059	0.0003403291
860.2480883789	0.0004846998
862.1768957520	0.0004441384
864.1057031250	0.0004112625
866.0345104980	0.0003842316
867.9633178711	0.0003960301
869.8921252441	0.0004558753
871.8209326172	0.0002845955
873.7497399902	0.0004390111
875.6785473633	0.0003419284
877.6073547363	0.0003383612
879.5361621094	0.0004856921
881.4649694824	0.0005795773
883.3937768555	0.0005161446
885.3225842285	0.0002064304
887.2513916016	0.0005447852
889.1801989746	0.0006053183
891.1090063477	0.0004356889
893.0378137207	0.0004529564
894.9666210938	0.0006157566
896.8954284668	0.0006497332
898.8242358398	0.0003463117
900.7530432129	0.0005536204
902.6818505859	0.0005633481
904.6106579590	0.0005856947
906.5394653320	0.0005527163
908.4682727051	0.0004216895
910.3970800781	0.0006202786
912.3258874512	0.0005497229
914.2546948242	0.0006302542
916.1835021973	0.0006028279
918.1123095703	0.0006050993
920.0411169434	0.0007587777
921.9699243164	0.0008983435
923.8987316895	0.0009282818
925.8275390625	0.0006831647
927.7563464355	0.0006773892
929.6851538086	0.0006406398
931.6139611816	0.0007217155
933.5427685547	0.0008626755
935.4715759277	0.0009345912
937.4003833008	0.0009320395
939.3291906738	0.0009390255
941.2579980469	0.0009024179
943.1868054199	0.0007019202
945.1156127930	0.0010442609
947.0444201660	0.0009188898
948.9732275391	0.0006861708
950.9020349121	0.0008780817
952.8308422852	0.0006699758
954.7596496582	0.0007457070
956.6884570313	0.0006965506
958.6172644043	0.0006249240
960.5460717773	0.0008253944
962.4748791504	0.0008849343
964.4036865234	0.0007291699
966.3324938965	0.0004412726
968.2613012695	0.0008006319
970.1901086426	0.0010341868
972.1189160156	0.0007281567
974.0477233887	0.0007039607
975.9765307617	0.0009147653
977.9053381348	0.0010970333
979.8341455078	0.0009660366
981.7629528809	0.0008515084
983.6917602539	0.0009963919
985.6205676270	0.0010923897
987.5493750000	0.0011202052
989.4781823730	0.0011641567
991.4069897461	0.0013245763
993.3357971191	0.0013770380
995.2646044922	0.0013463116
997.1934118652	0.0015604193
999.1222192383	0.0015990839
1001.0510266113	0.0015752551
1002.9798339844	0.0017317971
1004.9086413574	0.0017916679
1006.8374487305	0.0019274732
1008.7662561035	0.0019307537
1010.6950634766	0.0020058122
1012.6238708496	0.0022297078
1014.5526782227	0.0022323860
1016.4814855957	0.0022891643
1018.4102929688	0.0023531104
1020.3391003418	0.0024115946
1022.2679077148	0.0025098221
1024.1967150879	0.0027821129
1026.1255224609	0.0028635105
1028.0543298340	0.0027182295
1029.9831372070	0.0029362938
1031.9119445801	0.0028353292
1033.8407519531	0.0028784839
1035.7695593262	0.0032187377
1037.6983666992	0.0031919116
1039.6271740723	0.0034195622
1041.5559814453	0.0032194471
1043.4847888184	0.0029432825
1045.4135961914	0.0032693299
1047.3424035645	0.0031282012
1049.2712109375	0.0029388831
1051.2000183105	0.0028920653
1053.1288256836	0.0027534293
1055.0576330566	0.0027927938
1056.9864404297	0.0027909740
1058.9152478027	0.0027549153
1060.8440551758	0.0026608682
1062.7728625488	0.0025537047
1064.7016699219	0.0025301001
1066.6304772949	0.0026515478
1068.5592846680	0.0024670565
1070.4880920410	0.0021329392
1072.4168994141	0.0022581893
1074.3457067871	0.0021819330
1076.2745141602	0.0020978677
1078.2033215332	0.0020700777
1080.1321289062	0.0019736290
1082.0609362793	0.0018964437
1083.9897436523	0.0015716651
1085.9185510254	0.0016605294
1087.8473583984	0.0017318071
1089.7761657715	0.0016511595
1091.7049731445	0.0016923465
1093.6337805176	0.0015192645
1095.5625878906	0.0014490591
1097.4913952637	0.0014588062
1099.4202026367	0.0015279966
1101.3490100098	0.0014529283
1103.2778173828	0.0014325811
1105.2066247559	0.0015008235
1107.1354321289	0.0015743156
1109.0642395019	0.0017356656
1110.9930468750	0.0014702348
1112.9218542480	0.0013335996
1114.8506616211	0.0013103504
1116.7794689941	0.0013041630
1118.7082763672	0.0015645904
1120.6370837402	0.0015090163
1122.5658911133	0.0013753903
1124.4946984863	0.0014424667
1126.4235058594	0.0015130755
1128.3523132324	0.0014402495
1130.2811206055	0.0013511810
1132.2099279785	0.0014642093
1134.1387353516	0.0016605463
1136.0675427246	0.0016020332
1137.9963500977	0.0015016944
1139.9251574707	0.0016375901
1141.8539648437	0.0017337555
1143.7827722168	0.0017805905
1145.7115795898	0.0017903815
1147.6403869629	0.0020365578
1149.5691943359	0.0021692906
1151.4980017090	0.0020556778
1153.4268090820	0.0021315771
1155.3556164551	0.0022607921
1157.2844238281	0.0024576024
1159.2132312012	0.0023508770
1161.1420385742	0.0023875120
1163.0708459473	0.0025706599
1164.9996533203	0.0026152940
1166.9284606934	0.0029690526
1168.8572680664	0.0029138261
1170.7860754394	0.0027894599
1172.7148828125	0.0029173037
1174.6436901855	0.0028678558
1176.5724975586	0.0030843692
1178.5013049316	0.0032421059
1180.4301123047	0.0032829479
1182.3589196777	0.0035684635
1184.2877270508	0.0035607852
1186.2165344238	0.0035316604
1188.1453417969	0.0037330999
1190.0741491699	0.0039396062
1192.0029565430	0.0043231668
1193.9317639160	0.0042779949
1195.8605712891	0.0043161158
1197.7893786621	0.0047302055
1199.7181860351	0.0048074368
1201.6469934082	0.0051277224
1203.5758007812	0.0053979792
1205.5046081543	0.0053481860
1207.4334155273	0.0054493528
1209.3622229004	0.0055989353
1211.2910302734	0.0057626031
1213.2198376465	0.0060168300
1215.1486450195	0.0062069502
1217.0774523926	0.0062938826
1219.0062597656	0.0063689812
1220.9350671387	0.0063112956
1222.8638745117	0.0063926438
1224.7926818848	0.0065769185
1226.7214892578	0.0067178844
1228.6502966308	0.0066297222
1230.5791040039	0.0065032993
1232.5079113769	0.0066309301
1234.4367187500	0.0065919892
1236.3655261230	0.0067371819
1238.2943334961	0.0067116972
1240.2231408691	0.0066625266
1242.1519482422	0.0068199961
1244.0807556152	0.0065890020
1246.0095629883	0.0065545593
1247.9383703613	0.0066354065
1249.8671777344	0.0066586984
1251.7959851074	0.0065328195
1253.7247924805	0.0065118573
1255.6535998535	0.0064326427
1257.5824072266	0.0060756644
1259.5112145996	0.0062587592
1261.4400219726	0.0061433800
1263.3688293457	0.0058181896
1265.2976367187	0.0059395810
1267.2264440918	0.0060005924
1269.1552514648	0.0059544202
1271.0840588379	0.0058039576
1273.0128662109	0.0056995074
1274.9416735840	0.0058051208
1276.8704809570	0.0057080314
1278.7992883301	0.0052604191
1280.7280957031	0.0052889632
1282.6569030762	0.0052998690
1284.5857104492	0.0051321723
1286.5145178223	0.0052127382
1288.4433251953	0.0050073629
1290.3721325683	0.0049130796
1292.3009399414	0.0049667777
1294.2297473144	0.0049800640
1296.1585546875	0.0048803897
1298.0873620605	0.0049277581
1300.0161694336	0.0048410278
1301.9449768066	0.0046328744
1303.8737841797	0.0049457820
1305.8025915527	0.0048656669
1307.7313989258	0.0049729045
1309.6602062988	0.0051973057
1311.5890136719	0.0052215913
1313.5178210449	0.0054608006
1315.4466284180	0.0052988199
1317.3754357910	0.0055651609
1319.3042431640	0.0058298586
1321.2330505371	0.0057295663
1323.1618579101	0.0059914212
1325.0906652832	0.0061426293
1327.0194726562	0.0061452379
1328.9482800293	0.0063680895
1330.8770874023	0.0064907651
1332.8058947754	0.0065889275
1334.7347021484	0.0069132969
1336.6635095215	0.0066934656
1338.5923168945	0.0066938805
1340.5211242676	0.0070187226
1342.4499316406	0.0069909897
1344.3787390137	0.0069840271
1346.3075463867	0.0069984342
1348.2363537597	0.0071711838
1350.1651611328	0.0070096487
1352.0939685058	0.0070658526
1354.0227758789	0.0070471196
1355.9515832519	0.0067923996
1357.8803906250	0.0068987375
1359.8091979980	0.0066768527
1361.7380053711	0.0066456255
1363.6668127441	0.0064876601
1365.5956201172	0.0066902898
1367.5244274902	0.0068044029
1369.4532348633	0.0063673183
1371.3820422363	0.0065535661
1373.3108496094	0.0062986384
1375.2396569824	0.0063151084
1377.1684643555	0.0065525882
1379.0972717285	0.0065225782
1381.0260791015	0.0066087483
1382.9548864746	0.0063559888
1384.8836938476	0.0063923420
1386.8125012207	0.0063241362
1388.7413085937	0.0064696600
1390.6701159668	0.0068698837
1392.5989233398	0.0066577974
1394.5277307129	0.0063764220
1396.4565380859	0.0065038800
1398.3853454590	0.0065490324
1400.3141528320	0.0066593019
1402.2429602051	0.0068632439
1404.1717675781	0.0064472882
1406.1005749512	0.0067075286
1408.0293823242	0.0067896531
1409.9581896972	0.0065616872
1411.8869970703	0.0069166231
1413.8158044433	0.0065855752
1415.7446118164	0.0066642896
1417.6734191894	0.0061500547
1419.6022265625	0.0057162563
1421.5310339355	0.0063506300
1423.4598413086	0.0060455594
1425.3886486816	0.0060207928
1427.3174560547	0.0059991684
1429.2462634277	0.0056051402
1431.1750708008	0.0054877708
1433.1038781738	0.0056449138
1435.0326855469	0.0052278405
1436.9614929199	0.0043789027
1438.8903002929	0.0050502867
1440.8191076660	0.0051925266
1442.7479150390	0.0048923525
1444.6767224121	0.0050196862
1446.6055297851	0.0045826789
1448.5343371582	0.0047899680
1450.4631445312	0.0048333919
1452.3919519043	0.0049275579
1454.3207592773	0.0049552708
1456.2495666504	0.0043252055
1458.1783740234	0.0048361835
1460.1071813965	0.0056616636
1462.0359887695	0.0058809379
1463.9647961426	0.0058979602
1465.8936035156	0.0059168199
1467.8224108886	0.0067383284
1469.7512182617	0.0071527893
1471.6800256347	0.0064740651
1473.6088330078	0.0069088517
1475.5376403808	0.0078804316
1477.4664477539	0.0083914716
1479.3952551269	0.0089532379
1481.3240625000	0.0089762704
1483.2528698730	0.0095059657
1485.1816772461	0.0098898746
1487.1104846191	0.0097300876
1489.0392919922	0.0099502616
1490.9680993652	0.0100341402
1492.8969067383	0.0111447312
1494.8257141113	0.0110210739
1496.7545214843	0.0099738510
1498.6833288574	0.0110167135
1500.6121362304	0.0113697033
1502.5409436035	0.0121107483
1504.4697509765	0.0114336461
1506.3985583496	0.0087448070
1508.3273657226	0.0106752850
1510.2561730957	0.0120284334
1512.1849804687	0.0115456618
1514.1137878418	0.0124897771
1516.0425952148	0.0113878492
1517.9714025879	0.0118419249
1519.9002099609	0.0114948964
1521.8290173340	0.0102360034
1523.7578247070	0.0121185072
1525.6866320801	0.0118476972
1527.6154394531	0.0117192734
1529.5442468261	0.0127567872
1531.4730541992	0.0123512354
1533.4018615722	0.0114941038
1535.3306689453	0.0121329911
1537.2594763183	0.0128046637
1539.1882836914	0.0096712708
1541.1170910644	0.0099535808
1543.0458984375	0.0116367955
1544.9747058105	0.0113012791
1546.9035131836	0.0128740482
1548.8323205566	0.0122082625
1550.7611279297	0.0124961063
1552.6899353027	0.0123854280
1554.6187426758	0.0116796307
1556.5475500488	0.0123572927
1558.4763574218	0.0092412941
1560.4051647949	0.0098543158
1562.3339721679	0.0129033681
1564.2627795410	0.0122624747
1566.1915869140	0.0127185415
1568.1203942871	0.0125371423
1570.0492016601	0.0115108024
1571.9780090332	0.0129347518
1573.9068164062	0.0128689772
1575.8356237793	0.0106205866
1577.7644311523	0.0117484443
1579.6932385254	0.0129646054
1581.6220458984	0.0123110712
1583.5508532715	0.0127157196
1585.4796606445	0.0125126932
1587.4084680175	0.0125871394
1589.3372753906	0.0127512803
1591.2660827636	0.0124979327
1593.1948901367	0.0125053972
1595.1236975097	0.0124407113
1597.0525048828	0.0125921657
1598.9813122558	0.0124318590
1600.9101196289	0.0123437904
1602.8389270019	0.0123799499
1604.7677343750	0.0123399310
1606.6965417480	0.0122443130
1608.6253491211	0.0123188142
1610.5541564941	0.0121196890
1612.4829638672	0.0123886904
1614.4117712402	0.0123766065
1616.3405786132	0.0105932774
1618.2693859863	0.0115505802
1620.1981933593	0.0130108856
1622.1270007324	0.0118241627
1624.0558081054	0.0117238071
1625.9846154785	0.0123275127
1627.9134228515	0.0123642134
1629.8422302246	0.0123567749
1631.7710375976	0.0131181721
1633.6998449707	0.0121926181
1635.6286523437	0.0106008975
1637.5574597168	0.0120960427
1639.4862670898	0.0132309217
1641.4150744629	0.0130009791
1643.3438818359	0.0133349672
1645.2726892090	0.0123369396
1647.2014965820	0.0112190722
1649.1303039550	0.0135824718
1651.0591113281	0.0127641717
1652.9879187011	0.0091436952
1654.9167260742	0.0118229743
1656.8455334472	0.0140517652
1658.7743408203	0.0136506893
1660.7031481933	0.0139739979
1662.6319555664	0.0130827110
1664.5607629394	0.0138378944
1666.4895703125	0.0145296156
1668.4183776855	0.0129148886
1670.3471850586	0.0127310622
1672.2759924316	0.0142089119
1674.2047998047	0.0133502157
1676.1336071777	0.0130128190
1678.0624145507	0.0145568997
1679.9912219238	0.0142153762
1681.9200292968	0.0140415393
1683.8488366699	0.0117296465
1685.7776440429	0.0118755680
1687.7064514160	0.0153096747
1689.6352587890	0.0135337282
1691.5640661621	0.0147414999
1693.4928735351	0.0148565788
1695.4216809082	0.0114494786
1697.3504882812	0.0135183781
1699.2792956543	0.0120650828
1701.2081030273	0.0113107190
1703.1369104004	0.0144992378
1705.0657177734	0.0133398278
1706.9945251464	0.0135994600
1708.9233325195	0.0144970715
1710.8521398925	0.0138586946
1712.7809472656	0.0139619000
1714.7097546386	0.0132077765
1716.6385620117	0.0120916497
1718.5673693847	0.0117642777
1720.4961767578	0.0138192773
1722.4249841308	0.0141648799
1724.3537915039	0.0132412501
1726.2825988769	0.0142784193
1728.2114062500	0.0131648630
1730.1402136230	0.0133604817
1732.0690209961	0.0129150301
1733.9978283691	0.0102922982
1735.9266357421	0.0124630183
1737.8554431152	0.0135395341
1739.7842504882	0.0122504495
1741.7130578613	0.0129783526
1743.6418652343	0.0132683832
1745.5706726074	0.0132676568
1747.4994799804	0.0132551854
1749.4282873535	0.0127276219
1751.3570947265	0.0122301783
1753.2859020996	0.0135394912
1755.2147094726	0.0140167903
1757.1435168457	0.0128942179
1759.0723242187	0.0138231209
1761.0011315918	0.0131536461
1762.9299389648	0.0127863940
1764.8587463379	0.0140618328
1766.7875537109	0.0130557623
1768.7163610839	0.0132127032
1770.6451684570	0.0130300075
1772.5739758300	0.0119792428
1774.5027832031	0.0131426714
1776.4315905761	0.0137460893
1778.3603979492	0.0135677420
1780.2892053222	0.0134928450
1782.2180126953	0.0133247962
1784.1468200683	0.0133229885
1786.0756274414	0.0133306822
1788.0044348144	0.0137366671
1789.9332421875	0.0134030655
1791.8620495605	0.0124297887
1793.7908569336	0.0128122251
1795.7196643066	0.0133811478
1797.6484716796	0.0132196955
1799.5772790527	0.0131864389
1801.5060864257	0.0130762551
1803.4348937988	0.0132897068
1805.3637011718	0.0134874517
1807.2925085449	0.0134428376
1809.2213159179	0.0132867862
1811.1501232910	0.0131043699
1813.0789306640	0.0135129225
1815.0077380371	0.0134196710
1816.9365454101	0.0132592749
1818.8653527832	0.0132690510
1820.7941601562	0.0133128706
1822.7229675293	0.0134310443
1824.6517749023	0.0128597021
1826.5805822753	0.0132478066
1828.5093896484	0.0130933132
1830.4381970214	0.0125033371
1832.3670043945	0.0131776221
1834.2958117675	0.0131863188
1836.2246191406	0.0132469311
1838.1534265136	0.0130552873
1840.0822338867	0.0131413899
1842.0110412597	0.0130496267
1843.9398486328	0.0118686017
1845.8686560058	0.0126105146
1847.7974633789	0.0132113472
1849.7262707519	0.0129855499
1851.6550781250	0.0132147595
1853.5838854980	0.0129932892
1855.5126928710	0.0131799057
1857.4415002441	0.0128983930
1859.3703076171	0.0128029492
1861.2991149902	0.0131001770
1863.2279223632	0.0127845053
1865.1567297363	0.0129935071
1867.0855371093	0.0126986932
1869.0143444824	0.0121977199
1870.9431518554	0.0128042838
1872.8719592285	0.0130483126
1874.8007666015	0.0127987470
1876.7295739746	0.0128737241
1878.6583813476	0.0127204452
1880.5871887207	0.0126987454
1882.5159960937	0.0129107414
1884.4448034667	0.0127206855
1886.3736108398	0.0127542075
1888.3024182128	0.0125666289
1890.2312255859	0.0123684611
1892.1600329589	0.0126706464
1894.0888403320	0.0124776987
1896.0176477050	0.0124419630
1897.9464550781	0.0125388298
1899.8752624511	0.0124436449
1901.8040698242	0.0124294991
1903.7328771972	0.0123507604
1905.6616845703	0.0124822836
1907.5904919433	0.0123327309
1909.5192993164	0.0122851022
1911.4481066894	0.0122865494
1913.3769140625	0.0122623127
1915.3057214355	0.0123868436
1917.2345288085	0.0118111633
1919.1633361816	0.0120160468
1921.0921435546	0.0123264939
1923.0209509277	0.0118726902
1924.9497583007	0.0122265890
1926.8785656738	0.0122380238
1928.8073730468	0.0120461369
1930.7361804199	0.0121354321
1932.6649877929	0.0121492688
1934.5937951660	0.0122814830
1936.5226025390	0.0120250080
1938.4514099121	0.0121185221
1940.3802172851	0.0121657792
1942.3090246582	0.0119295828
1944.2378320312	0.0121480338
1946.1666394042	0.0121090664
1948.0954467773	0.0119724851
1950.0242541503	0.0120452261
1951.9530615234	0.0121375266
1953.8818688964	0.0120280432
1955.8106762695	0.0119196344
1957.7394836425	0.0120802345
1959.6682910156	0.0120018721
1961.5970983886	0.0119642485
1963.5259057617	0.0120198485
1965.4547131347	0.0119152768
1967.3835205078	0.0118151968
1969.3123278808	0.0118739214
1971.2411352539	0.0120548010
1973.1699426269	0.0119013898
1975.0987499999	0.0118209943
1977.0275573730	0.0119109014
1978.9563647460	0.0118054934
1980.8851721191	0.0118004475
1982.8139794921	0.0117997285
1984.7427868652	0.0117448717
1986.6715942382	0.0116933957
1988.6004016113	0.0116389710
1990.5292089843	0.0115842074
1992.4580163574	0.0115376338
1994.3868237304	0.0115699600
1996.3156311035	0.0115832482
1998.2444384765	0.0116480514
2000.1732458496	0.0116577866
2002.1020532226	0.0115123335
2004.0308605956	0.0114519829
2005.9596679687	0.0114289271
2007.8884753417	0.0113916453
2009.8172827148	0.0114449225
2011.7460900878	0.0113851391
2013.6748974609	0.0113676414
2015.6037048339	0.0113893980
2017.5325122070	0.0111748064
2019.4613195800	0.0112678334
2021.3901269531	0.0112852473
2023.3189343261	0.0111304168
2025.2477416992	0.0113436040
2027.1765490722	0.0112722730
2029.1053564453	0.0111904247
2031.0341638183	0.0112442877
2032.9629711914	0.0111901239
2034.8917785644	0.0111546889
2036.8205859374	0.0110992203
2038.7493933105	0.0112586552
2040.6782006835	0.0110795442
2042.6070080566	0.0108114611
2044.5358154296	0.0109453723
2046.4646228027	0.0109845288
2048.3934301757	0.0109326635
2050.3222375488	0.0108847506
2052.2510449218	0.0109646199
2054.1798522949	0.0109063704
2056.1086596679	0.0107743256
2058.0374670410	0.0108662713
2059.9662744140	0.0108900173
2061.8950817871	0.0108408183
2063.8238891601	0.0107482914
2065.7526965331	0.0106775239
2067.6815039062	0.0106489100
2069.6103112792	0.0107264882
2071.5391186523	0.0108286124
2073.4679260253	0.0106962696
2075.3967333984	0.0105327200
2077.3255407714	0.0106068626
2079.2543481445	0.0107026063
2081.1831555175	0.0105397245
2083.1119628906	0.0105126230
2085.0407702636	0.0105221663
2086.9695776367	0.0104192719
2088.8983850097	0.0104408301
2090.8271923828	0.0104079470
2092.7559997558	0.0104139736
2094.6848071288	0.0103328228
2096.6136145019	0.0103254206
2098.5424218749	0.0104108695
2100.4712292480	0.0102921352
2102.4000366210	0.0103053469
2104.3288439941	0.0103317397
2106.2576513671	0.0103336489
2108.1864587402	0.0103440378
2110.1152661132	0.0102784317
2112.0440734863	0.0103075877
2113.9728808593	0.0103847822
2115.9016882324	0.0103099579
2117.8304956054	0.0101915561
2119.7593029785	0.0103487764
2121.6881103515	0.0102697676
2123.6169177245	0.0100447927
2125.5457250976	0.0101644434
2127.4745324706	0.0101610608
2129.4033398437	0.0100919865
2131.3321472167	0.0101432074
2133.2609545898	0.0101972194
2135.1897619628	0.0101664308
2137.1185693359	0.0101451483
2139.0473767089	0.0100858891
2140.9761840820	0.0099772625
2142.9049914550	0.0101711536
2144.8337988281	0.0101489695
2146.7626062011	0.0099380519
2148.6914135742	0.0099856183
2150.6202209472	0.0099953245
2152.5490283203	0.0099670589
2154.4778356933	0.0098871319
2156.4066430663	0.0099728815
2158.3354504394	0.0100075081
2160.2642578124	0.0098279212
2162.1930651855	0.0099395579
2164.1218725585	0.0099964663
2166.0506799316	0.0098755546
2167.9794873046	0.0098310374
2169.9082946777	0.0098730400
2171.8371020507	0.0099523868
2173.7659094238	0.0099278465
2175.6947167968	0.0099090748
2177.6235241699	0.0098598246
2179.5523315429	0.0098255128
2181.4811389160	0.0098294988
2183.4099462890	0.0098365797
2185.3387536620	0.0098280516
2187.2675610351	0.0097914468
2189.1963684081	0.0099091548
2191.1251757812	0.0098095331
2193.0539831542	0.0096828714
2194.9827905273	0.0097971018
2196.9115979003	0.0097478768
2198.8404052734	0.0097389910
2200.7692126464	0.0096176602
2202.6980200195	0.0095298709
2204.6268273925	0.0097153690
2206.5556347656	0.0096867196
2208.4844421386	0.0096167140
2210.4132495117	0.0095930118
2212.3420568847	0.0095144641
2214.2708642577	0.0095258001
2216.1996716308	0.0096104089
2218.1284790038	0.0096166562
2220.0572863769	0.0095631490
2221.9860937499	0.0095503321
2223.9149011230	0.0094440626
2225.8437084960	0.0094503090
2227.7725158691	0.0094817132
2229.7013232421	0.0094130663
2231.6301306152	0.0093946643
2233.5589379882	0.0093279444
2235.4877453613	0.0094744191
2237.4165527343	0.0095598549
2239.3453601074	0.0094127040
2241.2741674804	0.0093749762
2243.2029748534	0.0093164388
2245.1317822265	0.0093277320
2247.0605895995	0.0093537066
2248.9893969726	0.0093003865
2250.9182043456	0.0092682345
2252.8470117187	0.0092638191
2254.7758190917	0.0092494348
2256.7046264648	0.0091989934
2258.6334338378	0.0092927329
2260.5622412109	0.0093191490
2262.4910485839	0.0092558535
2264.4198559570	0.0092010126
2266.3486633300	0.0090780202
2268.2774707031	0.0091539072
2270.2062780761	0.0091349389
2272.1350854491	0.0090690395
2274.0638928222	0.0091531873
2275.9927001952	0.0090377983
2277.9215075683	0.0090472940
2279.8503149413	0.0090685952
2281.7791223144	0.0090299603
2283.7079296874	0.0090879044
2285.6367370605	0.0089471666
2287.5655444335	0.0090216305
2289.4943518066	0.0090567023
2291.4231591796	0.0089177899
2293.3519665527	0.0090236794
2295.2807739257	0.0089674527
2297.2095812988	0.0088968538
2299.1383886718	0.0088818278
2301.0671960449	0.0088171773
2302.9960034179	0.0086959805
2304.9248107909	0.0086650737
2306.8536181640	0.0088099577
2308.7824255370	0.0086190617
2310.7112329101	0.0086220596
2312.6400402831	0.0086409291
2314.5688476562	0.0083632739
2316.4976550292	0.0083575388
2318.4264624023	0.0082778363
2320.3552697753	0.0082220845
2322.2840771484	0.0080554457
2324.2128845214	0.0078941118
2326.1416918945	0.0079622082
2328.0704992675	0.0079068718
2329.9993066406	0.0079417611
2331.9281140136	0.0078061875
2333.8569213866	0.0077225855
2335.7857287597	0.0077316007
2337.7145361327	0.0076403450
2339.6433435058	0.0077459021
2341.5721508788	0.0077441679
2343.5009582519	0.0078051826
2345.4297656249	0.0079484079
2347.3585729980	0.0081866514
2349.2873803710	0.0083745783
2351.2161877441	0.0080527710
2353.1449951171	0.0078084506
2355.0738024902	0.0076590604
2357.0026098632	0.0074476707
2358.9314172363	0.0073973699
2360.8602246093	0.0072552385
2362.7890319823	0.0072487299
2364.7178393554	0.0073288758
2366.6466467284	0.0072901673
2368.5754541015	0.0074844826
2370.5042614745	0.0075510172
2372.4330688476	0.0075858366
2374.3618762206	0.0079236235
2376.2906835937	0.0079938322
2378.2194909667	0.0080568139
2380.1482983398	0.0082341395
2382.0771057128	0.0082855728
2384.0059130859	0.0083516967
2385.9347204589	0.0082486421
2387.8635278320	0.0082185399
2389.7923352050	0.0083409529
2391.7211425780	0.0083523644
2393.6499499511	0.0082976492
2395.5787573241	0.0082551837
2397.5075646972	0.0082261199
2399.4363720702	0.0081501491
2401.3651794433	0.0081402045
2403.2939868163	0.0082295667
2405.2227941894	0.0083650760
2407.1516015624	0.0083712712
2409.0804089355	0.0081548011
2411.0092163085	0.0080949720
2412.9380236816	0.0081966761
2414.8668310546	0.0081701949
2416.7956384277	0.0081390794
2418.7244458007	0.0080575645
2420.6532531738	0.0079692388
2422.5820605468	0.0080378633
2424.5108679198	0.0080561228
2426.4396752929	0.0081145018
2428.3684826659	0.0081099477
2430.2972900390	0.0080332309
2432.2260974120	0.0080958437
2434.1549047851	0.0081223492
2436.0837121581	0.0080632381
2438.0125195312	0.0078856088
2439.9413269042	0.0079216044
2441.8701342773	0.0079445150
2443.7989416503	0.0078227688
2445.7277490234	0.0079436759
2447.6565563964	0.0078681046
2449.5853637695	0.0078513026
2451.5141711425	0.0079371743
2453.4429785155	0.0078729391
2455.3717858886	0.0078935735
2457.3005932616	0.0078637497
2459.2294006347	0.0078517403
2461.1582080077	0.0077687725
2463.0870153808	0.0078096371
2465.0158227538	0.0079724826
2466.9446301269	0.0077754613
2468.8734374999	0.0076245572
2470.8022448730	0.0077514313
2472.7310522460	0.0077801505
2474.6598596191	0.0077979285
2476.5886669921	0.0077392701
2478.5174743652	0.0076127704
2480.4462817382	0.0077025378
2482.3750891112	0.0075649293
2484.3038964843	0.0075687161
2486.2327038573	0.0077724033
2488.1615112304	0.0076450910
2490.0903186034	0.0076481225
2492.0191259765	0.0075746384
2493.9479333495	0.0076428279
2495.8767407226	0.0077176373
2497.8055480956	0.0074814195
2499.7343554687	0.0075407876
2501.6631628417	0.0075545511
2503.5919702148	0.0075337347
2505.5207775878	0.0075216712
2507.4495849609	0.0074877469
2509.3783923339	0.0075050695
2511.3071997069	0.0074347453
2513.2360070800	0.0074756211
2515.1648144530	0.0074000442
2517.0936218261	0.0074159997
2519.0224291991	0.0074304994
2520.9512365722	0.0073472671
2522.8800439452	0.0074434015
2524.8088513183	0.0073478445
2526.7376586913	0.0073600905
2528.6664660644	0.0074039642
2530.5952734374	0.0073253270
2532.5240808105	0.0073982123
2534.4528881835	0.0073169777
2536.3816955566	0.0073070857
2538.3105029296	0.0072959810
2540.2393103027	0.0072204275
2542.1681176757	0.0073182834
2544.0969250487	0.0072464687
2546.0257324218	0.0073001040
2547.9545397948	0.0073065311
2549.8833471679	0.0071697272
2551.8121545409	0.0073300982
2553.7409619140	0.0071998956
2555.6697692870	0.0070988210
2557.5985766601	0.0072500752
2559.5273840331	0.0072072409
2561.4561914062	0.0072271973
2563.3849987792	0.0071399948
2565.3138061523	0.0070706317
2567.2426135253	0.0071676760
2569.1714208984	0.0071550962
2571.1002282714	0.0071332441
2573.0290356444	0.0071022203
2574.9578430175	0.0070020379
2576.8866503905	0.0070111249
2578.8154577636	0.0070366273
2580.7442651366	0.0069681285
2582.6730725097	0.0070299329
2584.6018798827	0.0070547289
2586.5306872558	0.0070704389
2588.4594946288	0.0070828930
2590.3883020019	0.0069937613
2592.3171093749	0.0070269126
2594.2459167480	0.0070256488
2596.1747241210	0.0069934083
2598.1035314941	0.0069241421
2600.0323388671	0.0069053588
2601.9611462401	0.0069396496
2603.8899536132	0.0069273752
2605.8187609862	0.0069566080
2607.7475683593	0.0068992907
2609.6763757323	0.0069521838
2611.6051831054	0.0069050761
2613.5339904784	0.0067851245
2615.4627978515	0.0068290806
2617.3916052245	0.0068373922
2619.3204125976	0.0068230159
2621.2492199706	0.0067166714
2623.1780273437	0.0067679938
2625.1068347167	0.0068003787
2627.0356420898	0.0067421598
2628.9644494628	0.0068059009
2630.8932568358	0.0067911036
2632.8220642089	0.0067835972
2634.7508715819	0.0067793932
2636.6796789550	0.0067755524
2638.6084863280	0.0066241203
2640.5372937011	0.0065580290
2642.4661010741	0.0067091445
2644.3949084472	0.0066886796
2646.3237158202	0.0066476809
2648.2525231933	0.0065691066
2650.1813305663	0.0065310486
2652.1101379394	0.0066186888
2654.0389453124	0.0065460047
2655.9677526855	0.0064583942
2657.8965600585	0.0065548248
2659.8253674315	0.0065686558
2661.7541748046	0.0065179314
2663.6829821776	0.0065205824
2665.6117895507	0.0065198084
2667.5405969237	0.0065674074
2669.4694042968	0.0064347885
2671.3982116698	0.0064576562
2673.3270190429	0.0065155909
2675.2558264159	0.0063622883
2677.1846337890	0.0065021813
2679.1134411620	0.0064505925
2681.0422485351	0.0063050971
2682.9710559081	0.0063653835
2684.8998632812	0.0063152583
2686.8286706542	0.0063206432
2688.7574780273	0.0063140085
2690.6862854003	0.0062631755
2692.6150927733	0.0063228430
2694.5439001464	0.0064012813
2696.4727075194	0.0063531082
2698.4015148925	0.0063374396
2700.3303222655	0.0062643220
2702.2591296386	0.0061732149
2704.1879370116	0.0063418383
2706.1167443847	0.0063570910
2708.0455517577	0.0061451942
2709.9743591308	0.0061793826
2711.9031665038	0.0063330480
2713.8319738769	0.0062173484
2715.7607812499	0.0061964327
2717.6895886230	0.0062517272
2719.6183959960	0.0062209275
2721.5472033690	0.0062513892
2723.4760107421	0.0061094086
2725.4048181151	0.0061020572
2727.3336254882	0.0060734479
2729.2624328612	0.0060316427
2731.1912402343	0.0061578746
2733.1200476073	0.0061212964
2735.0488549804	0.0060831886
2736.9776623534	0.0059963409
2738.9064697265	0.0060485131
2740.8352770995	0.0059799100
2742.7640844726	0.0058775269
2744.6928918456	0.0060445932
2746.6216992187	0.0059717586
2748.5505065917	0.0059841992
2750.4793139647	0.0060278052
2752.4081213378	0.0060409326
2754.3369287108	0.0059903730
2756.2657360839	0.0058360896
2758.1945434569	0.0058969483
2760.1233508300	0.0058173994
2762.0521582030	0.0058300197
2763.9809655761	0.0058699753
2765.9097729491	0.0058110314
2767.8385803222	0.0058589401
2769.7673876952	0.0057819504
2771.6961950683	0.0057944870
2773.6250024413	0.0058278856
2775.5538098144	0.0058991560
2777.4826171874	0.0058928458
2779.4114245604	0.0056397691
2781.3402319335	0.0057032681
2783.2690393065	0.0058326814
2785.1978466796	0.0056836680
2787.1266540526	0.0056338198
2789.0554614257	0.0057270173
2790.9842687987	0.0057963282
2792.9130761718	0.0058109337
2794.8418835448	0.0057639331
2796.7706909179	0.0055808909
2798.6994982909	0.0055678990
2800.6283056640	0.0057963622
2802.5571130370	0.0056982422
2804.4859204101	0.0055568051
2806.4147277831	0.0056569413
2808.3435351562	0.0056249499
2810.2723425292	0.0055316119
2812.2011499022	0.0054937862
2814.1299572753	0.0054870951
2816.0587646483	0.0055063004
2817.9875720214	0.0056070546
2819.9163793944	0.0055652065
2821.8451867675	0.0054341205
2823.7739941405	0.0055550491
2825.7028015136	0.0055666156
2827.6316088866	0.0054943478
2829.5604162597	0.0054953266
2831.4892236327	0.0053933891
2833.4180310058	0.0053366572
2835.3468383788	0.0054016514
2837.2756457519	0.0053425548
2839.2044531249	0.0052702436
2841.1332604979	0.0053996113
2843.0620678710	0.0052973516
2844.9908752440	0.0052527161
2846.9196826171	0.0053191539
2848.8484899901	0.0051659085
2850.7772973632	0.0052011255
2852.7061047362	0.0051568160
2854.6349121093	0.0050983289
2856.5637194823	0.0051497975
2858.4925268554	0.0050815316
2860.4213342284	0.0051405351
2862.3501416015	0.0052198255
2864.2789489745	0.0050942721
2866.2077563476	0.0049913181
2868.1365637206	0.0051607401
2870.0653710936	0.0051242039
2871.9941784667	0.0050047273
2873.9229858397	0.0050706281
2875.8517932128	0.0050053960
2877.7806005858	0.0050237980
2879.7094079589	0.0050450782
2881.6382153319	0.0050982265
2883.5670227050	0.0050809761
2885.4958300780	0.0050422233
2887.4246374511	0.0051205903
2889.3534448241	0.0049690418
2891.2822521972	0.0049393196
2893.2110595702	0.0049230140
2895.1398669433	0.0049592452
2897.0686743163	0.0050232178
2898.9974816893	0.0048038838
2900.9262890624	0.0048086015
2902.8550964354	0.0048632231
2904.7839038085	0.0048413808
2906.7127111815	0.0047771861
2908.6415185546	0.0047710128
2910.5703259276	0.0048565520
2912.4991333007	0.0047407029
2914.4279406737	0.0046949293
2916.3567480468	0.0046763346
2918.2855554198	0.0046974113
2920.2143627929	0.0046750405
2922.1431701659	0.0046893107
2924.0719775390	0.0047461977
2926.0007849120	0.0045843860
2927.9295922851	0.0046397625
2929.8583996581	0.0046356814
2931.7872070311	0.0046288017
2933.7160144042	0.0046104016
2935.6448217772	0.0046019489
2937.5736291503	0.0048191897
2939.5024365233	0.0045453794
2941.4312438964	0.0045785881
2943.3600512694	0.0047624353
2945.2888586425	0.0045523709
2947.2176660155	0.0046527488
2949.1464733886	0.0045823008
2951.0752807616	0.0045012911
2953.0040881347	0.0045763133
2954.9328955077	0.0046118805
2956.8617028808	0.0046028979
2958.7905102538	0.0044932840
2960.7193176268	0.0044639707
2962.6481249999	0.0044290973
2964.5769323729	0.0044744369
2966.5057397460	0.0045160083
2968.4345471190	0.0046091303
2970.3633544921	0.0045227031
2972.2921618651	0.0043508261
2974.2209692382	0.0044051162
2976.1497766112	0.0043151099
2978.0785839843	0.0044612931
2980.0073913573	0.0045675803
2981.9361987304	0.0044307606
2983.8650061034	0.0043319725
2985.7938134765	0.0042691100
2987.7226208495	0.0044911345
2989.6514282225	0.0044829799
2991.5802355956	0.0043440568
2993.5090429686	0.0043695988
2995.4378503417	0.0043688715
2997.3666577147	0.0043630730
2999.2954650878	0.0042657214
3001.2242724608	0.0042458633
3003.1530798339	0.0042654742
3005.0818872069	0.0043183938
3007.0106945800	0.0043384065
3008.9395019530	0.0042344322
3010.8683093261	0.0042341668
3012.7971166991	0.0042440905
3014.7259240722	0.0041757296
3016.6547314452	0.0041904827
3018.5835388182	0.0042677075
3020.5123461913	0.0042403284
3022.4411535643	0.0041905660
3024.3699609374	0.0042035570
3026.2987683104	0.0042246096
3028.2275756835	0.0042098509
3030.1563830565	0.0041657239
3032.0851904296	0.0040764986
3034.0139978026	0.0040483447
3035.9428051757	0.0041196207
3037.8716125487	0.0041346811
3039.8004199218	0.0042047054
3041.7292272948	0.0041458430
3043.6580346679	0.0040351767
3045.5868420409	0.0040395586
3047.5156494139	0.0039839111
3049.4444567870	0.0040084012
3051.3732641600	0.0040225759
3053.3020715331	0.0040412815
3055.2308789061	0.0040545007
3057.1596862792	0.0040227980
3059.0884936522	0.0038946364
3061.0173010253	0.0038602080
3062.9461083983	0.0039877277
3064.8749157714	0.0038753171
3066.8037231444	0.0038800070
3068.7325305175	0.0038605882
3070.6613378905	0.0038716272
3072.5901452636	0.0039415658
3074.5189526366	0.0038712129
3076.4477600097	0.0040237866
3078.3765673827	0.0038989307
3080.3053747557	0.0038402358
3082.2341821288	0.0038047018
3084.1629895018	0.0037268694
3086.0917968749	0.0039884853
3088.0206042479	0.0038713554
3089.9494116210	0.0038040325
3091.8782189940	0.0038364604
3093.8070263671	0.0038056332
3095.7358337401	0.0038476372
3097.6646411132	0.0037811892
3099.5934484862	0.0037756488
3101.5222558593	0.0037032841
3103.4510632323	0.0037635206
3105.3798706054	0.0037190625
3107.3086779784	0.0036331271
3109.2374853514	0.0037806733
3111.1662927245	0.0037651185
3113.0951000975	0.0036491081
3115.0239074706	0.0035641578
3116.9527148436	0.0035983520
3118.8815222167	0.0036374063
3120.8103295897	0.0036609289
3122.7391369628	0.0036469907
3124.6679443358	0.0036701693
3126.5967517089	0.0037146900
3128.5255590819	0.0036225338
3130.4543664550	0.0036254548
3132.3831738280	0.0035468619
3134.3119812011	0.0035737571
3136.2407885741	0.0036120620
3138.1695959471	0.0035522082
3140.0984033202	0.0036155814
3142.0272106932	0.0034364334
3143.9560180663	0.0034433147
3145.8848254393	0.0035813176
3147.8136328124	0.0035048581
3149.7424401854	0.0035054628
3151.6712475585	0.0035038872
3153.6000549315	0.0035278560
3155.5288623046	0.0035143299
3157.4576696776	0.0034596275
3159.3864770507	0.0034702267
3161.3152844237	0.0034890817
3163.2440917968	0.0034506780
3165.1728991698	0.0033598584
3167.1017065428	0.0033389125
3169.0305139159	0.0033749868
3170.9593212889	0.0033367425
3172.8881286620	0.0033200178
3174.8169360350	0.0034608885
3176.7457434081	0.0034445929
3178.6745507811	0.0033347982
3180.6033581542	0.0033418443
3182.5321655272	0.0033397879
3184.4609729003	0.0033664457
3186.3897802733	0.0033226372
3188.3185876464	0.0033743219
3190.2473950194	0.0034059752
3192.1762023925	0.0032569990
3194.1050097655	0.0033026792
3196.0338171386	0.0033027711
3197.9626245116	0.0032409625
3199.8914318846	0.0033245427
3201.8202392577	0.0033270777
3203.7490466307	0.0032435413
3205.6778540038	0.0032470901
3207.6066613768	0.0033450709
3209.5354687499	0.0032492585
3211.4642761229	0.0032015573
3213.3930834960	0.0032866148
3215.3218908690	0.0032237046
3217.2506982421	0.0032755681
3219.1795056151	0.0032601398
3221.1083129882	0.0032454068
3223.0371203612	0.0033133803
3224.9659277343	0.0032263817
3226.8947351073	0.0032766159
3228.8235424803	0.0033000647
3230.7523498534	0.0032924442
3232.6811572264	0.0032796510
3234.6099645995	0.0032270374
3236.5387719725	0.0033690443
3238.4675793456	0.0033618859
3240.3963867186	0.0032865950
3242.3251940917	0.0033309660
3244.2540014647	0.0033148909
3246.1828088378	0.0032983713
3248.1116162108	0.0032990598
3250.0404235839	0.0033250465
3251.9692309569	0.0033641448
3253.8980383300	0.0033057928
3255.8268457030	0.0032694712
3257.7556530760	0.0033764727
3259.6844604491	0.0033550677
3261.6132678221	0.0033439021
3263.5420751952	0.0033752504
3265.4708825682	0.0033268542
3267.3996899413	0.0033821487
3269.3284973143	0.0033109575
3271.2573046874	0.0032929403
3273.1861120604	0.0033529885
3275.1149194335	0.0033244551
3277.0437268065	0.0033502197
3278.9725341796	0.0033096233
3280.9013415526	0.0033433440
3282.8301489257	0.0033667758
3284.7589562987	0.0033578943
3286.6877636717	0.0033896682
3288.6165710448	0.0033465484
3290.5453784178	0.0033148108
3292.4741857909	0.0032699057
3294.4029931639	0.0033730150
3296.3318005370	0.0034396623
3298.2606079100	0.0033285178
3300.1894152831	0.0033767042
3302.1182226561	0.0033728115
3304.0470300292	0.0033575150
3305.9758374022	0.0034732469
3307.9046447753	0.0034007686
3309.8334521483	0.0033842027
3311.7622595214	0.0034471015
3313.6910668944	0.0033824381
3315.6198742675	0.0033843033
3317.5486816405	0.0034097312
3319.4774890135	0.0034864345
3321.4062963866	0.0034551993
3323.3351037596	0.0034098777
3325.2639111327	0.0034766649
3327.1927185057	0.0034203865
3329.1215258788	0.0034849951
3331.0503332518	0.0035191504
3332.9791406249	0.0034976411
3334.9079479979	0.0034677531
3336.8367553710	0.0034098155
3338.7655627440	0.0035346192
3340.6943701171	0.0034871222
3342.6231774901	0.0034335065
3344.5519848632	0.0034772102
3346.4807922362	0.0034578424
3348.4095996092	0.0035350427
3350.3384069823	0.0035604227
3352.2672143553	0.0035018106
3354.1960217284	0.0034676613
3356.1248291014	0.0035072337
3358.0536364745	0.0035057648
3359.9824438475	0.0035216694
3361.9112512206	0.0035217348
3363.8400585936	0.0034472339
3365.7688659667	0.0035148999
3367.6976733397	0.0035438901
3369.6264807128	0.0035389699
3371.5552880858	0.0035809192
3373.4840954589	0.0035763746
3375.4129028319	0.0035621764
3377.3417102049	0.0035406537
3379.2705175780	0.0035717480
3381.1993249510	0.0035952583
3383.1281323241	0.0035915964
3385.0569396971	0.0035966421
3386.9857470702	0.0035797725
3388.9145544432	0.0036234923
3390.8433618163	0.0036643017
3392.7721691893	0.0036908397
3394.7009765624	0.0037346850
3396.6297839354	0.0036619282
3398.5585913085	0.0036809160
3400.4873986815	0.0036482485
3402.4162060546	0.0035567102
3404.3450134276	0.0037231576
3406.2738208006	0.0037373914
3408.2026281737	0.0037315227
3410.1314355467	0.0037434441
3412.0602429198	0.0036847233
3413.9890502928	0.0037137868
3415.9178576659	0.0036570006
3417.8466650389	0.0037357532
3419.7754724120	0.0037681514
3421.7042797850	0.0037821839
3423.6330871581	0.0037891553
3425.5618945311	0.0037035830
3427.4907019042	0.0037284675
3429.4195092772	0.0037272354
3431.3483166503	0.0038169369
3433.2771240233	0.0037304256
3435.2059313963	0.0037551478
3437.1347387694	0.0038322830
3439.0635461424	0.0036862581
3440.9923535155	0.0038264685
3442.9211608885	0.0038376311
3444.8499682616	0.0038513313
3446.7787756346	0.0038535793
3448.7075830077	0.0038053815
3450.6363903807	0.0039198184
3452.5651977538	0.0038214251
3454.4940051268	0.0038293866
3456.4228124999	0.0038582243
3458.3516198729	0.0038331950
3460.2804272460	0.0038873167
3462.2092346190	0.0039091427
3464.1380419921	0.0038921298
3466.0668493651	0.0038990807
3467.9956567381	0.0039819735
3469.9244641112	0.0039367564
3471.8532714842	0.0039106430
3473.7820788573	0.0038583241
3475.7108862303	0.0039360696
3477.6396936034	0.0039978689
3479.5685009764	0.0038558948
3481.4973083495	0.0039295601
3483.4261157225	0.0038662143
3485.3549230956	0.0038882229
3487.2837304686	0.0039734137
3489.2125378417	0.0039189244
3491.1413452147	0.0040390915
3493.0701525878	0.0039888644
3494.9989599608	0.0039556986
3496.9277673338	0.0039699795
3498.8565747069	0.0040083486
3500.7853820799	0.0040896675
3502.7141894530	0.0039667813
3504.6429968260	0.0039760754
3506.5718041991	0.0039758780
3508.5006115721	0.0039663366
3510.4294189452	0.0040259915
3512.3582263182	0.0039625680
3514.2870336913	0.0040748101
3516.2158410643	0.0041138167
3518.1446484374	0.0040272726
3520.0734558104	0.0040291771
3522.0022631835	0.0039262916
3523.9310705565	0.0039022318
3525.8598779295	0.0039215167
3527.7886853026	0.0039855340
3529.7174926756	0.0040291604
3531.6463000487	0.0039810492
3533.5751074217	0.0041104206
3535.5039147948	0.0040481426
3537.4327221678	0.0039717918
3539.3615295409	0.0040686075
3541.2903369139	0.0040089241
3543.2191442870	0.0040284414
3545.1479516600	0.0039536050
3547.0767590331	0.0039053224
3549.0055664061	0.0040921732
3550.9343737792	0.0040651783
3552.8631811522	0.0039804913
3554.7919885252	0.0040240260
3556.7207958983	0.0039638504
3558.6496032713	0.0039382121
3560.5784106444	0.0040073623
3562.5072180174	0.0040145786
3564.4360253905	0.0040172455
3566.3648327635	0.0038605081
3568.2936401366	0.0037472951
3570.2224475096	0.0039791875
3572.1512548827	0.0040155412
3574.0800622557	0.0039099478
3576.0088696288	0.0040478176
3577.9376770018	0.0040912153
3579.8664843749	0.0040448643
3581.7952917479	0.0040069516
3583.7240991210	0.0039526783
3585.6529064940	0.0039191293
3587.5817138670	0.0037184481
3589.5105212401	0.0037420432
3591.4393286131	0.0039576571
3593.3681359862	0.0039055236
3595.2969433592	0.0038833455
3597.2257507323	0.0038743324
3599.1545581053	0.0038550543
3601.0833654784	0.0038762940
3603.0121728514	0.0039029424
3604.9409802245	0.0039807851
3606.8697875975	0.0038311235
3608.7985949706	0.0036355825
3610.7274023436	0.0037596729
3612.6562097167	0.0037910414
3614.5850170897	0.0037425270
3616.5138244627	0.0038991550
3618.4426318358	0.0036426196
3620.3714392088	0.0036377844
3622.3002465819	0.0039705457
3624.2290539549	0.0039068107
3626.1578613280	0.0039377906
3628.0866687010	0.0033704196
3630.0154760741	0.0032657757
3631.9442834471	0.0039067832
3633.8730908202	0.0037933141
3635.8018981932	0.0038318126
3637.7307055663	0.0038428067
3639.6595129393	0.0038505313
3641.5883203124	0.0039375937
3643.5171276854	0.0038373512
3645.4459350584	0.0038111191
3647.3747424315	0.0034954362
3649.3035498045	0.0032975785
3651.2323571776	0.0033695032
3653.1611645506	0.0038283274
3655.0899719237	0.0037177161
3657.0187792967	0.0034334231
3658.9475866698	0.0038413184
3660.8763940428	0.0037581832
3662.8052014159	0.0038802568
3664.7340087889	0.0037820751
3666.6628161620	0.0037159587
3668.5916235350	0.0036542995
3670.5204309081	0.0030215480
3672.4492382811	0.0035395911
3674.3780456541	0.0034341207
3676.3068530272	0.0030408618
3678.2356604002	0.0035942509
3680.1644677733	0.0035274406
3682.0932751463	0.0036380179
3684.0220825194	0.0038046234
3685.9508898924	0.0036246225
3687.8796972655	0.0032490562
3689.8085046385	0.0031208908
3691.7373120116	0.0034436663
3693.6661193846	0.0034654255
3695.5949267577	0.0035506701
3697.5237341307	0.0035043363
3699.4525415038	0.0034966839
3701.3813488768	0.0034431054
3703.3101562499	0.0033291716
3705.2389636229	0.0035159967
3707.1677709959	0.0033325511
3709.0965783690	0.0033984424
3711.0253857420	0.0031990327
3712.9541931151	0.0029954216
3714.8830004881	0.0034623276
3716.8118078612	0.0033357362
3718.7406152342	0.0033468199
3720.6694226073	0.0033392187
3722.5982299803	0.0032115171
3724.5270373534	0.0033118688
3726.4558447264	0.0031188582
3728.3846520995	0.0033081672
3730.3134594725	0.0032706163
3732.2422668456	0.0030329423
3734.1710742186	0.0030096420
3736.0998815916	0.0028433553
3738.0286889647	0.0028972151
3739.9574963377	0.0031870378
3741.8863037108	0.0033204833
3743.8151110838	0.0026496768
3745.7439184569	0.0025708484
3747.6727258299	0.0032036263
3749.6015332030	0.0028111623
3751.5303405760	0.0025855647
3753.4591479491	0.0029008805
3755.3879553221	0.0030773801
3757.3167626952	0.0031647580
3759.2455700682	0.0030212428
3761.1743774413	0.0031120938
3763.1031848143	0.0032318358
3765.0319921873	0.0030409284
3766.9607995604	0.0030633081
3768.8896069334	0.0030296552
3770.8184143065	0.0029030461
3772.7472216795	0.0030821506
3774.6760290526	0.0030765254
3776.6048364256	0.0030557215
3778.5336437987	0.0030688473
3780.4624511717	0.0029453810
3782.3912585448	0.0030040047
3784.3200659178	0.0029896661
3786.2488732909	0.0029445332
3788.1776806639	0.0030547411
3790.1064880370	0.0031346651
3792.0352954100	0.0030400991
3793.9641027830	0.0030448993
3795.8929101561	0.0028620725
3797.8217175291	0.0028205290
3799.7505249022	0.0029735276
3801.6793322752	0.0025071669
3803.6081396483	0.0028149514
3805.5369470213	0.0028721746
3807.4657543944	0.0024693510
3809.3945617674	0.0029999549
3811.3233691405	0.0029806443
3813.2521765135	0.0030261776
3815.1809838866	0.0026960052
3817.1097912596	0.0025167495
3819.0385986327	0.0029929245
3820.9674060057	0.0024379720
3822.8962133787	0.0026810355
3824.8250207518	0.0029957797
3826.7538281248	0.0026949984
3828.6826354979	0.0028765746
3830.6114428709	0.0027633025
3832.5402502440	0.0027611726
3834.4690576170	0.0027924273
3836.3978649901	0.0026418187
3838.3266723631	0.0024701804
3840.2554797362	0.0026098408
3842.1842871092	0.0027627917
3844.1130944823	0.0025546614
3846.0419018553	0.0026838030
3847.9707092284	0.0027425992
3849.8995166014	0.0027460768
3851.8283239745	0.0025278379
3853.7571313475	0.0020338898
3855.6859387205	0.0022894177
3857.6147460936	0.0027103536
3859.5435534666	0.0026667281
3861.4723608397	0.0026511620
3863.4011682127	0.0025606733
3865.3299755858	0.0024539358
3867.2587829588	0.0026506903
3869.1875903319	0.0024640611
3871.1163977049	0.0024066484
3873.0452050780	0.0026920266
3874.9740124510	0.0024614031
3876.9028198241	0.0027006730
3878.8316271971	0.0028224026
3880.7604345702	0.0023988353
3882.6892419432	0.0025929331
3884.6180493162	0.0024837237
3886.5468566893	0.0023551448
3888.4756640623	0.0026674764
3890.4044714354	0.0024371082
3892.3332788084	0.0023783939
3894.2620861815	0.0026165971
3896.1908935545	0.0026057209
3898.1197009276	0.0025808795
3900.0485083006	0.0024184869
3901.9773156737	0.0023457441
3903.9061230467	0.0023263295
3905.8349304198	0.0023843464
3907.7637377928	0.0026218593
3909.6925451659	0.0025336747
3911.6213525389	0.0024913256
3913.5501599119	0.0025629723
3915.4789672850	0.0025054831
3917.4077746580	0.0024961443
3919.3365820311	0.0024433748
3921.2653894041	0.0024764424
3923.1941967772	0.0024786368
3925.1230041502	0.0024221684
3927.0518115233	0.0024625659
3928.9806188963	0.0024904921
3930.9094262694	0.0024314560
3932.8382336424	0.0023761590
3934.7670410155	0.0024558073
3936.6958483885	0.0024465381
3938.6246557616	0.0024706232
3940.5534631346	0.0025226315
3942.4822705076	0.0024106172
3944.4110778807	0.0024615414
3946.3398852537	0.0024673506
3948.2686926268	0.0023673046
3950.1974999998	0.0024100875
3952.1263073729	0.0023875753
3954.0551147459	0.0023955947
3955.9839221190	0.0024466626
3957.9127294920	0.0023819106
3959.8415368651	0.0023704446
3961.7703442381	0.0023589460
3963.6991516112	0.0023307230
3965.6279589842	0.0024062558
3967.5567663573	0.0024239456
3969.4855737303	0.0024437932
3971.4143811034	0.0024224725
3973.3431884764	0.0022682832
3975.2719958494	0.0023453543
3977.2008032225	0.0024015456
3979.1296105955	0.0022717831
3981.0584179686	0.0023415976
3982.9872253416	0.0023360606
3984.9160327147	0.0023178002
3986.8448400877	0.0023856726
3988.7736474608	0.0022525105
3990.7024548338	0.0022955753
3992.6312622069	0.0023675216
3994.5600695799	0.0022664508
3996.4888769530	0.0023310552
3998.4176843260	0.0022987467
4000.3464916991	0.0022010072
4002.2752990721	0.0022733340
4004.2041064451	0.0023039570
4006.1329138182	0.0022693786
4008.0617211912	0.0022429829
4009.9905285643	0.0022073996
4011.9193359373	0.0022297441
4013.8481433104	0.0022784914
4015.7769506834	0.0022489114
4017.7057580565	0.0022997479
4019.6345654295	0.0022938605
4021.5633728026	0.0021953550
4023.4921801756	0.0022658780
4025.4209875487	0.0022186749
4027.3497949217	0.0021860250
4029.2786022948	0.0022328603
4031.2074096678	0.0021428152
4033.1362170408	0.0021966235
4035.0650244139	0.0022027371
4036.9938317869	0.0021819193
4038.9226391600	0.0022320691
4040.8514465330	0.0021698298
4042.7802539061	0.0022103968
4044.7090612791	0.0022039297
4046.6378686522	0.0020926450
4048.5666760252	0.0021570320
4050.4954833983	0.0022308235
4052.4242907713	0.0021459907
4054.3530981444	0.0021894858
4056.2819055174	0.0022320764
4058.2107128905	0.0021042761
4060.1395202635	0.0020944546
4062.0683276365	0.0020191392
4063.9971350096	0.0020149713
4065.9259423826	0.0021016118
4067.8547497557	0.0020821383
4069.7835571287	0.0021270718
4071.7123645018	0.0020372423
4073.6411718748	0.0020161029
4075.5699792479	0.0020413708
4077.4987866209	0.0020320730
4079.4275939940	0.0021002574
4081.3564013670	0.0020012073
4083.2852087401	0.0020033862
4085.2140161131	0.0020529411
4087.1428234862	0.0020524513
4089.0716308592	0.0021023648
4091.0004382323	0.0020895554
4092.9292456053	0.0020533316
4094.8580529783	0.0019828619
4096.7868603514	0.0020244606
4098.7156677244	0.0020286692
4100.6444750975	0.0019718339
4102.5732824705	0.0020781481
4104.5020898436	0.0020493972
4106.4308972166	0.0019323470
4108.3597045897	0.0020191215
4110.2885119627	0.0020157630
4112.2173193358	0.0019460083
4114.1461267088	0.0020280008
4116.0749340819	0.0020030686
4118.0037414549	0.0020217043
4119.9325488280	0.0020279444
4121.8613562010	0.0019326964
4123.7901635740	0.0019350857
4125.7189709471	0.0019113859
4127.6477783201	0.0019922394
4129.5765856932	0.0019711282
4131.5053930662	0.0019093489
4133.4342004393	0.0019307029
4135.3630078123	0.0018504171
4137.2918151854	0.0019525192
4139.2206225584	0.0019395751
4141.1494299315	0.0018664077
4143.0782373045	0.0019458424
4145.0070446776	0.0019250938
4146.9358520506	0.0019520624
4148.8646594237	0.0019176988
4150.7934667967	0.0018683879
4152.7222741697	0.0018823635
4154.6510815428	0.0018624010
4156.5798889158	0.0019063302
4158.5086962889	0.0019291835
4160.4375036619	0.0019682238
4162.3663110350	0.0019104755
4164.2951184080	0.0017882850
4166.2239257811	0.0018629048
4168.1527331541	0.0018199976
4170.0815405272	0.0017546199
4172.0103479002	0.0018666312
4173.9391552733	0.0019042548
4175.8679626463	0.0018522672
4177.7967700194	0.0017703567
4179.7255773924	0.0018567723
4181.6543847654	0.0018167384
4183.5831921385	0.0017158366
4185.5119995115	0.0018687148
4187.4408068846	0.0017537484
4189.3696142576	0.0017203216
4191.2984216307	0.0018258663
4193.2272290037	0.0017394398
4195.1560363768	0.0017968190
4197.0848437498	0.0018323131
4199.0136511229	0.0017923604
4200.9424584959	0.0017385178
4202.8712658690	0.0017654120
4204.8000732420	0.0018185381
4206.7288806151	0.0017771414
4208.6576879881	0.0017941226
4210.5864953611	0.0016943282
4212.5153027342	0.0016838883
4214.4441101072	0.0018505941
4216.3729174803	0.0018272463
4218.3017248533	0.0017607287
4220.2305322264	0.0017478194
4222.1593395994	0.0016741297
4224.0881469725	0.0017187436
4226.0169543455	0.0017583619
4227.9457617186	0.0016546020
4229.8745690916	0.0017021691
4231.8033764647	0.0017295068
4233.7321838377	0.0016800230
4235.6609912108	0.0016884877
4237.5897985838	0.0016947485
4239.5186059569	0.0017146349
4241.4474133299	0.0016408578
4243.3762207029	0.0016962371
4245.3050280760	0.0017386898
4247.2338354490	0.0016358912
4249.1626428221	0.0017035936
4251.0914501951	0.0016468782
4253.0202575682	0.0016102381
4254.9490649412	0.0017222886
4256.8778723143	0.0016150906
4258.8066796873	0.0016069603
4260.7354870604	0.0016763986
4262.6642944334	0.0016095167
4264.5931018065	0.0016510584
4266.5219091795	0.0016607234
4268.4507165526	0.0016319390
4270.3795239256	0.0016600406
4272.3083312986	0.0016338918
4274.2371386717	0.0016211611
4276.1659460447	0.0015796860
4278.0947534178	0.0015595764
4280.0235607908	0.0016378321
4281.9523681639	0.0016489574
4283.8811755369	0.0015950375
4285.8099829100	0.0015914373
4287.7387902830	0.0015654992
4289.6675976561	0.0015465085
4291.5964050291	0.0015772220
4293.5252124022	0.0015752888
4295.4540197752	0.0015596529
4297.3828271483	0.0015236228
4299.3116345213	0.0015719561
4301.2404418943	0.0015379963
4303.1692492674	0.0014717166
4305.0980566404	0.0015929842
4307.0268640135	0.0016003645
4308.9556713865	0.0016012613
4310.8844787596	0.0015671136
4312.8132861326	0.0015389821
4314.7420935057	0.0015400602
4316.6709008787	0.0014625712
4318.5997082518	0.0015881206
4320.5285156248	0.0015444229
4322.4573229979	0.0015151086
4324.3861303709	0.0015870028
4326.3149377440	0.0014597480
4328.2437451170	0.0015116285
4330.1725524900	0.0015070493
4332.1013598631	0.0015095007
4334.0301672361	0.0015796693
4335.9589746092	0.0014655960
4337.8877819822	0.0014838255
4339.8165893553	0.0015415193
4341.7453967283	0.0014715317
4343.6742041014	0.0014804460
4345.6030114744	0.0015570226
4347.5318188475	0.0015333121
4349.4606262205	0.0014577035
4351.3894335936	0.0014334226
4353.3182409666	0.0014392682
4355.2470483397	0.0014619580
4357.1758557127	0.0015139948
4359.1046630858	0.0015182702
4361.0334704588	0.0014880840
4362.9622778318	0.0015022419
4364.8910852049	0.0014966701
4366.8198925779	0.0014800114
4368.7486999510	0.0014518145
4370.6775073240	0.0014552110
4372.6063146971	0.0014978827
4374.5351220701	0.0015158972
4376.4639294432	0.0014375949
4378.3927368162	0.0013907959
4380.3215441893	0.0014243005
4382.2503515623	0.0013300182
4384.1791589354	0.0013863943
4386.1079663084	0.0014459738
4388.0367736815	0.0014458040
4389.9655810545	0.0014861580
4391.8943884275	0.0013863731
4393.8231958006	0.0014292570
4395.7520031736	0.0013614325
4397.6808105467	0.0013459323
4399.6096179197	0.0014064368
4401.5384252928	0.0013228392
4403.4672326658	0.0013893435
4405.3960400389	0.0013973336
4407.3248474119	0.0014573240
4409.2536547850	0.0014337903
4411.1824621580	0.0014343178
4413.1112695311	0.0014240800
4415.0400769041	0.0012725494
4416.9688842772	0.0013686800
4418.8976916502	0.0013656369
4420.8264990232	0.0013995103
4422.7553063963	0.0013906723
4424.6841137693	0.0013825060
4426.6129211424	0.0014066373
4428.5417285154	0.0012395515
4430.4705358885	0.0013545484
4432.3993432615	0.0013163616
4434.3281506346	0.0012523035
4436.2569580076	0.0013481271
4438.1857653807	0.0012918026
4440.1145727537	0.0012597864
4442.0433801268	0.0012611431
4443.9721874998	0.0013799886
4445.9009948729	0.0013336311
4447.8298022459	0.0013012509
4449.7586096189	0.0013053506
4451.6874169920	0.0012460685
4453.6162243650	0.0013771255
4455.5450317381	0.0013437122
4457.4738391111	0.0012664875
4459.4026464842	0.0012975119
4461.3314538572	0.0013036206
4463.2602612303	0.0012513737
4465.1890686033	0.0012110043
4467.1178759764	0.0012352976
4469.0466833494	0.0012507804
4470.9754907225	0.0012435227
4472.9042980955	0.0011831283
4474.8331054686	0.0012577910
4476.7619128416	0.0012625055
4478.6907202147	0.0012082055
4480.6195275877	0.0012563250
4482.5483349607	0.0012226510
4484.4771423338	0.0012440181
4486.4059497068	0.0012619767
4488.3347570799	0.0012163996
4490.2635644529	0.0011759356
4492.1923718260	0.0012529029
4494.1211791990	0.0012949039
4496.0499865721	0.0012070886
4497.9787939451	0.0012190328
4499.9076013182	0.0012294338
4501.8364086912	0.0012024133
4503.7652160643	0.0011298184
4505.6940234373	0.0011960838
4507.6228308104	0.0012806500
4509.5516381834	0.0012116041
4511.4804455564	0.0012349531
4513.4092529295	0.0012123614
4515.3380603025	0.0012066005
4517.2668676756	0.0011875820
4519.1956750486	0.0011590032
4521.1244824217	0.0012325764
4523.0532897947	0.0011963705
4524.9820971678	0.0011248055
4526.9109045408	0.0011442620
4528.8397119139	0.0012015291
4530.7685192869	0.0012071645
4532.6973266600	0.0012047156
4534.6261340330	0.0011633304
4536.5549414061	0.0011550593
4538.4837487791	0.0011922126
4540.4125561521	0.0011611857
4542.3413635252	0.0011594845
4544.2701708982	0.0011497905
4546.1989782713	0.0012113336
4548.1277856443	0.0011986090
4550.0565930174	0.0011315844
4551.9854003904	0.0011228512
4553.9142077635	0.0011053409
4555.8430151365	0.0012024844
4557.7718225096	0.0011501617
4559.7006298826	0.0011281648
4561.6294372557	0.0011642844
4563.5582446287	0.0010922768
4565.4870520018	0.0011411812
4567.4158593748	0.0011308538
4569.3446667478	0.0010841176
4571.2734741209	0.0010747504
4573.2022814939	0.0011422598
4575.1310888670	0.0011624284
4577.0598962400	0.0011180534
4578.9887036131	0.0011370226
4580.9175109861	0.0010487572
4582.8463183592	0.0010548385
4584.7751257322	0.0011028772
4586.7039331053	0.0010982666
4588.6327404783	0.0010825833
4590.5615478514	0.0010559866
4592.4903552244	0.0010995098
4594.4191625975	0.0010410773
4596.3479699705	0.0010577046
4598.2767773435	0.0011258940
4600.2055847166	0.0010391998
4602.1343920896	0.0010308275
4604.0631994627	0.0010931708
4605.9920068357	0.0010506352
4607.9208142088	0.0010388233
4609.8496215818	0.0010889233
4611.7784289549	0.0010667137
4613.7072363279	0.0010411753
4615.6360437010	0.0010618914
4617.5648510740	0.0011001031
4619.4936584471	0.0010278001
4621.4224658201	0.0010030252
4623.3512731932	0.0010722564
4625.2800805662	0.0010649046
4627.2088879393	0.0010400806
4629.1376953123	0.0009858015
4631.0665026853	0.0010403594
4632.9953100584	0.0009963086
4634.9241174314	0.0009722234
4636.8529248045	0.0010485105
4638.7817321775	0.0010212322
4640.7105395506	0.0011070084
4642.6393469236	0.0010028189
4644.5681542967	0.0009647399
4646.4969616697	0.0009677946
4648.4257690428	0.0008893421
4650.3545764158	0.0010134962
4652.2833837889	0.0009710789
4654.2121911619	0.0009976213
4656.1409985350	0.0010223459
4658.0698059080	0.0009882126
4659.9986132810	0.0009768608
4661.9274206541	0.0009694485
4663.8562280271	0.0010327236
4665.7850354002	0.0009197649
4667.7138427732	0.0009634052
4669.6426501463	0.0009877014
4671.5714575193	0.0009957883
4673.5002648924	0.0010256008
4675.4290722654	0.0009475155
4677.3578796385	0.0010287954
4679.2866870115	0.0009312435
4681.2154943846	0.0009142647
4683.1443017576	0.0010313387
4685.0731091307	0.0010041047
4687.0019165037	0.0009532599
4688.9307238767	0.0010129265
4690.8595312498	0.0010047180
4692.7883386228	0.0008486963
4694.7171459959	0.0009750282
4696.6459533689	0.0009667218
4698.5747607420	0.0009505094
4700.5035681150	0.0009753207
4702.4323754881	0.0008794949
4704.3611828611	0.0009705784
4706.2899902342	0.0008983254
4708.2187976072	0.0009684439
4710.1476049803	0.0009882812
4712.0764123533	0.0008806193
4714.0052197264	0.0009266867
4715.9340270994	0.0009246689
4717.8628344724	0.0009621776
4719.7916418455	0.0008988364
4721.7204492185	0.0010146837
4723.6492565916	0.0010136757
4725.5780639646	0.0008851038
4727.5068713377	0.0009344496
4729.4356787107	0.0008353679
4731.3644860838	0.0008847950
4733.2932934568	0.0009427773
4735.2221008299	0.0009207048
4737.1509082029	0.0009218572
4739.0797155760	0.0009025048
4741.0085229490	0.0008899822
4742.9373303221	0.0008980400
4744.8661376951	0.0009450807
4746.7949450682	0.0008861327
4748.7237524412	0.0008737130
4750.6525598142	0.0008357870
4752.5813671873	0.0009228543
4754.5101745603	0.0009707542
4756.4389819334	0.0008661225
4758.3677893064	0.0009147913
4760.2965966795	0.0007817623
4762.2254040525	0.0008060182
4764.1542114256	0.0008757485
4766.0830187986	0.0008282016
4768.0118261717	0.0009352083
4769.9406335447	0.0008440311
4771.8694409178	0.0008343029
4773.7982482908	0.0009018556
4775.7270556639	0.0008076505
4777.6558630369	0.0007797834
4779.5846704099	0.0008440238
4781.5134777830	0.0008067080
4783.4422851560	0.0008198206
4785.3710925291	0.0009768129
4787.2998999021	0.0008462833
4789.2287072752	0.0007416442
4791.1575146482	0.0008050762
4793.0863220213	0.0007818510
4795.0151293943	0.0008616635
4796.9439367674	0.0008525149
4798.8727441404	0.0007331209
4800.8015515135	0.0007648469
4802.7303588865	0.0008120625
4804.6591662596	0.0008209003
4806.5879736326	0.0008662440
4808.5167810056	0.0007986493
4810.4455883787	0.0007880646
4812.3743957517	0.0007963729
4814.3032031248	0.0007129491
4816.2320104978	0.0008058631
4818.1608178709	0.0007888821
4820.0896252439	0.0007777814
4822.0184326170	0.0008537915
4823.9472399900	0.0007743701
4825.8760473631	0.0007936705
4827.8048547361	0.0007572630
4829.7336621092	0.0007274401
4831.6624694822	0.0008414247
4833.5912768553	0.0008528135
4835.5200842283	0.0008061180
4837.4488916013	0.0008027749
4839.3776989744	0.0007564937
4841.3065063474	0.0007018463
4843.2353137205	0.0007959149
4845.1641210935	0.0008065727
4847.0929284666	0.0007687153
4849.0217358396	0.0007852063
4850.9505432127	0.0007443624
4852.8793505857	0.0007799916
4854.8081579588	0.0007789824
4856.7369653318	0.0007860692
4858.6657727049	0.0008237975
4860.5945800779	0.0008052043
4862.5233874510	0.0007796858
4864.4521948240	0.0007344233
4866.3810021971	0.0007588865
4868.3098095701	0.0007905777
4870.2386169431	0.0008341182
4872.1674243162	0.0008185444
4874.0962316892	0.0007501101
4876.0250390623	0.0006901833
4877.9538464353	0.0006669249
4879.8826538084	0.0007864245
4881.8114611814	0.0007132501
4883.7402685545	0.0006461560
4885.6690759275	0.0007263157
4887.5978833006	0.0007005006
4889.5266906736	0.0006872397
4891.4554980467	0.0006561995
4893.3843054197	0.0007440336
4895.3131127928	0.0007755334
4897.2419201658	0.0006867895
4899.1707275388	0.0007365079
4901.0995349119	0.0007601983
4903.0283422849	0.0007556914
4904.9571496580	0.0007822072
4906.8859570310	0.0007537012
4908.8147644041	0.0007068252
4910.7435717771	0.0007255141
4912.6723791502	0.0006509850
4914.6011865232	0.0007120514
4916.5299938963	0.0007993921
4918.4588012693	0.0006434745
4920.3876086424	0.0007038097
4922.3164160154	0.0006730612
4924.2452233885	0.0006705277
4926.1740307615	0.0007511778
4928.1028381345	0.0006523910
4930.0316455076	0.0007879182
4931.9604528806	0.0007399515
4933.8892602537	0.0006434770
4935.8180676267	0.0006672348
4937.7468749998	0.0006657114
4939.6756823728	0.0007517882
4941.6044897459	0.0006227086
4943.5332971189	0.0006398621
4945.4621044920	0.0007589452
4947.3909118650	0.0007238369
4949.3197192381	0.0006943354
4951.2485266111	0.0006569645
4953.1773339842	0.0006651452
4955.1061413572	0.0006410123
4957.0349487302	0.0006495833
4958.9637561033	0.0006713108
4960.8925634763	0.0006574783
4962.8213708494	0.0006276354
4964.7501782224	0.0006503416
4966.6789855955	0.0006646436
4968.6077929685	0.0005963798
4970.5366003416	0.0006566666
4972.4654077146	0.0006813200
4974.3942150877	0.0006596787
4976.3230224607	0.0006450517
4978.2518298338	0.0006263732
4980.1806372068	0.0006388437
4982.1094445799	0.0005658970
4984.0382519529	0.0005994832
4985.9670593259	0.0006488500
4987.8958666990	0.0006237086
4989.8246740720	0.0006439771
4991.7534814451	0.0006207330
4993.6822888181	0.0006075768
4995.6110961912	0.0006661951
4997.5399035642	0.0006945868
4999.4687109373	0.0006705554
5001.3975183103	0.0006521998
5003.3263256834	0.0006096137
5005.2551330564	0.0006231146
5007.1839404295	0.0006635546
5009.1127478025	0.0006900755
5011.0415551756	0.0006519367
5012.9703625486	0.0005732786
5014.8991699217	0.0006320179
5016.8279772947	0.0006402739
5018.7567846677	0.0006504508
5020.6855920408	0.0006219381
5022.6143994138	0.0005609394
5024.5432067869	0.0006080909
5026.4720141599	0.0005584189
5028.4008215330	0.0005692060
5030.3296289060	0.0005798447
5032.2584362791	0.0006305159
5034.1872436521	0.0006770480
5036.1160510252	0.0005714427
5038.0448583982	0.0006282371
5039.9736657713	0.0006377453
5041.9024731443	0.0005687631
5043.8312805174	0.0005532097
5045.7600878904	0.0005345531
5047.6888952634	0.0005347678
5049.6177026365	0.0005030307
5051.5465100095	0.0005095286
5053.4753173826	0.0005745050
5055.4041247556	0.0005820692
5057.3329321287	0.0004854432
5059.2617395017	0.0005717388
5061.1905468748	0.0006529156
5063.1193542478	0.0005535283
5065.0481616209	0.0005534996
5066.9769689939	0.0006049519
5068.9057763670	0.0006514262
5070.8345837400	0.0005610316
5072.7633911131	0.0005540176
5074.6921984861	0.0005896718
5076.6210058591	0.0005341751
5078.5498132322	0.0005845094
5080.4786206052	0.0005490698
5082.4074279783	0.0005570193
5084.3362353513	0.0005112116
5086.2650427244	0.0005582459
5088.1938500974	0.0006844623
5090.1226574705	0.0005479596
5092.0514648435	0.0005892724
5093.9802722166	0.0005924719
5095.9090795896	0.0004947423
5097.8378869627	0.0005153961
5099.7666943357	0.0005334618
5101.6955017088	0.0005472951
5103.6243090818	0.0005379540
5105.5531164548	0.0006043540
5107.4819238279	0.0005204256
5109.4107312009	0.0005025555
5111.3395385740	0.0005760657
5113.2683459470	0.0004931956
5115.1971533201	0.0005453902
5117.1259606931	0.0005299006
5119.0547680662	0.0004832667
5120.9835754392	0.0005359957
5122.9123828123	0.0005372023
5124.8411901853	0.0005510713
5126.7699975584	0.0005326259
5128.6988049314	0.0005588691
5130.6276123045	0.0006179027
5132.5564196775	0.0005536795
5134.4852270506	0.0005332435
5136.4140344236	0.0005624488
5138.3428417966	0.0005194504
5140.2716491697	0.0005549355
5142.2004565427	0.0005515561
5144.1292639158	0.0005544731
5146.0580712888	0.0005630720
5147.9868786619	0.0005018306
5149.9156860349	0.0005603753
5151.8444934080	0.0004811243
5153.7733007810	0.0004641335
5155.7021081541	0.0005374800
5157.6309155271	0.0004835209
5159.5597229002	0.0005409883
5161.4885302732	0.0005340581
5163.4173376463	0.0004862185
5165.3461450193	0.0004733859
5167.2749523923	0.0005200595
5169.2037597654	0.0005571082
5171.1325671384	0.0005263321
5173.0613745115	0.0005317242
5174.9901818845	0.0004844532
5176.9189892576	0.0005068140
5178.8477966306	0.0005254436
5180.7766040037	0.0005150930
5182.7054113767	0.0004903447
5184.6342187498	0.0005329187
5186.5630261228	0.0005448111
5188.4918334959	0.0004008894
5190.4206408689	0.0004905823
5192.3494482420	0.0005095982
5194.2782556150	0.0004803307
5196.2070629880	0.0005143951
5198.1358703611	0.0004680155
5200.0646777341	0.0005159885
5201.9934851072	0.0004699379
5203.9222924802	0.0004961391
5205.8510998533	0.0004905058
5207.7799072263	0.0004362896
5209.7087145994	0.0004758961
5211.6375219724	0.0004820185
5213.5663293455	0.0004991647
5215.4951367185	0.0004438475
5217.4239440916	0.0004864763
5219.3527514646	0.0004585130
5221.2815588377	0.0004443089
5223.2103662107	0.0004845575
5225.1391735837	0.0004061118
5227.0679809568	0.0004802539
5228.9967883298	0.0004484709
5230.9255957029	0.0004334830
5232.8544030759	0.0004584067
5234.7832104490	0.0004153579
5236.7120178220	0.0004705124
5238.6408251951	0.0004498531
5240.5696325681	0.0004541636
5242.4984399412	0.0004452289
5244.4272473142	0.0004655727
5246.3560546873	0.0004763058
5248.2848620603	0.0003986299
5250.2136694334	0.0004325896
5252.1424768064	0.0004668068
5254.0712841795	0.0004742768
5256.0000915525	0.0004532912
5257.9288989255	0.0004183353
5259.8577062986	0.0004295084
5261.7865136716	0.0004237221
5263.7153210447	0.0003976941
5265.6441284177	0.0004589412
5267.5729357908	0.0004908136
5269.5017431638	0.0003821654
5271.4305505369	0.0004178484
5273.3593579099	0.0004490535
5275.2881652830	0.0003927432
5277.2169726560	0.0004646541
5279.1457800291	0.0004943571
5281.0745874021	0.0004898949
5283.0033947752	0.0004550078
5284.9322021482	0.0003674332
5286.8610095212	0.0004429018
5288.7898168943	0.0005218373
5290.7186242673	0.0004425267
5292.6474316404	0.0004529788
5294.5762390134	0.0004576102
5296.5050463865	0.0003909040
5298.4338537595	0.0004410803
5300.3626611326	0.0004102500
5302.2914685056	0.0003539308
5304.2202758787	0.0004034067
5306.1490832517	0.0004111457
5308.0778906248	0.0004303115
5310.0066979978	0.0003722489
5311.9355053709	0.0002964264
5313.8643127439	0.0003668327
5315.7931201169	0.0004209738
5317.7219274900	0.0004451170
5319.6507348630	0.0003864202
5321.5795422361	0.0003532540
5323.5083496091	0.0004447492
5325.4371569822	0.0004153265
5327.3659643552	0.0004157068
5329.2947717283	0.0004318428
5331.2235791013	0.0004287672
5333.1523864744	0.0004808287
5335.0811938474	0.0004010869
5337.0100012205	0.0003445134
5338.9388085935	0.0003409044
5340.8676159666	0.0004092676
5342.7964233396	0.0004032491
5344.7252307126	0.0003179344
5346.6540380857	0.0004303748
5348.5828454587	0.0004225487
5350.5116528318	0.0004074501
5352.4404602048	0.0003745743
5354.3692675779	0.0003748186
5356.2980749509	0.0005223617
5358.2268823240	0.0003550502
5360.1556896970	0.0003505723
5362.0844970701	0.0004396027
5364.0133044431	0.0003774613
5365.9421118162	0.0004548990
5367.8709191892	0.0003761194
5369.7997265623	0.0003994332
5371.7285339353	0.0004252954
5373.6573413083	0.0003299844
5375.5861486814	0.0003721506
5377.5149560544	0.0003538520
5379.4437634275	0.0004014171
5381.3725708005	0.0003835163
5383.3013781736	0.0003292621
5385.2301855466	0.0004240599
5387.1589929197	0.0003836644
5389.0878002927	0.0003603188
5391.0166076658	0.0004124184
5392.9454150388	0.0003557174
5394.8742224119	0.0003658000
5396.8030297849	0.0004012454
5398.7318371580	0.0003475763
5400.6606445310	0.0003837429
5402.5894519041	0.0003410333
5404.5182592771	0.0003010514
5406.4470666501	0.0004145784
5408.3758740232	0.0003749040
5410.3046813962	0.0003414486
5412.2334887693	0.0003031791
5414.1622961423	0.0003053430
5416.0911035154	0.0004041602
5418.0199108884	0.0003607593
5419.9487182615	0.0003360033
5421.8775256345	0.0002958222
5423.8063330076	0.0003857584
5425.7351403806	0.0004645384
5427.6639477537	0.0003562082
5429.5927551267	0.0003321546
5431.5215624998	0.0003336533
5433.4503698728	0.0003912216
5435.3791772458	0.0003137960
5437.3079846189	0.0003067220
5439.2367919919	0.0003872861
5441.1655993650	0.0002566635
5443.0944067380	0.0002636669
5445.0232141111	0.0003225766
5446.9520214841	0.0003648413
5448.8808288572	0.0003608117
5450.8096362302	0.0003157203
5452.7384436033	0.0003266215
5454.6672509763	0.0003072548
5456.5960583494	0.0003080532
5458.5248657224	0.0003267091
5460.4536730955	0.0003679433
5462.3824804685	0.0002939685
5464.3112878415	0.0003275087
5466.2400952146	0.0004022429
5468.1689025876	0.0003623889
5470.0977099607	0.0003930013
5472.0265173337	0.0002873518
5473.9553247068	0.0002817985
5475.8841320798	0.0002982207
5477.8129394529	0.0003093884
5479.7417468259	0.0004208607
5481.6705541990	0.0003315827
5483.5993615720	0.0003234097
5485.5281689451	0.0003897595
5487.4569763181	0.0003509310
5489.3857836912	0.0003208080
5491.3145910642	0.0003508327
5493.2433984372	0.0003257738
5495.1722058103	0.0003037390
5497.1010131833	0.0003241209
5499.0298205564	0.0002799954
5500.9586279294	0.0003577286
5502.8874353025	0.0003546581
5504.8162426755	0.0003201437
5506.7450500486	0.0003418392
5508.6738574216	0.0003172009
5510.6026647947	0.0003682824
5512.5314721677	0.0003183781
5514.4602795408	0.0002673101
5516.3890869138	0.0002643196
5518.3178942869	0.0003264933
5520.2467016599	0.0003634070
5522.1755090330	0.0002831564
5524.1043164060	0.0003433175
5526.0331237790	0.0003348885
5527.9619311521	0.0002236119
5529.8907385251	0.0002589837
5531.8195458982	0.0003391536
5533.7483532712	0.0003179334
5535.6771606443	0.0003278186
5537.6059680173	0.0003503150
5539.5347753904	0.0003339941
5541.4635827634	0.0003708003
5543.3923901365	0.0003227743
5545.3211975095	0.0002838470
5547.2500048826	0.0002995261
5549.1788122556	0.0003063981
5551.1076196287	0.0002632215
5553.0364270017	0.0002570244
5554.9652343747	0.0003386359
5556.8940417478	0.0002675432
5558.8228491208	0.0002714352
5560.7516564939	0.0003419651
5562.6804638669	0.0003004933
5564.6092712400	0.0002885493
5566.5380786130	0.0002869848
5568.4668859861	0.0002933513
5570.3956933591	0.0003002098
5572.3245007322	0.0002911862
5574.2533081052	0.0002510147
5576.1821154783	0.0002625631
5578.1109228513	0.0002950298
5580.0397302244	0.0003096382
5581.9685375974	0.0003295178
5583.8973449704	0.0002893294
5585.8261523435	0.0002600746
5587.7549597165	0.0002671010
5589.6837670896	0.0002716604
5591.6125744626	0.0002484424
5593.5413818357	0.0002835150
5595.4701892087	0.0002988430
5597.3989965818	0.0003458066
5599.3278039548	0.0003628996
5601.2566113279	0.0002297499
5603.1854187009	0.0002953571
5605.1142260740	0.0002785682
5607.0430334470	0.0002708666
5608.9718408201	0.0003184539
5610.9006481931	0.0001716136
5612.8294555661	0.0002772095
5614.7582629392	0.0002757158
5616.6870703122	0.0002044653
5618.6158776853	0.0002873395
5620.5446850583	0.0002719840
5622.4734924314	0.0003230894
5624.4022998044	0.0002605708
5626.3311071775	0.0002102036
5628.2599145505	0.0002562254
5630.1887219236	0.0002269488
5632.1175292966	0.0002634086
5634.0463366697	0.0002968552
5635.9751440427	0.0002936025
5637.9039514158	0.0003116860
5639.8327587888	0.0002608697
5641.7615661619	0.0002191819
5643.6903735349	0.0002819991
5645.6191809079	0.0002499460
5647.5479882810	0.0002826450
5649.4767956540	0.0003656363
5651.4056030271	0.0002594656
5653.3344104001	0.0002397270
5655.2632177732	0.0002643301
5657.1920251462	0.0002927281
5659.1208325193	0.0003339896
5661.0496398923	0.0002278767
5662.9784472654	0.0001901601
5664.9072546384	0.0002705857
5666.8360620115	0.0002682942
5668.7648693845	0.0001895687
5670.6936767576	0.0002361936
5672.6224841306	0.0002982932
5674.5512915036	0.0002426056
5676.4800988767	0.0002798846
5678.4089062497	0.0003050584
5680.3377136228	0.0002502989
5682.2665209958	0.0002031999
5684.1953283689	0.0001906281
5686.1241357419	0.0002807296
5688.0529431150	0.0002761184
5689.9817504880	0.0002088284
5691.9105578611	0.0002441177
5693.8393652341	0.0002800862
5695.7681726072	0.0003035718
5697.6969799802	0.0002635383
5699.6257873533	0.0002296336
5701.5545947263	0.0002709577
5703.4834020993	0.0002335268
5705.4122094724	0.0002333056
5707.3410168454	0.0003043854
5709.2698242185	0.0002741145
5711.1986315915	0.0002581208
5713.1274389646	0.0002395696
5715.0562463376	0.0001836928
5716.9850537107	0.0002844948
5718.9138610837	0.0003246810
5720.8426684568	0.0002273663
5722.7714758298	0.0002738551
5724.7002832029	0.0002938836
5726.6290905759	0.0002321442
5728.5578979490	0.0002579981
5730.4867053220	0.0002092160
5732.4155126950	0.0001314867
5734.3443200681	0.0002230803
5736.2731274411	0.0002616812
5738.2019348142	0.0002354654
5740.1307421872	0.0003009267
5742.0595495603	0.0002703114
5743.9883569333	0.0002285131
5745.9171643064	0.0002372984
5747.8459716794	0.0002192495
5749.7747790525	0.0001992007
5751.7035864255	0.0001943367
5753.6323937986	0.0002641976
5755.5612011716	0.0002428902
5757.4900085447	0.0002229375
5759.4188159177	0.0002591903
5761.3476232907	0.0002665428
5763.2764306638	0.0002924105
5765.2052380368	0.0002214847
5767.1340454099	0.0002114630
5769.0628527829	0.0002497448
5770.9916601560	0.0002334825
5772.9204675290	0.0002114615
5774.8492749021	0.0002006051
5776.7780822751	0.0002705110
5778.7068896482	0.0002597640
5780.6356970212	0.0001894742
5782.5645043943	0.0002057348
5784.4933117673	0.0002747049
5786.4221191404	0.0002451173
5788.3509265134	0.0001895133
5790.2797338865	0.0002389592
5792.2085412595	0.0002422371
5794.1373486325	0.0002262278
5796.0661560056	0.0001744203
5797.9949633786	0.0001983118
5799.9237707517	0.0002766863
5801.8525781247	0.0002117681
5803.7813854978	0.0001850886
5805.7101928708	0.0001843165
5807.6390002439	0.0001940603
5809.5678076169	0.0002183254
5811.4966149900	0.0001970369
5813.4254223630	0.0001827398
5815.3542297361	0.0002233391
5817.2830371091	0.0002275829
5819.2118444822	0.0001253958
5821.1406518552	0.0002051160
5823.0694592282	0.0002324072
5824.9982666013	0.0001594565
5826.9270739743	0.0002755960
5828.8558813474	0.0002419624
5830.7846887204	0.0002312270
5832.7134960935	0.0002677637
5834.6423034665	0.0001786504
5836.5711108396	0.0002261448
5838.4999182126	0.0002419324
5840.4287255857	0.0002166971
5842.3575329587	0.0002327530
5844.2863403318	0.0002079601
5846.2151477048	0.0001802508
5848.1439550779	0.0001882608
5850.0727624509	0.0002247879
5852.0015698239	0.0002215295
5853.9303771970	0.0002039250
5855.8591845700	0.0001216900
5857.7879919431	0.0001727749
5859.7167993161	0.0002658365
5861.6456066892	0.0001542498
5863.5744140622	0.0002031209
5865.5032214353	0.0002033382
5867.4320288083	0.0001370548
5869.3608361814	0.0002160682
5871.2896435544	0.0001699878
5873.2184509275	0.0001750449
5875.1472583005	0.0002095108
5877.0760656736	0.0001836992
5879.0048730466	0.0001611391
5880.9336804196	0.0001656621
5882.8624877927	0.0002075889
5884.7912951657	0.0001396459
5886.7201025388	0.0002143084
5888.6489099118	0.0002783323
5890.5777172849	0.0001384554
5892.5065246579	0.0001868290
5894.4353320310	0.0002259695
5896.3641394040	0.0001367441
5898.2929467771	0.0001391035
5900.2217541501	0.0001879292
5902.1505615232	0.0002218006
5904.0793688962	0.0002285405
5906.0081762693	0.0002440652
5907.9369836423	0.0001885065
5909.8657910154	0.0001455688
5911.7945983884	0.0001576737
5913.7234057614	0.0001229304
5915.6522131345	0.0001540213
5917.5810205075	0.0001723418
5919.5098278806	0.0002012536
5921.4386352536	0.0002190549
5923.3674426267	0.0001760737
5925.2962499997	0.0002003406
5927.2250573728	0.0001930239
5929.1538647458	0.0001549103
5931.0826721189	0.0001338718
5933.0114794919	0.0002225031
5934.9402868650	0.0002121225
5936.8690942380	0.0000762970
5938.7979016111	0.0001454633
5940.7267089841	0.0001758655
5942.6555163571	0.0001814751
5944.5843237302	0.0001975438
5946.5131311032	0.0001659683
5948.4419384763	0.0002033380
5950.3707458493	0.0002030399
5952.2995532224	0.0001482963
5954.2283605954	0.0001126588
5956.1571679685	0.0001612058
5958.0859753415	0.0001444596
5960.0147827146	0.0001784649
5961.9435900876	0.0001896081
5963.8723974607	0.0001204441
5965.8012048337	0.0002265677
5967.7300122068	0.0002177284
5969.6588195798	0.0001708293
5971.5876269528	0.0001503268
5973.5164343259	0.0001488094
5975.4452416989	0.0001568181
5977.3740490720	0.0001474323
5979.3028564450	0.0002061456
5981.2316638181	0.0001155948
5983.1604711911	0.0001870916
5985.0892785642	0.0002000041
5987.0180859372	0.0001213666
5988.9468933103	0.0001689965
5990.8757006833	0.0000905127
5992.8045080564	0.0001975918
5994.7333154294	0.0001702371
5996.6621228025	0.0001030427
5998.5909301755	0.0001915918
6000.5197375485	0.0001813180
