399.2631262207	0.3778394461
401.1919335938	0.2355784774
403.1207409668	0.1239465028
405.0495483398	0.1472414285
406.9783557129	0.2571713030
408.9071630859	0.1421406567
410.8359704590	0.2680168152
412.7647778320	0.1509024948
414.6935852051	0.1012930423
416.6223925781	0.1874970198
418.5511999512	0.1098579317
420.4800073242	0.2426467091
422.4088146973	0.1958394200
424.3376220703	0.3576390147
426.2664294434	0.3370449245
428.1952368164	0.0923576504
430.1240441895	0.2874679267
432.0528515625	0.3378161788
433.9816589355	0.2502011359
435.9104663086	0.3995398581
437.8392736816	0.2247357965
439.7680810547	0.2383499295
441.6968884277	0.5636696219
443.6256958008	0.1661287099
445.5545031738	0.0883222371
447.4833105469	0.3083284199
449.4121179199	0.2369176000
451.3409252930	0.2251437008
453.2697326660	0.3457331061
455.1985400391	0.4011801481
457.1273474121	0.4719459116
459.0561547852	0.3333368003
460.9849621582	-0.2186942250
462.9137695313	0.2680860162
464.8425769043	0.3619997501
466.7713842773	-0.0081181340
468.7001916504	-0.0389302745
470.6289990234	0.3740443885
472.5578063965	0.4590651691
474.4866137695	0.1433766484
476.4154211426	0.9971359372
478.3442285156	1.2477915287
480.2730358887	0.3962547779
482.2018432617	0.3467864394
484.1306506348	0.0325133465
486.0594580078	0.3382362723
487.9882653809	0.0748039559
489.9170727539	0.0314203762
491.8458801270	-0.0780852363
493.7746875000	-0.3481025994
495.7034948730	0.3654307425
497.6323022461	2.1565454006
499.5611096191	1.0119595528
501.4899169922	-2.0384106636
503.4187243652	0.6972190142
505.3475317383	0.6115127206
507.2763391113	-0.0229688622
509.2051464844	-0.0712689385
511.1339538574	0.6833291054
513.0627612305	-1.4480676651
514.9915686035	-0.0686523691
516.9203759766	0.3656277359
518.8491833496	-2.9763228893
520.7779907227	1.3545833826
522.7067980957	8.4545631409
524.6356054688	0.5749208927
526.5644128418	0.8458052278
528.4932202148	2.0171017647
530.4220275879	-0.4777745306
532.3508349609	-0.3224080801
534.2796423340	-0.0414925292
536.2084497070	1.9061970711
538.1372570801	2.0461606979
540.0660644531	1.2822246552
541.9948718262	0.7203535438
543.9236791992	-16.2487907410
545.8524865723	-1.5936985016
547.7812939453	2.9055049419
549.7101013184	1.0423662663
551.6389086914	2.1334002018
553.5677160645	9.3142080307
555.4965234375	0.6114192605
557.4253308105	0.4326495528
559.3541381836	-1.2193266153
561.2829455566	-0.4264700711
563.2117529297	-0.2742635310
565.1405603027	16.1369590759
567.0693676758	1.7378658056
568.9981750488	8.6821613312
570.9269824219	0.3519535661
572.8557897949	0.0682229698
574.7845971680	2.1851882935
576.7134045410	3.7620310783
578.6422119141	2.7852618694
580.5710192871	-19.9667434692
582.4998266602	0.3814508617
584.4286340332	-0.0339011066
586.3574414063	-8.1738166809
588.2862487793	-0.9837674499
590.2150561523	0.9203298092
592.1438635254	0.8591887951
594.0726708984	3.2801229954
596.0014782715	-0.4825798571
597.9302856445	0.1285914928
599.8590930176	0.5795367956
601.7879003906	-0.0165435523
603.7167077637	-0.3401008248
605.6455151367	0.6732723713
607.5743225098	-0.0244204998
609.5031298828	-0.4888102412
611.4319372559	3.7548291683
613.3607446289	0.0774081722
615.2895520020	-0.4017929733
617.2183593750	-0.6500873566
619.1471667480	0.3272184134
621.0759741211	0.3961489201
623.0047814941	-0.0182646178
624.9335888672	-16.5164318085
626.8623962402	0.2526098490
628.7912036133	-0.6512697935
630.7200109863	1.1002906561
632.6488183594	0.4008973241
634.5776257324	0.6720581055
636.5064331055	0.4542576671
638.4352404785	0.2794412076
640.3640478516	0.4915158153
642.2928552246	0.4492575228
644.2216625977	0.3840406239
646.1504699707	0.3551138043
648.0792773438	0.3594842553
650.0080847168	0.3869979978
651.9368920898	0.3295449317
653.8656994629	0.3949931562
655.7945068359	0.4598731101
657.7233142090	0.3866894543
659.6521215820	0.3414865136
661.5809289551	0.4155107737
663.5097363281	0.4107577801
665.4385437012	0.3174644113
667.3673510742	0.3968578875
669.2961584473	0.3851336241
671.2249658203	0.3633478284
673.1537731934	0.4214251935
675.0825805664	0.4086300135
677.0113879395	0.4094476998
678.9401953125	0.2916025519
680.8690026855	0.2797510624
682.7978100586	0.3969745934
684.7266174316	0.3691717982
686.6554248047	0.4690026343
688.5842321777	0.4504518211
690.5130395508	0.3243612647
692.4418469238	0.3514408171
694.3706542969	0.3602389991
696.2994616699	0.3902660310
698.2282690430	0.3794012368
700.1570764160	0.3563865721
702.0858837891	0.3995928168
704.0146911621	0.4243260324
705.9434985352	0.4342372715
707.8723059082	0.4041810334
709.8011132813	0.3878596425
711.7299206543	0.4733187556
713.6587280273	0.3764184713
715.5875354004	0.5635371208
717.5163427734	1.7876534462
719.4451501465	0.3114708662
721.3739575195	0.4249114692
723.3027648926	3.9827790260
725.2315722656	0.4854785800
727.1603796387	0.8895952702
729.0891870117	1.0425672531
731.0179943848	-1.9799765348
732.9468017578	3.1627194881
734.8756091309	1.1712149382
736.8044165039	4.0935463905
738.7332238770	-0.1203962490
740.6620312500	0.9301310182
742.5908386230	7.7031745911
744.5196459961	-0.4791393578
746.4484533691	9.0236873627
748.3772607422	1.2168239355
750.3060681152	0.8888769746
752.2348754883	0.9809145927
754.1636828613	0.4451700747
756.0924902344	0.5304509401
758.0212976074	-1.4739006758
759.9501049805	-0.1024675369
761.8789123535	0.5112999678
763.8077197266	0.9187875390
765.7365270996	1.7379528284
767.6653344727	1.6772882938
769.5941418457	0.1040079519
771.5229492188	1.4170254469
773.4517565918	1.9024050236
775.3805639648	1.8483297825
777.3093713379	0.4155739844
779.2381787109	0.8970252872
781.1669860840	3.9359045029
783.0957934570	0.2540004551
785.0246008301	1.0654063225
786.9534082031	1.2841089964
788.8822155762	0.1237485409
790.8110229492	1.1244245768
792.7398303223	0.3037446737
794.6686376953	0.3314123750
796.5974450684	1.2230175734
798.5262524414	0.6275199056
800.4550598145	0.3657622933
802.3838671875	0.1752564907
804.3126745605	0.0848303139
806.2414819336	0.9323511720
808.1702893066	0.5107623339
810.0990966797	0.5210832357
812.0279040527	0.5342717767
813.9567114258	0.4599776566
815.8855187988	1.5012189150
817.8143261719	0.8778533936
819.7431335449	0.8432776928
821.6719409180	2.8371701241
823.6007482910	1.2895333767
825.5295556641	0.7910845876
827.4583630371	1.2160207033
829.3871704102	1.2990523577
831.3159777832	0.5594431162
833.2447851563	0.4365278780
835.1735925293	0.3417937458
837.1023999023	0.6175910830
839.0312072754	0.8749545217
840.9600146484	0.4459919930
842.8888220215	0.5166975856
844.8176293945	0.6303203702
846.7464367676	0.6445760131
848.6752441406	0.7706029415
850.6040515137	0.8065956831
852.5328588867	0.6614012718
854.4616662598	0.3571691811
856.3904736328	0.6714609265
858.3192810059	0.6594541073
860.2480883789	0.6816796064
862.1768957520	0.7522469163
864.1057031250	0.5311575532
866.0345104980	0.8947965503
867.9633178711	1.6466095448
869.8921252441	0.8960365653
871.8209326172	0.6916490793
873.7497399902	2.3805928230
875.6785473633	1.1554814577
877.6073547363	0.8701677322
879.5361621094	1.0814498663
881.4649694824	0.8544259667
883.3937768555	1.5788438320
885.3225842285	0.9358432293
887.2513916016	0.7467061281
889.1801989746	0.7722396851
891.1090063477	0.2458190024
893.0378137207	0.4373286963
894.9666210938	1.1928864717
896.8954284668	0.7722604275
898.8242358398	0.9658430219
900.7530432129	1.2043159008
902.6818505859	0.7808603048
904.6106579590	1.1166391373
906.5394653320	0.8970324993
908.4682727051	0.6964350939
910.3970800781	0.5369615555
912.3258874512	0.5931482315
914.2546948242	1.0008747578
916.1835021973	0.4898146987
918.1123095703	0.6016947031
920.0411169434	0.6024558544
921.9699243164	0.2834995091
923.8987316895	0.5989046097
925.8275390625	0.4872600734
927.7563464355	0.4316998422
929.6851538086	0.5691083670
931.6139611816	0.5347618461
933.5427685547	0.5173292756
935.4715759277	0.4344639778
937.4003833008	0.5875348449
939.3291906738	0.5935330391
941.2579980469	0.4406729639
943.1868054199	0.5331045389
945.1156127930	0.4995568991
947.0444201660	0.4422855377
948.9732275391	0.6449954510
950.9020349121	0.6018778086
952.8308422852	0.4493322372
954.7596496582	0.5279116631
956.6884570313	0.4777256250
958.6172644043	0.4442196786
960.5460717773	0.4560467601
962.4748791504	0.5324292183
964.4036865234	0.6142133474
966.3324938965	0.5790606141
968.2613012695	0.6328823566
970.1901086426	0.5224360228
972.1189160156	0.4125145972
974.0477233887	0.4171004295
975.9765307617	0.3968189359
977.9053381348	0.4403089285
979.8341455078	0.4822047949
981.7629528809	0.4912517965
983.6917602539	0.4609034657
985.6205676270	0.4445171654
987.5493750000	0.4213444293
989.4781823730	0.4048286080
991.4069897461	0.4277092218
993.3357971191	0.4088946581
995.2646044922	0.4035928547
997.1934118652	0.4012308121
999.1222192383	0.4004365504
1001.0510266113	0.4149680436
1002.9798339844	0.4050909579
1004.9086413574	0.3995972872
1006.8374487305	0.4004427791
1008.7662561035	0.3941961825
1010.6950634766	0.4022149742
1012.6238708496	0.4113838077
1014.5526782227	0.3984118104
1016.4814855957	0.3989118338
1018.4102929688	0.3897424638
1020.3391003418	0.3828863502
1022.2679077148	0.4014550447
1024.1967150879	0.3935742080
1026.1255224609	0.3989569843
1028.0543298340	0.3970635533
1029.9831372070	0.3908211887
1031.9119445801	0.4088982940
1033.8407519531	0.3963569403
1035.7695593262	0.3928626478
1037.6983666992	0.3849684894
1039.6271740723	0.3755511343
1041.5559814453	0.3847075999
1043.4847888184	0.3719029129
1045.4135961914	0.3812019229
1047.3424035645	0.3910363019
1049.2712109375	0.3838155270
1051.2000183105	0.3832183182
1053.1288256836	0.3835282028
1055.0576330566	0.4008415639
1056.9864404297	0.3926616311
1058.9152478027	0.3691922724
1060.8440551758	0.3738052249
1062.7728625488	0.3812623322
1064.7016699219	0.3876270652
1066.6304772949	0.3818145394
1068.5592846680	0.3784556687
1070.4880920410	0.3964873850
1072.4168994141	0.3879490197
1074.3457067871	0.3772406578
1076.2745141602	0.3933473527
1078.2033215332	0.4007928073
1080.1321289062	0.4025858939
1082.0609362793	0.3887029886
1083.9897436523	0.3913395405
1085.9185510254	0.3848288059
1087.8473583984	0.3823840022
1089.7761657715	0.4376884401
1091.7049731445	0.4191909730
1093.6337805176	0.3720381856
1095.5625878906	0.3823416233
1097.4913952637	0.4024412334
1099.4202026367	0.4077551067
1101.3490100098	0.3957042098
1103.2778173828	0.4071193635
1105.2066247559	0.3879201114
1107.1354321289	0.3795415163
1109.0642395019	0.4027371407
1110.9930468750	0.4086082876
1112.9218542480	0.4017165005
1114.8506616211	0.3967734277
1116.7794689941	0.4258519113
1118.7082763672	0.4263802469
1120.6370837402	0.4264295101
1122.5658911133	0.4246940613
1124.4946984863	0.4225589633
1126.4235058594	0.4438836277
1128.3523132324	0.4270709455
1130.2811206055	0.4072459936
1132.2099279785	0.3859005868
1134.1387353516	0.3991075158
1136.0675427246	0.4235774577
1137.9963500977	0.4148478508
1139.9251574707	0.3916306198
1141.8539648437	0.3795818985
1143.7827722168	0.4166473448
1145.7115795898	0.4162096381
1147.6403869629	0.3906303346
1149.5691943359	0.3909965158
1151.4980017090	0.3850130141
1153.4268090820	0.3991067708
1155.3556164551	0.3969622552
1157.2844238281	0.3744647801
1159.2132312012	0.3725070357
1161.1420385742	0.3804082572
1163.0708459473	0.3893740177
1164.9996533203	0.3883394897
1166.9284606934	0.3813150823
1168.8572680664	0.3750045598
1170.7860754394	0.3662201166
1172.7148828125	0.3719627559
1174.6436901855	0.3805610538
1176.5724975586	0.3677364290
1178.5013049316	0.3648326099
1180.4301123047	0.3772854805
1182.3589196777	0.3729371727
1184.2877270508	0.3592216671
1186.2165344238	0.3571353555
1188.1453417969	0.3628708124
1190.0741491699	0.3655017316
1192.0029565430	0.3618178666
1193.9317639160	0.3620883226
1195.8605712891	0.3663065135
1197.7893786621	0.3597929478
1199.7181860351	0.3601140380
1201.6469934082	0.3638945520
1203.5758007812	0.3564092219
1205.5046081543	0.3592692614
1207.4334155273	0.3622677326
1209.3622229004	0.3611122668
1211.2910302734	0.3647733331
1213.2198376465	0.3588850498
1215.1486450195	0.3563113511
1217.0774523926	0.3600994051
1219.0062597656	0.3586127758
1220.9350671387	0.3611332476
1222.8638745117	0.3585810065
1224.7926818848	0.3551599085
1226.7214892578	0.3610403240
1228.6502966308	0.3581570685
1230.5791040039	0.3542695940
1232.5079113769	0.3516280055
1234.4367187500	0.3498039544
1236.3655261230	0.3589347005
1238.2943334961	0.3588270843
1240.2231408691	0.3526668549
1242.1519482422	0.3547973335
1244.0807556152	0.3563174009
1246.0095629883	0.3543462157
1247.9383703613	0.3537417650
1249.8671777344	0.3548747599
1251.7959851074	0.3557692468
1253.7247924805	0.3568497896
1255.6535998535	0.3550325632
1257.5824072266	0.3540398777
1259.5112145996	0.3547075093
1261.4400219726	0.3558987379
1263.3688293457	0.3554781079
1265.2976367187	0.3553068340
1267.2264440918	0.3563858569
1269.1552514648	0.3541921675
1271.0840588379	0.3602150083
1273.0128662109	0.3579260111
1274.9416735840	0.3528845608
1276.8704809570	0.3593476415
1278.7992883301	0.3572903872
1280.7280957031	0.3583262563
1282.6569030762	0.3567907214
1284.5857104492	0.3569050431
1286.5145178223	0.3629922271
1288.4433251953	0.3596097529
1290.3721325683	0.3569328487
1292.3009399414	0.3585391939
1294.2297473144	0.3638994396
1296.1585546875	0.3600524366
1298.0873620605	0.3582046926
1300.0161694336	0.3591894209
1301.9449768066	0.3598587513
1303.8737841797	0.3679933548
1305.8025915527	0.3596462905
1307.7313989258	0.3560838699
1309.6602062988	0.3579284549
1311.5890136719	0.3535677195
1313.5178210449	0.3588805795
1315.4466284180	0.3579702079
1317.3754357910	0.3541667461
1319.3042431640	0.3552128971
1321.2330505371	0.3565138280
1323.1618579101	0.3564890623
1325.0906652832	0.3541596234
1327.0194726562	0.3535650074
1328.9482800293	0.3529209793
1330.8770874023	0.3554232717
1332.8058947754	0.3590528667
1334.7347021484	0.3544358909
1336.6635095215	0.3514831066
1338.5923168945	0.3544072509
1340.5211242676	0.3527674079
1342.4499316406	0.3513014913
1344.3787390137	0.3523455560
1346.3075463867	0.3535306454
1348.2363537597	0.3526927233
1350.1651611328	0.3520681560
1352.0939685058	0.3555063307
1354.0227758789	0.3519431651
1355.9515832519	0.3502790034
1357.8803906250	0.3507697582
1359.8091979980	0.3473989069
1361.7380053711	0.3556635380
1363.6668127441	0.3553938270
1365.5956201172	0.3493319452
1367.5244274902	0.3561173677
1369.4532348633	0.3555620015
1371.3820422363	0.3541134596
1373.3108496094	0.3541097939
1375.2396569824	0.3499522805
1377.1684643555	0.3509984016
1379.0972717285	0.3485578597
1381.0260791015	0.3499369621
1382.9548864746	0.3539616764
1384.8836938476	0.3536255062
1386.8125012207	0.3546668291
1388.7413085937	0.3517023921
1390.6701159668	0.3550770581
1392.5989233398	0.3561277986
1394.5277307129	0.3481566012
1396.4565380859	0.3506458700
1398.3853454590	0.3540879190
1400.3141528320	0.3510630429
1402.2429602051	0.3512666821
1404.1717675781	0.3546971381
1406.1005749512	0.3548949659
1408.0293823242	0.3539694548
1409.9581896972	0.3508837223
1411.8869970703	0.3514447212
1413.8158044433	0.3541597426
1415.7446118164	0.3487361670
1417.6734191894	0.3546485007
1419.6022265625	0.3564939201
1421.5310339355	0.3505542576
1423.4598413086	0.3584509790
1425.3886486816	0.3546704948
1427.3174560547	0.3528539836
1429.2462634277	0.3577513695
1431.1750708008	0.3539424539
1433.1038781738	0.3563947976
1435.0326855469	0.3590594530
1436.9614929199	0.3594480157
1438.8903002929	0.3612873852
1440.8191076660	0.3587937653
1442.7479150390	0.3561854959
1444.6767224121	0.3613291383
1446.6055297851	0.3612001538
1448.5343371582	0.3592485487
1450.4631445312	0.3652979136
1452.3919519043	0.3599825501
1454.3207592773	0.3550581038
1456.2495666504	0.3622198701
1458.1783740234	0.3581539989
1460.1071813965	0.3525827825
1462.0359887695	0.3556499779
1463.9647961426	0.3523055911
1465.8936035156	0.3500484824
1467.8224108886	0.3495920599
1469.7512182617	0.3495922983
1471.6800256347	0.3503812551
1473.6088330078	0.3423710167
1475.5376403808	0.3431574404
1477.4664477539	0.3420415819
1479.3952551269	0.3392759860
1481.3240625000	0.3435986042
1483.2528698730	0.3421842456
1485.1816772461	0.3419475257
1487.1104846191	0.3398770094
1489.0392919922	0.3406484425
1490.9680993652	0.3423052430
1492.8969067383	0.3379840255
1494.8257141113	0.3394042253
1496.7545214843	0.3362323940
1498.6833288574	0.3347527981
1500.6121362304	0.3370172679
1502.5409436035	0.3362745643
1504.4697509765	0.3385281265
1506.3985583496	0.3367826343
1508.3273657226	0.3343224525
1510.2561730957	0.3346254230
1512.1849804687	0.3326846063
1514.1137878418	0.3338638246
1516.0425952148	0.3353375793
1517.9714025879	0.3328776062
1519.9002099609	0.3320728838
1521.8290173340	0.3322650194
1523.7578247070	0.3306970298
1525.6866320801	0.3322362602
1527.6154394531	0.3319563866
1529.5442468261	0.3304593265
1531.4730541992	0.3331285119
1533.4018615722	0.3333780169
1535.3306689453	0.3302696943
1537.2594763183	0.3300518394
1539.1882836914	0.3302726150
1541.1170910644	0.3281921744
1543.0458984375	0.3295264840
1544.9747058105	0.3291463256
1546.9035131836	0.3280552924
1548.8323205566	0.3285028934
1550.7611279297	0.3268802762
1552.6899353027	0.3289171755
1554.6187426758	0.3275709450
1556.5475500488	0.3251180053
1558.4763574218	0.3285645843
1560.4051647949	0.3274036348
1562.3339721679	0.3256055713
1564.2627795410	0.3242449164
1566.1915869140	0.3243709207
1568.1203942871	0.3265949488
1570.0492016601	0.3263718486
1571.9780090332	0.3243548274
1573.9068164062	0.3237881958
1575.8356237793	0.3258956075
1577.7644311523	0.3246168494
1579.6932385254	0.3224289715
1581.6220458984	0.3225353956
1583.5508532715	0.3233751655
1585.4796606445	0.3230462670
1587.4084680175	0.3202644885
1589.3372753906	0.3209765255
1591.2660827636	0.3224537969
1593.1948901367	0.3217037618
1595.1236975097	0.3219117224
1597.0525048828	0.3203656375
1598.9813122558	0.3191490769
1600.9101196289	0.3201748729
1602.8389270019	0.3210999668
1604.7677343750	0.3207994103
1606.6965417480	0.3194422424
1608.6253491211	0.3196552396
1610.5541564941	0.3218269348
1612.4829638672	0.3220944405
1614.4117712402	0.3205939531
1616.3405786132	0.3206455708
1618.2693859863	0.3212868869
1620.1981933593	0.3231231570
1622.1270007324	0.3245678246
1624.0558081054	0.3241282701
1625.9846154785	0.3276041150
1627.9134228515	0.3292569220
1629.8422302246	0.3298998773
1631.7710375976	0.3338604271
1633.6998449707	0.3360813260
1635.6286523437	0.3395967185
1637.5574597168	0.3420539796
1639.4862670898	0.3429406583
1641.4150744629	0.3440319300
1643.3438818359	0.3485473990
1645.2726892090	0.3540442288
1647.2014965820	0.3540307581
1649.1303039550	0.3565142453
1651.0591113281	0.3608244061
1652.9879187011	0.3634799421
1654.9167260742	0.3630388677
1656.8455334472	0.3659942746
1658.7743408203	0.3708599508
1660.7031481933	0.3702075183
1662.6319555664	0.3709701002
1664.5607629394	0.3746278882
1666.4895703125	0.3762093782
1668.4183776855	0.3781625032
1670.3471850586	0.3790606558
1672.2759924316	0.3805837929
1674.2047998047	0.3821431100
1676.1336071777	0.3817459643
1678.0624145507	0.3860266507
1679.9912219238	0.3865163028
1681.9200292968	0.3828850389
1683.8488366699	0.3867387176
1685.7776440429	0.3866906464
1687.7064514160	0.3857065141
1689.6352587890	0.3876748085
1691.5640661621	0.3865759671
1693.4928735351	0.3869319856
1695.4216809082	0.3885322809
1697.3504882812	0.3876104057
1699.2792956543	0.3840194046
1701.2081030273	0.3837680519
1703.1369104004	0.3850693405
1705.0657177734	0.3836909831
1706.9945251464	0.3840182722
1708.9233325195	0.3825940788
1710.8521398925	0.3822616637
1712.7809472656	0.3829431832
1714.7097546386	0.3815673888
1716.6385620117	0.3798973262
1718.5673693847	0.3782418072
1720.4961767578	0.3794515431
1722.4249841308	0.3808023334
1724.3537915039	0.3779867291
1726.2825988769	0.3759638369
1728.2114062500	0.3772169948
1730.1402136230	0.3753556013
1732.0690209961	0.3746931255
1733.9978283691	0.3756294549
1735.9266357421	0.3716509044
1737.8554431152	0.3714137673
1739.7842504882	0.3720759153
1741.7130578613	0.3695246875
1743.6418652343	0.3700410724
1745.5706726074	0.3709929883
1747.4994799804	0.3688656986
1749.4282873535	0.3675557673
1751.3570947265	0.3670343161
1753.2859020996	0.3670637906
1755.2147094726	0.3664892018
1757.1435168457	0.3645721972
1759.0723242187	0.3660123050
1761.0011315918	0.3669051826
1762.9299389648	0.3653972745
1764.8587463379	0.3658904135
1766.7875537109	0.3651088178
1768.7163610839	0.3634193540
1770.6451684570	0.3638959825
1772.5739758300	0.3627504110
1774.5027832031	0.3618483543
1776.4315905761	0.3625146747
1778.3603979492	0.3630038798
1780.2892053222	0.3630220294
1782.2180126953	0.3604496121
1784.1468200683	0.3594828844
1786.0756274414	0.3596753478
1788.0044348144	0.3588631153
1789.9332421875	0.3599377275
1791.8620495605	0.3585163355
1793.7908569336	0.3564764857
1795.7196643066	0.3577190638
1797.6484716796	0.3587175906
1799.5772790527	0.3582894206
1801.5060864257	0.3575392365
1803.4348937988	0.3561952710
1805.3637011718	0.3561722338
1807.2925085449	0.3574398756
1809.2213159179	0.3539861441
1811.1501232910	0.3527994156
1813.0789306640	0.3549521863
1815.0077380371	0.3552878499
1816.9365454101	0.3565681279
1818.8653527832	0.3553139865
1820.7941601562	0.3544314802
1822.7229675293	0.3535029888
1824.6517749023	0.3531969488
1826.5805822753	0.3535538912
1828.5093896484	0.3518278897
1830.4381970214	0.3528298438
1832.3670043945	0.3517264426
1834.2958117675	0.3511474133
1836.2246191406	0.3516883552
1838.1534265136	0.3510873020
1840.0822338867	0.3525203466
1842.0110412597	0.3509029746
1843.9398486328	0.3502851725
1845.8686560058	0.3512053788
1847.7974633789	0.3494701684
1849.7262707519	0.3491605818
1851.6550781250	0.3503338993
1853.5838854980	0.3501938283
1855.5126928710	0.3493143916
1857.4415002441	0.3496811688
1859.3703076171	0.3504952788
1861.2991149902	0.3500075340
1863.2279223632	0.3485064209
1865.1567297363	0.3494753838
1867.0855371093	0.3494358063
1869.0143444824	0.3480965495
1870.9431518554	0.3482674360
1872.8719592285	0.3478355408
1874.8007666015	0.3492799401
1876.7295739746	0.3483116031
1878.6583813476	0.3474805057
1880.5871887207	0.3489443064
1882.5159960937	0.3476192653
1884.4448034667	0.3474100530
1886.3736108398	0.3486239016
1888.3024182128	0.3479450643
1890.2312255859	0.3455469906
1892.1600329589	0.3465831280
1894.0888403320	0.3462026715
1896.0176477050	0.3449738622
1897.9464550781	0.3460840881
1899.8752624511	0.3435306549
1901.8040698242	0.3446801901
1903.7328771972	0.3453248739
1905.6616845703	0.3436163664
1907.5904919433	0.3442734778
1909.5192993164	0.3438125849
1911.4481066894	0.3443893790
1913.3769140625	0.3428098559
1915.3057214355	0.3439312577
1917.2345288085	0.3457976580
1919.1633361816	0.3428436220
1921.0921435546	0.3431243002
1923.0209509277	0.3449518383
1924.9497583007	0.3443798721
1926.8785656738	0.3428880274
1928.8073730468	0.3444094360
1930.7361804199	0.3449171484
1932.6649877929	0.3433501422
1934.5937951660	0.3437110782
1936.5226025390	0.3431803286
1938.4514099121	0.3430714011
1940.3802172851	0.3429679275
1942.3090246582	0.3424406052
1944.2378320312	0.3419263363
1946.1666394042	0.3417419493
1948.0954467773	0.3422427475
1950.0242541503	0.3424640000
1951.9530615234	0.3432633281
1953.8818688964	0.3416570425
1955.8106762695	0.3406722844
1957.7394836425	0.3420942426
1959.6682910156	0.3419835865
1961.5970983886	0.3417092562
1963.5259057617	0.3403630555
1965.4547131347	0.3402796686
1967.3835205078	0.3419623673
1969.3123278808	0.3408378363
1971.2411352539	0.3414297402
1973.1699426269	0.3418458700
1975.0987499999	0.3393608332
1977.0275573730	0.3402651548
1978.9563647460	0.3401794136
1980.8851721191	0.3400124311
1982.8139794921	0.3418405652
1984.7427868652	0.3407847285
1986.6715942382	0.3404338360
1988.6004016113	0.3391594589
1990.5292089843	0.3377968371
1992.4580163574	0.3386990130
1994.3868237304	0.3389120400
1996.3156311035	0.3384482265
1998.2444384765	0.3377029300
2000.1732458496	0.3387385905
2002.1020532226	0.3393277526
2004.0308605956	0.3379056156
2005.9596679687	0.3377415836
2007.8884753417	0.3403295279
2009.8172827148	0.3396924138
2011.7460900878	0.3368270695
2013.6748974609	0.3382486403
2015.6037048339	0.3385112882
2017.5325122070	0.3388195336
2019.4613195800	0.3386847973
2021.3901269531	0.3381085992
2023.3189343261	0.3395636082
2025.2477416992	0.3386143744
2027.1765490722	0.3382012844
2029.1053564453	0.3376347721
2031.0341638183	0.3382295668
2032.9629711914	0.3388727903
2034.8917785644	0.3380713463
2036.8205859374	0.3383768499
2038.7493933105	0.3362241685
2040.6782006835	0.3365566134
2042.6070080566	0.3380333781
2044.5358154296	0.3368290067
2046.4646228027	0.3361336589
2048.3934301757	0.3362421393
2050.3222375488	0.3354662359
2052.2510449218	0.3350883126
2054.1798522949	0.3374581337
2056.1086596679	0.3362642229
2058.0374670410	0.3356223702
2059.9662744140	0.3372296989
2061.8950817871	0.3367474675
2063.8238891601	0.3377243876
2065.7526965331	0.3373615146
2067.6815039062	0.3369704485
2069.6103112792	0.3364935219
2071.5391186523	0.3354163468
2073.4679260253	0.3363613784
2075.3967333984	0.3373902142
2077.3255407714	0.3373583555
2079.2543481445	0.3363752067
2081.1831555175	0.3378857970
2083.1119628906	0.3385175765
2085.0407702636	0.3373498321
2086.9695776367	0.3376652300
2088.8983850097	0.3355936408
2090.8271923828	0.3355827928
2092.7559997558	0.3383926749
2094.6848071288	0.3378331661
2096.6136145019	0.3379565477
2098.5424218749	0.3381117284
2100.4712292480	0.3361065686
2102.4000366210	0.3359446824
2104.3288439941	0.3361397386
2106.2576513671	0.3370818198
2108.1864587402	0.3368037343
2110.1152661132	0.3352104127
2112.0440734863	0.3371197581
2113.9728808593	0.3373160362
2115.9016882324	0.3353032470
2117.8304956054	0.3354065716
2119.7593029785	0.3364691138
2121.6881103515	0.3357887864
2123.6169177245	0.3344753683
2125.5457250976	0.3347856402
2127.4745324706	0.3352293968
2129.4033398437	0.3360444903
2131.3321472167	0.3356164694
2133.2609545898	0.3361328542
2135.1897619628	0.3374731839
2137.1185693359	0.3361135125
2139.0473767089	0.3361982405
2140.9761840820	0.3365980685
2142.9049914550	0.3367674649
2144.8337988281	0.3372946382
2146.7626062011	0.3343715966
2148.6914135742	0.3328034282
2150.6202209472	0.3354493380
2152.5490283203	0.3359496295
2154.4778356933	0.3364882469
2156.4066430663	0.3373902142
2158.3354504394	0.3355800211
2160.2642578124	0.3363605440
2162.1930651855	0.3362118900
2164.1218725585	0.3353534937
2166.0506799316	0.3366736472
2167.9794873046	0.3356520534
2169.9082946777	0.3352316320
2171.8371020507	0.3359857798
2173.7659094238	0.3345634341
2175.6947167968	0.3337782919
2177.6235241699	0.3365488350
2179.5523315429	0.3356228769
2181.4811389160	0.3342389762
2183.4099462890	0.3359441459
2185.3387536620	0.3339036405
2187.2675610351	0.3349078298
2189.1963684081	0.3352668583
2191.1251757812	0.3342615962
2193.0539831542	0.3361518383
2194.9827905273	0.3357886374
2196.9115979003	0.3367059529
2198.8404052734	0.3362109065
2200.7692126464	0.3365694284
2202.6980200195	0.3372194767
2204.6268273925	0.3350865245
2206.5556347656	0.3360804915
2208.4844421386	0.3364294767
2210.4132495117	0.3365241289
2212.3420568847	0.3353587985
2214.2708642577	0.3336483836
2216.1996716308	0.3349592090
2218.1284790038	0.3352383077
2220.0572863769	0.3348265290
2221.9860937499	0.3326975703
2223.9149011230	0.3335113525
2225.8437084960	0.3355529308
2227.7725158691	0.3327393532
2229.7013232421	0.3348697722
2231.6301306152	0.3359607756
2233.5589379882	0.3331874609
2235.4877453613	0.3346596360
2237.4165527343	0.3318193853
2239.3453601074	0.3311355412
2241.2741674804	0.3348977864
2243.2029748534	0.3343123496
2245.1317822265	0.3348776400
2247.0605895995	0.3340003490
2248.9893969726	0.3341993392
2250.9182043456	0.3352109492
2252.8470117187	0.3322697580
2254.7758190917	0.3339647651
2256.7046264648	0.3355451226
2258.6334338378	0.3339879513
2260.5622412109	0.3330546916
2262.4910485839	0.3318177462
2264.4198559570	0.3324313462
2266.3486633300	0.3313664198
2268.2774707031	0.3312475681
2270.2062780761	0.3340461552
2272.1350854491	0.3343296945
2274.0638928222	0.3344207108
2275.9927001952	0.3344871700
2277.9215075683	0.3334991336
2279.8503149413	0.3316388130
2281.7791223144	0.3314797282
2283.7079296874	0.3335200846
2285.6367370605	0.3318279088
2287.5655444335	0.3304738402
2289.4943518066	0.3315156996
2291.4231591796	0.3316040635
2293.3519665527	0.3303415775
2295.2807739257	0.3294983506
2297.2095812988	0.3307217956
2299.1383886718	0.3312323689
2301.0671960449	0.3316752911
2302.9960034179	0.3291782141
2304.9248107909	0.3292081058
2306.8536181640	0.3324203193
2308.7824255370	0.3308364451
2310.7112329101	0.3310531676
2312.6400402831	0.3304635882
2314.5688476562	0.3300660551
2316.4976550292	0.3291666806
2318.4264624023	0.3284414113
2320.3552697753	0.3320350349
2322.2840771484	0.3289430141
2324.2128845214	0.3264378011
2326.1416918945	0.3276311457
2328.0704992675	0.3283759356
2329.9993066406	0.3273104429
2331.9281140136	0.3253769875
2333.8569213866	0.3264781535
2335.7857287597	0.3247337937
2337.7145361327	0.3265570402
2339.6433435058	0.3272328377
2341.5721508788	0.3253964484
2343.5009582519	0.3255473375
2345.4297656249	0.3254625797
2347.3585729980	0.3290824294
2349.2873803710	0.3280231357
2351.2161877441	0.3257889748
2353.1449951171	0.3253781199
2355.0738024902	0.3261106908
2357.0026098632	0.3275001645
2358.9314172363	0.3245466650
2360.8602246093	0.3250392675
2362.7890319823	0.3259761631
2364.7178393554	0.3251870871
2366.6466467284	0.3254326582
2368.5754541015	0.3268029392
2370.5042614745	0.3259255290
2372.4330688476	0.3256875575
2374.3618762206	0.3294287622
2376.2906835937	0.3268806040
2378.2194909667	0.3254634738
2380.1482983398	0.3269479275
2382.0771057128	0.3268764317
2384.0059130859	0.3290525377
2385.9347204589	0.3293060064
2387.8635278320	0.3280380070
2389.7923352050	0.3267807961
2391.7211425780	0.3273178339
2393.6499499511	0.3291610479
2395.5787573241	0.3287144303
2397.5075646972	0.3276744485
2399.4363720702	0.3271659017
2401.3651794433	0.3268846571
2403.2939868163	0.3285193145
2405.2227941894	0.3279135227
2407.1516015624	0.3254038095
2409.0804089355	0.3271100223
2411.0092163085	0.3274942338
2412.9380236816	0.3274571002
2414.8668310546	0.3270401657
2416.7956384277	0.3270417154
2418.7244458007	0.3286159337
2420.6532531738	0.3268841505
2422.5820605468	0.3283053041
2424.5108679198	0.3272662461
2426.4396752929	0.3262432516
2428.3684826659	0.3287835419
2430.2972900390	0.3263088465
2432.2260974120	0.3251332045
2434.1549047851	0.3259403110
2436.0837121581	0.3275850713
2438.0125195312	0.3262588382
2439.9413269042	0.3249076903
2441.8701342773	0.3268674016
2443.7989416503	0.3254261315
2445.7277490234	0.3264547884
2447.6565563964	0.3263487220
2449.5853637695	0.3240771890
2451.5141711425	0.3256037533
2453.4429785155	0.3258555830
2455.3717858886	0.3261183202
2457.3005932616	0.3267196715
2459.2294006347	0.3249921799
2461.1582080077	0.3247232735
2463.0870153808	0.3251964450
2465.0158227538	0.3248928785
2466.9446301269	0.3251641393
2468.8734374999	0.3243490458
2470.8022448730	0.3250049055
2472.7310522460	0.3252665401
2474.6598596191	0.3240582645
2476.5886669921	0.3241423965
2478.5174743652	0.3232794702
2480.4462817382	0.3238410354
2482.3750891112	0.3239341080
2484.3038964843	0.3228262365
2486.2327038573	0.3239353895
2488.1615112304	0.3253054619
2490.0903186034	0.3252075911
2492.0191259765	0.3240888715
2493.9479333495	0.3230269849
2495.8767407226	0.3240583539
2497.8055480956	0.3262781799
2499.7343554687	0.3252531290
2501.6631628417	0.3260825574
2503.5919702148	0.3262923658
2505.5207775878	0.3235246241
2507.4495849609	0.3245657086
2509.3783923339	0.3247555196
2511.3071997069	0.3242989182
2513.2360070800	0.3246562779
2515.1648144530	0.3242954016
2517.0936218261	0.3217271566
2519.0224291991	0.3222783506
2520.9512365722	0.3252377212
2522.8800439452	0.3221157789
2524.8088513183	0.3225623667
2526.7376586913	0.3233624995
2528.6664660644	0.3233711421
2530.5952734374	0.3240419626
2532.5240808105	0.3215633035
2534.4528881835	0.3232126534
2536.3816955566	0.3217592835
2538.3105029296	0.3211155236
2540.2393103027	0.3222070038
2542.1681176757	0.3210222125
2544.0969250487	0.3244079649
2546.0257324218	0.3238621652
2547.9545397948	0.3209049404
2549.8833471679	0.3203963041
2551.8121545409	0.3209097087
2553.7409619140	0.3214680851
2555.6697692870	0.3217509985
2557.5985766601	0.3228474557
2559.5273840331	0.3198874891
2561.4561914062	0.3194132447
2563.3849987792	0.3203698993
2565.3138061523	0.3181430995
2567.2426135253	0.3216667473
2569.1714208984	0.3221594095
2571.1002282714	0.3194975853
2573.0290356444	0.3228091896
2574.9578430175	0.3214277327
2576.8866503905	0.3186594844
2578.8154577636	0.3204896152
2580.7442651366	0.3211697340
2582.6730725097	0.3203569353
2584.6018798827	0.3192397356
2586.5306872558	0.3207029998
2588.4594946288	0.3208776116
2590.3883020019	0.3194280863
2592.3171093749	0.3202532530
2594.2459167480	0.3206272125
2596.1747241210	0.3197164536
2598.1035314941	0.3187340200
2600.0323388671	0.3197517693
2601.9611462401	0.3201147020
2603.8899536132	0.3190244436
2605.8187609862	0.3172429502
2607.7475683593	0.3173268437
2609.6763757323	0.3186948001
2611.6051831054	0.3169563115
2613.5339904784	0.3180469871
2615.4627978515	0.3191477358
2617.3916052245	0.3180987239
2619.3204125976	0.3181081712
2621.2492199706	0.3182762861
2623.1780273437	0.3180614710
2625.1068347167	0.3162330985
2627.0356420898	0.3168237805
2628.9644494628	0.3163744807
2630.8932568358	0.3151994646
2632.8220642089	0.3168246448
2634.7508715819	0.3178251684
2636.6796789550	0.3168143928
2638.6084863280	0.3151430190
2640.5372937011	0.3158499002
2642.4661010741	0.3151572645
2644.3949084472	0.3159296811
2646.3237158202	0.3170837760
2648.2525231933	0.3162442148
2650.1813305663	0.3166079521
2652.1101379394	0.3154132366
2654.0389453124	0.3173179626
2655.9677526855	0.3153159916
2657.8965600585	0.3121286035
2659.8253674315	0.3166766763
2661.7541748046	0.3148256242
2663.6829821776	0.3133785427
2665.6117895507	0.3175586760
2667.5405969237	0.3146050274
2669.4694042968	0.3136915863
2671.3982116698	0.3155064583
2673.3270190429	0.3135347366
2675.2558264159	0.3148050308
2677.1846337890	0.3127273023
2679.1134411620	0.3122611940
2681.0422485351	0.3145281076
2682.9710559081	0.3139083385
2684.8998632812	0.3167498112
2686.8286706542	0.3132286370
2688.7574780273	0.3132337630
2690.6862854003	0.3155205250
2692.6150927733	0.3129094541
2694.5439001464	0.3148818612
2696.4727075194	0.3117666245
2698.4015148925	0.3127678633
2700.3303222655	0.3143646717
2702.2591296386	0.3116717935
2704.1879370116	0.3120721579
2706.1167443847	0.3109500408
2708.0455517577	0.3136439621
2709.9743591308	0.3131517172
2711.9031665038	0.3133734465
2713.8319738769	0.3143182695
2715.7607812499	0.3090447485
2717.6895886230	0.3095914721
2719.6183959960	0.3128456175
2721.5472033690	0.3116845787
2723.4760107421	0.3101955652
2725.4048181151	0.3106746078
2727.3336254882	0.3088514507
2729.2624328612	0.3099305630
2731.1912402343	0.3116326630
2733.1200476073	0.3088045418
2735.0488549804	0.3079116344
2736.9776623534	0.3087958097
2738.9064697265	0.3119331598
2740.8352770995	0.3098375499
2742.7640844726	0.3074064851
2744.6928918456	0.3093917072
2746.6216992187	0.3088838458
2748.5505065917	0.3101874888
2750.4793139647	0.3101359010
2752.4081213378	0.3088668585
2754.3369287108	0.3093056381
2756.2657360839	0.3089042604
2758.1945434569	0.3065967262
2760.1233508300	0.3080384731
2762.0521582030	0.3094544411
2763.9809655761	0.3077001870
2765.9097729491	0.3075619042
2767.8385803222	0.3054479957
2769.7673876952	0.3081931770
2771.6961950683	0.3071244359
2773.6250024413	0.3069742620
2775.5538098144	0.3091009259
2777.4826171874	0.3023072779
2779.4114245604	0.3081175387
2781.3402319335	0.3096597195
2783.2690393065	0.3046309650
2785.1978466796	0.3069953918
2787.1266540526	0.3049110472
2789.0554614257	0.3060503900
2790.9842687987	0.3049620688
2792.9130761718	0.3038079143
2794.8418835448	0.3062366545
2796.7706909179	0.3061487377
2798.6994982909	0.3060323000
2800.6283056640	0.3045311272
2802.5571130370	0.3043443263
2804.4859204101	0.3060365617
2806.4147277831	0.3049116731
2808.3435351562	0.3026473522
2810.2723425292	0.3030266762
2812.2011499022	0.3027101159
2814.1299572753	0.3054884076
2816.0587646483	0.3031018674
2817.9875720214	0.3006019294
2819.9163793944	0.3065581620
2821.8451867675	0.3038260639
2823.7739941405	0.3038610816
2825.7028015136	0.3044521511
2827.6316088866	0.3033740222
2829.5604162597	0.3028144538
2831.4892236327	0.2990695238
2833.4180310058	0.3031803071
2835.3468383788	0.3014367521
2837.2756457519	0.3009583354
2839.2044531249	0.3037886322
2841.1332604979	0.3006143868
2843.0620678710	0.2977667451
2844.9908752440	0.3015198708
2846.9196826171	0.3050555289
2848.8484899901	0.2950043678
2850.7772973632	0.2980934680
2852.7061047362	0.3009522557
2854.6349121093	0.2972097099
2856.5637194823	0.3004437387
2858.4925268554	0.2972264886
2860.4213342284	0.3005363047
2862.3501416015	0.2976298034
2864.2789489745	0.2967803478
2866.2077563476	0.2994929552
2868.1365637206	0.2959792614
2870.0653710936	0.2999445200
2871.9941784667	0.2981810868
2873.9229858397	0.2990293503
2875.8517932128	0.2971587181
2877.7806005858	0.2940873802
2879.7094079589	0.2965306938
2881.6382153319	0.2965881228
2883.5670227050	0.2993386686
2885.4958300780	0.2965414524
2887.4246374511	0.2975609004
2889.3534448241	0.2973125577
2891.2822521972	0.2948768735
2893.2110595702	0.2959189713
2895.1398669433	0.2950114906
2897.0686743163	0.2972708344
2898.9974816893	0.2953541577
2900.9262890624	0.2974901199
2902.8550964354	0.2950975299
2904.7839038085	0.2896563709
2906.7127111815	0.2935444713
2908.6415185546	0.2921392024
2910.5703259276	0.2931733429
2912.4991333007	0.2930871248
2914.4279406737	0.2906903923
2916.3567480468	0.2903297842
2918.2855554198	0.2885343134
2920.2143627929	0.2904497385
2922.1431701659	0.2878779471
2924.0719775390	0.2886607945
2926.0007849120	0.2934883833
2927.9295922851	0.2901948690
2929.8583996581	0.2900714874
2931.7872070311	0.2926745415
2933.7160144042	0.2932388783
2935.6448217772	0.2923404276
2937.5736291503	0.2894894779
2939.5024365233	0.2917847633
2941.4312438964	0.2911484241
2943.3600512694	0.2884054780
2945.2888586425	0.2892011404
2947.2176660155	0.2877337635
2949.1464733886	0.2894110978
2951.0752807616	0.2877569497
2953.0040881347	0.2871152759
2954.9328955077	0.2895786166
2956.8617028808	0.2868139744
2958.7905102538	0.2873822153
2960.7193176268	0.2869395912
2962.6481249999	0.2877059579
2964.5769323729	0.2886065543
2966.5057397460	0.2884653807
2968.4345471190	0.2899243534
2970.3633544921	0.2872356772
2972.2921618651	0.2872914970
2974.2209692382	0.2872602046
2976.1497766112	0.2879010439
2978.0785839843	0.2859728336
2980.0073913573	0.2818365097
2981.9361987304	0.2839596868
2983.8650061034	0.2856379747
2985.7938134765	0.2869697511
2987.7226208495	0.2855547071
2989.6514282225	0.2860458493
2991.5802355956	0.2869065702
2993.5090429686	0.2845840454
2995.4378503417	0.2828929722
2997.3666577147	0.2806138098
2999.2954650878	0.2811861038
3001.2242724608	0.2794046104
3003.1530798339	0.2814580798
3005.0818872069	0.2810989320
3007.0106945800	0.2796570063
3008.9395019530	0.2837147713
3010.8683093261	0.2794462442
3012.7971166991	0.2813802063
3014.7259240722	0.2809227109
3016.6547314452	0.2786332965
3018.5835388182	0.2828437388
3020.5123461913	0.2788450718
3022.4411535643	0.2791030109
3024.3699609374	0.2798730731
3026.2987683104	0.2810262740
3028.2275756835	0.2813204229
3030.1563830565	0.2752577960
3032.0851904296	0.2754985988
3034.0139978026	0.2768658102
3035.9428051757	0.2760116458
3037.8716125487	0.2762014866
3039.8004199218	0.2773297727
3041.7292272948	0.2778663039
3043.6580346679	0.2796057165
3045.5868420409	0.2768396139
3047.5156494139	0.2751507461
3049.4444567870	0.2804989517
3051.3732641600	0.2773844600
3053.3020715331	0.2751390040
3055.2308789061	0.2755379677
3057.1596862792	0.2738847136
3059.0884936522	0.2734667361
3061.0173010253	0.2761379182
3062.9461083983	0.2778874934
3064.8749157714	0.2710442245
3066.8037231444	0.2726934850
3068.7325305175	0.2741816640
3070.6613378905	0.2724776864
3072.5901452636	0.2721167505
3074.5189526366	0.2702315450
3076.4477600097	0.2764138281
3078.3765673827	0.2725649774
3080.3053747557	0.2691190243
3082.2341821288	0.2716358006
3084.1629895018	0.2684765458
3086.0917968749	0.2689744234
3088.0206042479	0.2694929242
3089.9494116210	0.2685692608
3091.8782189940	0.2693247795
3093.8070263671	0.2748965025
3095.7358337401	0.2710981965
3097.6646411132	0.2686098814
3099.5934484862	0.2732310891
3101.5222558593	0.2671235204
3103.4510632323	0.2672455013
3105.3798706054	0.2679826617
3107.3086779784	0.2667971253
3109.2374853514	0.2687812746
3111.1662927245	0.2700664401
3113.0951000975	0.2707613707
3115.0239074706	0.2658726871
3116.9527148436	0.2658885419
3118.8815222167	0.2668832839
3120.8103295897	0.2686649859
3122.7391369628	0.2710296214
3124.6679443358	0.2679821253
3126.5967517089	0.2660428286
3128.5255590819	0.2637103200
3130.4543664550	0.2642394602
3132.3831738280	0.2686492205
3134.3119812011	0.2694221437
3136.2407885741	0.2640485764
3138.1695959471	0.2641907930
3140.0984033202	0.2685651183
3142.0272106932	0.2686278224
3143.9560180663	0.2655573487
3145.8848254393	0.2636335790
3147.8136328124	0.2689114809
3149.7424401854	0.2687927485
3151.6712475585	0.2661807835
3153.6000549315	0.2652199268
3155.5288623046	0.2663312256
3157.4576696776	0.2703574598
3159.3864770507	0.2656508684
3161.3152844237	0.2640432119
3163.2440917968	0.2665608227
3165.1728991698	0.2705893517
3167.1017065428	0.2711004615
3169.0305139159	0.2658531070
3170.9593212889	0.2668991387
3172.8881286620	0.2666749060
3174.8169360350	0.2664794028
3176.7457434081	0.2654443681
3178.6745507811	0.2656677365
3180.6033581542	0.2687696517
3182.5321655272	0.2684908211
3184.4609729003	0.2701371908
3186.3897802733	0.2685744166
3188.3185876464	0.2689331770
3190.2473950194	0.2737263143
3192.1762023925	0.2727854550
3194.1050097655	0.2702789605
3196.0338171386	0.2697803080
3197.9626245116	0.2712157369
3199.8914318846	0.2744500935
3201.8202392577	0.2722432017
3203.7490466307	0.2706657946
3205.6778540038	0.2741858065
3207.6066613768	0.2712702751
3209.5354687499	0.2694078684
3211.4642761229	0.2720852196
3213.3930834960	0.2757906020
3215.3218908690	0.2762300968
3217.2506982421	0.2759284079
3219.1795056151	0.2803382576
3221.1083129882	0.2752670646
3223.0371203612	0.2759862542
3224.9659277343	0.2814939320
3226.8947351073	0.2776560485
3228.8235424803	0.2790031135
3230.7523498534	0.2805655003
3232.6811572264	0.2822268605
3234.6099645995	0.2841100395
3236.5387719725	0.2839859724
3238.4675793456	0.2833689451
3240.3963867186	0.2819415927
3242.3251940917	0.2853638530
3244.2540014647	0.2881037295
3246.1828088378	0.2878824770
3248.1116162108	0.2868959308
3250.0404235839	0.2881544232
3251.9692309569	0.2920740545
3253.8980383300	0.2927500904
3255.8268457030	0.2921460271
3257.7556530760	0.2938525379
3259.6844604491	0.2950947285
3261.6132678221	0.2932486534
3263.5420751952	0.2931284010
3265.4708825682	0.2965403795
3267.3996899413	0.2973055542
3269.3284973143	0.2970997095
3271.2573046874	0.2952352762
3273.1861120604	0.2907155454
3275.1149194335	0.2978013158
3277.0437268065	0.3003539443
3278.9725341796	0.2950662673
3280.9013415526	0.2991815209
3282.8301489257	0.2974999547
3284.7589562987	0.3023059964
3286.6877636717	0.3036940098
3288.6165710448	0.2966987789
3290.5453784178	0.3040208817
3292.4741857909	0.3046508133
3294.4029931639	0.3031039834
3296.3318005370	0.3043123782
3298.2606079100	0.3071756959
3300.1894152831	0.3094925284
3302.1182226561	0.3061326444
3304.0470300292	0.3097557724
3305.9758374022	0.3099929094
3307.9046447753	0.3130331039
3309.8334521483	0.3131183684
3311.7622595214	0.3116498590
3313.6910668944	0.3175427318
3315.6198742675	0.3118171394
3317.5486816405	0.3149700463
3319.4774890135	0.3201777637
3321.4062963866	0.3140197098
3323.3351037596	0.3172880709
3325.2639111327	0.3213847876
3327.1927185057	0.3187797964
3329.1215258788	0.3168582916
3331.0503332518	0.3204563558
3332.9791406249	0.3257471025
3334.9079479979	0.3259355426
3336.8367553710	0.3244053721
3338.7655627440	0.3249045610
3340.6943701171	0.3237529099
3342.6231774901	0.3274777234
3344.5519848632	0.3302094340
3346.4807922362	0.3274016380
3348.4095996092	0.3338043988
3350.3384069823	0.3301548660
3352.2672143553	0.3266222775
3354.1960217284	0.3355181217
3356.1248291014	0.3332757652
3358.0536364745	0.3341104090
3359.9824438475	0.3364120722
3361.9112512206	0.3379155993
3363.8400585936	0.3415152729
3365.7688659667	0.3407678604
3367.6976733397	0.3466548324
3369.6264807128	0.3512751162
3371.5552880858	0.3504576683
3373.4840954589	0.3473157883
3375.4129028319	0.3487209380
3377.3417102049	0.3515311480
3379.2705175780	0.3513398767
3381.1993249510	0.3562874198
3383.1281323241	0.3549463451
3385.0569396971	0.3558253944
3386.9857470702	0.3595021367
3388.9145544432	0.3593262136
3390.8433618163	0.3631179333
3392.7721691893	0.3651978970
3394.7009765624	0.3682483137
3396.6297839354	0.3707109392
3398.5585913085	0.3701944947
3400.4873986815	0.3677585423
3402.4162060546	0.3753414154
3404.3450134276	0.3819875717
3406.2738208006	0.3771763742
3408.2026281737	0.3840842247
3410.1314355467	0.3854724765
3412.0602429198	0.3835693598
3413.9890502928	0.3867411315
3415.9178576659	0.3873617649
3417.8466650389	0.3920286894
3419.7754724120	0.3920911551
3421.7042797850	0.3925450146
3423.6330871581	0.3945512176
3425.5618945311	0.3976996839
3427.4907019042	0.3966414034
3429.4195092772	0.4016315341
3431.3483166503	0.4093646109
3433.2771240233	0.4025768340
3435.2059313963	0.4066876173
3437.1347387694	0.4108006954
3439.0635461424	0.4148324728
3440.9923535155	0.4168124497
3442.9211608885	0.4133987725
3444.8499682616	0.4205756783
3446.7787756346	0.4177532196
3448.7075830077	0.4177230895
3450.6363903807	0.4218420088
3452.5651977538	0.4267148972
3454.4940051268	0.4292837381
3456.4228124999	0.4234982729
3458.3516198729	0.4250872731
3460.2804272460	0.4301104546
3462.2092346190	0.4404781759
3464.1380419921	0.4374881983
3466.0668493651	0.4343559444
3467.9956567381	0.4393408298
3469.9244641112	0.4375741482
3471.8532714842	0.4429759383
3473.7820788573	0.4425514638
3475.7108862303	0.4439946711
3477.6396936034	0.4452958405
3479.5685009764	0.4440147877
3481.4973083495	0.4496796429
3483.4261157225	0.4532600343
3485.3549230956	0.4556718767
3487.2837304686	0.4554176927
3489.2125378417	0.4594634473
3491.1413452147	0.4592289031
3493.0701525878	0.4569450021
3494.9989599608	0.4592013359
3496.9277673338	0.4635373056
3498.8565747069	0.4649314880
3500.7853820799	0.4614001215
3502.7141894530	0.4696819484
3504.6429968260	0.4705783725
3506.5718041991	0.4689584076
3508.5006115721	0.4708918929
3510.4294189452	0.4689667225
3512.3582263182	0.4748323858
3514.2870336913	0.4721689820
3516.2158410643	0.4733732641
3518.1446484374	0.4793469012
3520.0734558104	0.4788652062
3522.0022631835	0.4835064113
3523.9310705565	0.4810029268
3525.8598779295	0.4755654335
3527.7886853026	0.4793020487
3529.7174926756	0.4806051254
3531.6463000487	0.4807261825
3533.5751074217	0.4848532081
3535.5039147948	0.4865109324
3537.4327221678	0.4886161685
3539.3615295409	0.4884418249
3541.2903369139	0.4911114872
3543.2191442870	0.4925796390
3545.1479516600	0.4886682034
3547.0767590331	0.4938243926
3549.0055664061	0.4922275543
3550.9343737792	0.4915256202
3552.8631811522	0.4956923127
3554.7919885252	0.4926612079
3556.7207958983	0.4967101216
3558.6496032713	0.4997962415
3560.5784106444	0.4988460541
3562.5072180174	0.5016036034
3564.4360253905	0.4998590052
3566.3648327635	0.4972700179
3568.2936401366	0.5008085370
3570.2224475096	0.5016151667
3572.1512548827	0.5038973093
3574.0800622557	0.5041946173
3576.0088696288	0.5018851757
3577.9376770018	0.5042267442
3579.8664843749	0.5032303929
3581.7952917479	0.5056381822
3583.7240991210	0.5035730600
3585.6529064940	0.5065727830
3587.5817138670	0.5081198812
3589.5105212401	0.4991145134
3591.4393286131	0.5068975687
3593.3681359862	0.5036650896
3595.2969433592	0.5044696331
3597.2257507323	0.5115501881
3599.1545581053	0.5040030479
3601.0833654784	0.5084537268
3603.0121728514	0.5080859065
3604.9409802245	0.5011851192
3606.8697875975	0.5054880381
3608.7985949706	0.5105810761
3610.7274023436	0.5038775802
3612.6562097167	0.5018681884
3614.5850170897	0.5025708675
3616.5138244627	0.5038674474
3618.4426318358	0.5107493401
3620.3714392088	0.5065168142
3622.3002465819	0.5102115273
3624.2290539549	0.5103633404
3626.1578613280	0.5100358725
3628.0866687010	0.5164671540
3630.0154760741	0.5085380673
3631.9442834471	0.5127689242
3633.8730908202	0.5132014155
3635.8018981932	0.5097909570
3637.7307055663	0.5111922622
3639.6595129393	0.5120088458
3641.5883203124	0.5150282383
3643.5171276854	0.5133178830
3645.4459350584	0.5147399902
3647.3747424315	0.5133158565
3649.3035498045	0.5152277946
3651.2323571776	0.5155040026
3653.1611645506	0.5128655434
3655.0899719237	0.5145952106
3657.0187792967	0.5131103992
3658.9475866698	0.5138207078
3660.8763940428	0.5134164691
3662.8052014159	0.5175760388
3664.7340087889	0.5168325305
3666.6628161620	0.5132081509
3668.5916235350	0.5138359070
3670.5204309081	0.5105437636
3672.4492382811	0.5108692646
3674.3780456541	0.5105553269
3676.3068530272	0.5069630146
3678.2356604002	0.5019193292
3680.1644677733	0.5078054667
3682.0932751463	0.5068424344
3684.0220825194	0.4971428514
3685.9508898924	0.5030835271
3687.8796972655	0.5031972528
3689.8085046385	0.4943407774
3691.7373120116	0.4876002669
3693.6661193846	0.4957374036
3695.5949267577	0.4972278476
3697.5237341307	0.4849263430
3699.4525415038	0.4925619662
3701.3813488768	0.4871541858
3703.3101562499	0.4765725732
3705.2389636229	0.4823445976
3707.1677709959	0.4810492694
3709.0965783690	0.4781774580
3711.0253857420	0.4768540263
3712.9541931151	0.4747008681
3714.8830004881	0.4697444737
3716.8118078612	0.4701960385
3718.7406152342	0.4713685513
3720.6694226073	0.4655856192
3722.5982299803	0.4662570059
3724.5270373534	0.4654436111
3726.4558447264	0.4612494409
3728.3846520995	0.4650261998
3730.3134594725	0.4593478441
3732.2422668456	0.4521499574
3734.1710742186	0.4586654305
3736.0998815916	0.4516780674
3738.0286889647	0.4477744401
3739.9574963377	0.4485265017
3741.8863037108	0.4426264763
3743.8151110838	0.4446561038
3745.7439184569	0.4367290437
3747.6727258299	0.4395628870
3749.6015332030	0.4511112571
3751.5303405760	0.4423214793
3753.4591479491	0.4365514815
3755.3879553221	0.4351579249
3757.3167626952	0.4351737499
3759.2455700682	0.4366825819
3761.1743774413	0.4326941967
3763.1031848143	0.4336469173
3765.0319921873	0.4307389557
3766.9607995604	0.4290459156
3768.8896069334	0.4334663451
3770.8184143065	0.4275241494
3772.7472216795	0.4234046936
3774.6760290526	0.4218007624
3776.6048364256	0.4223441482
3778.5336437987	0.4268637598
3780.4624511717	0.4201468229
3782.3912585448	0.4178181291
3784.3200659178	0.4245906472
3786.2488732909	0.4260325730
3788.1776806639	0.4215689301
3790.1064880370	0.4185597003
3792.0352954100	0.4182282686
3793.9641027830	0.4161354899
3795.8929101561	0.4183548391
3797.8217175291	0.4204059243
3799.7505249022	0.4148845375
3801.6793322752	0.4078618884
3803.6081396483	0.4109711647
3805.5369470213	0.4116709232
3807.4657543944	0.4063995779
3809.3945617674	0.4103783965
3811.3233691405	0.4090715647
3813.2521765135	0.4086294770
3815.1809838866	0.4091777205
3817.1097912596	0.4033303559
3819.0385986327	0.4078399241
3820.9674060057	0.4064946175
3822.8962133787	0.4037746489
3824.8250207518	0.4052933156
3826.7538281248	0.4009522200
3828.6826354979	0.4019582868
3830.6114428709	0.4011245668
3832.5402502440	0.3966754675
3834.4690576170	0.3990281522
3836.3978649901	0.4033955336
3838.3266723631	0.3997302353
3840.2554797362	0.3980287910
3842.1842871092	0.4053133726
3844.1130944823	0.4036571980
3846.0419018553	0.3972620070
3847.9707092284	0.3955458999
3849.8995166014	0.3975639045
3851.8283239745	0.4025171101
3853.7571313475	0.3914926648
3855.6859387205	0.3887830377
3857.6147460936	0.3997229338
3859.5435534666	0.3957782090
3861.4723608397	0.3961033225
3863.4011682127	0.3988061845
3865.3299755858	0.3957118094
3867.2587829588	0.3969727159
3869.1875903319	0.3947919011
3871.1163977049	0.3972141147
3873.0452050780	0.3966891170
3874.9740124510	0.3930393755
3876.9028198241	0.3917706311
3878.8316271971	0.3896400034
3880.7604345702	0.3949030042
3882.6892419432	0.3945685625
3884.6180493162	0.3916021585
3886.5468566893	0.3909324408
3888.4756640623	0.3938479125
3890.4044714354	0.3999528885
3892.3332788084	0.3868413866
3894.2620861815	0.3849357069
3896.1908935545	0.3935589194
3898.1197009276	0.3877452016
3900.0485083006	0.3942783475
3901.9773156737	0.3931354880
3903.9061230467	0.3801823854
3905.8349304198	0.3834870160
3907.7637377928	0.3851212561
3909.6925451659	0.3907814324
3911.6213525389	0.3956783116
3913.5501599119	0.3895080388
3915.4789672850	0.3910759091
3917.4077746580	0.3901576996
3919.3365820311	0.3852962852
3921.2653894041	0.3893288076
3923.1941967772	0.3895695508
3925.1230041502	0.3874333203
3927.0518115233	0.3903202415
3928.9806188963	0.3886228800
3930.9094262694	0.3841608465
3932.8382336424	0.3839468956
3934.7670410155	0.3871627152
3936.6958483885	0.3862545490
3938.6246557616	0.3830072284
3940.5534631346	0.3818691373
3942.4822705076	0.3817463815
3944.4110778807	0.3875091076
3946.3398852537	0.3814570606
3948.2686926268	0.3765144050
3950.1974999998	0.3835241199
3952.1263073729	0.3810949624
3954.0551147459	0.3829331994
3955.9839221190	0.3787660599
3957.9127294920	0.3799350560
3959.8415368651	0.3855541646
3961.7703442381	0.3763204217
3963.6991516112	0.3807248473
3965.6279589842	0.3820919991
3967.5567663573	0.3819901049
3969.4855737303	0.3809119165
3971.4143811034	0.3774510920
3973.3431884764	0.3855394721
3975.2719958494	0.3783193529
3977.2008032225	0.3770924509
3979.1296105955	0.3807274997
3981.0584179686	0.3765837252
3982.9872253416	0.3793579638
3984.9160327147	0.3748422563
3986.8448400877	0.3749310672
3988.7736474608	0.3854137361
3990.7024548338	0.3850691319
3992.6312622069	0.3768956661
3994.5600695799	0.3798149526
3996.4888769530	0.3831568956
3998.4176843260	0.3796295524
4000.3464916991	0.3733085990
4002.2752990721	0.3729792833
4004.2041064451	0.3821287453
4006.1329138182	0.3763952553
4008.0617211912	0.3755969703
4009.9905285643	0.3813366890
4011.9193359373	0.3768980801
4013.8481433104	0.3747360408
4015.7769506834	0.3734503984
4017.7057580565	0.3793735802
4019.6345654295	0.3758907914
4021.5633728026	0.3683203459
4023.4921801756	0.3776755333
4025.4209875487	0.3798171282
4027.3497949217	0.3692437410
4029.2786022948	0.3732258379
4031.2074096678	0.3811901808
4033.1362170408	0.3722077608
4035.0650244139	0.3726720810
4036.9938317869	0.3732896447
4038.9226391600	0.3716204464
4040.8514465330	0.3787147701
4042.7802539061	0.3813456297
4044.7090612791	0.3815037012
4046.6378686522	0.3728628457
4048.5666760252	0.3727698028
4050.4954833983	0.3747842014
4052.4242907713	0.3713866770
4054.3530981444	0.3743829727
4056.2819055174	0.3735150695
4058.2107128905	0.3749366701
4060.1395202635	0.3724159598
4062.0683276365	0.3730058670
4063.9971350096	0.3729255497
4065.9259423826	0.3712274730
4067.8547497557	0.3781322837
4069.7835571287	0.3750101924
4071.7123645018	0.3715682626
4073.6411718748	0.3678651452
4075.5699792479	0.3666748703
4077.4987866209	0.3720632493
4079.4275939940	0.3717696369
4081.3564013670	0.3758749366
4083.2852087401	0.3859680593
4085.2140161131	0.3828086555
4087.1428234862	0.3675266802
4089.0716308592	0.3719258308
4091.0004382323	0.3724735379
4092.9292456053	0.3601964116
4094.8580529783	0.3687971234
4096.7868603514	0.3712878227
4098.7156677244	0.3648736477
4100.6444750975	0.3684785068
4102.5732824705	0.3669907749
4104.5020898436	0.3676442206
4106.4308972166	0.3736323118
4108.3597045897	0.3703544736
4110.2885119627	0.3693926632
4112.2173193358	0.3702847660
4114.1461267088	0.3674949110
4116.0749340819	0.3693995476
4118.0037414549	0.3702059984
4119.9325488280	0.3742902577
4121.8613562010	0.3720053434
4123.7901635740	0.3664640188
4125.7189709471	0.3726652861
4127.6477783201	0.3727992177
4129.5765856932	0.3695363402
4131.5053930662	0.3749200702
4133.4342004393	0.3725085258
4135.3630078123	0.3631736338
4137.2918151854	0.3714890480
4139.2206225584	0.3726410866
4141.1494299315	0.3708526194
4143.0782373045	0.3753540218
4145.0070446776	0.3625815511
4146.9358520506	0.3659806848
4148.8646594237	0.3605183065
4150.7934667967	0.3582638800
4152.7222741697	0.3762753010
4154.6510815428	0.3622549176
4156.5798889158	0.3595547974
4158.5086962889	0.3667423427
4160.4375036619	0.3644306958
4162.3663110350	0.3671161830
4164.2951184080	0.3637496829
4166.2239257811	0.3656830192
4168.1527331541	0.3700166047
4170.0815405272	0.3714942038
4172.0103479002	0.3641672134
4173.9391552733	0.3628527820
4175.8679626463	0.3632541895
4177.7967700194	0.3581696153
4179.7255773924	0.3613816500
4181.6543847654	0.3541076481
4183.5831921385	0.3573396504
4185.5119995115	0.3694670200
4187.4408068846	0.3679489493
4189.3696142576	0.3655630052
4191.2984216307	0.3588693440
4193.2272290037	0.3535312712
4195.1560363768	0.3556908369
4197.0848437498	0.3610241711
4199.0136511229	0.3616186976
4200.9424584959	0.3597013950
4202.8712658690	0.3599123061
4204.8000732420	0.3622903228
4206.7288806151	0.3597475886
4208.6576879881	0.3543042839
4210.5864953611	0.3656474948
4212.5153027342	0.3646241128
4214.4441101072	0.3537204266
4216.3729174803	0.3610658050
4218.3017248533	0.3607473671
4220.2305322264	0.3600337505
4222.1593395994	0.3584777415
4224.0881469725	0.3551163077
4226.0169543455	0.3662031591
4227.9457617186	0.3647001386
4229.8745690916	0.3604203165
4231.8033764647	0.3598290980
4233.7321838377	0.3591327667
4235.6609912108	0.3713198602
4237.5897985838	0.3637832105
4239.5186059569	0.3526239097
4241.4474133299	0.3561471701
4243.3762207029	0.3610492051
4245.3050280760	0.3715255558
4247.2338354490	0.3623173237
4249.1626428221	0.3520960808
4251.0914501951	0.3632711172
4253.0202575682	0.3687526882
4254.9490649412	0.3575249016
4256.8778723143	0.3567496538
4258.8066796873	0.3666441441
4260.7354870604	0.3606087863
4262.6642944334	0.3654399216
4264.5931018065	0.3653019667
4266.5219091795	0.3558104038
4268.4507165526	0.3563601971
4270.3795239256	0.3519220650
4272.3083312986	0.3599607050
4274.2371386717	0.3604549766
4276.1659460447	0.3543624878
4278.0947534178	0.3533889651
4280.0235607908	0.3498046100
4281.9523681639	0.3570462763
4283.8811755369	0.3582577705
4285.8099829100	0.3537732363
4287.7387902830	0.3493292630
4289.6675976561	0.3545490801
4291.5964050291	0.3596588969
4293.5252124022	0.3526277244
4295.4540197752	0.3523339927
4297.3828271483	0.3531829715
4299.3116345213	0.3605862856
4301.2404418943	0.3585547805
4303.1692492674	0.3540592492
4305.0980566404	0.3599058092
4307.0268640135	0.3514784276
4308.9556713865	0.3518283665
4310.8844787596	0.3569466472
4312.8132861326	0.3554143608
4314.7420935057	0.3561017215
4316.6709008787	0.3524973094
4318.5997082518	0.3574723005
4320.5285156248	0.3593588471
4322.4573229979	0.3576792479
4324.3861303709	0.3697200418
4326.3149377440	0.3676720858
4328.2437451170	0.3548952937
4330.1725524900	0.3565124869
4332.1013598631	0.3562121093
4334.0301672361	0.3555557132
4335.9589746092	0.3578883111
4337.8877819822	0.3625400364
4339.8165893553	0.3678123355
4341.7453967283	0.3562943935
4343.6742041014	0.3521175385
4345.6030114744	0.3590361178
4347.5318188475	0.3559193909
4349.4606262205	0.3554578722
4351.3894335936	0.3544568419
4353.3182409666	0.3543020785
4355.2470483397	0.3540768921
4357.1758557127	0.3515980840
4359.1046630858	0.3596530855
4361.0334704588	0.3640547693
4362.9622778318	0.3637807965
4364.8910852049	0.3512071967
4366.8198925779	0.3464806974
4368.7486999510	0.3689959943
4370.6775073240	0.3618753254
4372.6063146971	0.3527960479
4374.5351220701	0.3593915105
4376.4639294432	0.3477953970
4378.3927368162	0.3534513712
4380.3215441893	0.3605860472
4382.2503515623	0.3550553024
4384.1791589354	0.3569176793
4386.1079663084	0.3598584533
4388.0367736815	0.3564301729
4389.9655810545	0.3514135480
4391.8943884275	0.3553403914
4393.8231958006	0.3500375450
4395.7520031736	0.3426039517
4397.6808105467	0.3546209037
4399.6096179197	0.3597873747
4401.5384252928	0.3509460986
4403.4672326658	0.3537319005
4405.3960400389	0.3525213599
4407.3248474119	0.3506924212
4409.2536547850	0.3588526547
4411.1824621580	0.3530475497
4413.1112695311	0.3508712351
4415.0400769041	0.3531547785
4416.9688842772	0.3578029573
4418.8976916502	0.3504917026
4420.8264990232	0.3440058231
4422.7553063963	0.3626668751
4424.6841137693	0.3534162939
4426.6129211424	0.3480792642
4428.5417285154	0.3561173379
4430.4705358885	0.3542713225
4432.3993432615	0.3496995270
4434.3281506346	0.3451459408
4436.2569580076	0.3607986867
4438.1857653807	0.3525386751
4440.1145727537	0.3474901319
4442.0433801268	0.3525035083
4443.9721874998	0.3395718038
4445.9009948729	0.3426126540
4447.8298022459	0.3441902995
4449.7586096189	0.3411516249
4451.6874169920	0.3439750075
4453.6162243650	0.3569666445
4455.5450317381	0.3534829319
4457.4738391111	0.3462350965
4459.4026464842	0.3500169516
4461.3314538572	0.3453844488
4463.2602612303	0.3525270522
4465.1890686033	0.3501368761
4467.1178759764	0.3492411673
4469.0466833494	0.3452196419
4470.9754907225	0.3422681987
4472.9042980955	0.3469498158
4474.8331054686	0.3462164998
4476.7619128416	0.3617873788
4478.6907202147	0.3495824039
4480.6195275877	0.3458685279
4482.5483349607	0.3648669124
4484.4771423338	0.3576658368
4486.4059497068	0.3419156075
4488.3347570799	0.3415507972
4490.2635644529	0.3559912443
4492.1923718260	0.3521485031
4494.1211791990	0.3532153666
4496.0499865721	0.3422245979
4497.9787939451	0.3422270417
4499.9076013182	0.3561065197
4501.8364086912	0.3363356590
4503.7652160643	0.3417343795
4505.6940234373	0.3437825143
4507.6228308104	0.3462769389
4509.5516381834	0.3554510176
4511.4804455564	0.3396825790
4513.4092529295	0.3440261185
4515.3380603025	0.3550631106
4517.2668676756	0.3619496524
4519.1956750486	0.3629067540
4521.1244824217	0.3516531885
4523.0532897947	0.3524955809
4524.9820971678	0.3595946133
4526.9109045408	0.3418085873
4528.8397119139	0.3383657932
4530.7685192869	0.3482924402
4532.6973266600	0.3470080197
4534.6261340330	0.3594294488
4536.5549414061	0.3549423218
4538.4837487791	0.3614076376
4540.4125561521	0.3511998057
4542.3413635252	0.3277319670
4544.2701708982	0.3421597481
4546.1989782713	0.3417809606
4548.1277856443	0.3470837772
4550.0565930174	0.3450055718
4551.9854003904	0.3507861197
4553.9142077635	0.3386439681
4555.8430151365	0.3219232857
4557.7718225096	0.3617078662
4559.7006298826	0.3440926075
4561.6294372557	0.3423366547
4563.5582446287	0.3600322902
4565.4870520018	0.3397364616
4567.4158593748	0.3541142642
4569.3446667478	0.3415103257
4571.2734741209	0.3458439708
4573.2022814939	0.3605877459
4575.1310888670	0.3457022011
4577.0598962400	0.3544968665
4578.9887036131	0.3513252735
4580.9175109861	0.3516241014
4582.8463183592	0.3508320153
4584.7751257322	0.3410253525
4586.7039331053	0.3567768037
4588.6327404783	0.3620091975
4590.5615478514	0.3545682132
4592.4903552244	0.3546509743
4594.4191625975	0.3518549502
4596.3479699705	0.3487942815
4598.2767773435	0.3437954783
4600.2055847166	0.3434454501
4602.1343920896	0.3499922752
4604.0631994627	0.3466177285
4605.9920068357	0.3413394988
4607.9208142088	0.3422012627
4609.8496215818	0.3453969359
4611.7784289549	0.3581230938
4613.7072363279	0.3544994891
4615.6360437010	0.3397676349
4617.5648510740	0.3515932262
4619.4936584471	0.3488697410
4621.4224658201	0.3388445079
4623.3512731932	0.3445367813
4625.2800805662	0.3461696506
4627.2088879393	0.3512781262
4629.1376953123	0.3397189081
4631.0665026853	0.3452389240
4632.9953100584	0.3474505246
4634.9241174314	0.3454771936
4636.8529248045	0.3696380258
4638.7817321775	0.3441907465
4640.7105395506	0.3459751308
4642.6393469236	0.3631462157
4644.5681542967	0.3453392684
4646.4969616697	0.3476858139
4648.4257690428	0.3315670490
4650.3545764158	0.3307279050
4652.2833837889	0.3414317369
4654.2121911619	0.3555664420
4656.1409985350	0.3499467075
4658.0698059080	0.3256778419
4659.9986132810	0.3445961475
4661.9274206541	0.3415657282
4663.8562280271	0.3440815508
4665.7850354002	0.3443078101
4667.7138427732	0.3318037987
4669.6426501463	0.3446708620
4671.5714575193	0.3350369036
4673.5002648924	0.3521943986
4675.4290722654	0.3573447168
4677.3578796385	0.3441386521
4679.2866870115	0.3510443866
4681.2154943846	0.3347877562
4683.1443017576	0.3506904244
4685.0731091307	0.3577642739
4687.0019165037	0.3300620019
4688.9307238767	0.3392992318
4690.8595312498	0.3478367627
4692.7883386228	0.3417448401
4694.7171459959	0.3437225819
4696.6459533689	0.3362962604
4698.5747607420	0.3355686963
4700.5035681150	0.3386116922
4702.4323754881	0.3396304250
4704.3611828611	0.3555343151
4706.2899902342	0.3509426415
4708.2187976072	0.3443162441
4710.1476049803	0.3414839506
4712.0764123533	0.3363277614
4714.0052197264	0.3527517319
4715.9340270994	0.3381732404
4717.8628344724	0.3283374608
4719.7916418455	0.3411948383
4721.7204492185	0.3268228471
4723.6492565916	0.3355641663
4725.5780639646	0.3480965793
4727.5068713377	0.3354121745
4729.4356787107	0.3388626575
4731.3644860838	0.3388037086
4733.2932934568	0.3370540738
4735.2221008299	0.3501518071
4737.1509082029	0.3364399672
4739.0797155760	0.3347193897
4741.0085229490	0.3444376290
4742.9373303221	0.3212653100
4744.8661376951	0.3370602429
4746.7949450682	0.3436564803
4748.7237524412	0.3234410584
4750.6525598142	0.3420391083
4752.5813671873	0.3326077163
4754.5101745603	0.3257794380
4756.4389819334	0.3465081751
4758.3677893064	0.3447688222
4760.2965966795	0.3415721357
4762.2254040525	0.3489018977
4764.1542114256	0.3458280563
4766.0830187986	0.3299624622
4768.0118261717	0.3502469957
4769.9406335447	0.3592748642
4771.8694409178	0.3303134441
4773.7982482908	0.3428033590
4775.7270556639	0.3540316224
4777.6558630369	0.3415989876
4779.5846704099	0.3441295028
4781.5134777830	0.3450370431
4783.4422851560	0.3372254968
4785.3710925291	0.3383658826
4787.2998999021	0.3490824103
4789.2287072752	0.3489666879
4791.1575146482	0.3456720412
4793.0863220213	0.3370448053
4795.0151293943	0.3352189958
4796.9439367674	0.3374923766
4798.8727441404	0.3276157081
4800.8015515135	0.3418842554
4802.7303588865	0.3387682438
4804.6591662596	0.3257248700
4806.5879736326	0.3496329486
4808.5167810056	0.3497979641
4810.4455883787	0.3432770967
4812.3743957517	0.3446902633
4814.3032031248	0.3420752585
4816.2320104978	0.3531839550
4818.1608178709	0.3298926353
4820.0896252439	0.3240435123
4822.0184326170	0.3549107015
4823.9472399900	0.3465109169
4825.8760473631	0.3412830532
4827.8048547361	0.3421479464
4829.7336621092	0.3418663740
4831.6624694822	0.3456180692
4833.5912768553	0.3295729756
4835.5200842283	0.3387105167
4837.4488916013	0.3459550142
4839.3776989744	0.3429854214
4841.3065063474	0.3465496302
4843.2353137205	0.3458472788
4845.1641210935	0.3627054989
4847.0929284666	0.3453973234
4849.0217358396	0.3358172178
4850.9505432127	0.3556464314
4852.8793505857	0.3346102536
4854.8081579588	0.3311910927
4856.7369653318	0.3319523633
4858.6657727049	0.3119940758
4860.5945800779	0.3300583363
4862.5233874510	0.3373590112
4864.4521948240	0.3208912611
4866.3810021971	0.3350660801
4868.3098095701	0.3471447527
4870.2386169431	0.3413033783
4872.1674243162	0.3321552575
4874.0962316892	0.3377672732
4876.0250390623	0.3527635038
4877.9538464353	0.3431572020
4879.8826538084	0.3463647366
4881.8114611814	0.3442386687
4883.7402685545	0.3363911510
4885.6690759275	0.3430946767
4887.5978833006	0.3199330270
4889.5266906736	0.3264961839
4891.4554980467	0.3508289158
4893.3843054197	0.3413689733
4895.3131127928	0.3382070661
4897.2419201658	0.3559605479
4899.1707275388	0.3655369580
4901.0995349119	0.3431309462
4903.0283422849	0.3351047337
4904.9571496580	0.3373143375
4906.8859570310	0.3313946426
4908.8147644041	0.3378464282
4910.7435717771	0.3451592624
4912.6723791502	0.3308584690
4914.6011865232	0.3281759024
4916.5299938963	0.3583069742
4918.4588012693	0.3399243951
4920.3876086424	0.3293094933
4922.3164160154	0.3407406211
4924.2452233885	0.3241357505
4926.1740307615	0.3313363492
4928.1028381345	0.3249470890
4930.0316455076	0.3318806291
4931.9604528806	0.3330976367
4933.8892602537	0.3259724379
4935.8180676267	0.3470306993
4937.7468749998	0.3302140534
4939.6756823728	0.3376317918
4941.6044897459	0.3342358470
4943.5332971189	0.3313219249
4945.4621044920	0.3652889132
4947.3909118650	0.3407759070
4949.3197192381	0.3288839757
4951.2485266111	0.3418363333
4953.1773339842	0.3429755867
4955.1061413572	0.3400434554
4957.0349487302	0.3425115049
4958.9637561033	0.3517296314
4960.8925634763	0.3344416916
4962.8213708494	0.3277204335
4964.7501782224	0.3186618388
4966.6789855955	0.3283517957
4968.6077929685	0.3451575637
4970.5366003416	0.3306934237
4972.4654077146	0.3387373388
4974.3942150877	0.3321579993
4976.3230224607	0.3454465270
4978.2518298338	0.3608761430
4980.1806372068	0.3222571015
4982.1094445799	0.3170662224
4984.0382519529	0.3203939497
4985.9670593259	0.3277677894
4987.8958666990	0.3485147357
4989.8246740720	0.3388265967
4991.7534814451	0.3279901147
4993.6822888181	0.3296804130
4995.6110961912	0.3494471312
4997.5399035642	0.3575210869
4999.4687109373	0.3468365669
5001.3975183103	0.3390479684
5003.3263256834	0.3220374584
5005.2551330564	0.3227878511
5007.1839404295	0.3356944621
5009.1127478025	0.3501161039
5011.0415551756	0.3461578190
5012.9703625486	0.3105677366
5014.8991699217	0.3153912723
5016.8279772947	0.3467617929
5018.7567846677	0.3536072969
5020.6855920408	0.3453798294
5022.6143994138	0.3365835547
5024.5432067869	0.3263426423
5026.4720141599	0.3157301247
5028.4008215330	0.3369616568
5030.3296289060	0.3475107849
5032.2584362791	0.3350814581
5034.1872436521	0.3446176350
5036.1160510252	0.3266393542
5038.0448583982	0.3119192421
5039.9736657713	0.3108996749
5041.9024731443	0.3043036759
5043.8312805174	0.3439900875
5045.7600878904	0.3473552763
5047.6888952634	0.3243903816
5049.6177026365	0.3554495573
5051.5465100095	0.3542675674
5053.4753173826	0.3193644285
5055.4041247556	0.3147332668
5057.3329321287	0.3247358203
5059.2617395017	0.3348896205
5061.1905468748	0.3527733982
5063.1193542478	0.3410096169
5065.0481616209	0.3285878301
5066.9769689939	0.3526572883
5068.9057763670	0.3471643925
5070.8345837400	0.3304899335
5072.7633911131	0.3240931928
5074.6921984861	0.3061535656
5076.6210058591	0.3127674162
5078.5498132322	0.3468468189
5080.4786206052	0.3724480867
5082.4074279783	0.3467046022
5084.3362353513	0.3268442154
5086.2650427244	0.3235897720
5088.1938500974	0.3129555583
5090.1226574705	0.3248293996
5092.0514648435	0.3261026740
5093.9802722166	0.3295594156
5095.9090795896	0.3242030740
5097.8378869627	0.2945597172
5099.7666943357	0.3250358105
5101.6955017088	0.3332073987
5103.6243090818	0.3059963882
5105.5531164548	0.3233736753
5107.4819238279	0.3141244054
5109.4107312009	0.3281463683
5111.3395385740	0.3355963528
5113.2683459470	0.3285460770
5115.1971533201	0.3600600362
5117.1259606931	0.3283544779
5119.0547680662	0.3173757493
5120.9835754392	0.3307344913
5122.9123828123	0.3276252747
5124.8411901853	0.3354561329
5126.7699975584	0.3177036047
5128.6988049314	0.3342714012
5130.6276123045	0.3227056861
5132.5564196775	0.3186999559
5134.4852270506	0.3512374163
5136.4140344236	0.3493674994
5138.3428417966	0.3462338746
5140.2716491697	0.3384157419
5142.2004565427	0.3453064859
5144.1292639158	0.3244675994
5146.0580712888	0.3240457177
5147.9868786619	0.3335422873
5149.9156860349	0.3351089060
5151.8444934080	0.3460946083
5153.7733007810	0.3090516627
5155.7021081541	0.3524394929
5157.6309155271	0.3563140631
5159.5597229002	0.3444535434
5161.4885302732	0.3594350815
5163.4173376463	0.2828369141
5165.3461450193	0.3091438413
5167.2749523923	0.3294248581
5169.2037597654	0.3241282701
5171.1325671384	0.3500835896
5173.0613745115	0.3305320442
5174.9901818845	0.3464574516
5176.9189892576	0.3175877631
5178.8477966306	0.2969815433
5180.7766040037	0.3176493049
5182.7054113767	0.3169040084
5184.6342187498	0.3225861192
5186.5630261228	0.3305276632
5188.4918334959	0.3237223625
5190.4206408689	0.3231179118
5192.3494482420	0.3165284693
5194.2782556150	0.3069512248
5196.2070629880	0.3357689977
5198.1358703611	0.3114620447
5200.0646777341	0.3128916919
5201.9934851072	0.3362545073
5203.9222924802	0.3214592636
5205.8510998533	0.3587634563
5207.7799072263	0.3337523639
5209.7087145994	0.3205788732
5211.6375219724	0.3582309186
5213.5663293455	0.3510282040
5215.4951367185	0.3106943369
5217.4239440916	0.3119257092
5219.3527514646	0.3479474485
5221.2815588377	0.3136061430
5223.2103662107	0.3313607872
5225.1391735837	0.3119126856
5227.0679809568	0.3027145863
5228.9967883298	0.3381243050
5230.9255957029	0.3017126620
5232.8544030759	0.3408229351
5234.7832104490	0.3182260990
5236.7120178220	0.3236500919
5238.6408251951	0.3594168127
5240.5696325681	0.3255946934
5242.4984399412	0.3731007576
5244.4272473142	0.3397592604
5246.3560546873	0.3253632486
5248.2848620603	0.3462886512
5250.2136694334	0.3297077715
5252.1424768064	0.3508935571
5254.0712841795	0.3330955207
5256.0000915525	0.3252656758
5257.9288989255	0.3312678635
5259.8577062986	0.3541636169
5261.7865136716	0.3488366902
5263.7153210447	0.3224642575
5265.6441284177	0.3419834077
5267.5729357908	0.3344215453
5269.5017431638	0.3336230814
5271.4305505369	0.3689292669
5273.3593579099	0.3636018932
5275.2881652830	0.2942014933
5277.2169726560	0.2932817042
5279.1457800291	0.3338758647
5281.0745874021	0.3163318336
5283.0033947752	0.3059850335
5284.9322021482	0.3295593560
5286.8610095212	0.3481654823
5288.7898168943	0.3050338924
5290.7186242673	0.3357706964
5292.6474316404	0.3655473590
5294.5762390134	0.3030940890
5296.5050463865	0.3392346501
5298.4338537595	0.3534239829
5300.3626611326	0.3458926082
5302.2914685056	0.3474616110
5304.2202758787	0.3179451823
5306.1490832517	0.3475491703
5308.0778906248	0.3210908473
5310.0066979978	0.3052135408
5311.9355053709	0.3341039717
5313.8643127439	0.3223523200
5315.7931201169	0.3448381126
5317.7219274900	0.3457672000
5319.6507348630	0.3340362012
5321.5795422361	0.3412562311
5323.5083496091	0.3123894036
5325.4371569822	0.3151549995
5327.3659643552	0.3427350819
5329.2947717283	0.3433114588
5331.2235791013	0.3351549506
5333.1523864744	0.3067918122
5335.0811938474	0.3282492161
5337.0100012205	0.3444329500
5338.9388085935	0.3094514608
5340.8676159666	0.3538520634
5342.7964233396	0.3452745378
5344.7252307126	0.2990204990
5346.6540380857	0.3364752233
5348.5828454587	0.3486493230
5350.5116528318	0.3374701738
5352.4404602048	0.3133340776
5354.3692675779	0.2973504364
5356.2980749509	0.3002567589
5358.2268823240	0.3372654319
5360.1556896970	0.3312572837
5362.0844970701	0.2750565708
5364.0133044431	0.3187181354
5365.9421118162	0.3336957097
5367.8709191892	0.3276485801
5369.7997265623	0.3312332332
5371.7285339353	0.3304383457
5373.6573413083	0.3548695743
5375.5861486814	0.3164777458
5377.5149560544	0.3315234184
5379.4437634275	0.3570431471
5381.3725708005	0.3444792926
5383.3013781736	0.3525862098
5385.2301855466	0.3359979093
5387.1589929197	0.3076707125
5389.0878002927	0.2949680388
5391.0166076658	0.3290502131
5392.9454150388	0.3111164868
5394.8742224119	0.3113909066
5396.8030297849	0.3278464079
5398.7318371580	0.2902976274
5400.6606445310	0.3111770451
5402.5894519041	0.3434707820
5404.5182592771	0.3545062542
5406.4470666501	0.3288425207
5408.3758740232	0.3301936984
5410.3046813962	0.3138965368
5412.2334887693	0.3034507632
5414.1622961423	0.3671023846
5416.0911035154	0.3231448233
5418.0199108884	0.3171981871
5419.9487182615	0.3223320544
5421.8775256345	0.3090012670
5423.8063330076	0.3383204639
5425.7351403806	0.3178555369
5427.6639477537	0.3410283327
5429.5927551267	0.3141714036
5431.5215624998	0.3149465322
5433.4503698728	0.3781982660
5435.3791772458	0.3159019649
5437.3079846189	0.2916169465
5439.2367919919	0.3457184732
5441.1655993650	0.3167586029
5443.0944067380	0.2884842753
5445.0232141111	0.3399554193
5446.9520214841	0.3159386814
5448.8808288572	0.3111507595
5450.8096362302	0.3327199519
5452.7384436033	0.3120827675
5454.6672509763	0.3422968090
5456.5960583494	0.3285667896
5458.5248657224	0.3061334193
5460.4536730955	0.2972823083
5462.3824804685	0.3063160181
5464.3112878415	0.3267010450
5466.2400952146	0.3213658631
5468.1689025876	0.3335079551
5470.0977099607	0.2739081979
5472.0265173337	0.2832403779
5473.9553247068	0.3420262933
5475.8841320798	0.3320626616
5477.8129394529	0.3344949782
5479.7417468259	0.3112591803
5481.6705541990	0.3367208242
5483.5993615720	0.3343568444
5485.5281689451	0.2844718099
5487.4569763181	0.3149484396
5489.3857836912	0.3200556636
5491.3145910642	0.3195439279
5493.2433984372	0.3045866191
5495.1722058103	0.2943972349
5497.1010131833	0.3249957263
5499.0298205564	0.3155230582
5500.9586279294	0.3159427345
5502.8874353025	0.3127737939
5504.8162426755	0.3243099451
5506.7450500486	0.3459968567
5508.6738574216	0.3382661343
5510.6026647947	0.3012590110
5512.5314721677	0.2767546773
5514.4602795408	0.3423830867
5516.3890869138	0.3276818097
5518.3178942869	0.2993533909
5520.2467016599	0.3489362597
5522.1755090330	0.3381062448
5524.1043164060	0.3324902654
5526.0331237790	0.3022632003
5527.9619311521	0.2809339762
5529.8907385251	0.2979745567
5531.8195458982	0.2954169512
5533.7483532712	0.3114939630
5535.6771606443	0.3148220181
5537.6059680173	0.2902943194
5539.5347753904	0.3214674592
5541.4635827634	0.3698410690
5543.3923901365	0.3039692640
5545.3211975095	0.3204377294
5547.2500048826	0.3225458860
5549.1788122556	0.3101395071
5551.1076196287	0.3668504059
5553.0364270017	0.2648916245
5554.9652343747	0.3258374035
5556.8940417478	0.3021204472
5558.8228491208	0.2615414858
5560.7516564939	0.3859851360
5562.6804638669	0.2742754221
5564.6092712400	0.3239620328
5566.5380786130	0.3464642465
5568.4668859861	0.2881537378
5570.3956933591	0.3313499093
5572.3245007322	0.3069824576
5574.2533081052	0.3599877954
5576.1821154783	0.2962816060
5578.1109228513	0.3071098626
5580.0397302244	0.3281396627
5581.9685375974	0.2861790955
5583.8973449704	0.3630740941
5585.8261523435	0.3216448426
5587.7549597165	0.3366822302
5589.6837670896	0.3443044722
5591.6125744626	0.2969934344
5593.5413818357	0.3298704624
5595.4701892087	0.3111586571
5597.3989965818	0.2684685588
5599.3278039548	0.2814079523
5601.2566113279	0.3158882856
5603.1854187009	0.3047612309
5605.1142260740	0.3125814497
5607.0430334470	0.2869777083
5608.9718408201	0.3097018301
5610.9006481931	0.3523453772
5612.8294555661	0.3152884543
5614.7582629392	0.3099123538
5616.6870703122	0.3031671047
5618.6158776853	0.3357830048
5620.5446850583	0.2727675140
5622.4734924314	0.2469821274
5624.4022998044	0.3378626704
5626.3311071775	0.3093260825
5628.2599145505	0.3547734618
5630.1887219236	0.3696417809
5632.1175292966	0.2947330773
5634.0463366697	0.3378989398
5635.9751440427	0.3297579587
5637.9039514158	0.3232149482
5639.8327587888	0.3327195644
5641.7615661619	0.2649892569
5643.6903735349	0.2812783122
5645.6191809079	0.3031457365
5647.5479882810	0.3005957305
5649.4767956540	0.3215827644
5651.4056030271	0.2753007114
5653.3344104001	0.3105062842
5655.2632177732	0.3420049846
5657.1920251462	0.3617412448
5659.1208325193	0.3868350983
5661.0496398923	0.2891287804
5662.9784472654	0.3155106902
5664.9072546384	0.3501487672
5666.8360620115	0.3118726015
5668.7648693845	0.2893471420
5670.6936767576	0.2635525763
5672.6224841306	0.2776682377
5674.5512915036	0.2844884992
5676.4800988767	0.3177108169
5678.4089062497	0.3293084204
5680.3377136228	0.3489086032
5682.2665209958	0.3287919760
5684.1953283689	0.3007725775
5686.1241357419	0.3038288355
5688.0529431150	0.2977424264
5689.9817504880	0.3580060303
5691.9105578611	0.3351249993
5693.8393652341	0.3681699932
5695.7681726072	0.3521498442
5697.6969799802	0.2498672605
5699.6257873533	0.2988727987
5701.5545947263	0.3227604926
5703.4834020993	0.3687154949
5705.4122094724	0.2976357043
5707.3410168454	0.2861366570
5709.2698242185	0.3915348053
5711.1986315915	0.3143539131
5713.1274389646	0.3095350564
5715.0562463376	0.2763849497
5716.9850537107	0.2798654437
5718.9138610837	0.3067899346
5720.8426684568	0.2572411299
5722.7714758298	0.3560824096
5724.7002832029	0.3154172301
5726.6290905759	0.2565255761
5728.5578979490	0.3665696979
5730.4867053220	0.3049964011
5732.4155126950	0.3139935136
5734.3443200681	0.3874315023
5736.2731274411	0.2841872871
5738.2019348142	0.2813892066
5740.1307421872	0.2801962793
5742.0595495603	0.2812288404
5743.9883569333	0.2975340486
5745.9171643064	0.2361729890
5747.8459716794	0.3439417481
5749.7747790525	0.3353419900
5751.7035864255	0.2733577490
5753.6323937986	0.3260423243
5755.5612011716	0.2706367075
5757.4900085447	0.2617385983
5759.4188159177	0.2919074595
5761.3476232907	0.3072359264
5763.2764306638	0.2961289883
5765.2052380368	0.2965142429
5767.1340454099	0.2805479467
5769.0628527829	0.2813752294
5770.9916601560	0.3764232993
5772.9204675290	0.3249753118
5774.8492749021	0.2972570062
5776.7780822751	0.3456642628
5778.7068896482	0.3399043977
5780.6356970212	0.3224787414
5782.5645043943	0.3169794977
5784.4933117673	0.3463665843
5786.4221191404	0.3060658276
5788.3509265134	0.3119568229
5790.2797338865	0.2903537452
5792.2085412595	0.2888787985
5794.1373486325	0.3910378516
5796.0661560056	0.3394124806
5797.9949633786	0.2715247273
5799.9237707517	0.2498555481
5801.8525781247	0.2770265937
5803.7813854978	0.3249672055
5805.7101928708	0.2998026311
5807.6390002439	0.2926811874
5809.5678076169	0.2953451574
5811.4966149900	0.3014278412
5813.4254223630	0.3125336766
5815.3542297361	0.3115504086
5817.2830371091	0.3300918937
5819.2118444822	0.3223723769
5821.1406518552	0.3333512247
5823.0694592282	0.3784691393
5824.9982666013	0.3213253617
5826.9270739743	0.3206769526
5828.8558813474	0.3694995642
5830.7846887204	0.2698734105
5832.7134960935	0.2631174028
5834.6423034665	0.3522965014
5836.5711108396	0.2899622619
5838.4999182126	0.2475317121
5840.4287255857	0.3100049198
5842.3575329587	0.3174798191
5844.2863403318	0.3224453330
5846.2151477048	0.3441592455
5848.1439550779	0.3360955417
5850.0727624509	0.3420611620
5852.0015698239	0.2480556220
5853.9303771970	0.2498639375
5855.8591845700	0.3005109131
5857.7879919431	0.3067959249
5859.7167993161	0.3776065707
5861.6456066892	0.3294661939
5863.5744140622	0.3254059851
5865.5032214353	0.3136644959
5867.4320288083	0.3447766006
5869.3608361814	0.3460993171
5871.2896435544	0.2624587715
5873.2184509275	0.4215315580
5875.1472583005	0.3577605188
5877.0760656736	0.2472930849
5879.0048730466	0.2925379872
5880.9336804196	0.2848313451
5882.8624877927	0.3313668966
5884.7912951657	0.2569404244
5886.7201025388	0.2821726203
5888.6489099118	0.3339047432
5890.5777172849	0.2370766103
5892.5065246579	0.2751195431
5894.4353320310	0.3385550082
5896.3641394040	0.2853327394
5898.2929467771	0.2448066622
5900.2217541501	0.2915080488
5902.1505615232	0.2639074326
5904.0793688962	0.2580594718
5906.0081762693	0.2460449338
5907.9369836423	0.2229635566
5909.8657910154	0.2776150405
5911.7945983884	0.2860979736
5913.7234057614	0.3129163086
5915.6522131345	0.3129285574
5917.5810205075	0.3286751509
5919.5098278806	0.3495540321
5921.4386352536	0.2691842318
5923.3674426267	0.2706106901
5925.2962499997	0.3271710575
5927.2250573728	0.3343775868
5929.1538647458	0.3391510844
5931.0826721189	0.3233776093
5933.0114794919	0.1860512048
5934.9402868650	0.2410924137
5936.8690942380	0.4355489314
5938.7979016111	0.3111565411
5940.7267089841	0.2644265294
5942.6555163571	0.3349511623
5944.5843237302	0.3521719277
5946.5131311032	0.3185632527
5948.4419384763	0.3082210124
5950.3707458493	0.3944123387
5952.2995532224	0.3644769490
5954.2283605954	0.2946917713
5956.1571679685	0.3005188704
5958.0859753415	0.2354919612
5960.0147827146	0.2443887591
5961.9435900876	0.3563373983
5963.8723974607	0.2858881056
5965.8012048337	0.2637405694
5967.7300122068	0.2710780799
5969.6588195798	0.2037902176
5971.5876269528	0.2862707675
5973.5164343259	0.3785192668
5975.4452416989	0.3192092478
5977.3740490720	0.2347366512
5979.3028564450	0.3471234143
5981.2316638181	0.3408298492
5983.1604711911	0.2293308675
5985.0892785642	0.3218116760
5987.0180859372	0.2963342369
5988.9468933103	0.2851271927
5990.8757006833	0.3656749427
5992.8045080564	0.2870321572
5994.7333154294	0.2731663287
5996.6621228025	0.3562706113
5998.5909301755	0.3027305305
6000.5197375485	0.2682921886
