399.2631262207	0.1670704186
401.1919335938	0.3522334695
403.1207409668	0.1910426170
405.0495483398	0.1676472276
406.9783557129	0.2151131779
408.9071630859	0.0566376075
410.8359704590	0.1247419566
412.7647778320	0.1854900718
414.6935852051	0.2437082678
416.6223925781	0.2291143835
418.5511999512	0.2099608928
420.4800073242	0.1433250457
422.4088146973	-0.0062428927
424.3376220703	0.1699031293
426.2664294434	0.2999690473
428.1952368164	0.2509246171
430.1240441895	0.1702150702
432.0528515625	0.0467647016
433.9816589355	0.0730580464
435.9104663086	0.0659476593
437.8392736816	0.1449887305
439.7680810547	0.2021444440
441.6968884277	0.1611791253
443.6256958008	0.2731558979
445.5545031738	0.1844854802
447.4833105469	0.1957627088
449.4121179199	0.3182561696
451.3409252930	0.1488243639
453.2697326660	0.0953627601
455.1985400391	0.1443854272
457.1273474121	0.0946865082
459.0561547852	0.2051497698
460.9849621582	0.1811176538
462.9137695313	0.0406357981
464.8425769043	0.0345596559
466.7713842773	0.3518547714
468.7001916504	0.3849972188
470.6289990234	0.0188503824
472.5578063965	0.2288495451
474.4866137695	0.0931615159
476.4154211426	0.4568211436
478.3442285156	0.2242952138
480.2730358887	-0.4950420558
482.2018432617	0.4821817875
484.1306506348	0.2031627297
486.0594580078	-0.1676965058
487.9882653809	-0.0579735897
489.9170727539	-0.1770303249
491.8458801270	0.2574763000
493.7746875000	0.0830084980
495.7034948730	1.0853351355
497.6323022461	0.1011732221
499.5611096191	0.0688966140
501.4899169922	0.9399110079
503.4187243652	0.5437140465
505.3475317383	2.6031374931
507.2763391113	4.7092251778
509.2051464844	-36.6226158142
511.1339538574	0.6706637144
513.0627612305	1.5714106560
514.9915686035	1.4624863863
516.9203759766	-0.6150621772
518.8491833496	2.8767616749
520.7779907227	8.6451883316
522.7067980957	1.9787911177
524.6356054688	0.6703446507
526.5644128418	0.4014396369
528.4932202148	-4.2888092995
530.4220275879	0.1439775676
532.3508349609	0.2764101326
534.2796423340	-0.0539177023
536.2084497070	0.6081172228
538.1372570801	2.3152742386
540.0660644531	1.5249422789
541.9948718262	-0.1467594802
543.9236791992	1.4729518890
545.8524865723	0.3524827659
547.7812939453	2.5573914051
549.7101013184	3.6456534863
551.6389086914	-0.6121300459
553.5677160645	0.6708852053
555.4965234375	5.9738049507
557.4253308105	0.7346605062
559.3541381836	0.0505166054
561.2829455566	0.6852976084
563.2117529297	0.2118153274
565.1405603027	-0.4521193504
567.0693676758	-0.3502418101
568.9981750488	0.8608118296
570.9269824219	0.2924025655
572.8557897949	2.5602416992
574.7845971680	42.2194786072
576.7134045410	-0.1781644672
578.6422119141	5.9286904335
580.5710192871	1.4959373474
582.4998266602	0.4823900461
584.4286340332	1.0319126844
586.3574414063	-0.0283111501
588.2862487793	0.5074787736
590.2150561523	0.6350203753
592.1438635254	-0.6406636238
594.0726708984	-0.2915652096
596.0014782715	0.8939036131
597.9302856445	-7.3693251610
599.8590930176	1.9162760973
601.7879003906	0.1985273808
603.7167077637	10.4847717285
605.6455151367	0.4717596471
607.5743225098	0.1433326453
609.5031298828	2.9856114388
611.4319372559	6.6370034218
613.3607446289	-0.2751453221
615.2895520020	0.2030805051
617.2183593750	-24.4768238068
619.1471667480	-1.5784950256
621.0759741211	0.7606247663
623.0047814941	3.3570911884
624.9335888672	0.9188572764
626.8623962402	0.3322061896
628.7912036133	3.3232779503
630.7200109863	0.1555552483
632.6488183594	0.1663762629
634.5776257324	0.2543741763
636.5064331055	0.1239365563
638.4352404785	0.2812726796
640.3640478516	0.3613779843
642.2928552246	0.3388191760
644.2216625977	0.3414466679
646.1504699707	0.3071154952
648.0792773438	0.3245981336
650.0080847168	0.2631931007
651.9368920898	0.2551856935
653.8656994629	0.2560154796
655.7945068359	0.2185179293
657.7233142090	0.2219617516
659.6521215820	0.3040165603
661.5809289551	0.2821887434
663.5097363281	0.2548509538
665.4385437012	0.3044946194
667.3673510742	0.2328300178
669.2961584473	0.2849159539
671.2249658203	0.2941446900
673.1537731934	0.2398539335
675.0825805664	0.2679627240
677.0113879395	0.2795593143
678.9401953125	0.3258307278
680.8690026855	0.2969070375
682.7978100586	0.2990986407
684.7266174316	0.3095340133
686.6554248047	0.3119238019
688.5842321777	0.3233112693
690.5130395508	0.2765649855
692.4418469238	0.2928373516
694.3706542969	0.2795418501
696.2994616699	0.3243969977
698.2282690430	0.3078580201
700.1570764160	0.2759922743
702.0858837891	0.3335976005
704.0146911621	0.3180260956
705.9434985352	0.3500010073
707.8723059082	0.3288690150
709.8011132813	0.2937242389
711.7299206543	0.4488970339
713.6587280273	0.4101871252
715.5875354004	0.3118457198
717.5163427734	0.1232315898
719.4451501465	0.2074166089
721.3739575195	0.8674558401
723.3027648926	1.9316445589
725.2315722656	2.0258066654
727.1603796387	0.9591364264
729.0891870117	0.3058663905
731.0179943848	0.6217978001
732.9468017578	-5.1718549728
734.8756091309	1.9160138369
736.8044165039	0.2661667466
738.7332238770	1.1109957695
740.6620312500	0.2027646005
742.5908386230	1.0704160929
744.5196459961	5.6429700851
746.4484533691	0.3415147662
748.3772607422	1.2329789400
750.3060681152	1.3076474667
752.2348754883	-0.1614925712
754.1636828613	0.7115279436
756.0924902344	0.5864872336
758.0212976074	-0.1336321533
759.9501049805	0.5165733695
761.8789123535	1.6128726006
763.8077197266	0.3418562710
765.7365270996	0.2917084396
767.6653344727	0.1971096247
769.5941418457	0.5776338577
771.5229492188	1.3866091967
773.4517565918	0.2333660722
775.3805639648	0.5920505524
777.3093713379	0.5188040137
779.2381787109	0.5430395007
781.1669860840	1.0472456217
783.0957934570	0.4596706927
785.0246008301	0.2475228757
786.9534082031	0.4864753187
788.8822155762	0.7338539362
790.8110229492	0.7186731100
792.7398303223	0.8562079668
794.6686376953	1.1451544762
796.5974450684	0.6802049279
798.5262524414	0.7697184086
800.4550598145	0.4595739245
802.3838671875	0.4092421532
804.3126745605	0.5582683682
806.2414819336	0.2518346906
808.1702893066	0.2884562910
810.0990966797	0.3840331733
812.0279040527	0.5227274895
813.9567114258	0.3567212820
815.8855187988	0.2859052420
817.8143261719	0.5944141150
819.7431335449	0.5935841799
821.6719409180	0.7444373369
823.6007482910	0.2250792086
825.5295556641	0.2375445366
827.4583630371	0.5918412805
829.3871704102	0.4862755239
831.3159777832	0.4584439099
833.2447851563	0.3910304606
835.1735925293	0.4654352069
837.1023999023	0.4090434909
839.0312072754	0.3339828849
840.9600146484	0.5231704712
842.8888220215	0.5876140594
844.8176293945	0.4878274500
846.7464367676	0.4734809697
848.6752441406	0.6129837036
850.6040515137	0.4594593346
852.5328588867	0.2792221904
854.4616662598	0.3106363416
856.3904736328	0.3233367801
858.3192810059	0.4928262234
860.2480883789	0.4740402102
862.1768957520	0.5647494793
864.1057031250	0.6539999247
866.0345104980	0.4302015305
867.9633178711	0.6954889894
869.8921252441	0.2206556052
871.8209326172	1.9377057552
873.7497399902	2.0795211792
875.6785473633	0.5297166109
877.6073547363	4.1237902641
879.5361621094	1.1593756676
881.4649694824	0.5719178915
883.3937768555	0.5431175828
885.3225842285	0.1253742725
887.2513916016	0.0794099420
889.1801989746	0.7994571924
891.1090063477	1.5822283030
893.0378137207	0.3676281869
894.9666210938	0.4852026701
896.8954284668	0.6570146680
898.8242358398	0.6420499682
900.7530432129	1.0798456669
902.6818505859	0.5682215095
904.6106579590	0.7037102580
906.5394653320	0.9306870699
908.4682727051	0.5456296206
910.3970800781	0.2894109488
912.3258874512	0.3707138300
914.2546948242	0.7482185364
916.1835021973	0.4912431538
918.1123095703	0.4338976741
920.0411169434	0.6809334159
921.9699243164	0.5834610462
923.8987316895	0.4891839325
925.8275390625	0.5884500146
927.7563464355	0.5632236600
929.6851538086	0.4906356037
931.6139611816	0.4746459723
933.5427685547	0.5180019736
935.4715759277	0.6130220890
937.4003833008	0.4813940227
939.3291906738	0.4554872215
941.2579980469	0.5746189952
943.1868054199	0.4910066128
945.1156127930	0.4164681733
947.0444201660	0.5214794278
948.9732275391	0.5808908939
950.9020349121	0.4619472027
952.8308422852	0.4001132548
954.7596496582	0.4607989490
956.6884570313	0.4611352980
958.6172644043	0.4116618335
960.5460717773	0.4452641010
962.4748791504	0.4693017304
964.4036865234	0.4102812707
966.3324938965	0.4634405673
968.2613012695	0.4727758765
970.1901086426	0.4378084242
972.1189160156	0.4994424284
974.0477233887	0.4852672517
975.9765307617	0.4743581712
977.9053381348	0.4605623782
979.8341455078	0.4612120092
981.7629528809	0.5136818290
983.6917602539	0.4907000959
985.6205676270	0.4857247472
987.5493750000	0.4786997139
989.4781823730	0.4476141036
991.4069897461	0.4622817338
993.3357971191	0.4681159556
995.2646044922	0.4573314786
997.1934118652	0.4532506168
999.1222192383	0.4733990431
1001.0510266113	0.4850946069
1002.9798339844	0.4687738419
1004.9086413574	0.4655537903
1006.8374487305	0.4615670741
1008.7662561035	0.4634903073
1010.6950634766	0.4665681422
1012.6238708496	0.4593929350
1014.5526782227	0.4531814456
1016.4814855957	0.4639019072
1018.4102929688	0.4652843177
1020.3391003418	0.4373905659
1022.2679077148	0.4435954690
1024.1967150879	0.4568178654
1026.1255224609	0.4529477656
1028.0543298340	0.4525138140
1029.9831372070	0.4424123168
1031.9119445801	0.4486363828
1033.8407519531	0.4569376111
1035.7695593262	0.4547769427
1037.6983666992	0.4434733987
1039.6271740723	0.4323931932
1041.5559814453	0.4437649846
1043.4847888184	0.4453517795
1045.4135961914	0.4342321754
1047.3424035645	0.4383953810
1049.2712109375	0.4485352933
1051.2000183105	0.4452905953
1053.1288256836	0.4442056715
1055.0576330566	0.4424584210
1056.9864404297	0.4339157939
1058.9152478027	0.4411090910
1060.8440551758	0.4335483313
1062.7728625488	0.4204316139
1064.7016699219	0.4284752011
1066.6304772949	0.4301771522
1068.5592846680	0.4289149940
1070.4880920410	0.4360554218
1072.4168994141	0.4409723282
1074.3457067871	0.4285153747
1076.2745141602	0.4244596958
1078.2033215332	0.4378979206
1080.1321289062	0.4269511104
1082.0609362793	0.4241816700
1083.9897436523	0.4397590458
1085.9185510254	0.4270486832
1087.8473583984	0.4196582735
1089.7761657715	0.4136272669
1091.7049731445	0.4252319932
1093.6337805176	0.4361520410
1095.5625878906	0.4028773606
1097.4913952637	0.4294176102
1099.4202026367	0.4351527691
1101.3490100098	0.4186222851
1103.2778173828	0.4296663105
1105.2066247559	0.4013605416
1107.1354321289	0.4123665988
1109.0642395019	0.4218845069
1110.9930468750	0.4352500439
1112.9218542480	0.4306299388
1114.8506616211	0.4145478010
1116.7794689941	0.4372447431
1118.7082763672	0.4227402508
1120.6370837402	0.4297012687
1122.5658911133	0.4034290910
1124.4946984863	0.4019708335
1126.4235058594	0.4191893935
1128.3523132324	0.4062072039
1130.2811206055	0.4362268746
1132.2099279785	0.4152026176
1134.1387353516	0.4317692518
1136.0675427246	0.4157740474
1137.9963500977	0.3885583282
1139.9251574707	0.4248631001
1141.8539648437	0.3911960721
1143.7827722168	0.4119549096
1145.7115795898	0.4284629524
1147.6403869629	0.4104653001
1149.5691943359	0.4183481932
1151.4980017090	0.3944412470
1153.4268090820	0.4036012292
1155.3556164551	0.4056404531
1157.2844238281	0.4030790329
1159.2132312012	0.4156585932
1161.1420385742	0.4056113958
1163.0708459473	0.4088191688
1164.9996533203	0.3983526826
1166.9284606934	0.3973965049
1168.8572680664	0.4036233425
1170.7860754394	0.3976971805
1172.7148828125	0.4053946733
1174.6436901855	0.3951104879
1176.5724975586	0.3917677701
1178.5013049316	0.3942040801
1180.4301123047	0.3889391720
1182.3589196777	0.3912667334
1184.2877270508	0.3848208189
1186.2165344238	0.3890063465
1188.1453417969	0.3914816082
1190.0741491699	0.3880549967
1192.0029565430	0.3942782581
1193.9317639160	0.3900503516
1195.8605712891	0.3864722848
1197.7893786621	0.3863889873
1199.7181860351	0.3870998323
1201.6469934082	0.3893002570
1203.5758007812	0.3855289221
1205.5046081543	0.3849273920
1207.4334155273	0.3820249438
1209.3622229004	0.3792982697
1211.2910302734	0.3826898038
1213.2198376465	0.3827965260
1215.1486450195	0.3820397556
1217.0774523926	0.3824253082
1219.0062597656	0.3853104413
1220.9350671387	0.3845355213
1222.8638745117	0.3802784681
1224.7926818848	0.3815572858
1226.7214892578	0.3817914128
1228.6502966308	0.3805129826
1230.5791040039	0.3779719472
1232.5079113769	0.3770392537
1234.4367187500	0.3785495460
1236.3655261230	0.3772153854
1238.2943334961	0.3779742420
1240.2231408691	0.3772808611
1242.1519482422	0.3756992817
1244.0807556152	0.3750297427
1246.0095629883	0.3768955767
1247.9383703613	0.3787144423
1249.8671777344	0.3727553785
1251.7959851074	0.3727977276
1253.7247924805	0.3771618605
1255.6535998535	0.3766693771
1257.5824072266	0.3741786480
1259.5112145996	0.3736490309
1261.4400219726	0.3759341836
1263.3688293457	0.3744212687
1265.2976367187	0.3748885989
1267.2264440918	0.3768001795
1269.1552514648	0.3766289055
1271.0840588379	0.3742235005
1273.0128662109	0.3730565906
1274.9416735840	0.3763586581
1276.8704809570	0.3762141466
1278.7992883301	0.3741847873
1280.7280957031	0.3723184466
1282.6569030762	0.3732953668
1284.5857104492	0.3736888468
1286.5145178223	0.3756127656
1288.4433251953	0.3737671673
1290.3721325683	0.3677491248
1292.3009399414	0.3734456003
1294.2297473144	0.3715757430
1296.1585546875	0.3715702593
1298.0873620605	0.3729296923
1300.0161694336	0.3671855628
1301.9449768066	0.3716107309
1303.8737841797	0.3692300320
1305.8025915527	0.3703838587
1307.7313989258	0.3728983998
1309.6602062988	0.3694102168
1311.5890136719	0.3739272654
1313.5178210449	0.3742154539
1315.4466284180	0.3714886308
1317.3754357910	0.3664932847
1319.3042431640	0.3645671606
1321.2330505371	0.3679051101
1323.1618579101	0.3640730381
1325.0906652832	0.3669269085
1327.0194726562	0.3679407835
1328.9482800293	0.3585466743
1330.8770874023	0.3649159670
1332.8058947754	0.3673376739
1334.7347021484	0.3630234301
1336.6635095215	0.3678098023
1338.5923168945	0.3626018167
1340.5211242676	0.3616204858
1342.4499316406	0.3608975410
1344.3787390137	0.3584235013
1346.3075463867	0.3629649282
1348.2363537597	0.3590947390
1350.1651611328	0.3608629405
1352.0939685058	0.3621820211
1354.0227758789	0.3577185571
1355.9515832519	0.3584913611
1357.8803906250	0.3588877618
1359.8091979980	0.3587797284
1361.7380053711	0.3611713350
1363.6668127441	0.3649600148
1365.5956201172	0.3613617420
1367.5244274902	0.3605595827
1369.4532348633	0.3588244617
1371.3820422363	0.3550380170
1373.3108496094	0.3568825722
1375.2396569824	0.3552637100
1377.1684643555	0.3552528024
1379.0972717285	0.3554265499
1381.0260791015	0.3574206233
1382.9548864746	0.3564847112
1384.8836938476	0.3544493020
1386.8125012207	0.3571127951
1388.7413085937	0.3557296991
1390.6701159668	0.3550268412
1392.5989233398	0.3529773653
1394.5277307129	0.3539125621
1396.4565380859	0.3539403081
1398.3853454590	0.3527829349
1400.3141528320	0.3532873094
1402.2429602051	0.3519942760
1404.1717675781	0.3535187840
1406.1005749512	0.3514028192
1408.0293823242	0.3537518680
1409.9581896972	0.3525586128
1411.8869970703	0.3483391106
1413.8158044433	0.3504916430
1415.7446118164	0.3483779132
1417.6734191894	0.3512519896
1419.6022265625	0.3537122011
1421.5310339355	0.3534700274
1423.4598413086	0.3534384966
1425.3886486816	0.3500782847
1427.3174560547	0.3505536318
1429.2462634277	0.3515032530
1431.1750708008	0.3517149687
1433.1038781738	0.3472825885
1435.0326855469	0.3490471244
1436.9614929199	0.3524208069
1438.8903002929	0.3472164571
1440.8191076660	0.3502126336
1442.7479150390	0.3508042097
1444.6767224121	0.3455034792
1446.6055297851	0.3472570777
1448.5343371582	0.3477996886
1450.4631445312	0.3413642049
1452.3919519043	0.3454675376
1454.3207592773	0.3486975431
1456.2495666504	0.3453435302
1458.1783740234	0.3479779065
1460.1071813965	0.3435750306
1462.0359887695	0.3412231505
1463.9647961426	0.3433288336
1465.8936035156	0.3427148461
1467.8224108886	0.3412309289
1469.7512182617	0.3398792446
1471.6800256347	0.3393018842
1473.6088330078	0.3375965953
1475.5376403808	0.3368049264
1477.4664477539	0.3386143744
1479.3952551269	0.3389083743
1481.3240625000	0.3352997899
1483.2528698730	0.3344093859
1485.1816772461	0.3348379135
1487.1104846191	0.3323681355
1489.0392919922	0.3313246369
1490.9680993652	0.3301692009
1492.8969067383	0.3293585181
1494.8257141113	0.3284313977
1496.7545214843	0.3287668824
1498.6833288574	0.3297420442
1500.6121362304	0.3287645280
1502.5409436035	0.3283206224
1504.4697509765	0.3253739178
1506.3985583496	0.3237550259
1508.3273657226	0.3243013918
1510.2561730957	0.3217941523
1512.1849804687	0.3228521049
1514.1137878418	0.3230158091
1516.0425952148	0.3219809234
1517.9714025879	0.3219101727
1519.9002099609	0.3190684021
1521.8290173340	0.3181802332
1523.7578247070	0.3182108700
1525.6866320801	0.3167347908
1527.6154394531	0.3167487979
1529.5442468261	0.3166976571
1531.4730541992	0.3164222240
1533.4018615722	0.3143058121
1535.3306689453	0.3129951954
1537.2594763183	0.3130463660
1539.1882836914	0.3102712929
1541.1170910644	0.3101358712
1543.0458984375	0.3105390668
1544.9747058105	0.3093971312
1546.9035131836	0.3085967004
1548.8323205566	0.3057320118
1550.7611279297	0.3056681454
1552.6899353027	0.3064379096
1554.6187426758	0.3046157062
1556.5475500488	0.3034462035
1558.4763574218	0.3017493784
1560.4051647949	0.3018173873
1562.3339721679	0.3001692891
1564.2627795410	0.2985521555
1566.1915869140	0.2988304198
1568.1203942871	0.2958935797
1570.0492016601	0.2961122990
1571.9780090332	0.2964757979
1573.9068164062	0.2934997380
1575.8356237793	0.2930311859
1577.7644311523	0.2899811566
1579.6932385254	0.2887935936
1581.6220458984	0.2900125980
1583.5508532715	0.2876788378
1585.4796606445	0.2868871093
1587.4084680175	0.2860622704
1589.3372753906	0.2838906348
1591.2660827636	0.2835233808
1593.1948901367	0.2825801671
1595.1236975097	0.2821705639
1597.0525048828	0.2811350822
1598.9813122558	0.2788804770
1600.9101196289	0.2784687281
1602.8389270019	0.2781893015
1604.7677343750	0.2769672871
1606.6965417480	0.2754278183
1608.6253491211	0.2752251923
1610.5541564941	0.2758393884
1612.4829638672	0.2757797241
1614.4117712402	0.2757472098
1616.3405786132	0.2756457031
1618.2693859863	0.2759294510
1620.1981933593	0.2765112519
1622.1270007324	0.2771365941
1624.0558081054	0.2786327899
1625.9846154785	0.2812916934
1627.9134228515	0.2825203538
1629.8422302246	0.2854450643
1631.7710375976	0.2877143621
1633.6998449707	0.2878111899
1635.6286523437	0.2924623787
1637.5574597168	0.2955597639
1639.4862670898	0.3000612259
1641.4150744629	0.3039026856
1643.3438818359	0.3061715662
1645.2726892090	0.3109149337
1647.2014965820	0.3128726482
1649.1303039550	0.3181757629
1651.0591113281	0.3211902976
1652.9879187011	0.3244126737
1654.9167260742	0.3302543461
1656.8455334472	0.3340677321
1658.7743408203	0.3396917284
1660.7031481933	0.3420193493
1662.6319555664	0.3466579020
1664.5607629394	0.3513690233
1666.4895703125	0.3547114730
1668.4183776855	0.3587867618
1670.3471850586	0.3625258505
1672.2759924316	0.3668842912
1674.2047998047	0.3688196242
1676.1336071777	0.3727812469
1678.0624145507	0.3772834837
1679.9912219238	0.3794855773
1681.9200292968	0.3831087053
1683.8488366699	0.3854618967
1685.7776440429	0.3874559700
1687.7064514160	0.3933977783
1689.6352587890	0.3961301446
1691.5640661621	0.3993675113
1693.4928735351	0.4024814665
1695.4216809082	0.4012429416
1697.3504882812	0.4068288803
1699.2792956543	0.4078503549
1701.2081030273	0.4085777998
1703.1369104004	0.4134632051
1705.0657177734	0.4134454429
1706.9945251464	0.4156117439
1708.9233325195	0.4164172113
1710.8521398925	0.4193690121
1712.7809472656	0.4203134477
1714.7097546386	0.4193738103
1716.6385620117	0.4216135144
1718.5673693847	0.4215210080
1720.4961767578	0.4260835648
1722.4249841308	0.4269214571
1724.3537915039	0.4253585637
1726.2825988769	0.4263426363
1728.2114062500	0.4261945784
1730.1402136230	0.4273842871
1732.0690209961	0.4261559248
1733.9978283691	0.4257158637
1735.9266357421	0.4280421138
1737.8554431152	0.4274402559
1739.7842504882	0.4258763194
1741.7130578613	0.4260616601
1743.6418652343	0.4260378480
1745.5706726074	0.4255738258
1747.4994799804	0.4263167977
1749.4282873535	0.4251781404
1751.3570947265	0.4237293303
1753.2859020996	0.4248944819
1755.2147094726	0.4247843921
1757.1435168457	0.4224426150
1759.0723242187	0.4234918356
1761.0011315918	0.4238931835
1762.9299389648	0.4214366376
1764.8587463379	0.4217115641
1766.7875537109	0.4211366773
1768.7163610839	0.4208038151
1770.6451684570	0.4199630320
1772.5739758300	0.4187435210
1774.5027832031	0.4189823568
1776.4315905761	0.4194155037
1778.3603979492	0.4195494056
1780.2892053222	0.4175889790
1782.2180126953	0.4197099805
1784.1468200683	0.4180238545
1786.0756274414	0.4144842029
1788.0044348144	0.4167968631
1789.9332421875	0.4149177074
1791.8620495605	0.4145722389
1793.7908569336	0.4149289429
1795.7196643066	0.4142124057
1797.6484716796	0.4139544666
1799.5772790527	0.4117872119
1801.5060864257	0.4126399755
1803.4348937988	0.4108133316
1805.3637011718	0.4099359214
1807.2925085449	0.4106782973
1809.2213159179	0.4084357023
1811.1501232910	0.4084970951
1813.0789306640	0.4077092707
1815.0077380371	0.4066420197
1816.9365454101	0.4070888162
1818.8653527832	0.4066815376
1820.7941601562	0.4067360461
1822.7229675293	0.4064213037
1824.6517749023	0.4053092897
1826.5805822753	0.4049198031
1828.5093896484	0.4040764570
1830.4381970214	0.4033879936
1832.3670043945	0.4035946131
1834.2958117675	0.4028242230
1836.2246191406	0.4021033347
1838.1534265136	0.4014100134
1840.0822338867	0.4014626145
1842.0110412597	0.4004859924
1843.9398486328	0.3985786736
1845.8686560058	0.3982165456
1847.7974633789	0.3981406689
1849.7262707519	0.3997832537
1851.6550781250	0.3985697627
1853.5838854980	0.3971028924
1855.5126928710	0.3972280920
1857.4415002441	0.3956831098
1859.3703076171	0.3953813314
1861.2991149902	0.3941753507
1863.2279223632	0.3943552375
1865.1567297363	0.3939341903
1867.0855371093	0.3926993310
1869.0143444824	0.3941383064
1870.9431518554	0.3936177790
1872.8719592285	0.3927071989
1874.8007666015	0.3915866017
1876.7295739746	0.3913120031
1878.6583813476	0.3909209371
1880.5871887207	0.3895337582
1882.5159960937	0.3899892271
1884.4448034667	0.3897615671
1886.3736108398	0.3885754645
1888.3024182128	0.3877139688
1890.2312255859	0.3876754642
1892.1600329589	0.3873551488
1894.0888403320	0.3872968554
1896.0176477050	0.3863537014
1897.9464550781	0.3841733932
1899.8752624511	0.3837768734
1901.8040698242	0.3837431967
1903.7328771972	0.3835708797
1905.6616845703	0.3822825849
1907.5904919433	0.3822270334
1909.5192993164	0.3835282028
1911.4481066894	0.3820431232
1913.3769140625	0.3806616962
1915.3057214355	0.3803718984
1917.2345288085	0.3803941607
1919.1633361816	0.3803041279
1921.0921435546	0.3785073161
1923.0209509277	0.3781970143
1924.9497583007	0.3795244098
1926.8785656738	0.3781522512
1928.8073730468	0.3782508969
1930.7361804199	0.3781792521
1932.6649877929	0.3758381903
1934.5937951660	0.3765448034
1936.5226025390	0.3761706948
1938.4514099121	0.3746908605
1940.3802172851	0.3739095628
1942.3090246582	0.3738667071
1944.2378320312	0.3736694753
1946.1666394042	0.3729971349
1948.0954467773	0.3743087649
1950.0242541503	0.3724498153
1951.9530615234	0.3706519604
1953.8818688964	0.3702088594
1955.8106762695	0.3697945476
1957.7394836425	0.3703752756
1959.6682910156	0.3688809276
1961.5970983886	0.3691863716
1963.5259057617	0.3692445755
1965.4547131347	0.3685298860
1967.3835205078	0.3678723276
1969.3123278808	0.3666778803
1971.2411352539	0.3681610227
1973.1699426269	0.3681460023
1975.0987499999	0.3657718897
1977.0275573730	0.3652991951
1978.9563647460	0.3654791117
1980.8851721191	0.3640434146
1982.8139794921	0.3639670610
1984.7427868652	0.3639977276
1986.6715942382	0.3633664846
1988.6004016113	0.3630168140
1990.5292089843	0.3622232378
1992.4580163574	0.3623046279
1994.3868237304	0.3607918918
1996.3156311035	0.3606290221
1998.2444384765	0.3601797819
2000.1732458496	0.3588421643
2002.1020532226	0.3601055443
2004.0308605956	0.3602268994
2005.9596679687	0.3600920141
2007.8884753417	0.3588782847
2009.8172827148	0.3577498794
2011.7460900878	0.3575790823
2013.6748974609	0.3582243323
2015.6037048339	0.3589924276
2017.5325122070	0.3579885364
2019.4613195800	0.3568125963
2021.3901269531	0.3559260964
2023.3189343261	0.3570070267
2025.2477416992	0.3549795151
2027.1765490722	0.3548130393
2029.1053564453	0.3566988707
2031.0341638183	0.3536922336
2032.9629711914	0.3545450866
2034.8917785644	0.3551045060
2036.8205859374	0.3530303538
2038.7493933105	0.3525684476
2040.6782006835	0.3537902534
2042.6070080566	0.3539972901
2044.5358154296	0.3525869846
2046.4646228027	0.3539150357
2048.3934301757	0.3525304794
2050.3222375488	0.3507293761
2052.2510449218	0.3519585133
2054.1798522949	0.3527231216
2056.1086596679	0.3502965569
2058.0374670410	0.3496242762
2059.9662744140	0.3530091941
2061.8950817871	0.3515799940
2063.8238891601	0.3509945571
2065.7526965331	0.3506338000
2067.6815039062	0.3495017588
2069.6103112792	0.3502430022
2071.5391186523	0.3485382795
2073.4679260253	0.3492510915
2075.3967333984	0.3493715525
2077.3255407714	0.3491062522
2079.2543481445	0.3492804468
2081.1831555175	0.3475293815
2083.1119628906	0.3482445776
2085.0407702636	0.3489044309
2086.9695776367	0.3487025201
2088.8983850097	0.3490649462
2090.8271923828	0.3482746482
2092.7559997558	0.3476909697
2094.6848071288	0.3489687145
2096.6136145019	0.3473691344
2098.5424218749	0.3466004431
2100.4712292480	0.3479638696
2102.4000366210	0.3464803994
2104.3288439941	0.3489781618
2106.2576513671	0.3490785360
2108.1864587402	0.3464521468
2110.1152661132	0.3479333222
2112.0440734863	0.3472446799
2113.9728808593	0.3479430377
2115.9016882324	0.3489353359
2117.8304956054	0.3477483988
2119.7593029785	0.3473674655
2121.6881103515	0.3469500542
2123.6169177245	0.3476747870
2125.5457250976	0.3477350771
2127.4745324706	0.3467580676
2129.4033398437	0.3478876054
2131.3321472167	0.3489574194
2133.2609545898	0.3469885886
2135.1897619628	0.3471273482
2137.1185693359	0.3487510085
2139.0473767089	0.3473256826
2140.9761840820	0.3469191194
2142.9049914550	0.3474667370
2144.8337988281	0.3477563560
2146.7626062011	0.3484592736
2148.6914135742	0.3492832482
2150.6202209472	0.3493278027
2152.5490283203	0.3482158780
2154.4778356933	0.3473163545
2156.4066430663	0.3466254473
2158.3354504394	0.3486741185
2160.2642578124	0.3491949141
2162.1930651855	0.3468199372
2164.1218725585	0.3476287425
2166.0506799316	0.3490192294
2167.9794873046	0.3491629064
2169.9082946777	0.3482930064
2171.8371020507	0.3490161300
2173.7659094238	0.3490436971
2175.6947167968	0.3484213352
2177.6235241699	0.3505695760
2179.5523315429	0.3486531973
2181.4811389160	0.3479923010
2183.4099462890	0.3486503363
2185.3387536620	0.3474110067
2187.2675610351	0.3489207327
2189.1963684081	0.3487053216
2191.1251757812	0.3482224941
2193.0539831542	0.3479503393
2194.9827905273	0.3493854105
2196.9115979003	0.3503913581
2198.8404052734	0.3489787281
2200.7692126464	0.3498821259
2202.6980200195	0.3485006094
2204.6268273925	0.3487465382
2206.5556347656	0.3501088321
2208.4844421386	0.3486234844
2210.4132495117	0.3489980400
2212.3420568847	0.3500219285
2214.2708642577	0.3492093682
2216.1996716308	0.3486958444
2218.1284790038	0.3503434658
2220.0572863769	0.3492686450
2221.9860937499	0.3494933248
2223.9149011230	0.3504130542
2225.8437084960	0.3494106829
2227.7725158691	0.3503647447
2229.7013232421	0.3493788540
2231.6301306152	0.3506951034
2233.5589379882	0.3500713408
2235.4877453613	0.3482275903
2237.4165527343	0.3504248261
2239.3453601074	0.3494129777
2241.2741674804	0.3495333791
2243.2029748534	0.3495448530
2245.1317822265	0.3490371704
2247.0605895995	0.3500845432
2248.9893969726	0.3500947654
2250.9182043456	0.3509768546
2252.8470117187	0.3509853780
2254.7758190917	0.3508837819
2256.7046264648	0.3505955935
2258.6334338378	0.3497030437
2260.5622412109	0.3493497968
2262.4910485839	0.3503848612
2264.4198559570	0.3515909910
2266.3486633300	0.3494987488
2268.2774707031	0.3483953178
2270.2062780761	0.3500437140
2272.1350854491	0.3497537971
2274.0638928222	0.3481850326
2275.9927001952	0.3494749963
2277.9215075683	0.3509485722
2279.8503149413	0.3499343693
2281.7791223144	0.3496710062
2283.7079296874	0.3496232331
2285.6367370605	0.3494389653
2287.5655444335	0.3498841822
2289.4943518066	0.3491614163
2291.4231591796	0.3492024839
2293.3519665527	0.3496911228
2295.2807739257	0.3486978114
2297.2095812988	0.3493888080
2299.1383886718	0.3487182856
2301.0671960449	0.3477286100
2302.9960034179	0.3491152227
2304.9248107909	0.3477812707
2306.8536181640	0.3473989964
2308.7824255370	0.3480031788
2310.7112329101	0.3474936783
2312.6400402831	0.3470061421
2314.5688476562	0.3463929594
2316.4976550292	0.3460043967
2318.4264624023	0.3445073068
2320.3552697753	0.3467717767
2322.2840771484	0.3477321863
2324.2128845214	0.3454234302
2326.1416918945	0.3450328410
2328.0704992675	0.3428023756
2329.9993066406	0.3433749080
2331.9281140136	0.3436363339
2333.8569213866	0.3436458707
2335.7857287597	0.3464891315
2337.7145361327	0.3439746499
2339.6433435058	0.3429366350
2341.5721508788	0.3445396125
2343.5009582519	0.3444411755
2345.4297656249	0.3448093832
2347.3585729980	0.3438765109
2349.2873803710	0.3454769850
2351.2161877441	0.3460555375
2353.1449951171	0.3428588510
2355.0738024902	0.3420231938
2357.0026098632	0.3414497375
2358.9314172363	0.3410537541
2360.8602246093	0.3411869109
2362.7890319823	0.3427039087
2364.7178393554	0.3430123329
2366.6466467284	0.3412713408
2368.5754541015	0.3419712484
2370.5042614745	0.3412742913
2372.4330688476	0.3429039419
2374.3618762206	0.3440319598
2376.2906835937	0.3434138298
2378.2194909667	0.3450134695
2380.1482983398	0.3447132111
2382.0771057128	0.3455210626
2384.0059130859	0.3451513946
2385.9347204589	0.3446356058
2387.8635278320	0.3444068432
2389.7923352050	0.3438131809
2391.7211425780	0.3456080854
2393.6499499511	0.3444387317
2395.5787573241	0.3439703882
2397.5075646972	0.3439553082
2399.4363720702	0.3439397812
2401.3651794433	0.3443513215
2403.2939868163	0.3438134491
2405.2227941894	0.3442374170
2407.1516015624	0.3423056901
2409.0804089355	0.3433259130
2411.0092163085	0.3434308767
2412.9380236816	0.3415599763
2414.8668310546	0.3441235423
2416.7956384277	0.3446848989
2418.7244458007	0.3434073627
2420.6532531738	0.3423709571
2422.5820605468	0.3420954645
2424.5108679198	0.3425583541
2426.4396752929	0.3425121307
2428.3684826659	0.3416364193
2430.2972900390	0.3416140676
2432.2260974120	0.3428331017
2434.1549047851	0.3422550559
2436.0837121581	0.3417568505
2438.0125195312	0.3413269222
2439.9413269042	0.3405100107
2441.8701342773	0.3406196833
2443.7989416503	0.3416021168
2445.7277490234	0.3412296772
2447.6565563964	0.3407370746
2449.5853637695	0.3407336175
2451.5141711425	0.3389778137
2453.4429785155	0.3402611911
2455.3717858886	0.3414366543
2457.3005932616	0.3387917280
2459.2294006347	0.3374854922
2461.1582080077	0.3397329748
2463.0870153808	0.3399090171
2465.0158227538	0.3386482000
2466.9446301269	0.3390212655
2468.8734374999	0.3368602395
2470.8022448730	0.3386600316
2472.7310522460	0.3386089504
2474.6598596191	0.3365129232
2476.5886669921	0.3382010460
2478.5174743652	0.3359856606
2480.4462817382	0.3369432986
2482.3750891112	0.3380757570
2484.3038964843	0.3374948204
2486.2327038573	0.3367712200
2488.1615112304	0.3357642293
2490.0903186034	0.3373690248
2492.0191259765	0.3352324963
2493.9479333495	0.3361134231
2495.8767407226	0.3361744285
2497.8055480956	0.3337234259
2499.7343554687	0.3353122771
2501.6631628417	0.3339769244
2503.5919702148	0.3322290778
2505.5207775878	0.3321534395
2507.4495849609	0.3326527178
2509.3783923339	0.3333611190
2511.3071997069	0.3343301713
2513.2360070800	0.3338413835
2515.1648144530	0.3328514695
2517.0936218261	0.3341684937
2519.0224291991	0.3337353766
2520.9512365722	0.3326891661
2522.8800439452	0.3311619759
2524.8088513183	0.3306413889
2526.7376586913	0.3312481940
2528.6664660644	0.3301773071
2530.5952734374	0.3293461502
2532.5240808105	0.3296384811
2534.4528881835	0.3308113515
2536.3816955566	0.3307631314
2538.3105029296	0.3305552304
2540.2393103027	0.3295676112
2542.1681176757	0.3291177154
2544.0969250487	0.3298336267
2546.0257324218	0.3284342885
2547.9545397948	0.3280910850
2549.8833471679	0.3287241161
2551.8121545409	0.3282927871
2553.7409619140	0.3271803856
2555.6697692870	0.3278057575
2557.5985766601	0.3283410966
2559.5273840331	0.3269926608
2561.4561914062	0.3270354569
2563.3849987792	0.3271483779
2565.3138061523	0.3264680803
2567.2426135253	0.3253348470
2569.1714208984	0.3252409399
2571.1002282714	0.3246348798
2573.0290356444	0.3244590461
2574.9578430175	0.3256161809
2576.8866503905	0.3243604302
2578.8154577636	0.3234269619
2580.7442651366	0.3230445385
2582.6730725097	0.3244789243
2584.6018798827	0.3240675330
2586.5306872558	0.3216507435
2588.4594946288	0.3239217401
2590.3883020019	0.3243128657
2592.3171093749	0.3228541613
2594.2459167480	0.3219671547
2596.1747241210	0.3214705884
2598.1035314941	0.3218240440
2600.0323388671	0.3202468157
2601.9611462401	0.3188986480
2603.8899536132	0.3187737763
2605.8187609862	0.3197215497
2607.7475683593	0.3199947476
2609.6763757323	0.3202452362
2611.6051831054	0.3197289705
2613.5339904784	0.3179796636
2615.4627978515	0.3184029758
2617.3916052245	0.3174162805
2619.3204125976	0.3169587851
2621.2492199706	0.3172658384
2623.1780273437	0.3165602088
2625.1068347167	0.3163607717
2627.0356420898	0.3145901561
2628.9644494628	0.3146747053
2630.8932568358	0.3156045377
2632.8220642089	0.3154881597
2634.7508715819	0.3139654100
2636.6796789550	0.3129228354
2638.6084863280	0.3151089847
2640.5372937011	0.3128366470
2642.4661010741	0.3112087846
2644.3949084472	0.3141645193
2646.3237158202	0.3137806952
2648.2525231933	0.3130522072
2650.1813305663	0.3136568964
2652.1101379394	0.3129121661
2654.0389453124	0.3112309575
2655.9677526855	0.3112179041
2657.8965600585	0.3109456301
2659.8253674315	0.3095312715
2661.7541748046	0.3097461462
2663.6829821776	0.3083334565
2665.6117895507	0.3075678647
2667.5405969237	0.3079943359
2669.4694042968	0.3067630827
2671.3982116698	0.3060666323
2673.3270190429	0.3058575988
2675.2558264159	0.3068360090
2677.1846337890	0.3062385917
2679.1134411620	0.3048256338
2681.0422485351	0.3059391379
2682.9710559081	0.3058086336
2684.8998632812	0.3047325015
2686.8286706542	0.3043738902
2688.7574780273	0.3044625819
2690.6862854003	0.3043003082
2692.6150927733	0.3033828139
2694.5439001464	0.3026236892
2696.4727075194	0.3023779988
2698.4015148925	0.3021439016
2700.3303222655	0.3007962704
2702.2591296386	0.3005617261
2704.1879370116	0.3004257083
2706.1167443847	0.2992613912
2708.0455517577	0.2993429899
2709.9743591308	0.2995322049
2711.9031665038	0.2993776500
2713.8319738769	0.2976717055
2715.7607812499	0.2983606458
2717.6895886230	0.2990076542
2719.6183959960	0.2956345081
2721.5472033690	0.2969213128
2723.4760107421	0.2968065441
2725.4048181151	0.2941434383
2727.3336254882	0.2955112457
2729.2624328612	0.2958716452
2731.1912402343	0.2950418591
2733.1200476073	0.2935300767
2735.0488549804	0.2933874726
2736.9776623534	0.2925280035
2738.9064697265	0.2917953730
2740.8352770995	0.2929663658
2742.7640844726	0.2911686897
2744.6928918456	0.2901653647
2746.6216992187	0.2896807194
2748.5505065917	0.2905863225
2750.4793139647	0.2903548777
2752.4081213378	0.2883855402
2754.3369287108	0.2890036702
2756.2657360839	0.2873858511
2758.1945434569	0.2882708907
2760.1233508300	0.2878806591
2762.0521582030	0.2853399813
2763.9809655761	0.2869780064
2765.9097729491	0.2870021164
2767.8385803222	0.2861179113
2769.7673876952	0.2849396765
2771.6961950683	0.2851240933
2773.6250024413	0.2845972478
2775.5538098144	0.2827140689
2777.4826171874	0.2830448449
2779.4114245604	0.2834818065
2781.3402319335	0.2830938399
2783.2690393065	0.2799115181
2785.1978466796	0.2797208130
2787.1266540526	0.2809070647
2789.0554614257	0.2795677781
2790.9842687987	0.2790426612
2792.9130761718	0.2786004245
2794.8418835448	0.2800832689
2796.7706909179	0.2789733410
2798.6994982909	0.2765786648
2800.6283056640	0.2761167288
2802.5571130370	0.2751612067
2804.4859204101	0.2750048637
2806.4147277831	0.2754294276
2808.3435351562	0.2758610845
2810.2723425292	0.2749143243
2812.2011499022	0.2748949230
2814.1299572753	0.2734590471
2816.0587646483	0.2726143301
2817.9875720214	0.2730910182
2819.9163793944	0.2701129019
2821.8451867675	0.2723031640
2823.7739941405	0.2737867534
2825.7028015136	0.2710319459
2827.6316088866	0.2705885470
2829.5604162597	0.2698449790
2831.4892236327	0.2699283361
2833.4180310058	0.2674757838
2835.3468383788	0.2663812339
2837.2756457519	0.2684145868
2839.2044531249	0.2672711611
2841.1332604979	0.2657048106
2843.0620678710	0.2638212740
2844.9908752440	0.2636967897
2846.9196826171	0.2647976279
2848.8484899901	0.2646889389
2850.7772973632	0.2643546164
2852.7061047362	0.2621141076
2854.6349121093	0.2620105743
2856.5637194823	0.2634584010
2858.4925268554	0.2615761757
2860.4213342284	0.2599015832
2862.3501416015	0.2625111938
2864.2789489745	0.2631311417
2866.2077563476	0.2580507100
2868.1365637206	0.2572890222
2870.0653710936	0.2587909997
2871.9941784667	0.2584033012
2873.9229858397	0.2595749795
2875.8517932128	0.2573105693
2877.7806005858	0.2563254535
2879.7094079589	0.2577373087
2881.6382153319	0.2555189431
2883.5670227050	0.2557585537
2885.4958300780	0.2567313612
2887.4246374511	0.2537045479
2889.3534448241	0.2520850003
2891.2822521972	0.2535253465
2893.2110595702	0.2533276379
2895.1398669433	0.2516741753
2897.0686743163	0.2512338161
2898.9974816893	0.2518201470
2900.9262890624	0.2523385882
2902.8550964354	0.2500017583
2904.7839038085	0.2489865422
2906.7127111815	0.2500908077
2908.6415185546	0.2483320534
2910.5703259276	0.2472916096
2912.4991333007	0.2468789220
2914.4279406737	0.2470420897
2916.3567480468	0.2464644313
2918.2855554198	0.2430456579
2920.2143627929	0.2443729490
2922.1431701659	0.2467415482
2924.0719775390	0.2459080368
2926.0007849120	0.2446456850
2927.9295922851	0.2426465005
2929.8583996581	0.2442173660
2931.7872070311	0.2448716760
2933.7160144042	0.2438844144
2935.6448217772	0.2451979667
2937.5736291503	0.2420435548
2939.5024365233	0.2393899560
2941.4312438964	0.2412961870
2943.3600512694	0.2424381971
2945.2888586425	0.2424530834
2947.2176660155	0.2409212887
2949.1464733886	0.2392680049
2951.0752807616	0.2388545722
2953.0040881347	0.2394595444
2954.9328955077	0.2394006401
2956.8617028808	0.2387965918
2958.7905102538	0.2392667681
2960.7193176268	0.2380501032
2962.6481249999	0.2373675853
2964.5769323729	0.2386126816
2966.5057397460	0.2389625758
2968.4345471190	0.2382393479
2970.3633544921	0.2364357412
2972.2921618651	0.2351359576
2974.2209692382	0.2337947637
2976.1497766112	0.2332711071
2978.0785839843	0.2338364422
2980.0073913573	0.2331256717
2981.9361987304	0.2319020033
2983.8650061034	0.2312007248
2985.7938134765	0.2332629263
2987.7226208495	0.2328416258
2989.6514282225	0.2305176109
2991.5802355956	0.2322142422
2993.5090429686	0.2320030928
2995.4378503417	0.2311715782
2997.3666577147	0.2295305580
2999.2954650878	0.2289881557
3001.2242724608	0.2318252027
3003.1530798339	0.2299214602
3005.0818872069	0.2285928428
3007.0106945800	0.2290282249
3008.9395019530	0.2271155417
3010.8683093261	0.2261091024
3012.7971166991	0.2270440012
3014.7259240722	0.2275936902
3016.6547314452	0.2250902951
3018.5835388182	0.2238600254
3020.5123461913	0.2258168459
3022.4411535643	0.2274807394
3024.3699609374	0.2250710428
3026.2987683104	0.2236775309
3028.2275756835	0.2251284420
3030.1563830565	0.2252226621
3032.0851904296	0.2257109135
3034.0139978026	0.2226586342
3035.9428051757	0.2216332257
3037.8716125487	0.2218315601
3039.8004199218	0.2208181173
3041.7292272948	0.2225817144
3043.6580346679	0.2192974091
3045.5868420409	0.2195917815
3047.5156494139	0.2220027298
3049.4444567870	0.2198009491
3051.3732641600	0.2203120291
3053.3020715331	0.2201388776
3055.2308789061	0.2186983675
3057.1596862792	0.2187000811
3059.0884936522	0.2207214981
3061.0173010253	0.2203452438
3062.9461083983	0.2190583050
3064.8749157714	0.2193356156
3066.8037231444	0.2177942842
3068.7325305175	0.2172613740
3070.6613378905	0.2169705480
3072.5901452636	0.2171113491
3074.5189526366	0.2164857090
3076.4477600097	0.2161626667
3078.3765673827	0.2171231210
3080.3053747557	0.2147940695
3082.2341821288	0.2127562463
3084.1629895018	0.2135584801
3086.0917968749	0.2144173533
3088.0206042479	0.2133776546
3089.9494116210	0.2140551805
3091.8782189940	0.2155871689
3093.8070263671	0.2145576775
3095.7358337401	0.2132540047
3097.6646411132	0.2114734203
3099.5934484862	0.2114333212
3101.5222558593	0.2129115015
3103.4510632323	0.2128462344
3105.3798706054	0.2124668062
3107.3086779784	0.2129401118
3109.2374853514	0.2113842070
3111.1662927245	0.2089567482
3113.0951000975	0.2098927647
3115.0239074706	0.2107981592
3116.9527148436	0.2103698999
3118.8815222167	0.2111692280
3120.8103295897	0.2119407058
3122.7391369628	0.2098752707
3124.6679443358	0.2086137533
3126.5967517089	0.2093674839
3128.5255590819	0.2103697956
3130.4543664550	0.2125933319
3132.3831738280	0.2107879072
3134.3119812011	0.2088262886
3136.2407885741	0.2095594555
3138.1695959471	0.2083089352
3140.0984033202	0.2079847753
3142.0272106932	0.2082792968
3143.9560180663	0.2096453756
3145.8848254393	0.2107267976
3147.8136328124	0.2085676938
3149.7424401854	0.2078197300
3151.6712475585	0.2077959180
3153.6000549315	0.2078716010
3155.5288623046	0.2102510929
3157.4576696776	0.2091119885
3159.3864770507	0.2083292305
3161.3152844237	0.2096309960
3163.2440917968	0.2075225860
3165.1728991698	0.2081463188
3167.1017065428	0.2085894495
3169.0305139159	0.2079892457
3170.9593212889	0.2096093893
3172.8881286620	0.2103374153
3174.8169360350	0.2097104341
3176.7457434081	0.2092597783
3178.6745507811	0.2104099393
3180.6033581542	0.2077447176
3182.5321655272	0.2082869262
3184.4609729003	0.2120707929
3186.3897802733	0.2121065259
3188.3185876464	0.2111841291
3190.2473950194	0.2084980905
3192.1762023925	0.2117834985
3194.1050097655	0.2129246145
3196.0338171386	0.2102866471
3197.9626245116	0.2143572569
3199.8914318846	0.2152115405
3201.8202392577	0.2116265744
3203.7490466307	0.2116197497
3205.6778540038	0.2134406716
3207.6066613768	0.2125507146
3209.5354687499	0.2159285098
3211.4642761229	0.2161195278
3213.3930834960	0.2116813064
3215.3218908690	0.2149198651
3217.2506982421	0.2175649405
3219.1795056151	0.2194190770
3221.1083129882	0.2182749510
3223.0371203612	0.2154619545
3224.9659277343	0.2171796858
3226.8947351073	0.2195494473
3228.8235424803	0.2189520448
3230.7523498534	0.2171063274
3232.6811572264	0.2195705175
3234.6099645995	0.2173217386
3236.5387719725	0.2189950794
3238.4675793456	0.2240991443
3240.3963867186	0.2218482345
3242.3251940917	0.2233302742
3244.2540014647	0.2273167521
3246.1828088378	0.2301436663
3248.1116162108	0.2253564298
3250.0404235839	0.2253399044
3251.9692309569	0.2285951227
3253.8980383300	0.2259795815
3255.8268457030	0.2316572070
3257.7556530760	0.2303003222
3259.6844604491	0.2296460122
3261.6132678221	0.2335998565
3263.5420751952	0.2316899300
3265.4708825682	0.2321998775
3267.3996899413	0.2304230034
3269.3284973143	0.2332545817
3271.2573046874	0.2331298739
3273.1861120604	0.2319694757
3275.1149194335	0.2355212867
3277.0437268065	0.2348712832
3278.9725341796	0.2391210347
3280.9013415526	0.2387125492
3282.8301489257	0.2361192852
3284.7589562987	0.2390667200
3286.6877636717	0.2409503609
3288.6165710448	0.2415342033
3290.5453784178	0.2404819429
3292.4741857909	0.2418901473
3294.4029931639	0.2416082472
3296.3318005370	0.2443840802
3298.2606079100	0.2445461303
3300.1894152831	0.2404167950
3302.1182226561	0.2482068986
3304.0470300292	0.2492674887
3305.9758374022	0.2447705120
3307.9046447753	0.2481253743
3309.8334521483	0.2472881228
3311.7622595214	0.2473783344
3313.6910668944	0.2487702817
3315.6198742675	0.2487804294
3317.5486816405	0.2521032691
3319.4774890135	0.2517063022
3321.4062963866	0.2516486049
3323.3351037596	0.2554637790
3325.2639111327	0.2554770708
3327.1927185057	0.2562011182
3329.1215258788	0.2569204569
3331.0503332518	0.2570796311
3332.9791406249	0.2595215738
3334.9079479979	0.2588736415
3336.8367553710	0.2586795688
3338.7655627440	0.2604236901
3340.6943701171	0.2640219927
3342.6231774901	0.2649137378
3344.5519848632	0.2603745759
3346.4807922362	0.2627002895
3348.4095996092	0.2660691440
3350.3384069823	0.2647792399
3352.2672143553	0.2673580647
3354.1960217284	0.2693297267
3356.1248291014	0.2700182796
3358.0536364745	0.2728155851
3359.9824438475	0.2719320655
3361.9112512206	0.2733486891
3363.8400585936	0.2752377391
3365.7688659667	0.2736490369
3367.6976733397	0.2808191180
3369.6264807128	0.2825195789
3371.5552880858	0.2794450819
3373.4840954589	0.2833143771
3375.4129028319	0.2833777666
3377.3417102049	0.2856515050
3379.2705175780	0.2859068811
3381.1993249510	0.2854775786
3383.1281323241	0.2914805114
3385.0569396971	0.2908260822
3386.9857470702	0.2893646955
3388.9145544432	0.2955211997
3390.8433618163	0.2970615625
3392.7721691893	0.2953575850
3394.7009765624	0.3007650375
3396.6297839354	0.3024050891
3398.5585913085	0.3040696084
3400.4873986815	0.3073963225
3402.4162060546	0.3076680899
3404.3450134276	0.3108020425
3406.2738208006	0.3083439767
3408.2026281737	0.3131437898
3410.1314355467	0.3190872669
3412.0602429198	0.3154255152
3413.9890502928	0.3181279302
3415.9178576659	0.3203619123
3417.8466650389	0.3235239983
3419.7754724120	0.3265975416
3421.7042797850	0.3296675086
3423.6330871581	0.3324114382
3425.5618945311	0.3314650953
3427.4907019042	0.3345352709
3429.4195092772	0.3344977498
3431.3483166503	0.3372155428
3433.2771240233	0.3430012763
3435.2059313963	0.3450571597
3437.1347387694	0.3450701833
3439.0635461424	0.3460832834
3440.9923535155	0.3528069556
3442.9211608885	0.3509126008
3444.8499682616	0.3508271873
3446.7787756346	0.3589615226
3448.7075830077	0.3572261930
3450.6363903807	0.3575863242
3452.5651977538	0.3619733751
3454.4940051268	0.3630616069
3456.4228124999	0.3650701046
3458.3516198729	0.3646645844
3460.2804272460	0.3677538335
3462.2092346190	0.3736093938
3464.1380419921	0.3728427589
3466.0668493651	0.3759224117
3467.9956567381	0.3803673983
3469.9244641112	0.3801187575
3471.8532714842	0.3850632310
3473.7820788573	0.3882346153
3475.7108862303	0.3872107565
3477.6396936034	0.3892039955
3479.5685009764	0.3908224702
3481.4973083495	0.3932023644
3483.4261157225	0.3991960883
3485.3549230956	0.4012602568
3487.2837304686	0.4003974199
3489.2125378417	0.4046019316
3491.1413452147	0.4053431749
3493.0701525878	0.4075563550
3494.9989599608	0.4123305082
3496.9277673338	0.4088466763
3498.8565747069	0.4147714972
3500.7853820799	0.4217421412
3502.7141894530	0.4170998931
3504.6429968260	0.4191156030
3506.5718041991	0.4216062725
3508.5006115721	0.4255023897
3510.4294189452	0.4331362247
3512.3582263182	0.4302669764
3514.2870336913	0.4305053651
3516.2158410643	0.4367068112
3518.1446484374	0.4358311296
3520.0734558104	0.4362409711
3522.0022631835	0.4397222996
3523.9310705565	0.4418576360
3525.8598779295	0.4440136254
3527.7886853026	0.4460474551
3529.7174926756	0.4484369755
3531.6463000487	0.4495065212
3533.5751074217	0.4550741911
3535.5039147948	0.4574163556
3537.4327221678	0.4548914433
3539.3615295409	0.4609423578
3541.2903369139	0.4621217251
3543.2191442870	0.4635354280
3545.1479516600	0.4654889703
3547.0767590331	0.4651036859
3549.0055664061	0.4734705985
3550.9343737792	0.4736706316
3552.8631811522	0.4764368832
3554.7919885252	0.4784066081
3556.7207958983	0.4766431153
3558.6496032713	0.4820177853
3560.5784106444	0.4772806466
3562.5072180174	0.4825626910
3564.4360253905	0.4911104441
3566.3648327635	0.4901359677
3568.2936401366	0.4905631840
3570.2224475096	0.4893516004
3572.1512548827	0.4983074665
3574.0800622557	0.5008634329
3576.0088696288	0.4997994006
3577.9376770018	0.5041072965
3579.8664843749	0.4986779690
3581.7952917479	0.4998105764
3583.7240991210	0.5079307556
3585.6529064940	0.5081667900
3587.5817138670	0.5048415661
3589.5105212401	0.5124100447
3591.4393286131	0.5196844339
3593.3681359862	0.5154778957
3595.2969433592	0.5153310299
3597.2257507323	0.5186976790
3599.1545581053	0.5175712705
3601.0833654784	0.5227562785
3603.0121728514	0.5288202763
3604.9409802245	0.5263801813
3606.8697875975	0.5276033282
3608.7985949706	0.5298478603
3610.7274023436	0.5322566032
3612.6562097167	0.5358666182
3614.5850170897	0.5379035473
3616.5138244627	0.5416185260
3618.4426318358	0.5404513478
3620.3714392088	0.5437573195
3622.3002465819	0.5466824174
3624.2290539549	0.5467919111
3626.1578613280	0.5475165844
3628.0866687010	0.5435435772
3630.0154760741	0.5504953265
3631.9442834471	0.5568603873
3633.8730908202	0.5612303615
3635.8018981932	0.5646507144
3637.7307055663	0.5663506985
3639.6595129393	0.5700870752
3641.5883203124	0.5686754584
3643.5171276854	0.5748960972
3645.4459350584	0.5771245360
3647.3747424315	0.5784410834
3649.3035498045	0.5801728964
3651.2323571776	0.5801184177
3653.1611645506	0.5888910890
3655.0899719237	0.5884985924
3657.0187792967	0.5922192931
3658.9475866698	0.5944278240
3660.8763940428	0.5971695185
3662.8052014159	0.6057898998
3664.7340087889	0.6050523520
3666.6628161620	0.6095524430
3668.5916235350	0.6088708043
3670.5204309081	0.6117190719
3672.4492382811	0.6191902161
3674.3780456541	0.6177936196
3676.3068530272	0.6214746833
3678.2356604002	0.6232358813
3680.1644677733	0.6247732639
3682.0932751463	0.6266545653
3684.0220825194	0.6299855113
3685.9508898924	0.6260936856
3687.8796972655	0.6222188473
3689.8085046385	0.6282964349
3691.7373120116	0.6284757257
3693.6661193846	0.6336047053
3695.5949267577	0.6323603988
3697.5237341307	0.6316515803
3699.4525415038	0.6351422071
3701.3813488768	0.6299095750
3703.3101562499	0.6335344315
3705.2389636229	0.6326618791
3707.1677709959	0.6303321123
3709.0965783690	0.6325784326
3711.0253857420	0.6322028041
3712.9541931151	0.6292747259
3714.8830004881	0.6256127357
3716.8118078612	0.6298792362
3718.7406152342	0.6268287897
3720.6694226073	0.6230565310
3722.5982299803	0.6238211989
3724.5270373534	0.6217583418
3726.4558447264	0.6201059222
3728.3846520995	0.6182661653
3730.3134594725	0.6189389229
3732.2422668456	0.6152255535
3734.1710742186	0.6165913939
3736.0998815916	0.6150585413
3738.0286889647	0.6129100919
3739.9574963377	0.6153191924
3741.8863037108	0.6081334949
3743.8151110838	0.6099584103
3745.7439184569	0.6093418598
3747.6727258299	0.6023992896
3749.6015332030	0.5993617177
3751.5303405760	0.6028138399
3753.4591479491	0.6078570485
3755.3879553221	0.6018250585
3757.3167626952	0.6022532582
3759.2455700682	0.5968921185
3761.1743774413	0.5957874060
3763.1031848143	0.6010763049
3765.0319921873	0.5969628096
3766.9607995604	0.6009207964
3768.8896069334	0.5959880948
3770.8184143065	0.5905149579
3772.7472216795	0.5929856300
3774.6760290526	0.5930057168
3776.6048364256	0.5924424529
3778.5336437987	0.5879324675
3780.4624511717	0.5899217725
3782.3912585448	0.5875130892
3784.3200659178	0.5863432884
3786.2488732909	0.5878247023
3788.1776806639	0.5824050903
3790.1064880370	0.5829372406
3792.0352954100	0.5842539072
3793.9641027830	0.5822410583
3795.8929101561	0.5802603960
3797.8217175291	0.5818458796
3799.7505249022	0.5784901381
3801.6793322752	0.5751979351
3803.6081396483	0.5802388787
3805.5369470213	0.5764434934
3807.4657543944	0.5769612789
3809.3945617674	0.5795016885
3811.3233691405	0.5741851926
3813.2521765135	0.5693024993
3815.1809838866	0.5682653189
3817.1097912596	0.5721545219
3819.0385986327	0.5724814534
3820.9674060057	0.5708074570
3822.8962133787	0.5700205564
3824.8250207518	0.5703793168
3826.7538281248	0.5666737556
3828.6826354979	0.5638889074
3830.6114428709	0.5710171461
3832.5402502440	0.5705223083
3834.4690576170	0.5657404065
3836.3978649901	0.5663332343
3838.3266723631	0.5626217723
3840.2554797362	0.5613827109
3842.1842871092	0.5607174039
3844.1130944823	0.5572909713
3846.0419018553	0.5580322742
3847.9707092284	0.5605252385
3849.8995166014	0.5591953993
3851.8283239745	0.5548080206
3853.7571313475	0.5497266054
3855.6859387205	0.5510276556
3857.6147460936	0.5573216677
3859.5435534666	0.5559065342
3861.4723608397	0.5528362393
3863.4011682127	0.5540483594
3865.3299755858	0.5491486788
3867.2587829588	0.5516413450
3869.1875903319	0.5529279709
3871.1163977049	0.5502609611
3873.0452050780	0.5503457189
3874.9740124510	0.5465379357
3876.9028198241	0.5514807701
3878.8316271971	0.5490438342
3880.7604345702	0.5453315377
3882.6892419432	0.5486261845
3884.6180493162	0.5440572500
3886.5468566893	0.5501965880
3888.4756640623	0.5464223623
3890.4044714354	0.5429754853
3892.3332788084	0.5493393540
3894.2620861815	0.5381004810
3896.1908935545	0.5402641296
3898.1197009276	0.5459457636
3900.0485083006	0.5403234959
3901.9773156737	0.5422053337
3903.9061230467	0.5395717621
3905.8349304198	0.5395587683
3907.7637377928	0.5412258506
3909.6925451659	0.5368016362
3911.6213525389	0.5408220887
3913.5501599119	0.5450787544
3915.4789672850	0.5359215736
3917.4077746580	0.5349965692
3919.3365820311	0.5411784053
3921.2653894041	0.5366265178
3923.1941967772	0.5391194820
3925.1230041502	0.5375062227
3927.0518115233	0.5300487876
3928.9806188963	0.5341190696
3930.9094262694	0.5330010056
3932.8382336424	0.5318292975
3934.7670410155	0.5363658071
3936.6958483885	0.5348644853
3938.6246557616	0.5316843987
3940.5534631346	0.5302850008
3942.4822705076	0.5314322114
3944.4110778807	0.5326143503
3946.3398852537	0.5298109055
3948.2686926268	0.5299088359
3950.1974999998	0.5321420431
3952.1263073729	0.5308868289
3954.0551147459	0.5297302604
3955.9839221190	0.5278088450
3957.9127294920	0.5320106745
3959.8415368651	0.5339501500
3961.7703442381	0.5295763016
3963.6991516112	0.5310576558
3965.6279589842	0.5273582339
3967.5567663573	0.5263043046
3969.4855737303	0.5260448456
3971.4143811034	0.5244511366
3973.3431884764	0.5281201601
3975.2719958494	0.5260030627
3977.2008032225	0.5277201533
3979.1296105955	0.5230568647
3981.0584179686	0.5189676285
3982.9872253416	0.5246825218
3984.9160327147	0.5253896117
3986.8448400877	0.5238300562
3988.7736474608	0.5183218718
3990.7024548338	0.5205619931
3992.6312622069	0.5183544755
3994.5600695799	0.5152585506
3996.4888769530	0.5204009414
3998.4176843260	0.5183503628
4000.3464916991	0.5237788558
4002.2752990721	0.5230553150
4004.2041064451	0.5176724195
4006.1329138182	0.5181291699
4008.0617211912	0.5173227191
4009.9905285643	0.5205121636
4011.9193359373	0.5199449062
4013.8481433104	0.5169827938
4015.7769506834	0.5157918930
4017.7057580565	0.5162609816
4019.6345654295	0.5144134760
4021.5633728026	0.5168153048
4023.4921801756	0.5145764351
4025.4209875487	0.5137261748
4027.3497949217	0.5220413804
4029.2786022948	0.5111668110
4031.2074096678	0.5133629441
4033.1362170408	0.5183801651
4035.0650244139	0.5116026402
4036.9938317869	0.5173886418
4038.9226391600	0.5132206082
4040.8514465330	0.5127184391
4042.7802539061	0.5140631199
4044.7090612791	0.5123628378
4046.6378686522	0.5100937486
4048.5666760252	0.5086467862
4050.4954833983	0.5142886043
4052.4242907713	0.5110126138
4054.3530981444	0.5129690170
4056.2819055174	0.5111449361
4058.2107128905	0.5111345649
4060.1395202635	0.5121302009
4062.0683276365	0.5034226179
4063.9971350096	0.5100044012
4065.9259423826	0.5096579194
4067.8547497557	0.5072969794
4069.7835571287	0.5112887025
4071.7123645018	0.5098139048
4073.6411718748	0.5094066858
4075.5699792479	0.5046706796
4077.4987866209	0.5005043745
4079.4275939940	0.5036678910
4081.3564013670	0.5106270313
4083.2852087401	0.5067757964
4085.2140161131	0.5038486719
4087.1428234862	0.5010249019
4089.0716308592	0.4981796443
4091.0004382323	0.5133565664
4092.9292456053	0.5105530024
4094.8580529783	0.4997193217
4096.7868603514	0.5077745914
4098.7156677244	0.5066455007
4100.6444750975	0.4990518093
4102.5732824705	0.5042065978
4104.5020898436	0.5094554424
4106.4308972166	0.5063894391
4108.3597045897	0.5080589056
4110.2885119627	0.5087386370
4112.2173193358	0.5078428388
4114.1461267088	0.5069864988
4116.0749340819	0.5015946627
4118.0037414549	0.5021188855
4119.9325488280	0.5010588765
4121.8613562010	0.4980457723
4123.7901635740	0.5030278563
4125.7189709471	0.5004662871
4127.6477783201	0.4971995652
4129.5765856932	0.5058469176
4131.5053930662	0.5032177567
4133.4342004393	0.4974101782
4135.3630078123	0.5018496513
4137.2918151854	0.5046027303
4139.2206225584	0.5021943450
4141.1494299315	0.4985119104
4143.0782373045	0.5032603741
4145.0070446776	0.5012268424
4146.9358520506	0.4986130893
4148.8646594237	0.5027838945
4150.7934667967	0.5013286471
4152.7222741697	0.5037653446
4154.6510815428	0.5007219315
4156.5798889158	0.4944286644
4158.5086962889	0.4903708696
4160.4375036619	0.4941491783
4162.3663110350	0.4994217157
4164.2951184080	0.4957989156
4166.2239257811	0.4998086989
4168.1527331541	0.4971304238
4170.0815405272	0.4951366186
4172.0103479002	0.4978696704
4173.9391552733	0.4949239194
4175.8679626463	0.4967790544
4177.7967700194	0.4969215691
4179.7255773924	0.4965243936
4181.6543847654	0.4980081618
4183.5831921385	0.5039978027
4185.5119995115	0.5016412735
4187.4408068846	0.4904940128
4189.3696142576	0.4869671762
4191.2984216307	0.4924380183
4193.2272290037	0.4955571294
4195.1560363768	0.4917675853
4197.0848437498	0.5002005100
4199.0136511229	0.4962407053
4200.9424584959	0.4941510260
4202.8712658690	0.5018090010
4204.8000732420	0.4906592965
4206.7288806151	0.4929250777
4208.6576879881	0.4916723967
4210.5864953611	0.4936628938
4212.5153027342	0.5014742017
4214.4441101072	0.4938275218
4216.3729174803	0.4936966300
4218.3017248533	0.4881898165
4220.2305322264	0.4923091233
4222.1593395994	0.4967001677
4224.0881469725	0.4941620231
4226.0169543455	0.5007146001
4227.9457617186	0.4919242263
4229.8745690916	0.4883003533
4231.8033764647	0.4891467690
4233.7321838377	0.4854451120
4235.6609912108	0.4897523820
4237.5897985838	0.4916660190
4239.5186059569	0.4887767732
4241.4474133299	0.4864912629
4243.3762207029	0.4929052293
4245.3050280760	0.4917463958
4247.2338354490	0.4851297736
4249.1626428221	0.4894292355
4251.0914501951	0.4878907800
4253.0202575682	0.4848968089
4254.9490649412	0.4849306345
4256.8778723143	0.4865983129
4258.8066796873	0.4944233298
4260.7354870604	0.4897670746
4262.6642944334	0.4853014946
4264.5931018065	0.4919668138
4266.5219091795	0.4900990129
4268.4507165526	0.4887507558
4270.3795239256	0.4877679944
4272.3083312986	0.4866460264
4274.2371386717	0.4862475991
4276.1659460447	0.4855065942
4278.0947534178	0.4928479195
4280.0235607908	0.4846705496
4281.9523681639	0.4821176827
4283.8811755369	0.4922918081
4285.8099829100	0.4818895757
4287.7387902830	0.4854668379
4289.6675976561	0.4931296110
4291.5964050291	0.4848010540
4293.5252124022	0.4857754707
4295.4540197752	0.4855920672
4297.3828271483	0.4857217073
4299.3116345213	0.4860332310
4301.2404418943	0.4828211367
4303.1692492674	0.4875573516
4305.0980566404	0.4871968329
4307.0268640135	0.4806366563
4308.9556713865	0.4812086821
4310.8844787596	0.4871398807
4312.8132861326	0.4893860817
4314.7420935057	0.4826481640
4316.6709008787	0.4801267087
4318.5997082518	0.4838182926
4320.5285156248	0.4802906215
4322.4573229979	0.4786610603
4324.3861303709	0.4858134687
4326.3149377440	0.4896439910
4328.2437451170	0.4881516993
4330.1725524900	0.4863107204
4332.1013598631	0.4809647202
4334.0301672361	0.4787150323
4335.9589746092	0.4811964035
4337.8877819822	0.4857385755
4339.8165893553	0.4930027425
4341.7453967283	0.4832416475
4343.6742041014	0.4775227606
4345.6030114744	0.4884634912
4347.5318188475	0.4808245599
4349.4606262205	0.4784478247
4351.3894335936	0.4873689413
4353.3182409666	0.4828785956
4355.2470483397	0.4822812080
4357.1758557127	0.4854080677
4359.1046630858	0.4809238911
4361.0334704588	0.4791911244
4362.9622778318	0.4853036106
4364.8910852049	0.4835196137
4366.8198925779	0.4777394235
4368.7486999510	0.4802657068
4370.6775073240	0.4816688895
4372.6063146971	0.4799666107
4374.5351220701	0.4809957743
4376.4639294432	0.4850628972
4378.3927368162	0.4843160808
4380.3215441893	0.4826756716
4382.2503515623	0.4792425931
4384.1791589354	0.4772692323
4386.1079663084	0.4784430563
4388.0367736815	0.4706374407
4389.9655810545	0.4749404788
4391.8943884275	0.4871737957
4393.8231958006	0.4900296330
4395.7520031736	0.4824267626
4397.6808105467	0.4752437770
4399.6096179197	0.4799575508
4401.5384252928	0.4773711860
4403.4672326658	0.4809549749
4405.3960400389	0.4806238115
4407.3248474119	0.4763524532
4409.2536547850	0.4788454771
4411.1824621580	0.4703272879
4413.1112695311	0.4763626456
4415.0400769041	0.4745968878
4416.9688842772	0.4714913964
4418.8976916502	0.4817436337
4420.8264990232	0.4788643718
4422.7553063963	0.4770447016
4424.6841137693	0.4714796245
4426.6129211424	0.4814938605
4428.5417285154	0.4869658947
4430.4705358885	0.4771692455
4432.3993432615	0.4837567806
4434.3281506346	0.4775104523
4436.2569580076	0.4790019393
4438.1857653807	0.4834170043
4440.1145727537	0.4694016278
4442.0433801268	0.4748716056
4443.9721874998	0.4860260487
4445.9009948729	0.4804477990
4447.8298022459	0.4755903780
4449.7586096189	0.4772917628
4451.6874169920	0.4746356905
4453.6162243650	0.4685062468
4455.5450317381	0.4697824717
4457.4738391111	0.4779037833
4459.4026464842	0.4800728559
4461.3314538572	0.4765755534
4463.2602612303	0.4701950252
4465.1890686033	0.4727577865
4467.1178759764	0.4826265872
4469.0466833494	0.4743578136
4470.9754907225	0.4652012587
4472.9042980955	0.4646809101
4474.8331054686	0.4690736234
4476.7619128416	0.4753307104
4478.6907202147	0.4769459665
4480.6195275877	0.4718444049
4482.5483349607	0.4667162299
4484.4771423338	0.4801329076
4486.4059497068	0.4716829956
4488.3347570799	0.4621679187
4490.2635644529	0.4772908092
4492.1923718260	0.4739830494
4494.1211791990	0.4757796824
4496.0499865721	0.4707029462
4497.9787939451	0.4667323530
4499.9076013182	0.4784882665
4501.8364086912	0.4770036936
4503.7652160643	0.4815550745
4505.6940234373	0.4786991775
4507.6228308104	0.4716121852
4509.5516381834	0.4707303345
4511.4804455564	0.4710160494
4513.4092529295	0.4802604616
4515.3380603025	0.4729621410
4517.2668676756	0.4681091309
4519.1956750486	0.4733680189
4521.1244824217	0.4610280991
4523.0532897947	0.4697666168
4524.9820971678	0.4837301970
4526.9109045408	0.4698636830
4528.8397119139	0.4749244750
4530.7685192869	0.4736558497
4532.6973266600	0.4638580382
4534.6261340330	0.4729821980
4536.5549414061	0.4699960947
4538.4837487791	0.4709870517
4540.4125561521	0.4746058285
4542.3413635252	0.4784616530
4544.2701708982	0.4771223366
4546.1989782713	0.4659942985
4548.1277856443	0.4714032412
4550.0565930174	0.4704796374
4551.9854003904	0.4668879211
4553.9142077635	0.4649051726
4555.8430151365	0.4700681567
4557.7718225096	0.4783456624
4559.7006298826	0.4671505094
4561.6294372557	0.4691848755
4563.5582446287	0.4695996046
4565.4870520018	0.4704734087
4567.4158593748	0.4738305211
4569.3446667478	0.4616641998
4571.2734741209	0.4701277614
4573.2022814939	0.4770149291
4575.1310888670	0.4732615054
4577.0598962400	0.4696958661
4578.9887036131	0.4688059688
4580.9175109861	0.4778488874
4582.8463183592	0.4662897587
4584.7751257322	0.4656044841
4586.7039331053	0.4780290723
4588.6327404783	0.4738732278
4590.5615478514	0.4794659615
4592.4903552244	0.4778338969
4594.4191625975	0.4655795693
4596.3479699705	0.4595654309
4598.2767773435	0.4665879011
4600.2055847166	0.4723331034
4602.1343920896	0.4596631527
4604.0631994627	0.4667171240
4605.9920068357	0.4682595730
4607.9208142088	0.4636234343
4609.8496215818	0.4787568450
4611.7784289549	0.4648641348
4613.7072363279	0.4566552043
4615.6360437010	0.4698071182
4617.5648510740	0.4687339962
4619.4936584471	0.4668786228
4621.4224658201	0.4658282399
4623.3512731932	0.4697702229
4625.2800805662	0.4683588743
4627.2088879393	0.4583724141
4629.1376953123	0.4610844553
4631.0665026853	0.4684395492
4632.9953100584	0.4643654227
4634.9241174314	0.4597870409
4636.8529248045	0.4671682119
4638.7817321775	0.4749948680
4640.7105395506	0.4739928544
4642.6393469236	0.4700108171
4644.5681542967	0.4745399654
4646.4969616697	0.4700726569
4648.4257690428	0.4598335922
4650.3545764158	0.4638220668
4652.2833837889	0.4656302631
4654.2121911619	0.4675865769
4656.1409985350	0.4565016031
4658.0698059080	0.4533673525
4659.9986132810	0.4749178588
4661.9274206541	0.4668823183
4663.8562280271	0.4576192200
4665.7850354002	0.4737235010
4667.7138427732	0.4773191512
4669.6426501463	0.4678897858
4671.5714575193	0.4707327783
4673.5002648924	0.4712789059
4675.4290722654	0.4588477910
4677.3578796385	0.4651912153
4679.2866870115	0.4680917859
4681.2154943846	0.4625606835
4683.1443017576	0.4671668112
4685.0731091307	0.4695846736
4687.0019165037	0.4689154625
4688.9307238767	0.4628786445
4690.8595312498	0.4653033316
4692.7883386228	0.4677452445
4694.7171459959	0.4735847414
4696.6459533689	0.4730797112
4698.5747607420	0.4616086185
4700.5035681150	0.4680032432
4702.4323754881	0.4652791321
4704.3611828611	0.4633236825
4706.2899902342	0.4635537863
4708.2187976072	0.4624996781
4710.1476049803	0.4641888440
4712.0764123533	0.4593687952
4714.0052197264	0.4681984484
4715.9340270994	0.4633815289
4717.8628344724	0.4638387859
4719.7916418455	0.4753603637
4721.7204492185	0.4761082232
4723.6492565916	0.4694283009
4725.5780639646	0.4626641273
4727.5068713377	0.4698471427
4729.4356787107	0.4531579912
4731.3644860838	0.4605318606
4733.2932934568	0.4721340239
4735.2221008299	0.4584350884
4737.1509082029	0.4672464430
4739.0797155760	0.4562410712
4741.0085229490	0.4577782750
4742.9373303221	0.4651613235
4744.8661376951	0.4678730667
4746.7949450682	0.4692986906
4748.7237524412	0.4555761814
4750.6525598142	0.4674917161
4752.5813671873	0.4727940857
4754.5101745603	0.4757398069
4756.4389819334	0.4662112594
4758.3677893064	0.4712504148
4760.2965966795	0.4854689538
4762.2254040525	0.4583482444
4764.1542114256	0.4616789818
4766.0830187986	0.4630812705
4768.0118261717	0.4637318850
4769.9406335447	0.4717667997
4771.8694409178	0.4609354138
4773.7982482908	0.4702609181
4775.7270556639	0.4707669020
4777.6558630369	0.4606469572
4779.5846704099	0.4522669315
4781.5134777830	0.4630497098
4783.4422851560	0.4727776945
4785.3710925291	0.4629548788
4787.2998999021	0.4686130881
4789.2287072752	0.4647539854
4791.1575146482	0.4510511160
4793.0863220213	0.4529715180
4795.0151293943	0.4716458619
4796.9439367674	0.4708109796
4798.8727441404	0.4548726380
4800.8015515135	0.4562006593
4802.7303588865	0.4615162611
4804.6591662596	0.4701150358
4806.5879736326	0.4673184752
4808.5167810056	0.4667591751
4810.4455883787	0.4600272775
4812.3743957517	0.4460597336
4814.3032031248	0.4576644003
4816.2320104978	0.4534929395
4818.1608178709	0.4562074542
4820.0896252439	0.4781281948
4822.0184326170	0.4598738253
4823.9472399900	0.4426884651
4825.8760473631	0.4531205893
4827.8048547361	0.4602251649
4829.7336621092	0.4644753933
4831.6624694822	0.4639391601
4833.5912768553	0.4580755830
4835.5200842283	0.4584267735
4837.4488916013	0.4635013938
4839.3776989744	0.4689959884
4841.3065063474	0.4654576480
4843.2353137205	0.4536883533
4845.1641210935	0.4641752541
4847.0929284666	0.4691461921
4849.0217358396	0.4473564327
4850.9505432127	0.4549171329
4852.8793505857	0.4592181742
4854.8081579588	0.4596331716
4856.7369653318	0.4630437493
4858.6657727049	0.4388415813
4860.5945800779	0.4526764154
4862.5233874510	0.4630285501
4864.4521948240	0.4556527436
4866.3810021971	0.4549915493
4868.3098095701	0.4487310052
4870.2386169431	0.4557392895
4872.1674243162	0.4451525211
4874.0962316892	0.4702712893
4876.0250390623	0.4743406475
4877.9538464353	0.4467033148
4879.8826538084	0.4634302855
4881.8114611814	0.4550890923
4883.7402685545	0.4653697014
4885.6690759275	0.4743763208
4887.5978833006	0.4668322206
4889.5266906736	0.4692300260
4891.4554980467	0.4523777366
4893.3843054197	0.4567776024
4895.3131127928	0.4606952965
4897.2419201658	0.4614965916
4899.1707275388	0.4611870646
4901.0995349119	0.4611403942
4903.0283422849	0.4654627740
4904.9571496580	0.4575167894
4906.8859570310	0.4570096731
4908.8147644041	0.4586366713
4910.7435717771	0.4566859305
4912.6723791502	0.4475643933
4914.6011865232	0.4606676996
4916.5299938963	0.4711039066
4918.4588012693	0.4584630132
4920.3876086424	0.4504973888
4922.3164160154	0.4405169785
4924.2452233885	0.4500188529
4926.1740307615	0.4521231949
4928.1028381345	0.4561241269
4930.0316455076	0.4579122066
4931.9604528806	0.4456541240
4933.8892602537	0.4573285580
4935.8180676267	0.4626073837
4937.7468749998	0.4649830461
4939.6756823728	0.4609866738
4941.6044897459	0.4569970965
4943.5332971189	0.4591943622
4945.4621044920	0.4567729235
4947.3909118650	0.4617601037
4949.3197192381	0.4619324207
4951.2485266111	0.4654066265
4953.1773339842	0.4555498362
4955.1061413572	0.4544730186
4957.0349487302	0.4611971974
4958.9637561033	0.4516861737
4960.8925634763	0.4601073861
4962.8213708494	0.4522262812
4964.7501782224	0.4431524575
4966.6789855955	0.4635783136
4968.6077929685	0.4712358713
4970.5366003416	0.4616144300
4972.4654077146	0.4638476372
4974.3942150877	0.4750004709
4976.3230224607	0.4610495865
4978.2518298338	0.4486624599
4980.1806372068	0.4588511884
4982.1094445799	0.4768816829
4984.0382519529	0.4784136415
4985.9670593259	0.4639508724
4987.8958666990	0.4671503305
4989.8246740720	0.4576623440
4991.7534814451	0.4423906505
4993.6822888181	0.4499111772
4995.6110961912	0.4539671540
4997.5399035642	0.4443145990
4999.4687109373	0.4416108131
5001.3975183103	0.4608715773
5003.3263256834	0.4565400481
5005.2551330564	0.4491656423
5007.1839404295	0.4600504935
5009.1127478025	0.4624467492
5011.0415551756	0.4677942991
5012.9703625486	0.4476764500
5014.8991699217	0.4553515911
5016.8279772947	0.4749831557
5018.7567846677	0.4570089281
5020.6855920408	0.4545647800
5022.6143994138	0.4438044429
5024.5432067869	0.4505243301
5026.4720141599	0.4501340389
5028.4008215330	0.4365239739
5030.3296289060	0.4598748982
5032.2584362791	0.4618098140
5034.1872436521	0.4541254938
5036.1160510252	0.4543520808
5038.0448583982	0.4527755976
5039.9736657713	0.4521430731
5041.9024731443	0.4516637623
5043.8312805174	0.4522968233
5045.7600878904	0.4580765963
5047.6888952634	0.4569319487
5049.6177026365	0.4489538372
5051.5465100095	0.4675656259
5053.4753173826	0.4655195475
5055.4041247556	0.4679960907
5057.3329321287	0.4558718801
5059.2617395017	0.4324729741
5061.1905468748	0.4489500821
5063.1193542478	0.4305484593
5065.0481616209	0.4480873048
5066.9769689939	0.4618221223
5068.9057763670	0.4448359311
5070.8345837400	0.4583873749
5072.7633911131	0.4539811015
5074.6921984861	0.4544655979
5076.6210058591	0.4329667985
5078.5498132322	0.4557190239
5080.4786206052	0.4820728600
5082.4074279783	0.4536803961
5084.3362353513	0.4532484710
5086.2650427244	0.4423483312
5088.1938500974	0.4559572935
5090.1226574705	0.4600744843
5092.0514648435	0.4565426707
5093.9802722166	0.4690613151
5095.9090795896	0.4497177303
5097.8378869627	0.4557043612
5099.7666943357	0.4737184346
5101.6955017088	0.4658153951
5103.6243090818	0.4453975558
5105.5531164548	0.4493575394
5107.4819238279	0.4538672864
5109.4107312009	0.4412029982
5111.3395385740	0.4489854872
5113.2683459470	0.4576146901
5115.1971533201	0.4756119251
5117.1259606931	0.4755427539
5119.0547680662	0.4567576647
5120.9835754392	0.4573934972
5122.9123828123	0.4516117871
5124.8411901853	0.4538370669
5126.7699975584	0.4633382857
5128.6988049314	0.4380004108
5130.6276123045	0.4321969151
5132.5564196775	0.4621256292
5134.4852270506	0.4549108148
5136.4140344236	0.4444727898
5138.3428417966	0.4567853212
5140.2716491697	0.4622674584
5142.2004565427	0.4546405971
5144.1292639158	0.4466547966
5146.0580712888	0.4470789135
5147.9868786619	0.4475128651
5149.9156860349	0.4558451176
5151.8444934080	0.4532857835
5153.7733007810	0.4509705007
5155.7021081541	0.4488160312
5157.6309155271	0.4493099451
5159.5597229002	0.4486069083
5161.4885302732	0.4370078444
5163.4173376463	0.4545295238
5165.3461450193	0.4561176002
5167.2749523923	0.4522660375
5169.2037597654	0.4556693733
5171.1325671384	0.4463607073
5173.0613745115	0.4517764151
5174.9901818845	0.4460375905
5176.9189892576	0.4466564953
5178.8477966306	0.4460127950
5180.7766040037	0.4520363510
5182.7054113767	0.4724793434
5184.6342187498	0.4495062232
5186.5630261228	0.4280305505
5188.4918334959	0.4388214946
5190.4206408689	0.4347534180
5192.3494482420	0.4343200028
5194.2782556150	0.4464573562
5196.2070629880	0.4457694888
5198.1358703611	0.4502106011
5200.0646777341	0.4489826262
5201.9934851072	0.4529932439
5203.9222924802	0.4548410177
5205.8510998533	0.4560493231
5207.7799072263	0.4563772976
5209.7087145994	0.4555883408
5211.6375219724	0.4814001918
5213.5663293455	0.4510823488
5215.4951367185	0.4449489117
5217.4239440916	0.4415648878
5219.3527514646	0.4220476449
5221.2815588377	0.4714152813
5223.2103662107	0.4332200885
5225.1391735837	0.4405805171
5227.0679809568	0.4745420516
5228.9967883298	0.4412961900
5230.9255957029	0.4569294453
5232.8544030759	0.4581777453
5234.7832104490	0.4817718267
5236.7120178220	0.4717696011
5238.6408251951	0.4600504339
5240.5696325681	0.4492106438
5242.4984399412	0.4283084571
5244.4272473142	0.4723545015
5246.3560546873	0.4575121701
5248.2848620603	0.4554816782
5250.2136694334	0.4548735321
5252.1424768064	0.4444173872
5254.0712841795	0.4485461712
5256.0000915525	0.4225529134
5257.9288989255	0.4458817840
5259.8577062986	0.4551199377
5261.7865136716	0.4710178077
5263.7153210447	0.4776788354
5265.6441284177	0.4482076764
5267.5729357908	0.4436757267
5269.5017431638	0.4582203627
5271.4305505369	0.4647938311
5273.3593579099	0.4238253534
5275.2881652830	0.4596731067
5277.2169726560	0.4857613444
5279.1457800291	0.4497520924
5281.0745874021	0.4634131789
5283.0033947752	0.4658798277
5284.9322021482	0.4884296656
5286.8610095212	0.4613800347
5288.7898168943	0.4302533865
5290.7186242673	0.4755423963
5292.6474316404	0.4729272723
5294.5762390134	0.4502416551
5296.5050463865	0.4499653876
5298.4338537595	0.4775944948
5300.3626611326	0.4793162644
5302.2914685056	0.4529189169
5304.2202758787	0.4615460634
5306.1490832517	0.4422698319
5308.0778906248	0.4379417598
5310.0066979978	0.4531124532
5311.9355053709	0.4449236691
5313.8643127439	0.4543115795
5315.7931201169	0.4498533905
5317.7219274900	0.4560713470
5319.6507348630	0.4617283940
5321.5795422361	0.4544343054
5323.5083496091	0.4655003250
5325.4371569822	0.4537506700
5327.3659643552	0.4461414516
5329.2947717283	0.4472900629
5331.2235791013	0.4517009854
5333.1523864744	0.4532613158
5335.0811938474	0.4589367509
5337.0100012205	0.4761351347
5338.9388085935	0.4487488568
5340.8676159666	0.4556164145
5342.7964233396	0.4520401657
5344.7252307126	0.4148841798
5346.6540380857	0.4479026496
5348.5828454587	0.4682182074
5350.5116528318	0.4733839333
5352.4404602048	0.4656553268
5354.3692675779	0.4595042765
5356.2980749509	0.4697526097
5358.2268823240	0.4494478405
5360.1556896970	0.4479646087
5362.0844970701	0.4679898918
5364.0133044431	0.4929539561
5365.9421118162	0.4682973921
5367.8709191892	0.4606026113
5369.7997265623	0.4771474600
5371.7285339353	0.4537047744
5373.6573413083	0.4704692662
5375.5861486814	0.4451158047
5377.5149560544	0.4598990679
5379.4437634275	0.4827643633
5381.3725708005	0.4289151728
5383.3013781736	0.4629034400
5385.2301855466	0.4542129040
5387.1589929197	0.4415200949
5389.0878002927	0.4649499953
5391.0166076658	0.4498599470
5392.9454150388	0.4658263922
5394.8742224119	0.4787623286
5396.8030297849	0.4933671951
5398.7318371580	0.4432428479
5400.6606445310	0.4505537152
5402.5894519041	0.5036590695
5404.5182592771	0.4590611160
5406.4470666501	0.4763590693
5408.3758740232	0.4724650383
5410.3046813962	0.4338790476
5412.2334887693	0.4686364532
5414.1622961423	0.4850965440
5416.0911035154	0.4481554031
5418.0199108884	0.4490618110
5419.9487182615	0.4731240273
5421.8775256345	0.4575636685
5423.8063330076	0.4951629639
5425.7351403806	0.4883388579
5427.6639477537	0.4442813098
5429.5927551267	0.4613861740
5431.5215624998	0.4692054093
5433.4503698728	0.4756031632
5435.3791772458	0.4611717165
5437.3079846189	0.4882636964
5439.2367919919	0.4623558223
5441.1655993650	0.4290560782
5443.0944067380	0.4966026247
5445.0232141111	0.4670030475
5446.9520214841	0.4312535226
5448.8808288572	0.4292615354
5450.8096362302	0.4523887336
5452.7384436033	0.5004114509
5454.6672509763	0.4633705616
5456.5960583494	0.4590241313
5458.5248657224	0.4724535644
5460.4536730955	0.4366301596
5462.3824804685	0.4136998653
5464.3112878415	0.4214434028
5466.2400952146	0.4550286829
5468.1689025876	0.4681520462
5470.0977099607	0.4434089363
5472.0265173337	0.4796376824
5473.9553247068	0.4917117059
5475.8841320798	0.4316173792
5477.8129394529	0.4618244469
5479.7417468259	0.4558480084
5481.6705541990	0.4528233409
5483.5993615720	0.5024666190
5485.5281689451	0.4696165621
5487.4569763181	0.4888488054
5489.3857836912	0.4805144072
5491.3145910642	0.4367700219
5493.2433984372	0.4551589787
5495.1722058103	0.4449695647
5497.1010131833	0.4533462822
5499.0298205564	0.4563315809
5500.9586279294	0.4633632600
5502.8874353025	0.4601541758
5504.8162426755	0.4331112206
5506.7450500486	0.4782810509
5508.6738574216	0.4703440964
5510.6026647947	0.4373866320
5512.5314721677	0.4696360528
5514.4602795408	0.4729434252
5516.3890869138	0.4856257439
5518.3178942869	0.4755060077
5520.2467016599	0.4520955682
5522.1755090330	0.4781979024
5524.1043164060	0.4734724462
5526.0331237790	0.4848537743
5527.9619311521	0.4698751271
5529.8907385251	0.4447171092
5531.8195458982	0.4728499949
5533.7483532712	0.4515281022
5535.6771606443	0.4284216464
5537.6059680173	0.4816259444
5539.5347753904	0.5342763662
5541.4635827634	0.4783160686
5543.3923901365	0.4649497569
5545.3211975095	0.4851967394
5547.2500048826	0.4700601399
5549.1788122556	0.4978938103
5551.1076196287	0.4393918216
5553.0364270017	0.4422163963
5554.9652343747	0.4832367897
5556.8940417478	0.4524391592
5558.8228491208	0.4840032160
5560.7516564939	0.4553316534
5562.6804638669	0.4602076411
5564.6092712400	0.4730236530
5566.5380786130	0.4591033161
5568.4668859861	0.5005379319
5570.3956933591	0.4828123748
5572.3245007322	0.4688233733
5574.2533081052	0.4297945499
5576.1821154783	0.4423922598
5578.1109228513	0.4902999401
5580.0397302244	0.4421099424
5581.9685375974	0.4459146559
5583.8973449704	0.4839657843
5585.8261523435	0.4831438661
5587.7549597165	0.4424176514
5589.6837670896	0.4315103292
5591.6125744626	0.4742296338
5593.5413818357	0.4783774018
5595.4701892087	0.4676467776
5597.3989965818	0.4721955657
5599.3278039548	0.4596266747
5601.2566113279	0.4430029988
5603.1854187009	0.4719025791
5605.1142260740	0.4733221233
5607.0430334470	0.4699434042
5608.9718408201	0.4792591333
5610.9006481931	0.4420232773
5612.8294555661	0.4365372062
5614.7582629392	0.4680207372
5616.6870703122	0.4975533485
5618.6158776853	0.4836967885
5620.5446850583	0.4857151210
5622.4734924314	0.4575715065
5624.4022998044	0.3979957700
5626.3311071775	0.4638340771
5628.2599145505	0.4627770185
5630.1887219236	0.4479581714
5632.1175292966	0.4574590325
5634.0463366697	0.4334522486
5635.9751440427	0.5016455054
5637.9039514158	0.4796847701
5639.8327587888	0.4396651089
5641.7615661619	0.4464785159
5643.6903735349	0.4306474626
5645.6191809079	0.4630167782
5647.5479882810	0.4642002881
5649.4767956540	0.4801315069
5651.4056030271	0.4817751050
5653.3344104001	0.4495801330
5655.2632177732	0.4804507494
5657.1920251462	0.4801717699
5659.1208325193	0.4233747125
5661.0496398923	0.4163038433
5662.9784472654	0.4496125877
5664.9072546384	0.4607239962
5666.8360620115	0.4647130072
5668.7648693845	0.4474238455
5670.6936767576	0.4727789164
5672.6224841306	0.4994555414
5674.5512915036	0.4630313814
5676.4800988767	0.4840621650
5678.4089062497	0.4899087548
5680.3377136228	0.4601285160
5682.2665209958	0.4734104276
5684.1953283689	0.4606487155
5686.1241357419	0.4471491575
5688.0529431150	0.4927016497
5689.9817504880	0.4672776163
5691.9105578611	0.4509169161
5693.8393652341	0.5273263454
5695.7681726072	0.4674127400
5697.6969799802	0.4284846783
5699.6257873533	0.4817812145
5701.5545947263	0.4646651149
5703.4834020993	0.4704799652
5705.4122094724	0.5289474726
5707.3410168454	0.5244688392
5709.2698242185	0.4031406343
5711.1986315915	0.4202204049
5713.1274389646	0.4758029878
5715.0562463376	0.4199368656
5716.9850537107	0.4501625896
5718.9138610837	0.4768013656
5720.8426684568	0.4959105551
5722.7714758298	0.4790390730
5724.7002832029	0.4274777770
5726.6290905759	0.4752335250
5728.5578979490	0.4509488642
5730.4867053220	0.4093688726
5732.4155126950	0.4725497365
5734.3443200681	0.4835878611
5736.2731274411	0.4661019742
5738.2019348142	0.4884366989
5740.1307421872	0.4616777897
5742.0595495603	0.4688177705
5743.9883569333	0.4974254966
5745.9171643064	0.4574558139
5747.8459716794	0.4434489906
5749.7747790525	0.4665168524
5751.7035864255	0.4669414461
5753.6323937986	0.4399832189
5755.5612011716	0.4539981484
5757.4900085447	0.4520469010
5759.4188159177	0.4535526633
5761.3476232907	0.4911261201
5763.2764306638	0.4441689849
5765.2052380368	0.4392981827
5767.1340454099	0.4994486272
5769.0628527829	0.4927338958
5770.9916601560	0.4699445665
5772.9204675290	0.5135490894
5774.8492749021	0.4755273759
5776.7780822751	0.4620524645
5778.7068896482	0.5014244318
5780.6356970212	0.4201882482
5782.5645043943	0.4777072370
5784.4933117673	0.4940542579
5786.4221191404	0.4494812787
5788.3509265134	0.4745306969
5790.2797338865	0.4252415895
5792.2085412595	0.4891680479
5794.1373486325	0.4474075735
5796.0661560056	0.4204840362
5797.9949633786	0.5183323622
5799.9237707517	0.4606137574
5801.8525781247	0.4367582202
5803.7813854978	0.4490534365
5805.7101928708	0.4723079503
5807.6390002439	0.5416594148
5809.5678076169	0.5089510083
5811.4966149900	0.4100862443
5813.4254223630	0.4214152396
5815.3542297361	0.4543955326
5817.2830371091	0.4306608140
5819.2118444822	0.4426504374
5821.1406518552	0.4633229673
5823.0694592282	0.5278831124
5824.9982666013	0.4591305554
5826.9270739743	0.4616570473
5828.8558813474	0.5023027062
5830.7846887204	0.4454468191
5832.7134960935	0.4820096195
5834.6423034665	0.3756893575
5836.5711108396	0.3923273385
5838.4999182126	0.4727489054
5840.4287255857	0.4353010058
5842.3575329587	0.4815576673
5844.2863403318	0.4201448858
5846.2151477048	0.4765085876
5848.1439550779	0.4893559515
5850.0727624509	0.4618673325
5852.0015698239	0.5033358335
5853.9303771970	0.4455791712
5855.8591845700	0.5032585859
5857.7879919431	0.4599159658
5859.7167993161	0.4489681423
5861.6456066892	0.4659572244
5863.5744140622	0.4223923981
5865.5032214353	0.5064669847
5867.4320288083	0.4670820832
5869.3608361814	0.5003743172
5871.2896435544	0.5092162490
5873.2184509275	0.4406292737
5875.1472583005	0.5371991396
5877.0760656736	0.4880230129
5879.0048730466	0.4460450113
5880.9336804196	0.4489639103
5882.8624877927	0.4357034266
5884.7912951657	0.5050557852
5886.7201025388	0.4695143104
5888.6489099118	0.4729343951
5890.5777172849	0.5286989212
5892.5065246579	0.4839861393
5894.4353320310	0.4500203729
5896.3641394040	0.4604949653
5898.2929467771	0.4744625092
5900.2217541501	0.4918494225
5902.1505615232	0.5220022798
5904.0793688962	0.5113087893
5906.0081762693	0.4882148802
5907.9369836423	0.5188926458
5909.8657910154	0.5130817890
5911.7945983884	0.4466322362
5913.7234057614	0.4228186011
5915.6522131345	0.4403092563
5917.5810205075	0.4931839108
5919.5098278806	0.5327661037
5921.4386352536	0.4084942639
5923.3674426267	0.4567161798
5925.2962499997	0.5664539933
5927.2250573728	0.4153517485
5929.1538647458	0.4469598234
5931.0826721189	0.5361045599
5933.0114794919	0.5279738307
5934.9402868650	0.5392014980
5936.8690942380	0.4596880078
5938.7979016111	0.4746518731
5940.7267089841	0.4934419394
5942.6555163571	0.4656352103
5944.5843237302	0.4780943990
5946.5131311032	0.4237853587
5948.4419384763	0.4245546162
5950.3707458493	0.4789591134
5952.2995532224	0.4401503801
5954.2283605954	0.4645011723
5956.1571679685	0.4942151606
5958.0859753415	0.4629052281
5960.0147827146	0.5818907022
5961.9435900876	0.5609779954
5963.8723974607	0.4860634506
5965.8012048337	0.5096918344
5967.7300122068	0.4853770435
5969.6588195798	0.5158987641
5971.5876269528	0.4540328085
5973.5164343259	0.4580070972
5975.4452416989	0.5109626055
5977.3740490720	0.4685174525
5979.3028564450	0.4905835390
5981.2316638181	0.4719980061
5983.1604711911	0.5028151870
5985.0892785642	0.4788734317
5987.0180859372	0.4311034083
5988.9468933103	0.4509667158
5990.8757006833	0.4323634207
5992.8045080564	0.4834331572
5994.7333154294	0.4637806416
5996.6621228025	0.4263404012
5998.5909301755	0.4563344121
6000.5197375485	0.4898181856
