399.2631262207	0.0004939663
401.1919335938	0.0002440340
403.1207409668	0.0002500447
405.0495483398	0.0002327639
406.9783557129	0.0003521359
408.9071630859	0.0002571944
410.8359704590	0.0004667119
412.7647778320	0.0002440172
414.6935852051	0.0001610575
416.6223925781	0.0003461837
418.5511999512	0.0001546470
420.4800073242	0.0004299212
422.4088146973	0.0003903784
424.3376220703	0.0007646880
426.2664294434	0.0008962888
428.1952368164	0.0001890306
430.1240441895	0.0005595282
432.0528515625	0.0007243282
433.9816589355	0.0005511811
435.9104663086	0.0007107464
437.8392736816	0.0004421365
439.7680810547	0.0005243024
441.6968884277	0.0007071290
443.6256958008	0.0002887996
445.5545031738	0.0001728765
447.4833105469	0.0005753599
449.4121179199	0.0004945454
451.3409252930	0.0004247798
453.2697326660	0.0006629170
455.1985400391	0.0005696377
457.1273474121	0.0006171635
459.0561547852	0.0002557142
460.9849621582	-0.0001507048
462.9137695313	0.0003647921
464.8425769043	0.0004060148
466.7713842773	-0.0000124716
468.7001916504	-0.0000530017
470.6289990234	0.0002532969
472.5578063965	0.0003014810
474.4866137695	0.0000944997
476.4154211426	0.0005110276
478.3442285156	0.0004866640
480.2730358887	0.0002605171
482.2018432617	0.0002548925
484.1306506348	0.0000270272
486.0594580078	0.0001637603
487.9882653809	0.0000346080
489.9170727539	0.0000247865
491.8458801270	-0.0000162692
493.7746875000	-0.0001304486
495.7034948730	0.0001717407
497.6323022461	0.0003448985
499.5611096191	0.0003403624
501.4899169922	-0.0001056811
503.4187243652	0.0001372120
505.3475317383	0.0004469719
507.2763391113	-0.0000114200
509.2051464844	-0.0000350736
511.1339538574	0.0001858987
513.0627612305	0.0003091597
514.9915686035	-0.0000257376
516.9203759766	0.0000784251
518.8491833496	0.0003985825
520.7779907227	0.0002339077
522.7067980957	0.0003846124
524.6356054688	0.0001484237
526.5644128418	0.0001179590
528.4932202148	0.0002113788
530.4220275879	-0.0001847905
532.3508349609	-0.0001193013
534.2796423340	-0.0000099009
536.2084497070	0.0004015100
538.1372570801	0.0007359046
540.0660644531	0.0004286430
541.9948718262	0.0002937740
543.9236791992	0.0001860008
545.8524865723	0.0003360415
547.7812939453	0.0004745879
549.7101013184	0.0002469178
551.6389086914	0.0003891340
553.5677160645	0.0005527167
555.4965234375	0.0002803367
557.4253308105	0.0001578176
559.3541381836	0.0002350508
561.2829455566	-0.0001132620
563.2117529297	-0.0000808675
565.1405603027	0.0005227745
567.0693676758	0.0004433330
568.9981750488	0.0002461676
570.9269824219	0.0000956760
572.8557897949	0.0000459224
574.7845971680	0.0003395540
576.7134045410	0.0001698369
578.6422119141	0.0003764776
580.5710192871	0.0006549984
582.4998266602	0.0001167562
584.4286340332	-0.0000127959
586.3574414063	0.0003016403
588.2862487793	0.0001188417
590.2150561523	0.0000265523
592.1438635254	0.0003167195
594.0726708984	0.0002424763
596.0014782715	0.0000682153
597.9302856445	0.0000503598
599.8590930176	0.0002205758
601.7879003906	-0.0000081329
603.7167077637	-0.0001402901
605.6455151367	0.0002887497
607.5743225098	-0.0000048043
609.5031298828	0.0000643913
611.4319372559	0.0003538120
613.3607446289	-0.0000187736
615.2895520020	0.0001088836
617.2183593750	0.0001979202
619.1471667480	-0.0000510059
621.0759741211	-0.0000590808
623.0047814941	0.0000030892
624.9335888672	0.0001674119
626.8623962402	0.0000099950
628.7912036133	0.0000656759
630.7200109863	0.0004382404
632.6488183594	0.0004091456
634.5776257324	0.0005548414
636.5064331055	0.0005729474
638.4352404785	0.0004022311
640.3640478516	0.0007447939
642.2928552246	0.0008942600
644.2216625977	0.0007608326
646.1504699707	0.0007934752
648.0792773438	0.0008114282
650.0080847168	0.0008587911
651.9368920898	0.0007247505
653.8656994629	0.0008247167
655.7945068359	0.0010904967
657.7233142090	0.0009415792
659.6521215820	0.0009319084
661.5809289551	0.0012864569
663.5097363281	0.0012678273
665.4385437012	0.0009613605
667.3673510742	0.0011676714
669.2961584473	0.0013332751
671.2249658203	0.0014303613
673.1537731934	0.0015047108
675.0825805664	0.0014667752
677.0113879395	0.0016842512
678.9401953125	0.0012871928
680.8690026855	0.0011716243
682.7978100586	0.0015663151
684.7266174316	0.0015858256
686.6554248047	0.0018648689
688.5842321777	0.0017371178
690.5130395508	0.0014830375
692.4418469238	0.0015388521
694.3706542969	0.0016071240
696.2994616699	0.0021307510
698.2282690430	0.0023287775
700.1570764160	0.0022645108
702.0858837891	0.0024968572
704.0146911621	0.0024554904
705.9434985352	0.0021988316
707.8723059082	0.0017579873
709.8011132813	0.0013373476
711.7299206543	0.0011934177
713.6587280273	0.0005822196
715.5875354004	0.0002798242
717.5163427734	0.0005891932
719.4451501465	0.0001782918
721.3739575195	0.0001317370
723.3027648926	0.0003852810
725.2315722656	0.0000607297
727.1603796387	0.0001869714
729.0891870117	0.0002667963
731.0179943848	0.0000116147
732.9468017578	-0.0002589778
734.8756091309	0.0000967754
736.8044165039	0.0003670963
738.7332238770	-0.0000306104
740.6620312500	0.0002496028
742.5908386230	0.0002185013
744.5196459961	0.0000471402
746.4484533691	0.0003096403
748.3772607422	0.0003081689
750.3060681152	0.0002929703
752.2348754883	0.0002865654
754.1636828613	0.0001456979
756.0924902344	0.0001566968
758.0212976074	0.0000338421
759.9501049805	-0.0000199727
761.8789123535	0.0002545243
763.8077197266	0.0003122144
765.7365270996	0.0004304098
767.6653344727	0.0001469382
769.5941418457	0.0000225523
771.5229492188	0.0003367900
773.4517565918	0.0003232101
775.3805639648	0.0004358180
777.3093713379	0.0001860397
779.2381787109	0.0003573903
781.1669860840	0.0004985617
783.0957934570	0.0001242317
785.0246008301	0.0005521778
786.9534082031	0.0002977804
788.8822155762	0.0000547977
790.8110229492	0.0004329442
792.7398303223	0.0001744147
794.6686376953	0.0002937644
796.5974450684	0.0005285735
798.5262524414	0.0004039658
800.4550598145	0.0003630736
802.3838671875	0.0001409164
804.3126745605	0.0000560524
806.2414819336	0.0002264723
808.1702893066	0.0002751337
810.0990966797	0.0003561555
812.0279040527	0.0002291634
813.9567114258	0.0002644853
815.8855187988	0.0005732178
817.8143261719	0.0003539391
819.7431335449	0.0002711976
821.6719409180	0.0004123881
823.6007482910	0.0003550441
825.5295556641	0.0003171259
827.4583630371	0.0005417729
829.3871704102	0.0007402356
831.3159777832	0.0005796693
833.2447851563	0.0005097417
835.1735925293	0.0004522589
837.1023999023	0.0007712789
839.0312072754	0.0009844784
840.9600146484	0.0007080427
842.8888220215	0.0007160223
844.8176293945	0.0007038899
846.7464367676	0.0006337120
848.6752441406	0.0005702069
850.6040515137	0.0006476488
852.5328588867	0.0004804110
854.4616662598	0.0002450130
856.3904736328	0.0004643283
858.3192810059	0.0005287819
860.2480883789	0.0004854961
862.1768957520	0.0004238281
864.1057031250	0.0003518809
866.0345104980	0.0003482344
867.9633178711	0.0006097403
869.8921252441	0.0004843995
871.8209326172	0.0002762433
873.7497399902	0.0005396035
875.6785473633	0.0003336362
877.6073547363	0.0004123429
879.5361621094	0.0004592086
881.4649694824	0.0004024950
883.3937768555	0.0006165023
885.3225842285	0.0005422727
887.2513916016	0.0004929656
889.1801989746	0.0002873039
891.1090063477	0.0001536503
893.0378137207	0.0001714528
894.9666210938	0.0005279529
896.8954284668	0.0004862093
898.8242358398	0.0002689648
900.7530432129	0.0005683972
902.6818505859	0.0002160326
904.6106579590	0.0004723795
906.5394653320	0.0007058380
908.4682727051	0.0003396440
910.3970800781	0.0003981363
912.3258874512	0.0005179010
914.2546948242	0.0007599660
916.1835021973	0.0004235577
918.1123095703	0.0005391592
920.0411169434	0.0006412636
921.9699243164	0.0003734133
923.8987316895	0.0007708315
925.8275390625	0.0007090066
927.7563464355	0.0007329343
929.6851538086	0.0008047964
931.6139611816	0.0008295977
933.5427685547	0.0008099579
935.4715759277	0.0006761824
937.4003833008	0.0011985686
939.3291906738	0.0011304824
941.2579980469	0.0008974362
943.1868054199	0.0012120244
945.1156127930	0.0010148373
947.0444201660	0.0008983904
948.9732275391	0.0012949232
950.9020349121	0.0011182188
952.8308422852	0.0008705314
954.7596496582	0.0011268148
956.6884570313	0.0010460401
958.6172644043	0.0009687769
960.5460717773	0.0009004098
962.4748791504	0.0009732936
964.4036865234	0.0011529650
966.3324938965	0.0011817843
968.2613012695	0.0013912136
970.1901086426	0.0011959113
972.1189160156	0.0010411951
974.0477233887	0.0011162782
975.9765307617	0.0011653821
977.9053381348	0.0013226467
979.8341455078	0.0015406527
981.7629528809	0.0017052565
983.6917602539	0.0016810980
985.6205676270	0.0020175511
987.5493750000	0.0021079066
989.4781823730	0.0021398123
991.4069897461	0.0024951501
993.3357971191	0.0025800918
995.2646044922	0.0029263662
997.1934118652	0.0032026130
999.1222192383	0.0033108895
1001.0510266113	0.0036407972
1002.9798339844	0.0039620269
1004.9086413574	0.0041054408
1006.8374487305	0.0042865057
1008.7662561035	0.0046108440
1010.6950634766	0.0049218759
1012.6238708496	0.0053039100
1014.5526782227	0.0054359734
1016.4814855957	0.0056557334
1018.4102929688	0.0058148960
1020.3391003418	0.0059741423
1022.2679077148	0.0064459704
1024.1967150879	0.0066164020
1026.1255224609	0.0069674379
1028.0543298340	0.0070700594
1029.9831372070	0.0072566187
1031.9119445801	0.0077245734
1033.8407519531	0.0076203025
1035.7695593262	0.0077525950
1037.6983666992	0.0076143537
1039.6271740723	0.0075372783
1041.5559814453	0.0076953843
1043.4847888184	0.0073457761
1045.4135961914	0.0074373665
1047.3424035645	0.0075118728
1049.2712109375	0.0073766564
1051.2000183105	0.0071598371
1053.1288256836	0.0069383904
1055.0576330566	0.0072136456
1056.9864404297	0.0068458351
1058.9152478027	0.0061900550
1060.8440551758	0.0061930483
1062.7728625488	0.0061573666
1064.7016699219	0.0060023060
1066.6304772949	0.0057011712
1068.5592846680	0.0054476587
1070.4880920410	0.0054655471
1072.4168994141	0.0051247953
1074.3457067871	0.0047203745
1076.2745141602	0.0046774773
1078.2033215332	0.0045956261
1080.1321289062	0.0042574201
1082.0609362793	0.0039122370
1083.9897436523	0.0038706162
1085.9185510254	0.0035765474
1087.8473583984	0.0034220871
1089.7761657715	0.0037424788
1091.7049731445	0.0034231576
1093.6337805176	0.0029480618
1095.5625878906	0.0029024119
1097.4913952637	0.0029518632
1099.4202026367	0.0028860262
1101.3490100098	0.0027755792
1103.2778173828	0.0027670348
1105.2066247559	0.0025190245
1107.1354321289	0.0025422540
1109.0642395019	0.0026743822
1110.9930468750	0.0025704666
1112.9218542480	0.0025322256
1114.8506616211	0.0024560601
1116.7794689941	0.0026618994
1118.7082763672	0.0027020969
1120.6370837402	0.0025948184
1122.5658911133	0.0026075523
1124.4946984863	0.0026392001
1126.4235058594	0.0028469542
1128.3523132324	0.0028513386
1130.2811206055	0.0027803893
1132.2099279785	0.0026594969
1134.1387353516	0.0028502592
1136.0675427246	0.0031487076
1137.9963500977	0.0031281440
1139.9251574707	0.0032634474
1141.8539648437	0.0034700343
1143.7827722168	0.0039120731
1145.7115795898	0.0040130480
1147.6403869629	0.0040659951
1149.5691943359	0.0044650449
1151.4980017090	0.0045137317
1153.4268090820	0.0048343400
1155.3556164551	0.0050205085
1157.2844238281	0.0049190000
1159.2132312012	0.0051493524
1161.1420385742	0.0054327426
1163.0708459473	0.0057315826
1164.9996533203	0.0058831363
1166.9284606934	0.0059679113
1168.8572680664	0.0061923340
1170.7860754394	0.0063447356
1172.7148828125	0.0065868995
1174.6436901855	0.0069711944
1176.5724975586	0.0069941147
1178.5013049316	0.0071819387
1180.4301123047	0.0077073416
1182.3589196777	0.0078791194
1184.2877270508	0.0080420496
1186.2165344238	0.0083534643
1188.1453417969	0.0088366512
1190.0741491699	0.0093381898
1192.0029565430	0.0096606240
1193.9317639160	0.0101586953
1195.8605712891	0.0106319990
1197.7893786621	0.0110017546
1199.7181860351	0.0115824211
1201.6469934082	0.0120665729
1203.5758007812	0.0123121925
1205.5046081543	0.0128383301
1207.4334155273	0.0133647155
1209.3622229004	0.0137954811
1211.2910302734	0.0143257882
1213.2198376465	0.0145851076
1215.1486450195	0.0148801235
1217.0774523926	0.0151973544
1219.0062597656	0.0154534495
1220.9350671387	0.0158020426
1222.8638745117	0.0158717260
1224.7926818848	0.0159364864
1226.7214892578	0.0162610710
1228.6502966308	0.0162696913
1230.5791040039	0.0160995126
1232.5079113769	0.0160882752
1234.4367187500	0.0160306171
1236.3655261230	0.0163003691
1238.2943334961	0.0163813569
1240.2231408691	0.0160236359
1242.1519482422	0.0160384197
1244.0807556152	0.0160375014
1246.0095629883	0.0159053989
1247.9383703613	0.0158079118
1249.8671777344	0.0156964660
1251.7959851074	0.0156726800
1253.7247924805	0.0155187380
1255.6535998535	0.0152117712
1257.5824072266	0.0149530862
1259.5112145996	0.0148640582
1261.4400219726	0.0147028146
1263.3688293457	0.0144060943
1265.2976367187	0.0142000560
1267.2264440918	0.0139736198
1269.1552514648	0.0138283465
1271.0840588379	0.0138739459
1273.0128662109	0.0135303661
1274.9416735840	0.0131557155
1276.8704809570	0.0130909253
1278.7992883301	0.0127780410
1280.7280957031	0.0125466986
1282.6569030762	0.0122493953
1284.5857104492	0.0120283924
1286.5145178223	0.0119941756
1288.4433251953	0.0117344912
1290.3721325683	0.0115198977
1292.3009399414	0.0113547947
1294.2297473144	0.0114644095
1296.1585546875	0.0113221277
1298.0873620605	0.0111559676
1300.0161694336	0.0112769809
1301.9449768066	0.0113137420
1303.8737841797	0.0116308518
1305.8025915527	0.0115337046
1307.7313989258	0.0115710590
1309.6602062988	0.0118313842
1311.5890136719	0.0118861403
1313.5178210449	0.0123012951
1315.4466284180	0.0125455782
1317.3754357910	0.0127439070
1319.3042431640	0.0130079994
1321.2330505371	0.0134991538
1323.1618579101	0.0139927994
1325.0906652832	0.0142558888
1327.0194726562	0.0146904485
1328.9482800293	0.0149879288
1330.8770874023	0.0154622141
1332.8058947754	0.0159595087
1334.7347021484	0.0160605609
1336.6635095215	0.0160860177
1338.5923168945	0.0161780454
1340.5211242676	0.0163452290
1342.4499316406	0.0167466588
1344.3787390137	0.0169907417
1346.3075463867	0.0169138908
1348.2363537597	0.0168994553
1350.1651611328	0.0167813916
1352.0939685058	0.0168127343
1354.0227758789	0.0165526979
1355.9515832519	0.0162862036
1357.8803906250	0.0162351001
1359.8091979980	0.0158289056
1361.7380053711	0.0156422872
1363.6668127441	0.0154731171
1365.5956201172	0.0157084502
1367.5244274902	0.0156490151
1369.4532348633	0.0154645164
1371.3820422363	0.0156896412
1373.3108496094	0.0149743473
1375.2396569824	0.0149092898
1377.1684643555	0.0152425710
1379.0972717285	0.0150575880
1381.0260791015	0.0151301920
1382.9548864746	0.0152237145
1384.8836938476	0.0152555844
1386.8125012207	0.0147414226
1388.7413085937	0.0148360264
1390.6701159668	0.0158821624
1392.5989233398	0.0155956531
1394.5277307129	0.0146281291
1396.4565380859	0.0153063163
1398.3853454590	0.0154143870
1400.3141528320	0.0152232349
1402.2429602051	0.0161929950
1404.1717675781	0.0156395864
1406.1005749512	0.0157670863
1408.0293823242	0.0160818733
1409.9581896972	0.0154628381
1411.8869970703	0.0157376565
1413.8158044433	0.0153352534
1415.7446118164	0.0153897516
1417.6734191894	0.0142806200
1419.6022265625	0.0132150128
1421.5310339355	0.0144944172
1423.4598413086	0.0142590515
1425.3886486816	0.0137957428
1427.3174560547	0.0137261078
1429.2462634277	0.0129687022
1431.1750708008	0.0125068575
1433.1038781738	0.0126117431
1435.0326855469	0.0117396452
1436.9614929199	0.0103422180
1438.8903002929	0.0113855228
1440.8191076660	0.0113706011
1442.7479150390	0.0106046908
1444.6767224121	0.0111832377
1446.6055297851	0.0104019493
1448.5343371582	0.0104559157
1450.4631445312	0.0109241698
1452.3919519043	0.0109861940
1454.3207592773	0.0112819560
1456.2495666504	0.0099895047
1458.1783740234	0.0104218600
1460.1071813965	0.0128698200
1462.0359887695	0.0135940798
1463.9647961426	0.0136317983
1465.8936035156	0.0141317993
1467.8224108886	0.0158646740
1469.7512182617	0.0169799756
1471.6800256347	0.0157881863
1473.6088330078	0.0164023153
1475.5376403808	0.0182020701
1477.4664477539	0.0194165856
1479.3952551269	0.0208989158
1481.3240625000	0.0215216149
1483.2528698730	0.0227162223
1485.1816772461	0.0233567543
1487.1104846191	0.0231818166
1489.0392919922	0.0233904403
1490.9680993652	0.0237621889
1492.8969067383	0.0264656954
1494.8257141113	0.0260809381
1496.7545214843	0.0240562074
1498.6833288574	0.0265552700
1500.6121362304	0.0273574423
1502.5409436035	0.0288797989
1504.4697509765	0.0277212467
1506.3985583496	0.0219640546
1508.3273657226	0.0255968813
1510.2561730957	0.0287497267
1512.1849804687	0.0279378705
1514.1137878418	0.0297955759
1516.0425952148	0.0277601015
1517.9714025879	0.0286064520
1519.9002099609	0.0274891090
1521.8290173340	0.0249787085
1523.7578247070	0.0289082006
1525.6866320801	0.0285323039
1527.6154394531	0.0286321808
1529.5442468261	0.0306398347
1531.4730541992	0.0299316756
1533.4018615722	0.0281076059
1535.3306689453	0.0291286893
1537.2594763183	0.0303805731
1539.1882836914	0.0236137155
1541.1170910644	0.0245089848
1543.0458984375	0.0281221531
1544.9747058105	0.0273065418
1546.9035131836	0.0307758134
1548.8323205566	0.0292022265
1550.7611279297	0.0299080350
1552.6899353027	0.0297882501
1554.6187426758	0.0277419165
1556.5475500488	0.0289461073
1558.4763574218	0.0225035883
1560.4051647949	0.0238638483
1562.3339721679	0.0308141224
1564.2627795410	0.0293627717
1566.1915869140	0.0299375560
1568.1203942871	0.0298411101
1570.0492016601	0.0273641665
1571.9780090332	0.0302235372
1573.9068164062	0.0302776918
1575.8356237793	0.0255408920
1577.7644311523	0.0280153491
1579.6932385254	0.0305286404
1581.6220458984	0.0294145904
1583.5508532715	0.0301657096
1585.4796606445	0.0297261067
1587.4084680175	0.0296493061
1589.3372753906	0.0295598619
1591.2660827636	0.0296463668
1593.1948901367	0.0296082720
1595.1236975097	0.0293491408
1597.0525048828	0.0295149479
1598.9813122558	0.0292127896
1600.9101196289	0.0294584520
1602.8389270019	0.0291084610
1604.7677343750	0.0294707660
1606.6965417480	0.0290356055
1608.6253491211	0.0290256068
1610.5541564941	0.0291790571
1612.4829638672	0.0292945951
1614.4117712402	0.0294197537
1616.3405786132	0.0252358858
1618.2693859863	0.0270571150
1620.1981933593	0.0303658582
1622.1270007324	0.0278246105
1624.0558081054	0.0280977376
1625.9846154785	0.0292655397
1627.9134228515	0.0293964110
1629.8422302246	0.0292393975
1631.7710375976	0.0310898274
1633.6998449707	0.0293702949
1635.6286523437	0.0257151350
1637.5574597168	0.0292112492
1639.4862670898	0.0313074104
1641.4150744629	0.0308582652
1643.3438818359	0.0318682417
1645.2726892090	0.0297300518
1647.2014965820	0.0272860490
1649.1303039550	0.0324804857
1651.0591113281	0.0309803411
1652.9879187011	0.0225223973
1654.9167260742	0.0286709853
1656.8455334472	0.0341479108
1658.7743408203	0.0332635976
1660.7031481933	0.0340353735
1662.6319555664	0.0317455605
1664.5607629394	0.0334912613
1666.4895703125	0.0353012234
1668.4183776855	0.0320422724
1670.3471850586	0.0315695778
1672.2759924316	0.0346933827
1674.2047998047	0.0327201001
1676.1336071777	0.0318352282
1678.0624145507	0.0356555581
1679.9912219238	0.0346079394
1681.9200292968	0.0342275016
1683.8488366699	0.0293036271
1685.7776440429	0.0292810909
1687.7064514160	0.0372131355
1689.6352587890	0.0333370864
1691.5640661621	0.0359032117
1693.4928735351	0.0361172482
1695.4216809082	0.0286615454
1697.3504882812	0.0335524380
1699.2792956543	0.0300576072
1701.2081030273	0.0281170011
1703.1369104004	0.0353584066
1705.0657177734	0.0328858644
1706.9945251464	0.0332273841
1708.9233325195	0.0350999720
1710.8521398925	0.0339368954
1712.7809472656	0.0345129818
1714.7097546386	0.0324373022
1716.6385620117	0.0296681672
1718.5673693847	0.0292794053
1720.4961767578	0.0333976448
1722.4249841308	0.0342055894
1724.3537915039	0.0321501121
1726.2825988769	0.0340250432
1728.2114062500	0.0319847204
1730.1402136230	0.0322448388
1732.0690209961	0.0312329624
1733.9978283691	0.0256053992
1735.9266357421	0.0299156196
1737.8554431152	0.0320964754
1739.7842504882	0.0295019746
1741.7130578613	0.0313510858
1743.6418652343	0.0317593738
1745.5706726074	0.0318880752
1747.4994799804	0.0320202820
1749.4282873535	0.0307871029
1751.3570947265	0.0297070257
1753.2859020996	0.0322483815
1755.2147094726	0.0332359076
1757.1435168457	0.0309305973
1759.0723242187	0.0332906917
1761.0011315918	0.0317369103
1762.9299389648	0.0309800282
1764.8587463379	0.0342157483
1766.7875537109	0.0314610526
1768.7163610839	0.0316677205
1770.6451684570	0.0314524025
1772.5739758300	0.0289630815
1774.5027832031	0.0314357504
1776.4315905761	0.0327169336
1778.3603979492	0.0324167311
1780.2892053222	0.0321405865
1782.2180126953	0.0320286900
1784.1468200683	0.0319336019
1786.0756274414	0.0314603820
1788.0044348144	0.0326261520
1789.9332421875	0.0320549309
1791.8620495605	0.0296755359
1793.7908569336	0.0305181183
1795.7196643066	0.0321777910
1797.6484716796	0.0319376215
1799.5772790527	0.0315076783
1801.5060864257	0.0310776290
1803.4348937988	0.0317515545
1805.3637011718	0.0321709216
1807.2925085449	0.0319334045
1809.2213159179	0.0317314193
1811.1501232910	0.0310587510
1813.0789306640	0.0319117084
1815.0077380371	0.0319964066
1816.9365454101	0.0318704247
1818.8653527832	0.0319058374
1820.7941601562	0.0317580812
1822.7229675293	0.0319607779
1824.6517749023	0.0303705409
1826.5805822753	0.0312844478
1828.5093896484	0.0310754459
1830.4381970214	0.0298144035
1832.3670043945	0.0316119716
1834.2958117675	0.0313536152
1836.2246191406	0.0313958377
1838.1534265136	0.0311380737
1840.0822338867	0.0314620212
1842.0110412597	0.0313146338
1843.9398486328	0.0286253169
1845.8686560058	0.0301067345
1847.7974633789	0.0310878213
1849.7262707519	0.0305636078
1851.6550781250	0.0312931463
1853.5838854980	0.0308182836
1855.5126928710	0.0309540369
1857.4415002441	0.0308333784
1859.3703076171	0.0307561457
1861.2991149902	0.0308291689
1863.2279223632	0.0304413550
1865.1567297363	0.0307072848
1867.0855371093	0.0299574696
1869.0143444824	0.0289144851
1870.9431518554	0.0297506079
1872.8719592285	0.0305359252
1874.8007666015	0.0302867256
1876.7295739746	0.0303527527
1878.6583813476	0.0300945994
1880.5871887207	0.0301141851
1882.5159960937	0.0301489010
1884.4448034667	0.0296977423
1886.3736108398	0.0301616378
1888.3024182128	0.0295525920
1890.2312255859	0.0289800093
1892.1600329589	0.0297959987
1894.0888403320	0.0293867476
1896.0176477050	0.0292476341
1897.9464550781	0.0295444876
1899.8752624511	0.0292488765
1901.8040698242	0.0293712020
1903.7328771972	0.0292294957
1905.6616845703	0.0291878395
1907.5904919433	0.0289884303
1909.5192993164	0.0288013220
1911.4481066894	0.0289778225
1913.3769140625	0.0288947374
1915.3057214355	0.0291656367
1917.2345288085	0.0282897204
1919.1633361816	0.0280672051
1921.0921435546	0.0288811103
1923.0209509277	0.0283358041
1924.9497583007	0.0286816899
1926.8785656738	0.0287924148
1928.8073730468	0.0285988040
1930.7361804199	0.0288368165
1932.6649877929	0.0285362303
1934.5937951660	0.0287050530
1936.5226025390	0.0284722708
1938.4514099121	0.0285194293
1940.3802172851	0.0284280609
1942.3090246582	0.0278376173
1944.2378320312	0.0281292088
1946.1666394042	0.0283158422
1948.0954467773	0.0283034332
1950.0242541503	0.0282653980
1951.9530615234	0.0283414833
1953.8818688964	0.0282035414
1955.8106762695	0.0280132908
1957.7394836425	0.0282171145
1959.6682910156	0.0281212330
1961.5970983886	0.0280900318
1963.5259057617	0.0279820561
1965.4547131347	0.0278077330
1967.3835205078	0.0277962014
1969.3123278808	0.0278162267
1971.2411352539	0.0279515963
1973.1699426269	0.0278772861
1975.0987499999	0.0277685896
1977.0275573730	0.0277650729
1978.9563647460	0.0277304351
1980.8851721191	0.0276854914
1982.8139794921	0.0277204756
1984.7427868652	0.0276329555
1986.6715942382	0.0274659097
1988.6004016113	0.0274160877
1990.5292089843	0.0270958822
1992.4580163574	0.0269353352
1994.3868237304	0.0271897502
1996.3156311035	0.0271530244
1998.2444384765	0.0270298608
2000.1732458496	0.0271012411
2002.1020532226	0.0270312708
2004.0308605956	0.0268836394
2005.9596679687	0.0268228035
2007.8884753417	0.0269304719
2009.8172827148	0.0268220603
2011.7460900878	0.0265679695
2013.6748974609	0.0266224481
2015.6037048339	0.0264826044
2017.5325122070	0.0263669565
2019.4613195800	0.0264371578
2021.3901269531	0.0264067110
2023.3189343261	0.0263798945
2025.2477416992	0.0262931958
2027.1765490722	0.0262119099
2029.1053564453	0.0260802954
2031.0341638183	0.0260749944
2032.9629711914	0.0260760747
2034.8917785644	0.0259849131
2036.8205859374	0.0259003751
2038.7493933105	0.0257082321
2040.6782006835	0.0256097950
2042.6070080566	0.0255913157
2044.5358154296	0.0255996827
2046.4646228027	0.0254793987
2048.3934301757	0.0254314039
2050.3222375488	0.0253385529
2052.2510449218	0.0251730047
2054.1798522949	0.0253403019
2056.1086596679	0.0252264738
2058.0374670410	0.0250978973
2059.9662744140	0.0251740925
2061.8950817871	0.0250836201
2063.8238891601	0.0250213817
2065.7526965331	0.0249473006
2067.6815039062	0.0249306858
2069.6103112792	0.0248457715
2071.5391186523	0.0247264057
2073.4679260253	0.0247323327
2075.3967333984	0.0247615874
2077.3255407714	0.0246956870
2079.2543481445	0.0245532840
2081.1831555175	0.0246133804
2083.1119628906	0.0246396288
2085.0407702636	0.0245167091
2086.9695776367	0.0244580060
2088.8983850097	0.0242403429
2090.8271923828	0.0241802111
2092.7559997558	0.0243810732
2094.6848071288	0.0242769271
2096.6136145019	0.0242438875
2098.5424218749	0.0242045801
2100.4712292480	0.0240065344
2102.4000366210	0.0240288079
2104.3288439941	0.0239701141
2106.2576513671	0.0239760540
2108.1864587402	0.0239076372
2110.1152661132	0.0237806849
2112.0440734863	0.0238684323
2113.9728808593	0.0238223895
2115.9016882324	0.0236634277
2117.8304956054	0.0235509127
2119.7593029785	0.0236306451
2121.6881103515	0.0235911310
2123.6169177245	0.0234445557
2125.5457250976	0.0234052800
2127.4745324706	0.0234077759
2129.4033398437	0.0234551039
2131.3321472167	0.0233596563
2133.2609545898	0.0233849678
2135.1897619628	0.0233797561
2137.1185693359	0.0232815817
2139.0473767089	0.0232817531
2140.9761840820	0.0232403912
2142.9049914550	0.0232580863
2144.8337988281	0.0232183952
2146.7626062011	0.0230152309
2148.6914135742	0.0229029115
2150.6202209472	0.0230447575
2152.5490283203	0.0230239071
2154.4778356933	0.0230278634
2156.4066430663	0.0230759550
2158.3354504394	0.0228856746
2160.2642578124	0.0229199398
2162.1930651855	0.0229381844
2164.1218725585	0.0228689443
2166.0506799316	0.0228263475
2167.9794873046	0.0227608662
2169.9082946777	0.0227000639
2171.8371020507	0.0227160379
2173.7659094238	0.0226822998
2175.6947167968	0.0225117393
2177.6235241699	0.0226870347
2179.5523315429	0.0225811712
2181.4811389160	0.0224776659
2183.4099462890	0.0226060897
2185.3387536620	0.0223603938
2187.2675610351	0.0224472899
2189.1963684081	0.0224323310
2191.1251757812	0.0223139003
2193.0539831542	0.0224081650
2194.9827905273	0.0223333426
2196.9115979003	0.0223566443
2198.8404052734	0.0223305225
2200.7692126464	0.0223318227
2202.6980200195	0.0223036595
2204.6268273925	0.0221650787
2206.5556347656	0.0221917965
2208.4844421386	0.0222047232
2210.4132495117	0.0221456643
2212.3420568847	0.0220648944
2214.2708642577	0.0219541993
2216.1996716308	0.0219512600
2218.1284790038	0.0219681524
2220.0572863769	0.0218411125
2221.9860937499	0.0217119642
2223.9149011230	0.0217835680
2225.8437084960	0.0218789540
2227.7725158691	0.0216831155
2229.7013232421	0.0216876008
2231.6301306152	0.0217378568
2233.5589379882	0.0215896964
2235.4877453613	0.0216653086
2237.4165527343	0.0214291997
2239.3453601074	0.0213309750
2241.2741674804	0.0215301104
2243.2029748534	0.0214762874
2245.1317822265	0.0214527659
2247.0605895995	0.0213336311
2248.9893969726	0.0213733781
2250.9182043456	0.0213491786
2252.8470117187	0.0211594962
2254.7758190917	0.0212375447
2256.7046264648	0.0212576352
2258.6334338378	0.0211916473
2260.5622412109	0.0210624896
2262.4910485839	0.0209713280
2264.4198559570	0.0209722742
2266.3486633300	0.0208623055
2268.2774707031	0.0208686776
2270.2062780761	0.0209936500
2272.1350854491	0.0209690817
2274.0638928222	0.0209473446
2275.9927001952	0.0209363252
2277.9215075683	0.0208397321
2279.8503149413	0.0207115021
2281.7791223144	0.0206660535
2283.7079296874	0.0207761209
2285.6367370605	0.0206379890
2287.5655444335	0.0205019712
2289.4943518066	0.0205638353
2291.4231591796	0.0204792265
2293.3519665527	0.0203625262
2295.2807739257	0.0202605985
2297.2095812988	0.0202381872
2299.1383886718	0.0202175379
2301.0671960449	0.0201620199
2302.9960034179	0.0199298728
2304.9248107909	0.0198521838
2306.8536181640	0.0199472960
2308.7824255370	0.0197043791
2310.7112329101	0.0195994694
2312.6400402831	0.0194036141
2314.5688476562	0.0192035716
2316.4976550292	0.0190106835
2318.4264624023	0.0187577903
2320.3552697753	0.0187908560
2322.2840771484	0.0183800869
2324.2128845214	0.0180490762
2326.1416918945	0.0179683492
2328.0704992675	0.0177659448
2329.9993066406	0.0175939761
2331.9281140136	0.0173970275
2333.8569213866	0.0173694249
2335.7857287597	0.0172439795
2337.7145361327	0.0173178986
2339.6433435058	0.0173382275
2341.5721508788	0.0172818080
2343.5009582519	0.0175193753
2345.4297656249	0.0177528560
2347.3585729980	0.0184690896
2349.2873803710	0.0188624933
2351.2161877441	0.0182362534
2353.1449951171	0.0174631290
2355.0738024902	0.0170133039
2357.0026098632	0.0166799575
2358.9314172363	0.0162652284
2360.8602246093	0.0161162987
2362.7890319823	0.0161394589
2364.7178393554	0.0161424614
2366.6466467284	0.0163100846
2368.5754541015	0.0166367963
2370.5042614745	0.0168816820
2372.4330688476	0.0172387920
2374.3618762206	0.0178020075
2376.2906835937	0.0180564225
2378.2194909667	0.0182606131
2380.1482983398	0.0185786150
2382.0771057128	0.0187557824
2384.0059130859	0.0188798532
2385.9347204589	0.0189349074
2387.8635278320	0.0189200193
2389.7923352050	0.0188231654
2391.7211425780	0.0187859051
2393.6499499511	0.0189005323
2395.5787573241	0.0188517924
2397.5075646972	0.0187373441
2399.4363720702	0.0187336467
2401.3651794433	0.0186691694
2403.2939868163	0.0187175516
2405.2227941894	0.0186443664
2407.1516015624	0.0185151584
2409.0804089355	0.0186116155
2411.0092163085	0.0185625181
2412.9380236816	0.0185723677
2414.8668310546	0.0185211040
2416.7956384277	0.0184659958
2418.7244458007	0.0185019169
2420.6532531738	0.0183780510
2422.5820605468	0.0184287336
2424.5108679198	0.0183488168
2426.4396752929	0.0182789974
2428.3684826659	0.0183826014
2430.2972900390	0.0182730071
2432.2260974120	0.0181072280
2434.1549047851	0.0181067176
2436.0837121581	0.0182426181
2438.0125195312	0.0181010887
2439.9413269042	0.0180095583
2441.8701342773	0.0180902109
2443.7989416503	0.0180173125
2445.7277490234	0.0180240832
2447.6565563964	0.0179692134
2449.5853637695	0.0178734716
2451.5141711425	0.0178580210
2453.4429785155	0.0178643167
2455.3717858886	0.0178927481
2457.3005932616	0.0178637989
2459.2294006347	0.0177697260
2461.1582080077	0.0177426692
2463.0870153808	0.0177591033
2465.0158227538	0.0176853649
2466.9446301269	0.0176410154
2468.8734374999	0.0175871383
2470.8022448730	0.0176042374
2472.7310522460	0.0176019184
2474.6598596191	0.0174704529
2476.5886669921	0.0174741596
2478.5174743652	0.0174576603
2480.4462817382	0.0174054615
2482.3750891112	0.0173632558
2484.3038964843	0.0173148625
2486.2327038573	0.0173671022
2488.1615112304	0.0173956491
2490.0903186034	0.0173515901
2492.0191259765	0.0172766671
2493.9479333495	0.0172025524
2495.8767407226	0.0172119159
2497.8055480956	0.0172626153
2499.7343554687	0.0172359515
2501.6631628417	0.0172636919
2503.5919702148	0.0172165670
2505.5207775878	0.0170510169
2507.4495849609	0.0170478746
2509.3783923339	0.0170541704
2511.3071997069	0.0170103628
2513.2360070800	0.0170269012
2515.1648144530	0.0170091446
2517.0936218261	0.0168379452
2519.0224291991	0.0168652758
2520.9512365722	0.0169702843
2522.8800439452	0.0167926401
2524.8088513183	0.0167687610
2526.7376586913	0.0167502463
2528.6664660644	0.0167733505
2530.5952734374	0.0167805701
2532.5240808105	0.0166112632
2534.4528881835	0.0166743174
2536.3816955566	0.0165884867
2538.3105029296	0.0165219419
2540.2393103027	0.0165602695
2542.1681176757	0.0165188778
2544.0969250487	0.0166655537
2546.0257324218	0.0165994987
2547.9545397948	0.0164096020
2549.8833471679	0.0163676329
2551.8121545409	0.0163829736
2553.7409619140	0.0163771100
2555.6697692870	0.0163682811
2557.5985766601	0.0163733661
2559.5273840331	0.0162071474
2561.4561914062	0.0161977485
2563.3849987792	0.0162052885
2565.3138061523	0.0160665251
2567.2426135253	0.0162104126
2569.1714208984	0.0161769465
2571.1002282714	0.0160458945
2573.0290356444	0.0162229463
2574.9578430175	0.0160978958
2576.8866503905	0.0159175061
2578.8154577636	0.0159985982
2580.7442651366	0.0159859359
2582.6730725097	0.0159629360
2584.6018798827	0.0158920735
2586.5306872558	0.0159049351
2588.4594946288	0.0159243941
2590.3883020019	0.0157866925
2592.3171093749	0.0157917663
2594.2459167480	0.0157918148
2596.1747241210	0.0157209095
2598.1035314941	0.0156889725
2600.0323388671	0.0157088265
2601.9611462401	0.0157391503
2603.8899536132	0.0156366099
2605.8187609862	0.0154890046
2607.7475683593	0.0155126825
2609.6763757323	0.0155600775
2611.6051831054	0.0154184271
2613.5339904784	0.0154231507
2615.4627978515	0.0154687427
2617.3916052245	0.0154294316
2619.3204125976	0.0154289110
2621.2492199706	0.0153535455
2623.1780273437	0.0153251048
2625.1068347167	0.0152414460
2627.0356420898	0.0152125675
2628.9644494628	0.0151983770
2630.8932568358	0.0151204420
2632.8220642089	0.0151611073
2634.7508715819	0.0151552791
2636.6796789550	0.0151285399
2638.6084863280	0.0150481556
2640.5372937011	0.0150143523
2642.4661010741	0.0149955451
2644.3949084472	0.0149966432
2646.3237158202	0.0150372144
2648.2525231933	0.0149405412
2650.1813305663	0.0149323530
2652.1101379394	0.0148916813
2654.0389453124	0.0149087133
2655.9677526855	0.0147878816
2657.8965600585	0.0146233710
2659.8253674315	0.0148580708
2661.7541748046	0.0147454031
2663.6829821776	0.0146546857
2665.6117895507	0.0148123596
2667.5405969237	0.0146123720
2669.4694042968	0.0145897642
2671.3982116698	0.0146550424
2673.3270190429	0.0145598445
2675.2558264159	0.0145629579
2677.1846337890	0.0144325979
2679.1134411620	0.0143926721
2681.0422485351	0.0144761652
2682.9710559081	0.0144648794
2684.8998632812	0.0145178623
2686.8286706542	0.0143402452
2688.7574780273	0.0143310614
2690.6862854003	0.0144216903
2692.6150927733	0.0142864324
2694.5439001464	0.0143662505
2696.4727075194	0.0142206131
2698.4015148925	0.0142100658
2700.3303222655	0.0142859854
2702.2591296386	0.0141156819
2704.1879370116	0.0141172931
2706.1167443847	0.0140058966
2708.0455517577	0.0140910149
2709.9743591308	0.0141302366
2711.9031665038	0.0140522933
2713.8319738769	0.0140801910
2715.7607812499	0.0138554042
2717.6895886230	0.0138575062
2719.6183959960	0.0139783565
2721.5472033690	0.0138693508
2723.4760107421	0.0137977675
2725.4048181151	0.0138264783
2727.3336254882	0.0137352645
2729.2624328612	0.0137153240
2731.1912402343	0.0137818083
2733.1200476073	0.0136224749
2735.0488549804	0.0135294152
2736.9776623534	0.0135855321
2738.9064697265	0.0136974975
2740.8352770995	0.0135809444
2742.7640844726	0.0134412311
2744.6928918456	0.0135170370
2746.6216992187	0.0134685319
2748.5505065917	0.0135050807
2750.4793139647	0.0134895509
2752.4081213378	0.0133750914
2754.3369287108	0.0133861247
2756.2657360839	0.0133521426
2758.1945434569	0.0132282246
2760.1233508300	0.0132715870
2762.0521582030	0.0133246481
2763.9809655761	0.0132333841
2765.9097729491	0.0131991161
2767.8385803222	0.0130903618
2769.7673876952	0.0131474119
2771.6961950683	0.0130764525
2773.6250024413	0.0130506316
2775.5538098144	0.0131246084
2777.4826171874	0.0128435716
2779.4114245604	0.0130394530
2781.3402319335	0.0130603053
2783.2690393065	0.0128426170
2785.1978466796	0.0129008088
2787.1266540526	0.0127909537
2789.0554614257	0.0128493020
2790.9842687987	0.0127650220
2792.9130761718	0.0127010718
2794.8418835448	0.0127764065
2796.7706909179	0.0127527583
2798.6994982909	0.0127261523
2800.6283056640	0.0125733484
2802.5571130370	0.0125560537
2804.4859204101	0.0126326466
2806.4147277831	0.0125869513
2808.3435351562	0.0124819092
2810.2723425292	0.0124503113
2812.2011499022	0.0124203796
2814.1299572753	0.0124854790
2816.0587646483	0.0123741645
2817.9875720214	0.0122406408
2819.9163793944	0.0124450698
2821.8451867675	0.0123215150
2823.7739941405	0.0122715663
2825.7028015136	0.0122975688
2827.6316088866	0.0122203082
2829.5604162597	0.0121848332
2831.4892236327	0.0120341321
2833.4180310058	0.0121406112
2835.3468383788	0.0120681776
2837.2756457519	0.0119890468
2839.2044531249	0.0120601282
2841.1332604979	0.0119224880
2843.0620678710	0.0117580304
2844.9908752440	0.0118471775
2846.9196826171	0.0118738152
2848.8484899901	0.0114782974
2850.7772973632	0.0115516167
2852.7061047362	0.0116024595
2854.6349121093	0.0115181692
2856.5637194823	0.0116038499
2858.4925268554	0.0114744678
2860.4213342284	0.0115731563
2862.3501416015	0.0114082638
2864.2789489745	0.0113976281
2866.2077563476	0.0114733297
2868.1365637206	0.0113266334
2870.0653710936	0.0114531294
2871.9941784667	0.0113598807
2873.9229858397	0.0113645513
2875.8517932128	0.0112891272
2877.7806005858	0.0111758709
2879.7094079589	0.0112305358
2881.6382153319	0.0112308767
2883.5670227050	0.0112960022
2885.4958300780	0.0111647714
2887.4246374511	0.0111763924
2889.3534448241	0.0111666787
2891.2822521972	0.0110641010
2893.2110595702	0.0109999087
2895.1398669433	0.0109835342
2897.0686743163	0.0110688461
2898.9974816893	0.0109341117
2900.9262890624	0.0110026654
2902.8550964354	0.0109030735
2904.7839038085	0.0106836781
2906.7127111815	0.0107535478
2908.6415185546	0.0106458403
2910.5703259276	0.0106541486
2912.4991333007	0.0105852336
2914.4279406737	0.0104300007
2916.3567480468	0.0103829242
2918.2855554198	0.0103252381
2920.2143627929	0.0103869159
2922.1431701659	0.0102665164
2924.0719775390	0.0102751330
2926.0007849120	0.0104088243
2927.9295922851	0.0102545582
2929.8583996581	0.0102610029
2931.7872070311	0.0103553291
2933.7160144042	0.0103537645
2935.6448217772	0.0103242947
2937.5736291503	0.0102420216
2939.5024365233	0.0103150140
2941.4312438964	0.0102913082
2943.3600512694	0.0101936031
2945.2888586425	0.0101867560
2947.2176660155	0.0101249591
2949.1464733886	0.0101862792
2951.0752807616	0.0101213586
2953.0040881347	0.0100492612
2954.9328955077	0.0101026203
2956.8617028808	0.0099798357
2958.7905102538	0.0099572735
2960.7193176268	0.0099342773
2962.6481249999	0.0099109374
2964.5769323729	0.0099511389
2966.5057397460	0.0099226050
2968.4345471190	0.0099601839
2970.3633544921	0.0099278651
2972.2921618651	0.0098919123
2974.2209692382	0.0099020377
2976.1497766112	0.0099303089
2978.0785839843	0.0098786745
2980.0073913573	0.0097184926
2981.9361987304	0.0097510843
2983.8650061034	0.0098416526
2985.7938134765	0.0098439278
2987.7226208495	0.0097952336
2989.6514282225	0.0097979084
2991.5802355956	0.0098076034
2993.5090429686	0.0097117722
2995.4378503417	0.0096180243
2997.3666577147	0.0095649697
2999.2954650878	0.0095646884
3001.2242724608	0.0094951335
3003.1530798339	0.0095177069
3005.0818872069	0.0094983317
3007.0106945800	0.0094438344
3008.9395019530	0.0095353480
3010.8683093261	0.0094104623
3012.7971166991	0.0094286371
3014.7259240722	0.0093897693
3016.6547314452	0.0092737423
3018.5835388182	0.0094066076
3020.5123461913	0.0092907362
3022.4411535643	0.0092371292
3024.3699609374	0.0092579583
3026.2987683104	0.0092661614
3028.2275756835	0.0092434417
3030.1563830565	0.0090485197
3032.0851904296	0.0090385266
3034.0139978026	0.0090547670
3035.9428051757	0.0090066809
3037.8716125487	0.0089630298
3039.8004199218	0.0089744376
3041.7292272948	0.0090290280
3043.6580346679	0.0090293698
3045.5868420409	0.0089242645
3047.5156494139	0.0088894013
3049.4444567870	0.0090078674
3051.3732641600	0.0089138644
3053.3020715331	0.0088347029
3055.2308789061	0.0087762447
3057.1596862792	0.0087119732
3059.0884936522	0.0087061338
3061.0173010253	0.0087570287
3062.9461083983	0.0088141263
3064.8749157714	0.0085644312
3066.8037231444	0.0085803838
3068.7325305175	0.0086316550
3070.6613378905	0.0085625704
3072.5901452636	0.0085336724
3074.5189526366	0.0084566846
3076.4477600097	0.0086623961
3078.3765673827	0.0084881634
3080.3053747557	0.0083482526
3082.2341821288	0.0084519237
3084.1629895018	0.0083175562
3086.0917968749	0.0083101010
3088.0206042479	0.0083070593
3089.9494116210	0.0082681263
3091.8782189940	0.0082725640
3093.8070263671	0.0084197102
3095.7358337401	0.0082617607
3097.6646411132	0.0081422599
3099.5934484862	0.0082938112
3101.5222558593	0.0081168152
3103.4510632323	0.0081116697
3105.3798706054	0.0080940407
3107.3086779784	0.0080492301
3109.2374853514	0.0080639534
3111.1662927245	0.0080694240
3113.0951000975	0.0081175286
3115.0239074706	0.0079214862
3116.9527148436	0.0078983866
3118.8815222167	0.0079092169
3120.8103295897	0.0079433033
3122.7391369628	0.0079946816
3124.6679443358	0.0078915255
3126.5967517089	0.0078514628
3128.5255590819	0.0077295629
3130.4543664550	0.0077097812
3132.3831738280	0.0078366790
3134.3119812011	0.0078468546
3136.2407885741	0.0076497858
3138.1695959471	0.0076270103
3140.0984033202	0.0077363197
3142.0272106932	0.0076995073
3143.9560180663	0.0076212622
3145.8848254393	0.0075461045
3147.8136328124	0.0076740542
3149.7424401854	0.0076434957
3151.6712475585	0.0075523243
3153.6000549315	0.0075267190
3155.5288623046	0.0075033465
3157.4576696776	0.0076133213
3159.3864770507	0.0074692750
3161.3152844237	0.0073866742
3163.2440917968	0.0074217217
3165.1728991698	0.0074806358
3167.1017065428	0.0075081801
3169.0305139159	0.0073519489
3170.9593212889	0.0073386990
3172.8881286620	0.0073419055
3174.8169360350	0.0073198783
3176.7457434081	0.0072440105
3178.6745507811	0.0072376421
3180.6033581542	0.0073184008
3182.5321655272	0.0072886888
3184.4609729003	0.0073012775
3186.3897802733	0.0072462945
3188.3185876464	0.0072405580
3190.2473950194	0.0073378538
3192.1762023925	0.0073131165
3194.1050097655	0.0072298339
3196.0338171386	0.0071980162
3197.9626245116	0.0072096409
3199.8914318846	0.0072568278
3201.8202392577	0.0072189383
3203.7490466307	0.0071503501
3205.6778540038	0.0072035398
3207.6066613768	0.0071455408
3209.5354687499	0.0070625460
3211.4642761229	0.0070946356
3213.3930834960	0.0071705407
3215.3218908690	0.0071561746
3217.2506982421	0.0071766889
3219.1795056151	0.0072873645
3221.1083129882	0.0071191378
3223.0371203612	0.0071324147
3224.9659277343	0.0072512212
3226.8947351073	0.0071245963
3228.8235424803	0.0071408949
3230.7523498534	0.0071775857
3232.6811572264	0.0072070612
3234.6099645995	0.0072399513
3236.5387719725	0.0072280983
3238.4675793456	0.0072010448
3240.3963867186	0.0071692308
3242.3251940917	0.0072145918
3244.2540014647	0.0072677694
3246.1828088378	0.0072773225
3248.1116162108	0.0072399187
3250.0404235839	0.0072658649
3251.9692309569	0.0073317005
3253.8980383300	0.0073303548
3255.8268457030	0.0073038405
3257.7556530760	0.0073394794
3259.6844604491	0.0073592225
3261.6132678221	0.0072835744
3263.5420751952	0.0072951429
3265.4708825682	0.0073812567
3267.3996899413	0.0073975543
3269.3284973143	0.0073902765
3271.2573046874	0.0073005888
3273.1861120604	0.0071764588
3275.1149194335	0.0073523754
3277.0437268065	0.0073957681
3278.9725341796	0.0072717508
3280.9013415526	0.0073722526
3282.8301489257	0.0073125781
3284.7589562987	0.0074124942
3286.6877636717	0.0074395090
3288.6165710448	0.0072787600
3290.5453784178	0.0074142935
3292.4741857909	0.0074001532
3294.4029931639	0.0073823305
3296.3318005370	0.0074033933
3298.2606079100	0.0074571487
3300.1894152831	0.0075025251
3302.1182226561	0.0073945187
3304.0470300292	0.0074430900
3305.9758374022	0.0074552041
3307.9046447753	0.0075256005
3309.8334521483	0.0075132037
3311.7622595214	0.0074656848
3313.6910668944	0.0075950231
3315.6198742675	0.0074877837
3317.5486816405	0.0075224754
3319.4774890135	0.0076367920
3321.4062963866	0.0075187003
3323.3351037596	0.0075590787
3325.2639111327	0.0076374272
3327.1927185057	0.0075706011
3329.1215258788	0.0075277993
3331.0503332518	0.0075733410
3332.9791406249	0.0076748310
3334.9079479979	0.0077080820
3336.8367553710	0.0076298499
3338.7655627440	0.0075944783
3340.6943701171	0.0076067215
3342.6231774901	0.0076985541
3344.5519848632	0.0077191070
3346.4807922362	0.0076439306
3348.4095996092	0.0077712168
3350.3384069823	0.0077069784
3352.2672143553	0.0075850114
3354.1960217284	0.0077316873
3356.1248291014	0.0077147605
3358.0536364745	0.0077212825
3359.9824438475	0.0077627548
3361.9112512206	0.0077616349
3363.8400585936	0.0078189541
3365.7688659667	0.0077891224
3367.6976733397	0.0079087466
3369.6264807128	0.0080288555
3371.5552880858	0.0079661403
3373.4840954589	0.0078873523
3375.4129028319	0.0079123853
3377.3417102049	0.0079578562
3379.2705175780	0.0079355808
3381.1993249510	0.0080382545
3383.1281323241	0.0080007706
3385.0569396971	0.0079638306
3386.9857470702	0.0080585405
3388.9145544432	0.0080712242
3390.8433618163	0.0081242230
3392.7721691893	0.0081213368
3394.7009765624	0.0081885988
3396.6297839354	0.0081983041
3398.5585913085	0.0081283432
3400.4873986815	0.0081323553
3402.4162060546	0.0082531767
3404.3450134276	0.0083752759
3406.2738208006	0.0082772421
3408.2026281737	0.0083864955
3410.1314355467	0.0084166294
3412.0602429198	0.0083653573
3413.9890502928	0.0084268823
3415.9178576659	0.0083905403
3417.8466650389	0.0084873894
3419.7754724120	0.0084779914
3421.7042797850	0.0084677022
3423.6330871581	0.0085048229
3425.5618945311	0.0085373651
3427.4907019042	0.0085469009
3429.4195092772	0.0086177289
3431.3483166503	0.0087246690
3433.2771240233	0.0085686594
3435.2059313963	0.0086307786
3437.1347387694	0.0087198764
3439.0635461424	0.0087978905
3440.9923535155	0.0087725818
3442.9211608885	0.0087021571
3444.8499682616	0.0088801375
3446.7787756346	0.0087132398
3448.7075830077	0.0087310970
3450.6363903807	0.0088727055
3452.5651977538	0.0089418665
3454.4940051268	0.0089743715
3456.4228124999	0.0088237077
3458.3516198729	0.0088833105
3460.2804272460	0.0089224055
3462.2092346190	0.0091175670
3464.1380419921	0.0091041354
3466.0668493651	0.0089908438
3467.9956567381	0.0090860575
3469.9244641112	0.0090329284
3471.8532714842	0.0091195051
3473.7820788573	0.0090874778
3475.7108862303	0.0091126114
3477.6396936034	0.0091701448
3479.5685009764	0.0090951584
3481.4973083495	0.0091504268
3483.4261157225	0.0092360470
3485.3549230956	0.0092827249
3487.2837304686	0.0092564449
3489.2125378417	0.0093474090
3491.1413452147	0.0093703493
3493.0701525878	0.0093048383
3494.9989599608	0.0092749093
3496.9277673338	0.0093719075
3498.8565747069	0.0094524696
3500.7853820799	0.0093526598
3502.7141894530	0.0093542486
3504.6429968260	0.0093890335
3506.5718041991	0.0095300972
3508.5006115721	0.0094442405
3510.4294189452	0.0093939388
3512.3582263182	0.0096060699
3514.2870336913	0.0095410217
3516.2158410643	0.0095350929
3518.1446484374	0.0095776878
3520.0734558104	0.0096423496
3522.0022631835	0.0096699409
3523.9310705565	0.0095407106
3525.8598779295	0.0094721895
3527.7886853026	0.0095072947
3529.7174926756	0.0095751127
3531.6463000487	0.0096380040
3533.5751074217	0.0097657563
3535.5039147948	0.0097026993
3537.4327221678	0.0096926112
3539.3615295409	0.0097747464
3541.2903369139	0.0097987056
3543.2191442870	0.0097639086
3545.1479516600	0.0094960993
3547.0767590331	0.0095338486
3549.0055664061	0.0097828731
3550.9343737792	0.0097541437
3552.8631811522	0.0096675046
3554.7919885252	0.0097942315
3556.7207958983	0.0098954923
3558.6496032713	0.0098554892
3560.5784106444	0.0097816605
3562.5072180174	0.0097968383
3564.4360253905	0.0098217139
3566.3648327635	0.0093143415
3568.2936401366	0.0092216674
3570.2224475096	0.0097977463
3572.1512548827	0.0099432822
3574.0800622557	0.0098628122
3576.0088696288	0.0098250490
3577.9376770018	0.0098525882
3579.8664843749	0.0098997075
3581.7952917479	0.0098926090
3583.7240991210	0.0099248104
3585.6529064940	0.0097453045
3587.5817138670	0.0091764471
3589.5105212401	0.0092931082
3591.4393286131	0.0099249789
3593.3681359862	0.0097056963
3595.2969433592	0.0095830355
3597.2257507323	0.0098261908
3599.1545581053	0.0097802114
3601.0833654784	0.0097599383
3603.0121728514	0.0098364009
3604.9409802245	0.0098549165
3606.8697875975	0.0096553639
3608.7985949706	0.0093155866
3610.7274023436	0.0093804132
3612.6562097167	0.0094604483
3614.5850170897	0.0093032476
3616.5138244627	0.0097844182
3618.4426318358	0.0093664248
3620.3714392088	0.0091395229
3622.3002465819	0.0099161910
3624.2290539549	0.0097163199
3626.1578613280	0.0100044273
3628.0866687010	0.0089616049
3630.0154760741	0.0083181420
3631.9442834471	0.0098576862
3633.8730908202	0.0097181816
3635.8018981932	0.0097054988
3637.7307055663	0.0098942621
3639.6595129393	0.0097988825
3641.5883203124	0.0098995445
3643.5171276854	0.0098161548
3645.4459350584	0.0098991180
3647.3747424315	0.0091191884
3649.3035498045	0.0085501019
3651.2323571776	0.0087223779
3653.1611645506	0.0098338556
3655.0899719237	0.0096916398
3657.0187792967	0.0089620324
3658.9475866698	0.0099014547
3660.8763940428	0.0097306082
3662.8052014159	0.0098912204
3664.7340087889	0.0098303482
3666.6628161620	0.0097009344
3668.5916235350	0.0094776321
3670.5204309081	0.0081584528
3672.4492382811	0.0093593542
3674.3780456541	0.0089953672
3676.3068530272	0.0078633819
3678.2356604002	0.0091970367
3680.1644677733	0.0093984976
3682.0932751463	0.0093886750
3684.0220825194	0.0094100991
3685.9508898924	0.0093531348
3687.8796972655	0.0086299470
3689.8085046385	0.0080192201
3691.7373120116	0.0087494487
3693.6661193846	0.0089797340
3695.5949267577	0.0091828573
3697.5237341307	0.0089816982
3699.4525415038	0.0089678364
3701.3813488768	0.0087529588
3703.3101562499	0.0083694067
3705.2389636229	0.0090456791
3707.1677709959	0.0086475099
3709.0965783690	0.0084303059
3711.0253857420	0.0080163293
3712.9541931151	0.0076195821
3714.8830004881	0.0085139722
3716.8118078612	0.0084298318
3718.7406152342	0.0084661432
3720.6694226073	0.0082404586
3722.5982299803	0.0080992673
3724.5270373534	0.0082156695
3726.4558447264	0.0077116005
3728.3846520995	0.0082372129
3730.3134594725	0.0079952665
3732.2422668456	0.0075192056
3734.1710742186	0.0074491678
3736.0998815916	0.0070667611
3738.0286889647	0.0073149307
3739.9574963377	0.0077432115
3741.8863037108	0.0079547660
3743.8151110838	0.0065070447
3745.7439184569	0.0061883335
3747.6727258299	0.0075605065
3749.6015332030	0.0068580611
3751.5303405760	0.0064208163
3753.4591479491	0.0069794678
3755.3879553221	0.0073385593
3757.3167626952	0.0075333240
3759.2455700682	0.0071176421
3761.1743774413	0.0072815199
3763.1031848143	0.0075962692
3765.0319921873	0.0071813883
3766.9607995604	0.0072359680
3768.8896069334	0.0072176922
3770.8184143065	0.0068988046
3772.7472216795	0.0072356360
3774.6760290526	0.0072259195
3776.6048364256	0.0071981018
3778.5336437987	0.0071396176
3780.4624511717	0.0068320492
3782.3912585448	0.0070929485
3784.3200659178	0.0071084155
3786.2488732909	0.0070615588
3788.1776806639	0.0071072378
3790.1064880370	0.0070172558
3792.0352954100	0.0069551282
3793.9641027830	0.0070462045
3795.8929101561	0.0067301737
3797.8217175291	0.0067264866
3799.7505249022	0.0068405205
3801.6793322752	0.0056685526
3803.6081396483	0.0064984830
3805.5369470213	0.0068409089
3807.4657543944	0.0058566951
3809.3945617674	0.0067904778
3811.3233691405	0.0066283187
3813.2521765135	0.0068060933
3815.1809838866	0.0062517426
3817.1097912596	0.0056414902
3819.0385986327	0.0067687398
3820.9674060057	0.0058073215
3822.8962133787	0.0060000774
3824.8250207518	0.0066605173
3826.7538281248	0.0061341887
3828.6826354979	0.0064963391
3830.6114428709	0.0062700100
3832.5402502440	0.0060805473
3834.4690576170	0.0061964504
3836.3978649901	0.0059567196
3838.3266723631	0.0055136792
3840.2554797362	0.0058376305
3842.1842871092	0.0062579941
3844.1130944823	0.0060587125
3846.0419018553	0.0062735900
3847.9707092284	0.0061599845
3849.8995166014	0.0062157246
3851.8283239745	0.0057476573
3853.7571313475	0.0045133405
3855.6859387205	0.0051258225
3857.6147460936	0.0062607853
3859.5435534666	0.0060348390
3861.4723608397	0.0059960652
3863.4011682127	0.0059090713
3865.3299755858	0.0055890027
3867.2587829588	0.0060882950
3869.1875903319	0.0056095100
3871.1163977049	0.0053524151
3873.0452050780	0.0060306815
3874.9740124510	0.0056559835
3876.9028198241	0.0059511643
3878.8316271971	0.0059482167
3880.7604345702	0.0054239077
3882.6892419432	0.0059655495
3884.6180493162	0.0056131687
3886.5468566893	0.0053273346
3888.4756640623	0.0059782704
3890.4044714354	0.0057313466
3892.3332788084	0.0053669820
3894.2620861815	0.0057292338
3896.1908935545	0.0058615468
3898.1197009276	0.0056109708
3900.0485083006	0.0054445467
3901.9773156737	0.0053849644
3903.9061230467	0.0052117324
3905.8349304198	0.0052904109
3907.7637377928	0.0056613577
3909.6925451659	0.0057251453
3911.6213525389	0.0057657817
3913.5501599119	0.0057520401
3915.4789672850	0.0055957953
3917.4077746580	0.0054767588
3919.3365820311	0.0053997925
3921.2653894041	0.0055814036
3923.1941967772	0.0055673504
3925.1230041502	0.0054590139
3927.0518115233	0.0055466481
3928.9806188963	0.0055708578
3930.9094262694	0.0054488853
3932.8382336424	0.0053076050
3934.7670410155	0.0054765390
3936.6958483885	0.0054885154
3938.6246557616	0.0053862836
3940.5534631346	0.0054154205
3942.4822705076	0.0052959831
3944.4110778807	0.0053798296
3946.3398852537	0.0053535593
3948.2686926268	0.0051999134
3950.1974999998	0.0052825673
3952.1263073729	0.0053306874
3954.0551147459	0.0053556077
3955.9839221190	0.0052462155
3957.9127294920	0.0052532521
3959.8415368651	0.0053111725
3961.7703442381	0.0051883729
3963.6991516112	0.0052367765
3965.6279589842	0.0052155317
3967.5567663573	0.0052173436
3969.4855737303	0.0051966244
3971.4143811034	0.0051412107
3973.3431884764	0.0052378308
3975.2719958494	0.0050960737
3977.2008032225	0.0051023625
3979.1296105955	0.0051642684
3981.0584179686	0.0050888713
3982.9872253416	0.0051334789
3984.9160327147	0.0050511933
3986.8448400877	0.0050457632
3988.7736474608	0.0051328694
3990.7024548338	0.0051170457
3992.6312622069	0.0050238697
3994.5600695799	0.0050229519
3996.4888769530	0.0050807493
3998.4176843260	0.0050115795
4000.3464916991	0.0049294624
4002.2752990721	0.0049128002
4004.2041064451	0.0050091594
4006.1329138182	0.0049344553
4008.0617211912	0.0048755798
4009.9905285643	0.0049702981
4011.9193359373	0.0048973309
4013.8481433104	0.0048403875
4015.7769506834	0.0048460038
4017.7057580565	0.0049176137
4019.6345654295	0.0048360443
4021.5633728026	0.0047298311
4023.4921801756	0.0048649544
4025.4209875487	0.0048596403
4027.3497949217	0.0047670864
4029.2786022948	0.0047647110
4031.2074096678	0.0047952854
4033.1362170408	0.0047617499
4035.0650244139	0.0047308812
4036.9938317869	0.0047196886
4038.9226391600	0.0046980428
4040.8514465330	0.0047624959
4042.7802539061	0.0047762417
4044.7090612791	0.0047362382
4046.6378686522	0.0046705883
4048.5666760252	0.0046511805
4050.4954833983	0.0046533849
4052.4242907713	0.0046048453
4054.3530981444	0.0046119513
4056.2819055174	0.0046265488
4058.2107128905	0.0046260236
4060.1395202635	0.0045760074
4062.0683276365	0.0045807511
4063.9971350096	0.0045810523
4065.9259423826	0.0045353104
4067.8547497557	0.0046097860
4069.7835571287	0.0045808479
4071.7123645018	0.0044857869
4073.6411718748	0.0044649458
4075.5699792479	0.0044466453
4077.4987866209	0.0044696066
4079.4275939940	0.0044652577
4081.3564013670	0.0044959383
4083.2852087401	0.0046104798
4085.2140161131	0.0045487960
4087.1428234862	0.0043841470
4089.0716308592	0.0044090059
4091.0004382323	0.0043996237
4092.9292456053	0.0042893663
4094.8580529783	0.0043515670
4096.7868603514	0.0043668915
4098.7156677244	0.0042848084
4100.6444750975	0.0043248995
4102.5732824705	0.0042890003
4104.5020898436	0.0042778207
4106.4308972166	0.0043286774
4108.3597045897	0.0042662551
4110.2885119627	0.0042740759
4112.2173193358	0.0042676283
4114.1461267088	0.0042518117
4116.0749340819	0.0042639752
4118.0037414549	0.0042455243
4119.9325488280	0.0042739199
4121.8613562010	0.0042368211
4123.7901635740	0.0041958289
4125.7189709471	0.0042093685
4127.6477783201	0.0042091091
4129.5765856932	0.0041631525
4131.5053930662	0.0041971882
4133.4342004393	0.0042096092
4135.3630078123	0.0040911678
4137.2918151854	0.0041421377
4139.2206225584	0.0041387342
4141.1494299315	0.0041148448
4143.0782373045	0.0041502407
4145.0070446776	0.0040534940
4146.9358520506	0.0040573566
4148.8646594237	0.0039821016
4150.7934667967	0.0039800070
4152.7222741697	0.0041229748
4154.6510815428	0.0039894134
4156.5798889158	0.0039197938
4158.5086962889	0.0040002828
4160.4375036619	0.0039684507
4162.3663110350	0.0039924704
4164.2951184080	0.0039931685
4166.2239257811	0.0039284234
4168.1527331541	0.0039940663
4170.0815405272	0.0039928872
4172.0103479002	0.0038957270
4173.9391552733	0.0038873586
4175.8679626463	0.0038788491
4177.7967700194	0.0038468454
4179.7255773924	0.0038161101
4181.6543847654	0.0037829373
4183.5831921385	0.0038063428
4185.5119995115	0.0038725298
4187.4408068846	0.0038657011
4189.3696142576	0.0038283526
4191.2984216307	0.0037788879
4193.2272290037	0.0036787973
4195.1560363768	0.0036860637
4197.0848437498	0.0037482297
4199.0136511229	0.0037380729
4200.9424584959	0.0037197638
4202.8712658690	0.0037083386
4204.8000732420	0.0037357900
4206.7288806151	0.0037389011
4208.6576879881	0.0036748326
4210.5864953611	0.0037360257
4212.5153027342	0.0037182155
4214.4441101072	0.0036014030
4216.3729174803	0.0036826502
4218.3017248533	0.0036585797
4220.2305322264	0.0036151973
4222.1593395994	0.0036304945
4224.0881469725	0.0035804589
4226.0169543455	0.0036520916
4227.9457617186	0.0036441432
4229.8745690916	0.0036056656
4231.8033764647	0.0035642344
4233.7321838377	0.0035642805
4235.6609912108	0.0036789263
4237.5897985838	0.0035942495
4239.5186059569	0.0034845017
4241.4474133299	0.0034820219
4243.3762207029	0.0035482883
4245.3050280760	0.0036351457
4247.2338354490	0.0035451821
4249.1626428221	0.0034313044
4251.0914501951	0.0035162747
4253.0202575682	0.0035784955
4254.9490649412	0.0034592212
4256.8778723143	0.0034630862
4258.8066796873	0.0035123755
4260.7354870604	0.0034792023
4262.6642944334	0.0035035484
4264.5931018065	0.0034857825
4266.5219091795	0.0034103859
4268.4507165526	0.0033505091
4270.3795239256	0.0033686331
4272.3083312986	0.0034141452
4274.2371386717	0.0034058208
4276.1659460447	0.0033685053
4278.0947534178	0.0033108522
4280.0235607908	0.0032937755
4281.9523681639	0.0033338675
4283.8811755369	0.0033418774
4285.8099829100	0.0032995776
4287.7387902830	0.0032697634
4289.6675976561	0.0032887664
4291.5964050291	0.0033109826
4293.5252124022	0.0032753048
4295.4540197752	0.0032586311
4297.3828271483	0.0032544089
4299.3116345213	0.0032722880
4301.2404418943	0.0032738005
4303.1692492674	0.0032379923
4305.0980566404	0.0032621515
4307.0268640135	0.0031849134
4308.9556713865	0.0031646201
4310.8844787596	0.0032090251
4312.8132861326	0.0032092598
4314.7420935057	0.0032238038
4316.6709008787	0.0031428477
4318.5997082518	0.0032145460
4320.5285156248	0.0032264946
4322.4573229979	0.0031760694
4324.3861303709	0.0032710999
4326.3149377440	0.0031901202
4328.2437451170	0.0031297882
4330.1725524900	0.0031559803
4332.1013598631	0.0031324504
4334.0301672361	0.0030992422
4335.9589746092	0.0031205998
4337.8877819822	0.0031737690
4339.8165893553	0.0031729538
4341.7453967283	0.0031203078
4343.6742041014	0.0030572778
4345.6030114744	0.0030823238
4347.5318188475	0.0030677356
4349.4606262205	0.0030767184
4351.3894335936	0.0030489271
4353.3182409666	0.0030100844
4355.2470483397	0.0030522482
4357.1758557127	0.0029933504
4359.1046630858	0.0030462625
4361.0334704588	0.0030588992
4362.9622778318	0.0030356618
4364.8910852049	0.0029796464
4366.8198925779	0.0029203466
4368.7486999510	0.0030999179
4370.6775073240	0.0030223262
4372.6063146971	0.0029431712
4374.5351220701	0.0029846602
4376.4639294432	0.0028852727
4378.3927368162	0.0029623345
4380.3215441893	0.0029911944
4382.2503515623	0.0029107151
4384.1791589354	0.0029284798
4386.1079663084	0.0029394194
4388.0367736815	0.0028870457
4389.9655810545	0.0028757979
4391.8943884275	0.0028870823
4393.8231958006	0.0028228215
4395.7520031736	0.0027753746
4397.6808105467	0.0028656295
4399.6096179197	0.0029223501
4401.5384252928	0.0028378605
4403.4672326658	0.0028390591
4405.3960400389	0.0028040439
4407.3248474119	0.0027923067
4409.2536547850	0.0028488496
4411.1824621580	0.0028055557
4413.1112695311	0.0027859332
4415.0400769041	0.0027871369
4416.9688842772	0.0028520436
4418.8976916502	0.0027488319
4420.8264990232	0.0026955691
4422.7553063963	0.0028222715
4424.6841137693	0.0027346350
4426.6129211424	0.0027318276
4428.5417285154	0.0027725594
4430.4705358885	0.0027626217
4432.3993432615	0.0026895995
4434.3281506346	0.0026513655
4436.2569580076	0.0027608969
4438.1857653807	0.0026861196
4440.1145727537	0.0026719291
4442.0433801268	0.0026795785
4443.9721874998	0.0026067109
4445.9009948729	0.0026275762
4447.8298022459	0.0026182509
4449.7586096189	0.0025791770
4451.6874169920	0.0025915420
4453.6162243650	0.0026706476
4455.5450317381	0.0026344643
4457.4738391111	0.0026129382
4459.4026464842	0.0025982317
4461.3314538572	0.0025639040
4463.2602612303	0.0026267301
4465.1890686033	0.0026016149
4467.1178759764	0.0025755274
4469.0466833494	0.0025174511
4470.9754907225	0.0025182627
4472.9042980955	0.0025532534
4474.8331054686	0.0025738180
4476.7619128416	0.0026363721
4478.6907202147	0.0025135076
4480.6195275877	0.0025103942
4482.5483349607	0.0026061023
4484.4771423338	0.0025733963
4486.4059497068	0.0024813469
4488.3347570799	0.0024608932
4490.2635644529	0.0025300351
4492.1923718260	0.0025029066
4494.1211791990	0.0025159623
4496.0499865721	0.0024338621
4497.9787939451	0.0024483795
4499.9076013182	0.0025197905
4501.8364086912	0.0023861586
4503.7652160643	0.0024300655
4505.6940234373	0.0024142498
4507.6228308104	0.0024293128
4509.5516381834	0.0024968479
4511.4804455564	0.0023628776
4513.4092529295	0.0023811520
4515.3380603025	0.0024406600
4517.2668676756	0.0024612008
4519.1956750486	0.0024800466
4521.1244824217	0.0024029494
4523.0532897947	0.0024236357
4524.9820971678	0.0024384689
4526.9109045408	0.0023045545
4528.8397119139	0.0023264375
4530.7685192869	0.0023568249
4532.6973266600	0.0023387019
4534.6261340330	0.0024120153
4536.5549414061	0.0023734611
4538.4837487791	0.0024284348
4540.4125561521	0.0023483669
4542.3413635252	0.0022086834
4544.2701708982	0.0022783468
4546.1989782713	0.0022653646
4548.1277856443	0.0023164013
4550.0565930174	0.0022993637
4551.9854003904	0.0023026089
4553.9142077635	0.0022035516
4555.8430151365	0.0021332093
4557.7718225096	0.0023533460
4559.7006298826	0.0022384105
4561.6294372557	0.0022429619
4563.5582446287	0.0022988673
4565.4870520018	0.0022006771
4567.4158593748	0.0022957949
4569.3446667478	0.0021932663
4571.2734741209	0.0022229683
4573.2022814939	0.0023058341
4575.1310888670	0.0022319313
4577.0598962400	0.0022498644
4578.9887036131	0.0022091735
4580.9175109861	0.0022166781
4582.8463183592	0.0021988552
4584.7751257322	0.0021672347
4586.7039331053	0.0022442404
4588.6327404783	0.0022479333
4590.5615478514	0.0022252600
4592.4903552244	0.0022218330
4594.4191625975	0.0021726824
4596.3479699705	0.0021622204
4598.2767773435	0.0021413439
4600.2055847166	0.0021150084
4602.1343920896	0.0021778473
4604.0631994627	0.0021357702
4605.9920068357	0.0020658367
4607.9208142088	0.0020995727
4609.8496215818	0.0021167633
4611.7784289549	0.0021832832
4613.7072363279	0.0021562232
4615.6360437010	0.0020434982
4617.5648510740	0.0020961417
4619.4936584471	0.0020762582
4621.4224658201	0.0020155560
4623.3512731932	0.0020671934
4625.2800805662	0.0020837744
4627.2088879393	0.0020813290
4629.1376953123	0.0020125709
4631.0665026853	0.0020428207
4632.9953100584	0.0020221809
4634.9241174314	0.0020043920
4636.8529248045	0.0021521524
4638.7817321775	0.0019999153
4640.7105395506	0.0020165904
4642.6393469236	0.0021118301
4644.5681542967	0.0019938068
4646.4969616697	0.0020053477
4648.4257690428	0.0019143901
4650.3545764158	0.0019264694
4652.2833837889	0.0019552622
4654.2121911619	0.0020091531
4656.1409985350	0.0020178081
4658.0698059080	0.0018869722
4659.9986132810	0.0019695347
4661.9274206541	0.0019258473
4663.8562280271	0.0019510782
4665.7850354002	0.0019635851
4667.7138427732	0.0018951677
4669.6426501463	0.0019403341
4671.5714575193	0.0018556078
4673.5002648924	0.0019665612
4675.4290722654	0.0019841334
4677.3578796385	0.0019111348
4679.2866870115	0.0019424965
4681.2154943846	0.0018527221
4683.1443017576	0.0019362752
4685.0731091307	0.0019585122
4687.0019165037	0.0018214290
4688.9307238767	0.0018526826
4690.8595312498	0.0019185909
4692.7883386228	0.0018675311
4694.7171459959	0.0018452372
4696.6459533689	0.0018266074
4698.5747607420	0.0017909629
4700.5035681150	0.0018137156
4702.4323754881	0.0018222569
4704.3611828611	0.0018924957
4706.2899902342	0.0018840032
4708.2187976072	0.0018294883
4710.1476049803	0.0018064668
4712.0764123533	0.0017840023
4714.0052197264	0.0018765011
4715.9340270994	0.0018051665
4717.8628344724	0.0017265826
4719.7916418455	0.0017673774
4721.7204492185	0.0016972960
4723.6492565916	0.0017354961
4725.5780639646	0.0018051034
4727.5068713377	0.0017630844
4729.4356787107	0.0017670274
4731.3644860838	0.0017589445
4733.2932934568	0.0017519519
4735.2221008299	0.0017973345
4737.1509082029	0.0017378819
4739.0797155760	0.0017347543
4741.0085229490	0.0017638418
4742.9373303221	0.0016468543
4744.8661376951	0.0016935620
4746.7949450682	0.0017209187
4748.7237524412	0.0016526014
4750.6525598142	0.0017337441
4752.5813671873	0.0016823143
4754.5101745603	0.0016497020
4756.4389819334	0.0017228291
4758.3677893064	0.0016988337
4760.2965966795	0.0017163374
4762.2254040525	0.0017117993
4764.1542114256	0.0016799725
4766.0830187986	0.0016529488
4768.0118261717	0.0017198947
4769.9406335447	0.0017731574
4771.8694409178	0.0016233232
4773.7982482908	0.0016652255
4775.7270556639	0.0017208059
4777.6558630369	0.0016397592
4779.5846704099	0.0016732162
4781.5134777830	0.0016521593
4783.4422851560	0.0016218221
4785.3710925291	0.0016249889
4787.2998999021	0.0016578957
4789.2287072752	0.0016719534
4791.1575146482	0.0016466699
4793.0863220213	0.0016129925
4795.0151293943	0.0015840307
4796.9439367674	0.0015971635
4798.8727441404	0.0015376275
4800.8015515135	0.0016006746
4802.7303588865	0.0015996669
4804.6591662596	0.0015281711
4806.5879736326	0.0016388602
4808.5167810056	0.0016120197
4810.4455883787	0.0016042227
4812.3743957517	0.0016020776
4814.3032031248	0.0015813848
4816.2320104978	0.0016246148
4818.1608178709	0.0015150085
4820.0896252439	0.0015137123
4822.0184326170	0.0016041117
4823.9472399900	0.0015793508
4825.8760473631	0.0015453077
4827.8048547361	0.0015521260
4829.7336621092	0.0015689547
4831.6624694822	0.0015258484
4833.5912768553	0.0014764897
4835.5200842283	0.0015099847
4837.4488916013	0.0015167155
4839.3776989744	0.0015058354
4841.3065063474	0.0015372713
4843.2353137205	0.0015272417
4845.1641210935	0.0015760118
4847.0929284666	0.0015286359
4849.0217358396	0.0014509106
4850.9505432127	0.0015309392
4852.8793505857	0.0014770513
4854.8081579588	0.0014429052
4856.7369653318	0.0014355986
4858.6657727049	0.0013693147
4860.5945800779	0.0014440168
4862.5233874510	0.0014440467
4864.4521948240	0.0013761588
4866.3810021971	0.0014239387
4868.3098095701	0.0014470986
4870.2386169431	0.0014337597
4872.1674243162	0.0014223193
4874.0962316892	0.0014408990
4876.0250390623	0.0015081349
4877.9538464353	0.0014620705
4879.8826538084	0.0014591448
4881.8114611814	0.0014650393
4883.7402685545	0.0014006491
4885.6690759275	0.0014189096
4887.5978833006	0.0013280977
4889.5266906736	0.0013714662
4891.4554980467	0.0014597795
4893.3843054197	0.0013788325
4895.3131127928	0.0014093667
4897.2419201658	0.0014520467
4899.1707275388	0.0014798092
4901.0995349119	0.0014185092
4903.0283422849	0.0013636081
4904.9571496580	0.0013771160
4906.8859570310	0.0013459299
4908.8147644041	0.0013675011
4910.7435717771	0.0013844859
4912.6723791502	0.0013488935
4914.6011865232	0.0013281259
4916.5299938963	0.0014175249
4918.4588012693	0.0013789809
4920.3876086424	0.0013212282
4922.3164160154	0.0013493057
4924.2452233885	0.0012999913
4926.1740307615	0.0013355308
4928.1028381345	0.0012790756
4930.0316455076	0.0012877550
4931.9604528806	0.0013036178
4933.8892602537	0.0012608082
4935.8180676267	0.0013284191
4937.7468749998	0.0012823390
4939.6756823728	0.0013436017
4941.6044897459	0.0013078609
4943.5332971189	0.0012801464
4945.4621044920	0.0014006714
4947.3909118650	0.0012907052
4949.3197192381	0.0012582367
4951.2485266111	0.0012819835
4953.1773339842	0.0012815294
4955.1061413572	0.0012879091
4957.0349487302	0.0012890459
4958.9637561033	0.0013108851
4960.8925634763	0.0012634445
4962.8213708494	0.0012471376
4964.7501782224	0.0011955634
4966.6789855955	0.0012486398
4968.6077929685	0.0012914205
4970.5366003416	0.0012186156
4972.4654077146	0.0012597691
4974.3942150877	0.0012150272
4976.3230224607	0.0012635787
4978.2518298338	0.0013343466
4980.1806372068	0.0011914317
4982.1094445799	0.0011595746
4984.0382519529	0.0011729333
4985.9670593259	0.0012158507
4987.8958666990	0.0012793307
4989.8246740720	0.0012226326
4991.7534814451	0.0011883031
4993.6822888181	0.0011851221
4995.6110961912	0.0012247504
4997.5399035642	0.0012549973
4999.4687109373	0.0012235984
5001.3975183103	0.0011955086
5003.3263256834	0.0011491275
5005.2551330564	0.0011526984
5007.1839404295	0.0011869316
5009.1127478025	0.0012170200
5011.0415551756	0.0011807480
5012.9703625486	0.0010874833
5014.8991699217	0.0011270435
5016.8279772947	0.0012001212
5018.7567846677	0.0012002659
5020.6855920408	0.0011730848
5022.6143994138	0.0011608738
5024.5432067869	0.0011212118
5026.4720141599	0.0010719468
5028.4008215330	0.0011546018
5030.3296289060	0.0011774594
5032.2584362791	0.0011432404
5034.1872436521	0.0011676525
5036.1160510252	0.0010911997
5038.0448583982	0.0010555042
5039.9736657713	0.0010521730
5041.9024731443	0.0010340532
5043.8312805174	0.0011528069
5045.7600878904	0.0011600259
5047.6888952634	0.0010829358
5049.6177026365	0.0011483927
5051.5465100095	0.0011504334
5053.4753173826	0.0010506795
5055.4041247556	0.0010164436
5057.3329321287	0.0010674307
5059.2617395017	0.0011065349
5061.1905468748	0.0011229785
5063.1193542478	0.0011040310
5065.0481616209	0.0010759279
5066.9769689939	0.0011259714
5068.9057763670	0.0011008387
5070.8345837400	0.0010605116
5072.7633911131	0.0010317024
5074.6921984861	0.0009507829
5076.6210058591	0.0010156765
5078.5498132322	0.0011079547
5080.4786206052	0.0011236060
5082.4074279783	0.0010813562
5084.3362353513	0.0010274362
5086.2650427244	0.0010276146
5088.1938500974	0.0009802952
5090.1226574705	0.0009874172
5092.0514648435	0.0010136813
5093.9802722166	0.0010319711
5095.9090795896	0.0010279854
5097.8378869627	0.0009287152
5099.7666943357	0.0010026554
5101.6955017088	0.0010125031
5103.6243090818	0.0009261119
5105.5531164548	0.0009982027
5107.4819238279	0.0009576932
5109.4107312009	0.0010042086
5111.3395385740	0.0010415587
5113.2683459470	0.0009887225
5115.1971533201	0.0010768566
5117.1259606931	0.0009878440
5119.0547680662	0.0009343773
5120.9835754392	0.0009823231
5122.9123828123	0.0009905093
5124.8411901853	0.0009933242
5126.7699975584	0.0009275763
5128.6988049314	0.0009848806
5130.6276123045	0.0009625399
5132.5564196775	0.0009471754
5134.4852270506	0.0010303826
5136.4140344236	0.0010060815
5138.3428417966	0.0009991897
5140.2716491697	0.0009957759
5142.2004565427	0.0009902638
5144.1292639158	0.0009475794
5146.0580712888	0.0009503009
5147.9868786619	0.0009342044
5149.9156860349	0.0009554851
5151.8444934080	0.0009674057
5153.7733007810	0.0008639381
5155.7021081541	0.0010151800
5157.6309155271	0.0010067998
5159.5597229002	0.0009720547
5161.4885302732	0.0010167561
5163.4173376463	0.0007908397
5165.3461450193	0.0008503265
5167.2749523923	0.0009202044
5169.2037597654	0.0008930310
5171.1325671384	0.0009543674
5173.0613745115	0.0009009818
5174.9901818845	0.0009180402
5176.9189892576	0.0008888586
5178.8477966306	0.0008469892
5180.7766040037	0.0009004480
5182.7054113767	0.0008847533
5184.6342187498	0.0008574891
5186.5630261228	0.0008828432
5188.4918334959	0.0008594383
5190.4206408689	0.0008626307
5192.3494482420	0.0008446659
5194.2782556150	0.0008328806
5196.2070629880	0.0009051918
5198.1358703611	0.0008165871
5200.0646777341	0.0008519333
5201.9934851072	0.0008906252
5203.9222924802	0.0008320157
5205.8510998533	0.0009307322
5207.7799072263	0.0008657009
5209.7087145994	0.0008442572
5211.6375219724	0.0009182514
5213.5663293455	0.0009191690
5215.4951367185	0.0008258672
5217.4239440916	0.0007987540
5219.3527514646	0.0008977018
5221.2815588377	0.0008119053
5223.2103662107	0.0008318576
5225.1391735837	0.0007843386
5227.0679809568	0.0007665269
5228.9967883298	0.0008710284
5230.9255957029	0.0007768236
5232.8544030759	0.0008589443
5234.7832104490	0.0008164134
5236.7120178220	0.0008235412
5238.6408251951	0.0009061050
5240.5696325681	0.0008069847
5242.4984399412	0.0009041979
5244.4272473142	0.0008160481
5246.3560546873	0.0008003488
5248.2848620603	0.0008606157
5250.2136694334	0.0007869996
5252.1424768064	0.0008625436
5254.0712841795	0.0007863904
5256.0000915525	0.0007873366
5257.9288989255	0.0008291672
5259.8577062986	0.0008263384
5261.7865136716	0.0008562227
5263.7153210447	0.0007498466
5265.6441284177	0.0007905144
5267.5729357908	0.0008097404
5269.5017431638	0.0007765903
5271.4305505369	0.0008708795
5273.3593579099	0.0008461699
5275.2881652830	0.0007119913
5277.2169726560	0.0007070954
5279.1457800291	0.0007881304
5281.0745874021	0.0007567963
5283.0033947752	0.0007396786
5284.9322021482	0.0007844877
5286.8610095212	0.0008024613
5288.7898168943	0.0007304020
5290.7186242673	0.0007520571
5292.6474316404	0.0008348195
5294.5762390134	0.0007194218
5296.5050463865	0.0007568396
5298.4338537595	0.0008348258
5300.3626611326	0.0008015875
5302.2914685056	0.0007680939
5304.2202758787	0.0007195634
5306.1490832517	0.0007917951
5308.0778906248	0.0007348920
5310.0066979978	0.0006958710
5311.9355053709	0.0007342147
5313.8643127439	0.0007106672
5315.7931201169	0.0007791949
5317.7219274900	0.0007754251
5319.6507348630	0.0007724523
5321.5795422361	0.0007631095
5323.5083496091	0.0007000516
5325.4371569822	0.0007185653
5327.3659643552	0.0007452698
5329.2947717283	0.0007402411
5331.2235791013	0.0007015592
5333.1523864744	0.0006643668
5335.0811938474	0.0007262410
5337.0100012205	0.0007456174
5338.9388085935	0.0006574999
5340.8676159666	0.0007541211
5342.7964233396	0.0007575577
5344.7252307126	0.0006160421
5346.6540380857	0.0006768978
5348.5828454587	0.0007382398
5350.5116528318	0.0007345242
5352.4404602048	0.0006583880
5354.3692675779	0.0006121738
5356.2980749509	0.0006274106
5358.2268823240	0.0006945641
5360.1556896970	0.0006970088
5362.0844970701	0.0005689302
5364.0133044431	0.0006683900
5365.9421118162	0.0007141579
5367.8709191892	0.0006686465
5369.7997265623	0.0006853875
5371.7285339353	0.0006827124
5373.6573413083	0.0007099643
5375.5861486814	0.0006510676
5377.5149560544	0.0006800018
5379.4437634275	0.0007001646
5381.3725708005	0.0006880974
5383.3013781736	0.0007075671
5385.2301855466	0.0006731150
5387.1589929197	0.0006206563
5389.0878002927	0.0005913346
5391.0166076658	0.0006773082
5392.9454150388	0.0006264778
5394.8742224119	0.0006114515
5396.8030297849	0.0006586629
5398.7318371580	0.0006018084
5400.6606445310	0.0006333676
5402.5894519041	0.0006761423
5404.5182592771	0.0006941921
5406.4470666501	0.0006221645
5408.3758740232	0.0006319905
5410.3046813962	0.0006114827
5412.2334887693	0.0005819526
5414.1622961423	0.0006824087
5416.0911035154	0.0006136163
5418.0199108884	0.0006184338
5419.9487182615	0.0006151093
5421.8775256345	0.0006151022
5423.8063330076	0.0006490960
5425.7351403806	0.0005889458
5427.6639477537	0.0006452729
5429.5927551267	0.0005723832
5431.5215624998	0.0005841365
5433.4503698728	0.0006961223
5435.3791772458	0.0005695176
5437.3079846189	0.0005518465
5439.2367919919	0.0006530001
5441.1655993650	0.0005691781
5443.0944067380	0.0005276811
5445.0232141111	0.0006198359
5446.9520214841	0.0005693071
5448.8808288572	0.0005769990
5450.8096362302	0.0006001763
5452.7384436033	0.0005754963
5454.6672509763	0.0006421773
5456.5960583494	0.0006006246
5458.5248657224	0.0005496487
5460.4536730955	0.0005257423
5462.3824804685	0.0005606558
5464.3112878415	0.0005689847
5466.2400952146	0.0005444320
5468.1689025876	0.0005987888
5470.0977099607	0.0004781179
5472.0265173337	0.0005053951
5473.9553247068	0.0006175657
5475.8841320798	0.0005707135
5477.8129394529	0.0006104321
5479.7417468259	0.0005598575
5481.6705541990	0.0005750971
5483.5993615720	0.0005810872
5485.5281689451	0.0004796781
5487.4569763181	0.0005387163
5489.3857836912	0.0005435914
5491.3145910642	0.0005458114
5493.2433984372	0.0005221077
5495.1722058103	0.0004801500
5497.1010131833	0.0005455627
5499.0298205564	0.0005500477
5500.9586279294	0.0005457838
5502.8874353025	0.0005071167
5504.8162426755	0.0005514921
5506.7450500486	0.0005926816
5508.6738574216	0.0005393478
5510.6026647947	0.0005079991
5512.5314721677	0.0004538231
5514.4602795408	0.0005488152
5516.3890869138	0.0005267500
5518.3178942869	0.0004939257
5520.2467016599	0.0005936230
5522.1755090330	0.0005566973
5524.1043164060	0.0005526869
5526.0331237790	0.0004850843
5527.9619311521	0.0004695790
5529.8907385251	0.0005050269
5531.8195458982	0.0004787754
5533.7483532712	0.0005040659
5535.6771606443	0.0005083452
5537.6059680173	0.0004829636
5539.5347753904	0.0005038313
5541.4635827634	0.0005984463
5543.3923901365	0.0005085235
5545.3211975095	0.0005171059
5547.2500048826	0.0005356949
5549.1788122556	0.0004782993
5551.1076196287	0.0005497020
5553.0364270017	0.0004036668
5554.9652343747	0.0004959652
5556.8940417478	0.0004783665
5558.8228491208	0.0004069063
5560.7516564939	0.0005821111
5562.6804638669	0.0004262882
5564.6092712400	0.0005242997
5566.5380786130	0.0005346182
5568.4668859861	0.0004354809
5570.3956933591	0.0005143781
5572.3245007322	0.0004496509
5574.2533081052	0.0005230925
5576.1821154783	0.0004663702
5578.1109228513	0.0004691982
5580.0397302244	0.0004759195
5581.9685375974	0.0004276531
5583.8973449704	0.0005201054
5585.8261523435	0.0004681089
5587.7549597165	0.0004898858
5589.6837670896	0.0004725047
5591.6125744626	0.0004347250
5593.5413818357	0.0004692424
5595.4701892087	0.0004496253
5597.3989965818	0.0004061060
5599.3278039548	0.0004145480
5601.2566113279	0.0004996266
5603.1854187009	0.0004456425
5605.1142260740	0.0004340488
5607.0430334470	0.0004311398
5608.9718408201	0.0004465735
5610.9006481931	0.0005120992
5612.8294555661	0.0004552230
5614.7582629392	0.0004552763
5616.6870703122	0.0004480922
5618.6158776853	0.0004602805
5620.5446850583	0.0003927999
5622.4734924314	0.0003599304
5624.4022998044	0.0004669829
5626.3311071775	0.0004365941
5628.2599145505	0.0004886154
5630.1887219236	0.0004714659
5632.1175292966	0.0003989094
5634.0463366697	0.0004698685
5635.9751440427	0.0004418347
5637.9039514158	0.0004474582
5639.8327587888	0.0004494838
5641.7615661619	0.0003729132
5643.6903735349	0.0003814695
5645.6191809079	0.0003928976
5647.5479882810	0.0004292318
5649.4767956540	0.0004479168
5651.4056030271	0.0003790145
5653.3344104001	0.0004106212
5655.2632177732	0.0004546740
5657.1920251462	0.0004928717
5659.1208325193	0.0005039324
5661.0496398923	0.0003979357
5662.9784472654	0.0004148114
5664.9072546384	0.0004394462
5666.8360620115	0.0004057118
5668.7648693845	0.0003908291
5670.6936767576	0.0003569634
5672.6224841306	0.0003723711
5674.5512915036	0.0003850552
5676.4800988767	0.0004057362
5678.4089062497	0.0004329008
5680.3377136228	0.0004390987
5682.2665209958	0.0004006097
5684.1953283689	0.0003910469
5686.1241357419	0.0003754420
5688.0529431150	0.0003846385
5689.9817504880	0.0004744827
5691.9105578611	0.0004324819
5693.8393652341	0.0004640578
5695.7681726072	0.0004271045
5697.6969799802	0.0003200460
5699.6257873533	0.0003754967
5701.5545947263	0.0003904279
5703.4834020993	0.0004598800
5705.4122094724	0.0003704313
5707.3410168454	0.0003490912
5709.2698242185	0.0004643742
5711.1986315915	0.0003836633
5713.1274389646	0.0003934165
5715.0562463376	0.0003443888
5716.9850537107	0.0003456041
5718.9138610837	0.0003793509
5720.8426684568	0.0003162361
5722.7714758298	0.0004201902
5724.7002832029	0.0003708263
5726.6290905759	0.0003083042
5728.5578979490	0.0004110755
5730.4867053220	0.0003556681
5732.4155126950	0.0003819874
5734.3443200681	0.0004487681
5736.2731274411	0.0003227307
5738.2019348142	0.0003135844
5740.1307421872	0.0003400408
5742.0595495603	0.0003398313
5743.9883569333	0.0003396747
5745.9171643064	0.0002776688
5747.8459716794	0.0003673809
5749.7747790525	0.0003681560
5751.7035864255	0.0003297789
5753.6323937986	0.0003693080
5755.5612011716	0.0003059418
5757.4900085447	0.0002960983
5759.4188159177	0.0003354766
5761.3476232907	0.0003705272
5763.2764306638	0.0003362890
5765.2052380368	0.0003323362
5767.1340454099	0.0003199396
5769.0628527829	0.0003169478
5770.9916601560	0.0004125497
5772.9204675290	0.0003599972
5774.8492749021	0.0003425026
5776.7780822751	0.0003780894
5778.7068896482	0.0003829897
5780.6356970212	0.0003557150
5782.5645043943	0.0003352529
5784.4933117673	0.0003700051
5786.4221191404	0.0003127764
5788.3509265134	0.0003416762
5790.2797338865	0.0003093383
5792.2085412595	0.0003020484
5794.1373486325	0.0004130329
5796.0661560056	0.0003550155
5797.9949633786	0.0002921111
5799.9237707517	0.0002551236
5801.8525781247	0.0003063984
5803.7813854978	0.0003585038
5805.7101928708	0.0003132571
5807.6390002439	0.0003114878
5809.5678076169	0.0003077523
5811.4966149900	0.0003169893
5813.4254223630	0.0003298757
5815.3542297361	0.0003315796
5817.2830371091	0.0003412018
5819.2118444822	0.0003481152
5821.1406518552	0.0003346285
5823.0694592282	0.0003637601
5824.9982666013	0.0003422534
5826.9270739743	0.0003122854
5828.8558813474	0.0003692825
5830.7846887204	0.0002885180
5832.7134960935	0.0002783047
5834.6423034665	0.0003531249
5836.5711108396	0.0002927697
5838.4999182126	0.0002677129
5840.4287255857	0.0003102513
5842.3575329587	0.0003099506
5844.2863403318	0.0003100422
5846.2151477048	0.0003318657
5848.1439550779	0.0003264767
5850.0727624509	0.0003287670
5852.0015698239	0.0002354292
5853.9303771970	0.0002301000
5855.8591845700	0.0002955564
5857.7879919431	0.0002923473
5859.7167993161	0.0003550592
5861.6456066892	0.0003115188
5863.5744140622	0.0002966474
5865.5032214353	0.0002943073
5867.4320288083	0.0003300264
5869.3608361814	0.0003203479
5871.2896435544	0.0002311993
5873.2184509275	0.0003981699
5875.1472583005	0.0003440361
5877.0760656736	0.0002349374
5879.0048730466	0.0002848737
5880.9336804196	0.0002786559
5882.8624877927	0.0003172748
5884.7912951657	0.0002513925
5886.7201025388	0.0002795639
5888.6489099118	0.0002896517
5890.5777172849	0.0002170146
5892.5065246579	0.0002578582
5894.4353320310	0.0002989775
5896.3641394040	0.0002531397
5898.2929467771	0.0002046936
5900.2217541501	0.0002765498
5902.1505615232	0.0002464824
5904.0793688962	0.0002144294
5906.0081762693	0.0002344643
5907.9369836423	0.0002258159
5909.8657910154	0.0002561472
5911.7945983884	0.0002596501
5913.7234057614	0.0002725654
5915.6522131345	0.0002671794
5917.5810205075	0.0003193904
5919.5098278806	0.0003055038
5921.4386352536	0.0002226286
5923.3674426267	0.0002342597
5925.2962499997	0.0002599633
5927.2250573728	0.0002800676
5929.1538647458	0.0002839085
5931.0826721189	0.0002759354
5933.0114794919	0.0001695973
5934.9402868650	0.0002064797
5936.8690942380	0.0003290974
5938.7979016111	0.0002589446
5940.7267089841	0.0002284405
5942.6555163571	0.0002517015
5944.5843237302	0.0002951478
5946.5131311032	0.0002709305
5948.4419384763	0.0002470521
5950.3707458493	0.0003133088
5952.2995532224	0.0002805741
5954.2283605954	0.0002317459
5956.1571679685	0.0002433506
5958.0859753415	0.0002067736
5960.0147827146	0.0001962359
5961.9435900876	0.0002704533
5963.8723974607	0.0002345206
5965.8012048337	0.0002143336
5967.7300122068	0.0002201209
5969.6588195798	0.0001629521
5971.5876269528	0.0002210474
5973.5164343259	0.0002876526
5975.4452416989	0.0002480037
5977.3740490720	0.0001747421
5979.3028564450	0.0002680046
5981.2316638181	0.0002844997
5983.1604711911	0.0001899134
5985.0892785642	0.0002536191
5987.0180859372	0.0002108865
5988.9468933103	0.0002137930
5990.8757006833	0.0002724030
5992.8045080564	0.0002156749
5994.7333154294	0.0002228953
5996.6621228025	0.0002641507
5998.5909301755	0.0002305323
6000.5197375485	0.0002077735
