399.2631262207	0.0005889993
401.1919335938	0.0007946071
403.1207409668	0.0004918848
405.0495483398	0.0005485103
406.9783557129	0.0003731552
408.9071630859	0.0001520308
410.8359704590	0.0004521696
412.7647778320	0.0010916541
414.6935852051	0.0005954580
416.6223925781	0.0001604899
418.5511999512	0.0003420861
420.4800073242	0.0001467650
422.4088146973	0.0002144444
424.3376220703	0.0001827099
426.2664294434	0.0003508183
428.1952368164	0.0004481909
430.1240441895	0.0003441068
432.0528515625	0.0005749577
433.9816589355	0.0005980872
435.9104663086	0.0005563236
437.8392736816	0.0004838693
439.7680810547	-0.0000049392
441.6968884277	0.0000246855
443.6256958008	0.0004514497
445.5545031738	0.0002655571
447.4833105469	0.0005216182
449.4121179199	0.0005870509
451.3409252930	0.0003888448
453.2697326660	0.0003750731
455.1985400391	0.0003274510
457.1273474121	0.0006706321
459.0561547852	0.0002233221
460.9849621582	0.0002775371
462.9137695313	0.0006262161
464.8425769043	0.0004081924
466.7713842773	0.0003175254
468.7001916504	-0.0000588374
470.6289990234	0.0001962097
472.5578063965	0.0003695659
474.4866137695	0.0002342539
476.4154211426	-0.0000491594
478.3442285156	0.0000500183
480.2730358887	0.0004856606
482.2018432617	-0.0001725183
484.1306506348	-0.0002076793
486.0594580078	-0.0000278980
487.9882653809	0.0001187625
489.9170727539	0.0003727953
491.8458801270	-0.0001437675
493.7746875000	0.0001329546
495.7034948730	0.0002821427
497.6323022461	0.0002625472
499.5611096191	0.0004426841
501.4899169922	-0.0001713174
503.4187243652	-0.0001993862
505.3475317383	0.0001779685
507.2763391113	-0.0000462795
509.2051464844	0.0000333518
511.1339538574	0.0001026474
513.0627612305	-0.0000587200
514.9915686035	0.0002819748
516.9203759766	0.0003933569
518.8491833496	0.0001642897
520.7779907227	0.0001200248
522.7067980957	-0.0000075022
524.6356054688	0.0001926687
526.5644128418	0.0002895344
528.4932202148	-0.0001306837
530.4220275879	0.0000348013
532.3508349609	0.0004054716
534.2796423340	0.0001291230
536.2084497070	-0.0000037215
538.1372570801	0.0002519381
540.0660644531	-0.0001714664
541.9948718262	-0.0002936360
543.9236791992	0.0004737873
545.8524865723	0.0001804380
547.7812939453	-0.0000819643
549.7101013184	0.0003376201
551.6389086914	0.0003999051
553.5677160645	0.0002272918
555.4965234375	-0.0000624510
557.4253308105	-0.0000667632
559.3541381836	-0.0000891862
561.2829455566	0.0000216838
563.2117529297	0.0000151775
565.1405603027	0.0002503156
567.0693676758	0.0002601166
568.9981750488	-0.0000377524
570.9269824219	0.0002461089
572.8557897949	-0.0000073527
574.7845971680	0.0002819922
576.7134045410	0.0002917696
578.6422119141	0.0000593514
580.5710192871	0.0003458746
582.4998266602	0.0001942167
584.4286340332	0.0002742308
586.3574414063	-0.0000115091
588.2862487793	-0.0001719188
590.2150561523	-0.0000931502
592.1438635254	-0.0002502047
594.0726708984	0.0001262977
596.0014782715	0.0003676045
597.9302856445	0.0001664481
599.8590930176	0.0000445807
601.7879003906	0.0002377246
603.7167077637	-0.0000016384
605.6455151367	-0.0000241240
607.5743225098	0.0002132294
609.5031298828	0.0000543516
611.4319372559	-0.0001968571
613.3607446289	-0.0000972192
615.2895520020	0.0002168499
617.2183593750	-0.0001476241
619.1471667480	0.0000988855
621.0759741211	0.0004795150
623.0047814941	0.0000463530
624.9335888672	0.0000054321
626.8623962402	0.0002094342
628.7912036133	-0.0000542914
630.7200109863	-0.0000122735
632.6488183594	0.0003582006
634.5776257324	0.0006931201
636.5064331055	0.0007094436
638.4352404785	0.0003343908
640.3640478516	0.0006856655
642.2928552246	0.0007801356
644.2216625977	0.0005849350
646.1504699707	0.0007390229
648.0792773438	0.0005637968
650.0080847168	0.0007649548
651.9368920898	0.0008867300
653.8656994629	0.0007000219
655.7945068359	0.0008794362
657.7233142090	0.0008797539
659.6521215820	0.0008019453
661.5809289551	0.0009398498
663.5097363281	0.0009753681
665.4385437012	0.0011270607
667.3673510742	0.0011914117
669.2961584473	0.0011039347
671.2249658203	0.0014434019
673.1537731934	0.0015343470
675.0825805664	0.0014597822
677.0113879395	0.0013641620
678.9401953125	0.0012911649
680.8690026855	0.0015795046
682.7978100586	0.0013482496
684.7266174316	0.0013928108
686.6554248047	0.0017005256
688.5842321777	0.0014839014
690.5130395508	0.0014926342
692.4418469238	0.0018101367
694.3706542969	0.0020426218
696.2994616699	0.0018794860
698.2282690430	0.0020845109
700.1570764160	0.0024628995
702.0858837891	0.0022276505
704.0146911621	0.0021623834
705.9434985352	0.0022198358
707.8723059082	0.0017670696
709.8011132813	0.0014680410
711.7299206543	0.0012045287
713.6587280273	0.0004675328
715.5875354004	0.0003869286
717.5163427734	0.0003421460
719.4451501465	0.0000220982
721.3739575195	0.0002662211
723.3027648926	0.0002171828
725.2315722656	0.0000983946
727.1603796387	0.0001126708
729.0891870117	-0.0000383607
731.0179943848	0.0000446472
732.9468017578	-0.0000163282
734.8756091309	-0.0001810549
736.8044165039	0.0001938109
738.7332238770	0.0003082184
740.6620312500	-0.0000095533
742.5908386230	-0.0001557818
744.5196459961	0.0001503479
746.4484533691	0.0005610230
748.3772607422	0.0004670419
750.3060681152	0.0003544939
752.2348754883	0.0002732306
754.1636828613	0.0001905329
756.0924902344	0.0001341777
758.0212976074	0.0000945432
759.9501049805	0.0001846611
761.8789123535	0.0001740252
763.8077197266	0.0003286105
765.7365270996	0.0002152943
767.6653344727	-0.0000048885
769.5941418457	0.0001083730
771.5229492188	0.0001350948
773.4517565918	0.0001528273
775.3805639648	0.0004083569
777.3093713379	0.0004524816
779.2381787109	0.0000421308
781.1669860840	0.0000868436
783.0957934570	0.0003226387
785.0246008301	0.0001924775
786.9534082031	0.0002789086
788.8822155762	0.0002435057
790.8110229492	0.0003408992
792.7398303223	0.0005961352
794.6686376953	0.0002791542
796.5974450684	0.0003858181
798.5262524414	0.0006140430
800.4550598145	0.0004054990
802.3838671875	0.0005386471
804.3126745605	0.0003240488
806.2414819336	0.0003233898
808.1702893066	0.0003722437
810.0990966797	-0.0000337398
812.0279040527	0.0002617374
813.9567114258	0.0002699458
815.8855187988	0.0003260189
817.8143261719	0.0003137726
819.7431335449	0.0001008403
821.6719409180	0.0006266582
823.6007482910	0.0004760631
825.5295556641	0.0003405570
827.4583630371	0.0004835045
829.3871704102	0.0003330917
831.3159777832	0.0005798077
833.2447851563	0.0006913083
835.1735925293	0.0006720038
837.1023999023	0.0007775586
839.0312072754	0.0006786496
840.9600146484	0.0005518378
842.8888220215	0.0007463330
844.8176293945	0.0006250473
846.7464367676	0.0004303337
848.6752441406	0.0005043517
850.6040515137	0.0005254208
852.5328588867	0.0006517229
854.4616662598	0.0004079450
856.3904736328	0.0002593578
858.3192810059	0.0006917552
860.2480883789	0.0007865703
862.1768957520	0.0003041287
864.1057031250	0.0004239555
866.0345104980	0.0006404441
867.9633178711	0.0002222775
869.8921252441	0.0002727013
871.8209326172	0.0001729605
873.7497399902	0.0002055060
875.6785473633	0.0003777998
877.6073547363	0.0001650635
879.5361621094	0.0003608407
881.4649694824	0.0001967917
883.3937768555	0.0001221514
885.3225842285	0.0003446534
887.2513916016	0.0003454255
889.1801989746	0.0003327362
891.1090063477	0.0002179240
893.0378137207	0.0004242597
894.9666210938	0.0004759930
896.8954284668	0.0005015058
898.8242358398	0.0003458427
900.7530432129	0.0002633933
902.6818505859	0.0004644965
904.6106579590	0.0002120035
906.5394653320	0.0004575543
908.4682727051	0.0005076362
910.3970800781	0.0002895967
912.3258874512	0.0003651883
914.2546948242	0.0003556043
916.1835021973	0.0007133556
918.1123095703	0.0006804446
920.0411169434	0.0005530393
921.9699243164	0.0007247429
923.8987316895	0.0005708842
925.8275390625	0.0005245762
927.7563464355	0.0008066242
929.6851538086	0.0007804842
931.6139611816	0.0006731494
933.5427685547	0.0008048406
935.4715759277	0.0006502762
937.4003833008	0.0007393402
939.3291906738	0.0010182530
941.2579980469	0.0010715401
943.1868054199	0.0010397570
945.1156127930	0.0009004815
947.0444201660	0.0008264617
948.9732275391	0.0008459367
950.9020349121	0.0011131382
952.8308422852	0.0010057413
954.7596496582	0.0007829530
956.6884570313	0.0011234661
958.6172644043	0.0011085486
960.5460717773	0.0009983217
962.4748791504	0.0010603114
964.4036865234	0.0009040529
966.3324938965	0.0009771596
968.2613012695	0.0010458315
970.1901086426	0.0011498281
972.1189160156	0.0013808836
974.0477233887	0.0012965713
975.9765307617	0.0012405920
977.9053381348	0.0011995838
979.8341455078	0.0014586556
981.7629528809	0.0017158233
983.6917602539	0.0015474862
985.6205676270	0.0017983362
987.5493750000	0.0020791644
989.4781823730	0.0022662131
991.4069897461	0.0023732681
993.3357971191	0.0024486550
995.2646044922	0.0027534836
997.1934118652	0.0029680105
999.1222192383	0.0032258928
1001.0510266113	0.0033478122
1002.9798339844	0.0036394475
1004.9086413574	0.0037949712
1006.8374487305	0.0038747047
1008.7662561035	0.0043202401
1010.6950634766	0.0045747086
1012.6238708496	0.0048644980
1014.5526782227	0.0050249770
1016.4814855957	0.0053125797
1018.4102929688	0.0055332696
1020.3391003418	0.0055394331
1022.2679077148	0.0059645963
1024.1967150879	0.0062932977
1026.1255224609	0.0063762520
1028.0543298340	0.0064778058
1029.9831372070	0.0067465138
1031.9119445801	0.0067490442
1033.8407519531	0.0067618489
1035.7695593262	0.0069837240
1037.6983666992	0.0070540756
1039.6271740723	0.0071725408
1041.5559814453	0.0070494125
1043.4847888184	0.0070520816
1045.4135961914	0.0068360590
1047.3424035645	0.0067190216
1049.2712109375	0.0070121782
1051.2000183105	0.0066692010
1053.1288256836	0.0065244259
1055.0576330566	0.0064074146
1056.9864404297	0.0061208466
1058.9152478027	0.0062137321
1060.8440551758	0.0060232393
1062.7728625488	0.0058094407
1064.7016699219	0.0057169870
1066.6304772949	0.0054210909
1068.5592846680	0.0051339269
1070.4880920410	0.0049505294
1072.4168994141	0.0046901633
1074.3457067871	0.0043521905
1076.2745141602	0.0042158007
1078.2033215332	0.0041706222
1080.1321289062	0.0039717341
1082.0609362793	0.0037920445
1083.9897436523	0.0037234928
1085.9185510254	0.0035413755
1087.8473583984	0.0031631330
1089.7761657715	0.0030568908
1091.7049731445	0.0032492841
1093.6337805176	0.0031043650
1095.5625878906	0.0029241394
1097.4913952637	0.0029571978
1099.4202026367	0.0027395603
1101.3490100098	0.0025393325
1103.2778173828	0.0026189396
1105.2066247559	0.0025933422
1107.1354321289	0.0024990251
1109.0642395019	0.0023130686
1110.9930468750	0.0022483156
1112.9218542480	0.0024657678
1114.8506616211	0.0023272596
1116.7794689941	0.0024270914
1118.7082763672	0.0024214145
1120.6370837402	0.0021651688
1122.5658911133	0.0024840320
1124.4946984863	0.0024080877
1126.4235058594	0.0026159650
1128.3523132324	0.0026648198
1130.2811206055	0.0023152628
1132.2099279785	0.0027559996
1134.1387353516	0.0027756379
1136.0675427246	0.0028308325
1137.9963500977	0.0029336493
1139.9251574707	0.0029975614
1141.8539648437	0.0034512042
1143.7827722168	0.0035554380
1145.7115795898	0.0037042664
1147.6403869629	0.0037570135
1149.5691943359	0.0040311338
1151.4980017090	0.0043146070
1153.4268090820	0.0043810392
1155.3556164551	0.0047742529
1157.2844238281	0.0048202882
1159.2132312012	0.0048134616
1161.1420385742	0.0051243706
1163.0708459473	0.0051341541
1164.9996533203	0.0050259791
1166.9284606934	0.0054991860
1168.8572680664	0.0057957768
1170.7860754394	0.0060132425
1172.7148828125	0.0064491117
1174.6436901855	0.0064554177
1176.5724975586	0.0067585325
1178.5013049316	0.0068890420
1180.4301123047	0.0070244409
1182.3589196777	0.0074776057
1184.2877270508	0.0077533987
1186.2165344238	0.0081924554
1188.1453417969	0.0082993517
1190.0741491699	0.0086997636
1192.0029565430	0.0091728149
1193.9317639160	0.0093703829
1195.8605712891	0.0099222660
1197.7893786621	0.0102350656
1199.7181860351	0.0107625294
1201.6469934082	0.0113196950
1203.5758007812	0.0115611600
1205.5046081543	0.0121388435
1207.4334155273	0.0125729144
1209.3622229004	0.0128783211
1211.2910302734	0.0134642469
1213.2198376465	0.0139342342
1215.1486450195	0.0140902940
1217.0774523926	0.0142521365
1219.0062597656	0.0146787809
1220.9350671387	0.0148098217
1222.8638745117	0.0147686917
1224.7926818848	0.0151282670
1226.7214892578	0.0151730590
1228.6502966308	0.0151204150
1230.5791040039	0.0151966894
1232.5079113769	0.0151577154
1234.4367187500	0.0152113689
1236.3655261230	0.0150476322
1238.2943334961	0.0152239604
1240.2231408691	0.0154196192
1242.1519482422	0.0151598556
1244.0807556152	0.0151436646
1246.0095629883	0.0150408298
1247.9383703613	0.0148683451
1249.8671777344	0.0148029272
1251.7959851074	0.0147384331
1253.7247924805	0.0147213154
1255.6535998535	0.0146068018
1257.5824072266	0.0143033098
1259.5112145996	0.0139591694
1261.4400219726	0.0139017003
1263.3688293457	0.0135964155
1265.2976367187	0.0133305043
1267.2264440918	0.0134268105
1269.1552514648	0.0129762311
1271.0840588379	0.0128691876
1273.0128662109	0.0128912833
1274.9416735840	0.0124006178
1276.8704809570	0.0124756498
1278.7992883301	0.0122641940
1280.7280957031	0.0118931578
1282.6569030762	0.0116601381
1284.5857104492	0.0112386644
1286.5145178223	0.0113840559
1288.4433251953	0.0111268032
1290.3721325683	0.0107121095
1292.3009399414	0.0106891068
1294.2297473144	0.0106061669
1296.1585546875	0.0105901212
1298.0873620605	0.0105727175
1300.0161694336	0.0107486611
1301.9449768066	0.0105937365
1303.8737841797	0.0107236840
1305.8025915527	0.0109559586
1307.7313989258	0.0108253378
1309.6602062988	0.0112989023
1311.5890136719	0.0113357296
1313.5178210449	0.0114255063
1315.4466284180	0.0118831247
1317.3754357910	0.0119371302
1319.3042431640	0.0123580908
1321.2330505371	0.0128100589
1323.1618579101	0.0131897237
1325.0906652832	0.0135739129
1327.0194726562	0.0138791818
1328.9482800293	0.0143331978
1330.8770874023	0.0146022551
1332.8058947754	0.0147837298
1334.7347021484	0.0150563400
1336.6635095215	0.0151097532
1338.5923168945	0.0149833001
1340.5211242676	0.0153152719
1342.4499316406	0.0158086643
1344.3787390137	0.0158312283
1346.3075463867	0.0160371028
1348.2363537597	0.0161041394
1350.1651611328	0.0157686435
1352.0939685058	0.0158782136
1354.0227758789	0.0156247262
1355.9515832519	0.0152341593
1357.8803906250	0.0154239386
1359.8091979980	0.0152296359
1361.7380053711	0.0147058051
1363.6668127441	0.0146554559
1365.5956201172	0.0150242969
1367.5244274902	0.0146763613
1369.4532348633	0.0145983882
1371.3820422363	0.0148072820
1373.3108496094	0.0140096238
1375.2396569824	0.0141109163
1377.1684643555	0.0144601362
1379.0972717285	0.0142481010
1381.0260791015	0.0143525209
1382.9548864746	0.0143416394
1384.8836938476	0.0142066851
1386.8125012207	0.0137331653
1388.7413085937	0.0139527861
1390.6701159668	0.0149068832
1392.5989233398	0.0146403601
1394.5277307129	0.0140056927
1396.4565380859	0.0145977456
1398.3853454590	0.0144329630
1400.3141528320	0.0144282551
1402.2429602051	0.0153889097
1404.1717675781	0.0146535393
1406.1005749512	0.0147573519
1408.0293823242	0.0151023455
1409.9581896972	0.0146783339
1411.8869970703	0.0147833088
1413.8158044433	0.0143544655
1415.7446118164	0.0147197396
1417.6734191894	0.0133664133
1419.6022265625	0.0123385191
1421.5310339355	0.0137709528
1423.4598413086	0.0132769551
1425.3886486816	0.0128468443
1427.3174560547	0.0130108744
1429.2462634277	0.0123132709
1431.1750708008	0.0117989089
1433.1038781738	0.0120253097
1435.0326855469	0.0111363437
1436.9614929199	0.0098121334
1438.8903002929	0.0107442643
1440.8191076660	0.0105698556
1442.7479150390	0.0101740062
1444.6767224121	0.0105056595
1446.6055297851	0.0097451219
1448.5343371582	0.0099370508
1450.4631445312	0.0101459669
1452.3919519043	0.0105219735
1454.3207592773	0.0107050128
1456.2495666504	0.0093278792
1458.1783740234	0.0099121779
1460.1071813965	0.0122144669
1462.0359887695	0.0129097616
1463.9647961426	0.0130699500
1465.8936035156	0.0134347463
1467.8224108886	0.0147816762
1469.7512182617	0.0160911269
1471.6800256347	0.0148570593
1473.6088330078	0.0153295016
1475.5376403808	0.0173653811
1477.4664477539	0.0184859522
1479.3952551269	0.0198811069
1481.3240625000	0.0203627236
1483.2528698730	0.0214789081
1485.1816772461	0.0221008211
1487.1104846191	0.0218891017
1489.0392919922	0.0220002308
1490.9680993652	0.0221998468
1492.8969067383	0.0249380246
1494.8257141113	0.0246949680
1496.7545214843	0.0228390638
1498.6833288574	0.0251654796
1500.6121362304	0.0258840956
1502.5409436035	0.0273095556
1504.4697509765	0.0259938557
1506.3985583496	0.0205238443
1508.3273657226	0.0241698734
1510.2561730957	0.0271365028
1512.1849804687	0.0262920111
1514.1137878418	0.0282691028
1516.0425952148	0.0261069834
1517.9714025879	0.0268849768
1519.9002099609	0.0260223038
1521.8290173340	0.0234015062
1523.7578247070	0.0273206495
1525.6866320801	0.0268773548
1527.6154394531	0.0270112753
1529.5442468261	0.0292055514
1531.4730541992	0.0282268561
1533.4018615722	0.0262941830
1535.3306689453	0.0273472741
1537.2594763183	0.0287139229
1539.1882836914	0.0222079754
1541.1170910644	0.0230113175
1543.0458984375	0.0263971426
1544.9747058105	0.0258125179
1546.9035131836	0.0292947199
1548.8323205566	0.0275122654
1550.7611279297	0.0283981115
1552.6899353027	0.0281270873
1554.6187426758	0.0261251442
1556.5475500488	0.0274454616
1558.4763574218	0.0208833627
1560.4051647949	0.0223680045
1562.3339721679	0.0292055495
1564.2627795410	0.0278933607
1566.1915869140	0.0285055935
1568.1203942871	0.0282075554
1570.0492016601	0.0257466082
1571.9780090332	0.0286205299
1573.9068164062	0.0288618505
1575.8356237793	0.0241024382
1577.7644311523	0.0265672356
1579.6932385254	0.0289305020
1581.6220458984	0.0276616346
1583.5508532715	0.0285373740
1585.4796606445	0.0279575959
1587.4084680175	0.0281824153
1589.3372753906	0.0281866193
1591.2660827636	0.0279769413
1593.1948901367	0.0280793495
1595.1236975097	0.0277491659
1597.0525048828	0.0279841274
1598.9813122558	0.0278758034
1600.9101196289	0.0280804373
1602.8389270019	0.0276171453
1604.7677343750	0.0278208237
1606.6965417480	0.0276168901
1608.6253491211	0.0275918618
1610.5541564941	0.0273838714
1612.4829638672	0.0276701543
1614.4117712402	0.0280572921
1616.3405786132	0.0238740928
1618.2693859863	0.0256660022
1620.1981933593	0.0289888643
1622.1270007324	0.0264651887
1624.0558081054	0.0266207717
1625.9846154785	0.0276282728
1627.9134228515	0.0278591327
1629.8422302246	0.0278892089
1631.7710375976	0.0295385942
1633.6998449707	0.0277630426
1635.6286523437	0.0241777860
1637.5574597168	0.0273389891
1639.4862670898	0.0295091718
1641.4150744629	0.0292534679
1643.3438818359	0.0298793539
1645.2726892090	0.0277157687
1647.2014965820	0.0255086049
1649.1303039550	0.0303836893
1651.0591113281	0.0289332345
1652.9879187011	0.0207999498
1654.9167260742	0.0266372338
1656.8455334472	0.0319367275
1658.7743408203	0.0309036449
1660.7031481933	0.0318260565
1662.6319555664	0.0297660530
1664.5607629394	0.0310625136
1666.4895703125	0.0329358578
1668.4183776855	0.0297928229
1670.3471850586	0.0293931961
1672.2759924316	0.0325525105
1674.2047998047	0.0302862637
1676.1336071777	0.0295680072
1678.0624145507	0.0332367569
1679.9912219238	0.0321868509
1681.9200292968	0.0319904685
1683.8488366699	0.0269796774
1685.7776440429	0.0268671215
1687.7064514160	0.0346132852
1689.6352587890	0.0308810622
1691.5640661621	0.0332295969
1693.4928735351	0.0335394293
1695.4216809082	0.0261885468
1697.3504882812	0.0308605563
1699.2792956543	0.0279159974
1701.2081030273	0.0258569811
1703.1369104004	0.0329478830
1705.0657177734	0.0306381993
1706.9945251464	0.0306741558
1708.9233325195	0.0325322449
1710.8521398925	0.0313678309
1712.7809472656	0.0319736563
1714.7097546386	0.0300812088
1716.6385620117	0.0275563858
1718.5673693847	0.0271171220
1720.4961767578	0.0308243223
1722.4249841308	0.0315727554
1724.3537915039	0.0298360363
1726.2825988769	0.0317413136
1728.2114062500	0.0295915511
1730.1402136230	0.0300821122
1732.0690209961	0.0290136039
1733.9978283691	0.0234890413
1735.9266357421	0.0280234665
1737.8554431152	0.0299932864
1739.7842504882	0.0273590535
1741.7130578613	0.0293383542
1743.6418652343	0.0298211984
1745.5706726074	0.0296344683
1747.4994799804	0.0297343098
1749.4282873535	0.0288121421
1751.3570947265	0.0277813300
1753.2859020996	0.0302593224
1755.2147094726	0.0311093889
1757.1435168457	0.0289529171
1759.0723242187	0.0311621949
1761.0011315918	0.0296205133
1762.9299389648	0.0290216580
1764.8587463379	0.0319337174
1766.7875537109	0.0293275081
1768.7163610839	0.0295648500
1770.6451684570	0.0293124430
1772.5739758300	0.0269393288
1774.5027832031	0.0293991305
1776.4315905761	0.0306917820
1778.3603979492	0.0301760491
1780.2892053222	0.0300159696
1782.2180126953	0.0300820693
1784.1468200683	0.0299832150
1786.0756274414	0.0294322371
1788.0044348144	0.0304848384
1789.9332421875	0.0300547928
1791.8620495605	0.0276691206
1793.7908569336	0.0285740979
1795.7196643066	0.0302533656
1797.6484716796	0.0299708471
1799.5772790527	0.0295693036
1801.5060864257	0.0289524943
1803.4348937988	0.0297508202
1805.3637011718	0.0301527306
1807.2925085449	0.0297898091
1809.2213159179	0.0299092345
1811.1501232910	0.0292737857
1813.0789306640	0.0300334785
1815.0077380371	0.0299796257
1816.9365454101	0.0297283307
1818.8653527832	0.0299207084
1820.7941601562	0.0297314413
1822.7229675293	0.0299975537
1824.6517749023	0.0285274051
1826.5805822753	0.0294630434
1828.5093896484	0.0292897783
1830.4381970214	0.0279658809
1832.3670043945	0.0299362838
1834.2958117675	0.0295627527
1836.2246191406	0.0295623932
1838.1534265136	0.0294639394
1840.0822338867	0.0294451788
1842.0110412597	0.0294820815
1843.9398486328	0.0269960649
1845.8686560058	0.0282909013
1847.7974633789	0.0294696763
1849.7262707519	0.0289645772
1851.6550781250	0.0295830481
1853.5838854980	0.0289013684
1855.5126928710	0.0290260371
1857.4415002441	0.0291516911
1859.3703076171	0.0288832877
1861.2991149902	0.0290030260
1863.2279223632	0.0287964568
1865.1567297363	0.0289832056
1867.0855371093	0.0282385014
1869.0143444824	0.0272007436
1870.9431518554	0.0281680562
1872.8719592285	0.0288609192
1874.8007666015	0.0283952784
1876.7295739746	0.0284988657
1878.6583813476	0.0282674730
1880.5871887207	0.0282015875
1882.5159960937	0.0282453150
1884.4448034667	0.0279970765
1886.3736108398	0.0282562822
1888.3024182128	0.0276565533
1890.2312255859	0.0273434930
1892.1600329589	0.0280444175
1894.0888403320	0.0279184282
1896.0176477050	0.0277023111
1897.9464550781	0.0278075002
1899.8752624511	0.0277324095
1901.8040698242	0.0276876874
1903.7328771972	0.0275752936
1905.6616845703	0.0276446715
1907.5904919433	0.0273921639
1909.5192993164	0.0272133760
1911.4481066894	0.0275387913
1913.3769140625	0.0275069699
1915.3057214355	0.0274731833
1917.2345288085	0.0265964828
1919.1633361816	0.0265570842
1921.0921435546	0.0273031481
1923.0209509277	0.0265610851
1924.9497583007	0.0269577242
1926.8785656738	0.0272113923
1928.8073730468	0.0269614719
1930.7361804199	0.0271783713
1932.6649877929	0.0268003643
1934.5937951660	0.0270812102
1936.5226025390	0.0269956458
1938.4514099121	0.0270320810
1940.3802172851	0.0268706679
1942.3090246582	0.0261414442
1944.2378320312	0.0264906306
1946.1666394042	0.0267065205
1948.0954467773	0.0267838910
1950.0242541503	0.0268129334
1951.9530615234	0.0267525725
1953.8818688964	0.0266586989
1955.8106762695	0.0265627690
1957.7394836425	0.0265968665
1959.6682910156	0.0262826215
1961.5970983886	0.0263634063
1963.5259057617	0.0264620446
1965.4547131347	0.0263003893
1967.3835205078	0.0262172911
1969.3123278808	0.0262844451
1971.2411352539	0.0263804346
1973.1699426269	0.0262707546
1975.0987499999	0.0262562670
1977.0275573730	0.0261491202
1978.9563647460	0.0262472257
1980.8851721191	0.0261659473
1982.8139794921	0.0259886906
1984.7427868652	0.0260819122
1986.6715942382	0.0259577185
1988.6004016113	0.0260242261
1990.5292089843	0.0257237926
1992.4580163574	0.0254422985
1994.3868237304	0.0258418545
1996.3156311035	0.0257991292
1998.2444384765	0.0255406834
2000.1732458496	0.0255810209
2002.1020532226	0.0255292542
2004.0308605956	0.0254739672
2005.9596679687	0.0253899619
2007.8884753417	0.0253479220
2009.8172827148	0.0253620148
2011.7460900878	0.0250899605
2013.6748974609	0.0251523554
2015.6037048339	0.0251849480
2017.5325122070	0.0248865224
2019.4613195800	0.0249460656
2021.3901269531	0.0248741806
2023.3189343261	0.0248343982
2025.2477416992	0.0248563681
2027.1765490722	0.0247710086
2029.1053564453	0.0246842951
2031.0341638183	0.0245615654
2032.9629711914	0.0246769544
2034.8917785644	0.0245238617
2036.8205859374	0.0244336259
2038.7493933105	0.0245258566
2040.6782006835	0.0242900439
2042.6070080566	0.0242592841
2044.5358154296	0.0242916532
2046.4646228027	0.0241023507
2048.3934301757	0.0240661427
2050.3222375488	0.0241161548
2052.2510449218	0.0239518993
2054.1798522949	0.0239327103
2056.1086596679	0.0239632241
2058.0374670410	0.0238625035
2059.9662744140	0.0238591731
2061.8950817871	0.0236605667
2063.8238891601	0.0236459523
2065.7526965331	0.0237035751
2067.6815039062	0.0235520881
2069.6103112792	0.0235800240
2071.5391186523	0.0235511139
2073.4679260253	0.0234762244
2075.3967333984	0.0233515855
2077.3255407714	0.0233149659
2079.2543481445	0.0232981257
2081.1831555175	0.0231978111
2083.1119628906	0.0232146122
2085.0407702636	0.0230006240
2086.9695776367	0.0230460502
2088.8983850097	0.0231723692
2090.8271923828	0.0229211915
2092.7559997558	0.0229696557
2094.6848071288	0.0230288114
2096.6136145019	0.0228648018
2098.5424218749	0.0227516256
2100.4712292480	0.0227901489
2102.4000366210	0.0228484571
2104.3288439941	0.0227345638
2106.2576513671	0.0226402469
2108.1864587402	0.0225542169
2110.1152661132	0.0225278009
2112.0440734863	0.0226079077
2113.9728808593	0.0226198882
2115.9016882324	0.0225111041
2117.8304956054	0.0224670358
2119.7593029785	0.0225302652
2121.6881103515	0.0223995559
2123.6169177245	0.0222227089
2125.5457250976	0.0222974531
2127.4745324706	0.0223019663
2129.4033398437	0.0221632868
2131.3321472167	0.0221576076
2133.2609545898	0.0220929421
2135.1897619628	0.0221959352
2137.1185693359	0.0222305395
2139.0473767089	0.0219432507
2140.9761840820	0.0220386721
2142.9049914550	0.0220206864
2144.8337988281	0.0218497291
2146.7626062011	0.0219956450
2148.6914135742	0.0220623277
2150.6202209472	0.0219470933
2152.5490283203	0.0218862314
2154.4778356933	0.0218618438
2156.4066430663	0.0216003060
2158.3354504394	0.0216597281
2160.2642578124	0.0216739085
2162.1930651855	0.0215327609
2164.1218725585	0.0217040777
2166.0506799316	0.0214277841
2167.9794873046	0.0213796459
2169.9082946777	0.0215749405
2171.8371020507	0.0214795824
2173.7659094238	0.0215140060
2175.6947167968	0.0214524791
2177.6235241699	0.0213850811
2179.5523315429	0.0213981867
2181.4811389160	0.0214393418
2183.4099462890	0.0213427506
2185.3387536620	0.0212695338
2187.2675610351	0.0213488899
2189.1963684081	0.0212900005
2191.1251757812	0.0211986024
2193.0539831542	0.0211546570
2194.9827905273	0.0211837143
2196.9115979003	0.0211096406
2198.8404052734	0.0210894905
2200.7692126464	0.0211685095
2202.6980200195	0.0210330747
2204.6268273925	0.0209044050
2206.5556347656	0.0209835079
2208.4844421386	0.0209890436
2210.4132495117	0.0209674127
2212.3420568847	0.0209723245
2214.2708642577	0.0206759311
2216.1996716308	0.0208105817
2218.1284790038	0.0209694915
2220.0572863769	0.0207284577
2221.9860937499	0.0207990557
2223.9149011230	0.0205634963
2225.8437084960	0.0204984620
2227.7725158691	0.0206315443
2229.7013232421	0.0204530917
2231.6301306152	0.0205378644
2233.5589379882	0.0205753744
2235.4877453613	0.0204698648
2237.4165527343	0.0204740763
2239.3453601074	0.0204248466
2241.2741674804	0.0202846676
2243.2029748534	0.0203885548
2245.1317822265	0.0202361364
2247.0605895995	0.0200313758
2248.9893969726	0.0203028694
2250.9182043456	0.0201481134
2252.8470117187	0.0200784914
2254.7758190917	0.0202042479
2256.7046264648	0.0200959910
2258.6334338378	0.0201025531
2260.5622412109	0.0200393274
2262.4910485839	0.0200357996
2264.4198559570	0.0199476145
2266.3486633300	0.0198203716
2268.2774707031	0.0198819637
2270.2062780761	0.0198752675
2272.1350854491	0.0197598077
2274.0638928222	0.0197150670
2275.9927001952	0.0197451115
2277.9215075683	0.0197441746
2279.8503149413	0.0197445285
2281.7791223144	0.0196597688
2283.7079296874	0.0196529347
2285.6367370605	0.0196123011
2287.5655444335	0.0195340011
2289.4943518066	0.0195330195
2291.4231591796	0.0193250179
2293.3519665527	0.0193487350
2295.2807739257	0.0194909461
2297.2095812988	0.0193618815
2299.1383886718	0.0192840733
2301.0671960449	0.0191298425
2302.9960034179	0.0190174319
2304.9248107909	0.0190358460
2306.8536181640	0.0188710019
2308.7824255370	0.0187799074
2310.7112329101	0.0186080374
2312.6400402831	0.0183380675
2314.5688476562	0.0183079895
2316.4976550292	0.0180797931
2318.4264624023	0.0178803001
2320.3552697753	0.0177989192
2322.2840771484	0.0175190810
2324.2128845214	0.0172772240
2326.1416918945	0.0171436369
2328.0704992675	0.0170728825
2329.9993066406	0.0167559292
2331.9281140136	0.0166276004
2333.8569213866	0.0168227013
2335.7857287597	0.0166416615
2337.7145361327	0.0165228844
2339.6433435058	0.0166257806
2341.5721508788	0.0165825114
2343.5009582519	0.0167103820
2345.4297656249	0.0170638599
2347.3585729980	0.0175549239
2349.2873803710	0.0179619007
2351.2161877441	0.0175038427
2353.1449951171	0.0167896282
2355.0738024902	0.0163764358
2357.0026098632	0.0158633441
2358.9314172363	0.0156645812
2360.8602246093	0.0155117521
2362.7890319823	0.0154178636
2364.7178393554	0.0155577678
2366.6466467284	0.0157081261
2368.5754541015	0.0159249064
2370.5042614745	0.0161218084
2372.4330688476	0.0166781396
2374.3618762206	0.0169561021
2376.2906835937	0.0170106366
2378.2194909667	0.0175275579
2380.1482983398	0.0177388489
2382.0771057128	0.0177075416
2384.0059130859	0.0178770646
2385.9347204589	0.0180425905
2387.8635278320	0.0179739147
2389.7923352050	0.0178964324
2391.7211425780	0.0178915169
2393.6499499511	0.0179808848
2395.5787573241	0.0179958623
2397.5075646972	0.0177504327
2399.4363720702	0.0178370848
2401.3651794433	0.0178485736
2403.2939868163	0.0177211463
2405.2227941894	0.0177588128
2407.1516015624	0.0176634640
2409.0804089355	0.0176051278
2411.0092163085	0.0176148526
2412.9380236816	0.0177402422
2414.8668310546	0.0175761003
2416.7956384277	0.0174472332
2418.7244458007	0.0175826177
2420.6532531738	0.0175047778
2422.5820605468	0.0175811667
2424.5108679198	0.0173946209
2426.4396752929	0.0172822401
2428.3684826659	0.0174551159
2430.2972900390	0.0171966869
2432.2260974120	0.0172456242
2434.1549047851	0.0173618682
2436.0837121581	0.0170962214
2438.0125195312	0.0170924999
2439.9413269042	0.0171622019
2441.8701342773	0.0171124488
2443.7989416503	0.0171368867
2445.7277490234	0.0171284713
2447.6565563964	0.0170008056
2449.5853637695	0.0170549490
2451.5141711425	0.0170990247
2453.4429785155	0.0169029087
2455.3717858886	0.0170131810
2457.3005932616	0.0170532949
2459.2294006347	0.0168521628
2461.1582080077	0.0169001296
2463.0870153808	0.0168455001
2465.0158227538	0.0167349391
2466.9446301269	0.0166648813
2468.8734374999	0.0166547447
2470.8022448730	0.0167725272
2472.7310522460	0.0167055037
2474.6598596191	0.0165829919
2476.5886669921	0.0166161172
2478.5174743652	0.0166896172
2480.4462817382	0.0165147930
2482.3750891112	0.0164679848
2484.3038964843	0.0165791623
2486.2327038573	0.0164486356
2488.1615112304	0.0165500343
2490.0903186034	0.0164732523
2492.0191259765	0.0162585378
2493.9479333495	0.0164707303
2495.8767407226	0.0164599642
2497.8055480956	0.0162430145
2499.7343554687	0.0162157379
2501.6631628417	0.0163437445
2503.5919702148	0.0163228493
2505.5207775878	0.0162089169
2507.4495849609	0.0163120590
2509.3783923339	0.0162200071
2511.3071997069	0.0160932206
2513.2360070800	0.0161742978
2515.1648144530	0.0161547996
2517.0936218261	0.0161127597
2519.0224291991	0.0160379112
2520.9512365722	0.0159596764
2522.8800439452	0.0159395486
2524.8088513183	0.0158875287
2526.7376586913	0.0158650801
2528.6664660644	0.0159269981
2530.5952734374	0.0158456527
2532.5240808105	0.0156984851
2534.4528881835	0.0158819966
2536.3816955566	0.0158520825
2538.3105029296	0.0156927425
2540.2393103027	0.0158481300
2542.1681176757	0.0157062821
2544.0969250487	0.0156323910
2546.0257324218	0.0157620385
2547.9545397948	0.0156630054
2549.8833471679	0.0156359896
2551.8121545409	0.0156222377
2553.7409619140	0.0155188320
2555.6697692870	0.0154577577
2557.5985766601	0.0154844951
2559.5273840331	0.0154470867
2561.4561914062	0.0153326998
2563.3849987792	0.0153214829
2565.3138061523	0.0153744202
2567.2426135253	0.0153610483
2569.1714208984	0.0153119601
2571.1002282714	0.0153829642
2573.0290356444	0.0153162666
2574.9578430175	0.0151906405
2576.8866503905	0.0152437184
2578.8154577636	0.0151537964
2580.7442651366	0.0150209032
2582.6730725097	0.0150680076
2584.6018798827	0.0150774326
2586.5306872558	0.0150322253
2588.4594946288	0.0150923161
2590.3883020019	0.0151483323
2592.3171093749	0.0150659196
2594.2459167480	0.0148334699
2596.1747241210	0.0148372287
2598.1035314941	0.0149782728
2600.0323388671	0.0148953367
2601.9611462401	0.0149009461
2603.8899536132	0.0148044582
2605.8187609862	0.0147471549
2607.7475683593	0.0147801181
2609.6763757323	0.0147059485
2611.6051831054	0.0147409681
2613.5339904784	0.0147264330
2615.4627978515	0.0147590637
2617.3916052245	0.0146765625
2619.3204125976	0.0146538811
2621.2492199706	0.0146417320
2623.1780273437	0.0144792339
2625.1068347167	0.0145654725
2627.0356420898	0.0144685851
2628.9644494628	0.0143983234
2630.8932568358	0.0144472234
2632.8220642089	0.0143724661
2634.7508715819	0.0143328458
2636.6796789550	0.0144232372
2638.6084863280	0.0144608142
2640.5372937011	0.0141974594
2642.4661010741	0.0142849535
2644.3949084472	0.0143010542
2646.3237158202	0.0141924266
2648.2525231933	0.0143578351
2650.1813305663	0.0142347971
2652.1101379394	0.0141593097
2654.0389453124	0.0141798994
2655.9677526855	0.0142420921
2657.8965600585	0.0142319240
2659.8253674315	0.0140988035
2661.7541748046	0.0140277743
2663.6829821776	0.0139492843
2665.6117895507	0.0139687024
2667.5405969237	0.0139123462
2669.4694042968	0.0139432773
2671.3982116698	0.0138749024
2673.3270190429	0.0137751903
2675.2558264159	0.0138470950
2677.1846337890	0.0138063915
2679.1134411620	0.0138209164
2681.0422485351	0.0137506109
2682.9710559081	0.0137129780
2684.8998632812	0.0136879385
2686.8286706542	0.0137218218
2688.7574780273	0.0136810336
2690.6862854003	0.0134952310
2692.6150927733	0.0136412159
2694.5439001464	0.0135527393
2696.4727075194	0.0135427304
2698.4015148925	0.0136407139
2700.3303222655	0.0134375608
2702.2591296386	0.0135299023
2704.1879370116	0.0135243619
2706.1167443847	0.0133960498
2708.0455517577	0.0134261120
2709.9743591308	0.0133913290
2711.9031665038	0.0132658836
2713.8319738769	0.0133083053
2715.7607812499	0.0134496689
2717.6895886230	0.0132201128
2719.6183959960	0.0130976504
2721.5472033690	0.0132353064
2723.4760107421	0.0132146198
2725.4048181151	0.0131063927
2727.3336254882	0.0131306080
2729.2624328612	0.0131493462
2731.1912402343	0.0129858740
2733.1200476073	0.0130336024
2735.0488549804	0.0130189946
2736.9776623534	0.0129428888
2738.9064697265	0.0130662732
2740.8352770995	0.0129403062
2742.7640844726	0.0128728915
2744.6928918456	0.0128987469
2746.6216992187	0.0128206611
2748.5505065917	0.0128353424
2750.4793139647	0.0128306989
2752.4081213378	0.0128323734
2754.3369287108	0.0128656793
2756.2657360839	0.0127996318
2758.1945434569	0.0126854889
2760.1233508300	0.0127526689
2762.0521582030	0.0127011845
2763.9809655761	0.0124986665
2765.9097729491	0.0125064636
2767.8385803222	0.0125349835
2769.7673876952	0.0125899427
2771.6961950683	0.0125522809
2773.6250024413	0.0124383699
2775.5538098144	0.0124018900
2777.4826171874	0.0124001857
2779.4114245604	0.0124401655
2781.3402319335	0.0123984385
2783.2690393065	0.0124284085
2785.1978466796	0.0123540983
2787.1266540526	0.0122878347
2789.0554614257	0.0122875683
2790.9842687987	0.0120920800
2792.9130761718	0.0121254865
2794.8418835448	0.0121853873
2796.7706909179	0.0121220481
2798.6994982909	0.0120916506
2800.6283056640	0.0119847320
2802.5571130370	0.0119679496
2804.4859204101	0.0120611470
2806.4147277831	0.0120083839
2808.3435351562	0.0119280517
2810.2723425292	0.0120113492
2812.2011499022	0.0118370038
2814.1299572753	0.0117667438
2816.0587646483	0.0118505340
2817.9875720214	0.0117399646
2819.9163793944	0.0117761819
2821.8451867675	0.0116065368
2823.7739941405	0.0115826307
2825.7028015136	0.0117553063
2827.6316088866	0.0115782833
2829.5604162597	0.0115480386
2831.4892236327	0.0115949828
2833.4180310058	0.0115300268
2835.3468383788	0.0115446495
2837.2756457519	0.0114883436
2839.2044531249	0.0113798073
2841.1332604979	0.0113874748
2843.0620678710	0.0113222394
2844.9908752440	0.0112345554
2846.9196826171	0.0111800004
2848.8484899901	0.0111067276
2850.7772973632	0.0110906754
2852.7061047362	0.0109943897
2854.6349121093	0.0110591175
2856.5637194823	0.0110995490
2858.4925268554	0.0110591473
2860.4213342284	0.0110799754
2862.3501416015	0.0109506752
2864.2789489745	0.0109545905
2866.2077563476	0.0109240040
2868.1365637206	0.0109170713
2870.0653710936	0.0109349797
2871.9941784667	0.0108356383
2873.9229858397	0.0108390814
2875.8517932128	0.0107041495
2877.7806005858	0.0106315035
2879.7094079589	0.0106830336
2881.6382153319	0.0106382957
2883.5670227050	0.0106365290
2885.4958300780	0.0107045667
2887.4246374511	0.0106848152
2889.3534448241	0.0106145591
2891.2822521972	0.0105803590
2893.2110595702	0.0105998768
2895.1398669433	0.0106072789
2897.0686743163	0.0103977099
2898.9974816893	0.0104283206
2900.9262890624	0.0104129612
2902.8550964354	0.0102155069
2904.7839038085	0.0103595145
2906.7127111815	0.0102822911
2908.6415185546	0.0101652276
2910.5703259276	0.0101487432
2912.4991333007	0.0100686522
2914.4279406737	0.0101188691
2916.3567480468	0.0101205762
2918.2855554198	0.0100451307
2920.2143627929	0.0098842392
2922.1431701659	0.0098157655
2924.0719775390	0.0098274816
2926.0007849120	0.0098496331
2927.9295922851	0.0098607102
2929.8583996581	0.0099045094
2931.7872070311	0.0099301459
2933.7160144042	0.0098216962
2935.6448217772	0.0098305931
2937.5736291503	0.0098125730
2939.5024365233	0.0098739639
2941.4312438964	0.0098477826
2943.3600512694	0.0097244522
2945.2888586425	0.0097890906
2947.2176660155	0.0096921306
2949.1464733886	0.0096944645
2951.0752807616	0.0096927658
2953.0040881347	0.0096610785
2954.9328955077	0.0097090313
2956.8617028808	0.0095618647
2958.7905102538	0.0095245056
2960.7193176268	0.0095018353
2962.6481249999	0.0094464105
2964.5769323729	0.0094703371
2966.5057397460	0.0094310548
2968.4345471190	0.0094638476
2970.3633544921	0.0094857067
2972.2921618651	0.0093576442
2974.2209692382	0.0093911085
2976.1497766112	0.0094359200
2978.0785839843	0.0093374532
2980.0073913573	0.0093749808
2981.9361987304	0.0093517881
2983.8650061034	0.0093896221
2985.7938134765	0.0094093541
2987.7226208495	0.0093380008
2989.6514282225	0.0094080474
2991.5802355956	0.0093247350
2993.5090429686	0.0092250379
2995.4378503417	0.0092029227
2997.3666577147	0.0092142038
2999.2954650878	0.0091429595
3001.2242724608	0.0091063455
3003.1530798339	0.0092346258
3005.0818872069	0.0091172066
3007.0106945800	0.0090745017
3008.9395019530	0.0090764593
3010.8683093261	0.0089737829
3012.7971166991	0.0090127066
3014.7259240722	0.0090082856
3016.6547314452	0.0090283584
3018.5835388182	0.0090191383
3020.5123461913	0.0089063533
3022.4411535643	0.0088628884
3024.3699609374	0.0088550374
3026.2987683104	0.0087810112
3028.2275756835	0.0087388866
3030.1563830565	0.0087491926
3032.0851904296	0.0087721236
3034.0139978026	0.0087704035
3035.9428051757	0.0086932480
3037.8716125487	0.0086776251
3039.8004199218	0.0086355433
3041.7292272948	0.0085833911
3043.6580346679	0.0085307322
3045.5868420409	0.0084971227
3047.5156494139	0.0085251620
3049.4444567870	0.0085160267
3051.3732641600	0.0086085889
3053.3020715331	0.0085565019
3055.2308789061	0.0083941091
3057.1596862792	0.0083391555
3059.0884936522	0.0083678104
3061.0173010253	0.0084057320
3062.9461083983	0.0083211977
3064.8749157714	0.0083288271
3066.8037231444	0.0082736742
3068.7325305175	0.0082755247
3070.6613378905	0.0083615743
3072.5901452636	0.0082858000
3074.5189526366	0.0082260827
3076.4477600097	0.0081330296
3078.3765673827	0.0081600547
3080.3053747557	0.0081860647
3082.2341821288	0.0081103519
3084.1629895018	0.0080644535
3086.0917968749	0.0080462061
3088.0206042479	0.0079915086
3089.9494116210	0.0078659626
3091.8782189940	0.0079671592
3093.8070263671	0.0080010127
3095.7358337401	0.0079290681
3097.6646411132	0.0078665502
3099.5934484862	0.0078352932
3101.5222558593	0.0079227667
3103.4510632323	0.0077940915
3105.3798706054	0.0078083938
3107.3086779784	0.0078206705
3109.2374853514	0.0076970793
3111.1662927245	0.0076353168
3113.0951000975	0.0075586680
3115.0239074706	0.0077501000
3116.9527148436	0.0077562062
3118.8815222167	0.0077096624
3120.8103295897	0.0077057318
3122.7391369628	0.0075500049
3124.6679443358	0.0076083476
3126.5967517089	0.0075025670
3128.5255590819	0.0075036734
3130.4543664550	0.0075816745
3132.3831738280	0.0074162674
3134.3119812011	0.0074848542
3136.2407885741	0.0074499547
3138.1695959471	0.0073464895
3140.0984033202	0.0074238740
3142.0272106932	0.0073671332
3143.9560180663	0.0073358081
3145.8848254393	0.0073111542
3147.8136328124	0.0072029377
3149.7424401854	0.0072261328
3151.6712475585	0.0072677080
3153.6000549315	0.0072440011
3155.5288623046	0.0072156470
3157.4576696776	0.0072321370
3159.3864770507	0.0072237831
3161.3152844237	0.0071066255
3163.2440917968	0.0071383100
3165.1728991698	0.0071838237
3167.1017065428	0.0071387999
3169.0305139159	0.0071582086
3170.9593212889	0.0071639111
3172.8881286620	0.0071800388
3174.8169360350	0.0070851846
3176.7457434081	0.0070664845
3178.6745507811	0.0071135657
3180.6033581542	0.0069949552
3182.5321655272	0.0069801426
3184.4609729003	0.0069765486
3186.3897802733	0.0070356531
3188.3185876464	0.0071301954
3190.2473950194	0.0070008412
3192.1762023925	0.0069263158
3194.1050097655	0.0069097253
3196.0338171386	0.0069160294
3197.9626245116	0.0069840355
3199.8914318846	0.0069445432
3201.8202392577	0.0069978368
3203.7490466307	0.0069787693
3205.6778540038	0.0068096579
3207.6066613768	0.0069270367
3209.5354687499	0.0069653131
3211.4642761229	0.0068938397
3213.3930834960	0.0069488557
3215.3218908690	0.0068952544
3217.2506982421	0.0068627456
3219.1795056151	0.0068243043
3221.1083129882	0.0069009247
3223.0371203612	0.0069561959
3224.9659277343	0.0068839411
3226.8947351073	0.0069288211
3228.8235424803	0.0068893405
3230.7523498534	0.0069748289
3232.6811572264	0.0069718235
3234.6099645995	0.0068539213
3236.5387719725	0.0069616456
3238.4675793456	0.0068991659
3240.3963867186	0.0069075339
3242.3251940917	0.0070681954
3244.2540014647	0.0070207873
3246.1828088378	0.0069447039
3248.1116162108	0.0069938656
3250.0404235839	0.0069737094
3251.9692309569	0.0069403369
3253.8980383300	0.0069601536
3255.8268457030	0.0068488494
3257.7556530760	0.0069229091
3259.6844604491	0.0070439456
3261.6132678221	0.0070495335
3263.5420751952	0.0070500686
3265.4708825682	0.0069600912
3267.3996899413	0.0070742415
3269.3284973143	0.0070581203
3271.2573046874	0.0069780094
3273.1861120604	0.0070809624
3275.1149194335	0.0069871070
3277.0437268065	0.0070298174
3278.9725341796	0.0070989057
3280.9013415526	0.0070569152
3282.8301489257	0.0071499180
3284.7589562987	0.0071286084
3286.6877636717	0.0070999097
3288.6165710448	0.0071627731
3290.5453784178	0.0071397536
3292.4741857909	0.0070526339
3294.4029931639	0.0070788949
3296.3318005370	0.0071492009
3298.2606079100	0.0070722550
3300.1894152831	0.0071153268
3302.1182226561	0.0072270227
3304.0470300292	0.0072183320
3305.9758374022	0.0071518398
3307.9046447753	0.0070445258
3309.8334521483	0.0071176887
3311.7622595214	0.0072096046
3313.6910668944	0.0071967961
3315.6198742675	0.0071401373
3317.5486816405	0.0071127098
3319.4774890135	0.0072284527
3321.4062963866	0.0071912329
3323.3351037596	0.0072347652
3325.2639111327	0.0072956476
3327.1927185057	0.0071589961
3329.1215258788	0.0071909162
3331.0503332518	0.0071689733
3332.9791406249	0.0072155939
3334.9079479979	0.0073409937
3336.8367553710	0.0072305538
3338.7655627440	0.0072696302
3340.6943701171	0.0074161058
3342.6231774901	0.0073153367
3344.5519848632	0.0072995592
3346.4807922362	0.0074395849
3348.4095996092	0.0073149549
3350.3384069823	0.0072481246
3352.2672143553	0.0073721628
3354.1960217284	0.0074036727
3356.1248291014	0.0074227583
3358.0536364745	0.0074149570
3359.9824438475	0.0074239983
3361.9112512206	0.0074146567
3363.8400585936	0.0074057877
3365.7688659667	0.0074398406
3367.6976733397	0.0074876705
3369.6264807128	0.0075422837
3371.5552880858	0.0075163478
3373.4840954589	0.0075064618
3375.4129028319	0.0075209904
3377.3417102049	0.0075663021
3379.2705175780	0.0075847213
3381.1993249510	0.0076048635
3383.1281323241	0.0076744766
3385.0569396971	0.0076163188
3386.9857470702	0.0076044155
3388.9145544432	0.0076742163
3390.8433618163	0.0076819360
3392.7721691893	0.0076854266
3394.7009765624	0.0077523375
3396.6297839354	0.0077810120
3398.5585913085	0.0077141160
3400.4873986815	0.0077588661
3402.4162060546	0.0078474768
3404.3450134276	0.0078653162
3406.2738208006	0.0078324210
3408.2026281737	0.0078012217
3410.1314355467	0.0078730583
3412.0602429198	0.0079065850
3413.9890502928	0.0078961533
3415.9178576659	0.0079440838
3417.8466650389	0.0079877060
3419.7754724120	0.0080542024
3421.7042797850	0.0080188531
3423.6330871581	0.0079453029
3425.5618945311	0.0080370549
3427.4907019042	0.0080347406
3429.4195092772	0.0080789113
3431.3483166503	0.0081935264
3433.2771240233	0.0081288517
3435.2059313963	0.0081241168
3437.1347387694	0.0081519717
3439.0635461424	0.0082065118
3440.9923535155	0.0082408953
3442.9211608885	0.0082253665
3444.8499682616	0.0082372241
3446.7787756346	0.0081677958
3448.7075830077	0.0082285125
3450.6363903807	0.0083333533
3452.5651977538	0.0083300155
3454.4940051268	0.0083589191
3456.4228124999	0.0083525078
3458.3516198729	0.0083235744
3460.2804272460	0.0083799008
3462.2092346190	0.0084195379
3464.1380419921	0.0084564947
3466.0668493651	0.0084811151
3467.9956567381	0.0083683226
3469.9244641112	0.0084343050
3471.8532714842	0.0084784906
3473.7820788573	0.0083865952
3475.7108862303	0.0085282698
3477.6396936034	0.0085707875
3479.5685009764	0.0085039530
3481.4973083495	0.0085944980
3483.4261157225	0.0086260904
3485.3549230956	0.0085303113
3487.2837304686	0.0086342711
3489.2125378417	0.0086632408
3491.1413452147	0.0085479440
3493.0701525878	0.0087042106
3494.9989599608	0.0087116342
3496.9277673338	0.0085981591
3498.8565747069	0.0086053796
3500.7853820799	0.0087113688
3502.7141894530	0.0086713452
3504.6429968260	0.0085763521
3506.5718041991	0.0088019138
3508.5006115721	0.0087243058
3510.4294189452	0.0086647999
3512.3582263182	0.0087858131
3514.2870336913	0.0087828962
3516.2158410643	0.0088097407
3518.1446484374	0.0086973738
3520.0734558104	0.0088393241
3522.0022631835	0.0088333832
3523.9310705565	0.0087178666
3525.8598779295	0.0088104540
3527.7886853026	0.0087039229
3529.7174926756	0.0087742917
3531.6463000487	0.0087821465
3533.5751074217	0.0088312235
3535.5039147948	0.0089591080
3537.4327221678	0.0087658409
3539.3615295409	0.0087911682
3541.2903369139	0.0088814627
3543.2191442870	0.0088438541
3545.1479516600	0.0087365536
3547.0767590331	0.0085942391
3549.0055664061	0.0087742666
3550.9343737792	0.0088491756
3552.8631811522	0.0087342039
3554.7919885252	0.0087767001
3556.7207958983	0.0088554164
3558.6496032713	0.0088880137
3560.5784106444	0.0087429490
3562.5072180174	0.0087674409
3564.4360253905	0.0087682176
3566.3648327635	0.0083274068
3568.2936401366	0.0082815364
3570.2224475096	0.0087238839
3572.1512548827	0.0089031821
3574.0800622557	0.0088004544
3576.0088696288	0.0087616276
3577.9376770018	0.0087420195
3579.8664843749	0.0087718274
3581.7952917479	0.0088269040
3583.7240991210	0.0087977052
3585.6529064940	0.0086210649
3587.5817138670	0.0081754522
3589.5105212401	0.0083838645
3591.4393286131	0.0088508669
3593.3681359862	0.0086467788
3595.2969433592	0.0085570831
3597.2257507323	0.0085554374
3599.1545581053	0.0085041625
3601.0833654784	0.0085782316
3603.0121728514	0.0086363852
3604.9409802245	0.0086639263
3606.8697875975	0.0084900614
3608.7985949706	0.0080580525
3610.7274023436	0.0081942026
3612.6562097167	0.0083973566
3614.5850170897	0.0081861820
3616.5138244627	0.0086309975
3618.4426318358	0.0081868526
3620.3714392088	0.0079531241
3622.3002465819	0.0086064003
3624.2290539549	0.0084259715
3626.1578613280	0.0086846948
3628.0866687010	0.0076516122
3630.0154760741	0.0071735354
3631.9442834471	0.0084227733
3633.8730908202	0.0082509425
3635.8018981932	0.0084604863
3637.7307055663	0.0085782744
3639.6595129393	0.0084003760
3641.5883203124	0.0085599814
3643.5171276854	0.0084178150
3645.4459350584	0.0083513102
3647.3747424315	0.0077975197
3649.3035498045	0.0073142080
3651.2323571776	0.0073395045
3653.1611645506	0.0082680658
3655.0899719237	0.0081432890
3657.0187792967	0.0075422265
3658.9475866698	0.0083436724
3660.8763940428	0.0082702050
3662.8052014159	0.0082970709
3664.7340087889	0.0081352573
3666.6628161620	0.0081640631
3668.5916235350	0.0079162726
3670.5204309081	0.0067216158
3672.4492382811	0.0078408560
3674.3780456541	0.0074621467
3676.3068530272	0.0064648455
3678.2356604002	0.0077470848
3680.1644677733	0.0077957129
3682.0932751463	0.0077335164
3684.0220825194	0.0078692781
3685.9508898924	0.0077255778
3687.8796972655	0.0071220328
3689.8085046385	0.0066974163
3691.7373120116	0.0073793223
3693.6661193846	0.0074864533
3695.5949267577	0.0075438498
3697.5237341307	0.0074359290
3699.4525415038	0.0075019845
3701.3813488768	0.0074012754
3703.3101562499	0.0070349593
3705.2389636229	0.0075582638
3707.1677709959	0.0071863169
3709.0965783690	0.0070304004
3711.0253857420	0.0067436639
3712.9541931151	0.0064350432
3714.8830004881	0.0072860997
3716.8118078612	0.0070899823
3718.7406152342	0.0071110893
3720.6694226073	0.0069688661
3722.5982299803	0.0067451932
3724.5270373534	0.0069729080
3726.4558447264	0.0065593272
3728.3846520995	0.0069823763
3730.3134594725	0.0069299974
3732.2422668456	0.0064846156
3734.1710742186	0.0062809703
3736.0998815916	0.0059646312
3738.0286889647	0.0062809363
3739.9574963377	0.0067527173
3741.8863037108	0.0069074463
3743.8151110838	0.0055632060
3745.7439184569	0.0053719822
3747.6727258299	0.0065202862
3749.6015332030	0.0057446393
3751.5303405760	0.0054789986
3753.4591479491	0.0060969349
3755.3879553221	0.0064567327
3757.3167626952	0.0066965111
3759.2455700682	0.0062713958
3761.1743774413	0.0064032488
3763.1031848143	0.0066403998
3765.0319921873	0.0062084254
3766.9607995604	0.0063511301
3768.8896069334	0.0063116667
3770.8184143065	0.0060859732
3772.7472216795	0.0064527681
3774.6760290526	0.0064730598
3776.6048364256	0.0064791674
3778.5336437987	0.0062405430
3780.4624511717	0.0061205560
3782.3912585448	0.0064051133
3784.3200659178	0.0061662998
3786.2488732909	0.0061795767
3788.1776806639	0.0063341502
3790.1064880370	0.0063479939
3792.0352954100	0.0062324787
3793.9641027830	0.0062895520
3795.8929101561	0.0060621928
3797.8217175291	0.0060223881
3799.7505249022	0.0061469888
3801.6793322752	0.0050853412
3803.6081396483	0.0058581214
3805.5369470213	0.0061702039
3807.4657543944	0.0053219218
3809.3945617674	0.0061234185
3811.3233691405	0.0059496304
3813.2521765135	0.0061976416
3815.1809838866	0.0056481892
3817.1097912596	0.0051428601
3819.0385986327	0.0061221528
3820.9674060057	0.0052238107
3822.8962133787	0.0053901942
3824.8250207518	0.0060163476
3826.7538281248	0.0057099131
3828.6826354979	0.0058989269
3830.6114428709	0.0057401462
3832.5402502440	0.0056094760
3834.4690576170	0.0056066201
3836.3978649901	0.0054297214
3838.3266723631	0.0049243094
3840.2554797362	0.0052872095
3842.1842871092	0.0056009977
3844.1130944823	0.0053669559
3846.0419018553	0.0057633659
3847.9707092284	0.0057128565
3849.8995166014	0.0057421625
3851.8283239745	0.0051705064
3853.7571313475	0.0041630524
3855.6859387205	0.0048201121
3857.6147460936	0.0057414914
3859.5435534666	0.0056094695
3861.4723608397	0.0055152457
3863.4011682127	0.0053601558
3865.3299755858	0.0050313696
3867.2587829588	0.0055052433
3869.1875903319	0.0051524807
3871.1163977049	0.0048204130
3873.0452050780	0.0053807520
3874.9740124510	0.0051227100
3876.9028198241	0.0055132294
3878.8316271971	0.0054965299
3880.7604345702	0.0049696583
3882.6892419432	0.0055041108
3884.6180493162	0.0051391022
3886.5468566893	0.0048714317
3888.4756640623	0.0054641776
3890.4044714354	0.0052290037
3892.3332788084	0.0049836123
3894.2620861815	0.0052728616
3896.1908935545	0.0053428486
3898.1197009276	0.0051698568
3900.0485083006	0.0049299961
3901.9773156737	0.0048912517
3903.9061230467	0.0049519013
3905.8349304198	0.0050440910
3907.7637377928	0.0052462113
3909.6925451659	0.0052241157
3911.6213525389	0.0052140541
3913.5501599119	0.0052259229
3915.4789672850	0.0051310314
3917.4077746580	0.0050099054
3919.3365820311	0.0050297044
3921.2653894041	0.0051863948
3923.1941967772	0.0050289584
3925.1230041502	0.0050116181
3927.0518115233	0.0051324745
3928.9806188963	0.0051132478
3930.9094262694	0.0050081545
3932.8382336424	0.0048085381
3934.7670410155	0.0050016986
3936.6958483885	0.0051389257
3938.6246557616	0.0050311703
3940.5534631346	0.0049526375
3942.4822705076	0.0048012980
3944.4110778807	0.0048858770
3946.3398852537	0.0049506901
3948.2686926268	0.0048492705
3950.1974999998	0.0048963940
3952.1263073729	0.0049987305
3954.0551147459	0.0049646059
3955.9839221190	0.0048270700
3957.9127294920	0.0048864475
3959.8415368651	0.0048990287
3961.7703442381	0.0047498439
3963.6991516112	0.0048907427
3965.6279589842	0.0048882253
3967.5567663573	0.0047834599
3969.4855737303	0.0048781321
3971.4143811034	0.0047842814
3973.3431884764	0.0047913161
3975.2719958494	0.0047826795
3977.2008032225	0.0047703264
3979.1296105955	0.0048288740
3981.0584179686	0.0046701515
3982.9872253416	0.0047164606
3984.9160327147	0.0047106165
3986.8448400877	0.0046086186
3988.7736474608	0.0046138600
3990.7024548338	0.0046170708
3992.6312622069	0.0047183819
3994.5600695799	0.0046523870
3996.4888769530	0.0046493914
3998.4176843260	0.0046468209
4000.3464916991	0.0045714229
4002.2752990721	0.0046483725
4004.2041064451	0.0045501399
4006.1329138182	0.0045648557
4008.0617211912	0.0046138959
4009.9905285643	0.0044433950
4011.9193359373	0.0045010494
4013.8481433104	0.0045996243
4015.7769506834	0.0045419149
4017.7057580565	0.0044982722
4019.6345654295	0.0044755461
4021.5633728026	0.0045094490
4023.4921801756	0.0045179790
4025.4209875487	0.0044905394
4027.3497949217	0.0044747805
4029.2786022948	0.0044137896
4031.2074096678	0.0043749139
4033.1362170408	0.0043935832
4035.0650244139	0.0044094650
4036.9938317869	0.0043701236
4038.9226391600	0.0043385122
4040.8514465330	0.0043380205
4042.7802539061	0.0043307133
4044.7090612791	0.0043554311
4046.6378686522	0.0043427479
4048.5666760252	0.0043167798
4050.4954833983	0.0042951237
4052.4242907713	0.0042528985
4054.3530981444	0.0042706551
4056.2819055174	0.0042732712
4058.2107128905	0.0042517390
4060.1395202635	0.0042615533
4062.0683276365	0.0042010322
4063.9971350096	0.0041590664
4065.9259423826	0.0042510815
4067.8547497557	0.0042209188
4069.7835571287	0.0040819850
4071.7123645018	0.0041255024
4073.6411718748	0.0041977735
4075.5699792479	0.0041264021
4077.4987866209	0.0041226335
4079.4275939940	0.0042335019
4081.3564013670	0.0041881045
4083.2852087401	0.0040758112
4085.2140161131	0.0041343221
4087.1428234862	0.0041660825
4089.0716308592	0.0041240072
4091.0004382323	0.0041054031
4092.9292456053	0.0040100063
4094.8580529783	0.0040239226
4096.7868603514	0.0040918477
4098.7156677244	0.0039746603
4100.6444750975	0.0039555100
4102.5732824705	0.0039900658
4104.5020898436	0.0040081753
4106.4308972166	0.0040360456
4108.3597045897	0.0039459174
4110.2885119627	0.0039597135
4112.2173193358	0.0040012570
4114.1461267088	0.0039612376
4116.0749340819	0.0038881947
4118.0037414549	0.0038302047
4119.9325488280	0.0038716842
4121.8613562010	0.0038698891
4123.7901635740	0.0038495124
4125.7189709471	0.0038211597
4127.6477783201	0.0037836821
4129.5765856932	0.0038077738
4131.5053930662	0.0038632876
4133.4342004393	0.0038814405
4135.3630078123	0.0038749464
4137.2918151854	0.0038788808
4139.2206225584	0.0038268259
4141.1494299315	0.0037569185
4143.0782373045	0.0037146795
4145.0070446776	0.0037707500
4146.9358520506	0.0037548901
4148.8646594237	0.0037248014
4150.7934667967	0.0037931139
4152.7222741697	0.0037302086
4154.6510815428	0.0037530838
4156.5798889158	0.0037430734
4158.5086962889	0.0036962759
4160.4375036619	0.0037515431
4162.3663110350	0.0036728447
4164.2951184080	0.0036299587
4166.2239257811	0.0036746981
4168.1527331541	0.0037431109
4170.0815405272	0.0037091863
4172.0103479002	0.0036503535
4173.9391552733	0.0037013707
4175.8679626463	0.0036357124
4177.7967700194	0.0035881894
4179.7255773924	0.0036540306
4181.6543847654	0.0035800363
4183.5831921385	0.0034924354
4185.5119995115	0.0035645589
4187.4408068846	0.0035296590
4189.3696142576	0.0035207795
4191.2984216307	0.0035680244
4193.2272290037	0.0034905248
4195.1560363768	0.0034674564
4197.0848437498	0.0035140822
4199.0136511229	0.0035627894
4200.9424584959	0.0034805099
4202.8712658690	0.0035507604
4204.8000732420	0.0036368449
4206.7288806151	0.0034919276
4208.6576879881	0.0035074246
4210.5864953611	0.0034898056
4212.5153027342	0.0034628017
4214.4441101072	0.0034561993
4216.3729174803	0.0034210873
4218.3017248533	0.0034260964
4220.2305322264	0.0033858144
4222.1593395994	0.0034016417
4224.0881469725	0.0034006564
4226.0169543455	0.0034615204
4227.9457617186	0.0034233059
4229.8745690916	0.0033924528
4231.8033764647	0.0034802272
4233.7321838377	0.0033297844
4235.6609912108	0.0032945457
4237.5897985838	0.0033614915
4239.5186059569	0.0032806625
4241.4474133299	0.0033185193
4243.3762207029	0.0033489815
4245.3050280760	0.0032782003
4247.2338354490	0.0032955618
4249.1626428221	0.0032447455
4251.0914501951	0.0032571023
4253.0202575682	0.0033271490
4254.9490649412	0.0032609538
4256.8778723143	0.0033150171
4258.8066796873	0.0032783500
4260.7354870604	0.0032238089
4262.6642944334	0.0031934395
4264.5931018065	0.0031574261
4266.5219091795	0.0032175556
4268.4507165526	0.0031959990
4270.3795239256	0.0032827519
4272.3083312986	0.0031821169
4274.2371386717	0.0031788694
4276.1659460447	0.0032432741
4278.0947534178	0.0030509131
4280.0235607908	0.0031829444
4281.9523681639	0.0032004276
4283.8811755369	0.0030952529
4285.8099829100	0.0030981982
4287.7387902830	0.0031470438
4289.6675976561	0.0031902243
4291.5964050291	0.0030567585
4293.5252124022	0.0030604801
4295.4540197752	0.0030581038
4297.3828271483	0.0030728388
4299.3116345213	0.0030896617
4301.2404418943	0.0030503666
4303.1692492674	0.0029731707
4305.0980566404	0.0029528132
4307.0268640135	0.0031003552
4308.9556713865	0.0029997309
4310.8844787596	0.0030204062
4312.8132861326	0.0030367263
4314.7420935057	0.0029171021
4316.6709008787	0.0030062771
4318.5997082518	0.0029307283
4320.5285156248	0.0029045444
4322.4573229979	0.0030121475
4324.3861303709	0.0030748711
4326.3149377440	0.0030411193
4328.2437451170	0.0029757835
4330.1725524900	0.0029901797
4332.1013598631	0.0029721248
4334.0301672361	0.0029557813
4335.9589746092	0.0029027225
4337.8877819822	0.0029349432
4339.8165893553	0.0029297951
4341.7453967283	0.0028918530
4343.6742041014	0.0029252945
4345.6030114744	0.0028170699
4347.5318188475	0.0027874522
4349.4606262205	0.0027949007
4351.3894335936	0.0027999808
4353.3182409666	0.0028658211
4355.2470483397	0.0028169472
4357.1758557127	0.0028717681
4359.1046630858	0.0029352331
4361.0334704588	0.0027961307
4362.9622778318	0.0027787676
4364.8910852049	0.0028122291
4366.8198925779	0.0027774340
4368.7486999510	0.0028064451
4370.6775073240	0.0027867467
4372.6063146971	0.0028131669
4374.5351220701	0.0027964553
4376.4639294432	0.0027311542
4378.3927368162	0.0027741510
4380.3215441893	0.0027163173
4382.2503515623	0.0026864423
4384.1791589354	0.0027265856
4386.1079663084	0.0026950301
4388.0367736815	0.0026444085
4389.9655810545	0.0026064422
4391.8943884275	0.0026347388
4393.8231958006	0.0026838193
4395.7520031736	0.0026995260
4397.6808105467	0.0026806742
4399.6096179197	0.0026214099
4401.5384252928	0.0026468190
4403.4672326658	0.0027048751
4405.3960400389	0.0025673993
4407.3248474119	0.0025680538
4409.2536547850	0.0026730667
4411.1824621580	0.0026128357
4413.1112695311	0.0026411116
4415.0400769041	0.0025917562
4416.9688842772	0.0025681818
4418.8976916502	0.0025854334
4420.8264990232	0.0025098044
4422.7553063963	0.0025588414
4424.6841137693	0.0025670128
4426.6129211424	0.0025827317
4428.5417285154	0.0025927944
4430.4705358885	0.0025569287
4432.3993432615	0.0025366908
4434.3281506346	0.0025057304
4436.2569580076	0.0025319892
4438.1857653807	0.0025361504
4440.1145727537	0.0025478201
4442.0433801268	0.0025288488
4443.9721874998	0.0025391113
4445.9009948729	0.0025249450
4447.8298022459	0.0024968921
4449.7586096189	0.0025552846
4451.6874169920	0.0025067593
4453.6162243650	0.0025247370
4455.5450317381	0.0024939433
4457.4738391111	0.0024606027
4459.4026464842	0.0025306651
4461.3314538572	0.0024424824
4463.2602612303	0.0024311813
4465.1890686033	0.0024365894
4467.1178759764	0.0024510925
4469.0466833494	0.0024479181
4470.9754907225	0.0023860596
4472.9042980955	0.0024922183
4474.8331054686	0.0024522704
4476.7619128416	0.0024370709
4478.6907202147	0.0024797267
4480.6195275877	0.0023450027
4482.5483349607	0.0023813813
4484.4771423338	0.0023368588
4486.4059497068	0.0022536661
4488.3347570799	0.0023956369
4490.2635644529	0.0024063627
4492.1923718260	0.0023722006
4494.1211791990	0.0023960723
4496.0499865721	0.0023432905
4497.9787939451	0.0022719572
4499.9076013182	0.0022986610
4501.8364086912	0.0023589400
4503.7652160643	0.0023372518
4505.6940234373	0.0023089936
4507.6228308104	0.0022621911
4509.5516381834	0.0022963807
4511.4804455564	0.0023581248
4513.4092529295	0.0023074988
4515.3380603025	0.0023037265
4517.2668676756	0.0022830258
4519.1956750486	0.0021984708
4521.1244824217	0.0022179941
4523.0532897947	0.0022921013
4524.9820971678	0.0021964940
4526.9109045408	0.0022027739
4528.8397119139	0.0023206845
4530.7685192869	0.0021797626
4532.6973266600	0.0021766103
4534.6261340330	0.0022185466
4536.5549414061	0.0021115113
4538.4837487791	0.0021773621
4540.4125561521	0.0022302838
4542.3413635252	0.0022200737
4544.2701708982	0.0021869093
4546.1989782713	0.0021662400
4548.1277856443	0.0022082455
4550.0565930174	0.0021802764
4551.9854003904	0.0021261263
4553.9142077635	0.0020893884
4555.8430151365	0.0020915968
4557.7718225096	0.0021227491
4559.7006298826	0.0021434971
4561.6294372557	0.0021129958
4563.5582446287	0.0020642777
4565.4870520018	0.0021603247
4567.4158593748	0.0021981779
4569.3446667478	0.0020656777
4571.2734741209	0.0020776764
4573.2022814939	0.0021121688
4575.1310888670	0.0020576688
4577.0598962400	0.0020771157
4578.9887036131	0.0020740074
4580.9175109861	0.0020885696
4582.8463183592	0.0020955270
4584.7751257322	0.0020526326
4586.7039331053	0.0020538189
4588.6327404783	0.0020330758
4590.5615478514	0.0019778733
4592.4903552244	0.0019693300
4594.4191625975	0.0020464654
4596.3479699705	0.0020348595
4598.2767773435	0.0019943363
4600.2055847166	0.0019825930
4602.1343920896	0.0019530787
4604.0631994627	0.0020140950
4605.9920068357	0.0019942778
4607.9208142088	0.0020024967
4609.8496215818	0.0020157383
4611.7784289549	0.0019561709
4613.7072363279	0.0019812230
4615.6360437010	0.0019293057
4617.5648510740	0.0019276261
4619.4936584471	0.0019594145
4621.4224658201	0.0018935713
4623.3512731932	0.0018887129
4625.2800805662	0.0019315949
4627.2088879393	0.0019139274
4629.1376953123	0.0019117771
4631.0665026853	0.0019227492
4632.9953100584	0.0018348930
4634.9241174314	0.0018930030
4636.8529248045	0.0019294347
4638.7817321775	0.0018284163
4640.7105395506	0.0018737302
4642.6393469236	0.0018957492
4644.5681542967	0.0018496686
4646.4969616697	0.0018500079
4648.4257690428	0.0018958272
4650.3545764158	0.0018909511
4652.2833837889	0.0018970341
4654.2121911619	0.0018898149
4656.1409985350	0.0018092563
4658.0698059080	0.0018298440
4659.9986132810	0.0018226268
4661.9274206541	0.0018429044
4663.8562280271	0.0018403952
4665.7850354002	0.0017789998
4667.7138427732	0.0018346114
4669.6426501463	0.0018436511
4671.5714575193	0.0018384345
4673.5002648924	0.0018412982
4675.4290722654	0.0018724801
4677.3578796385	0.0018581235
4679.2866870115	0.0017644861
4681.2154943846	0.0017714051
4683.1443017576	0.0017721097
4685.0731091307	0.0017954408
4687.0019165037	0.0018091279
4688.9307238767	0.0017472690
4690.8595312498	0.0017369469
4692.7883386228	0.0017564710
4694.7171459959	0.0017449069
4696.6459533689	0.0017423793
4698.5747607420	0.0017836175
4700.5035681150	0.0017084412
4702.4323754881	0.0016014066
4704.3611828611	0.0016678812
4706.2899902342	0.0017313107
4708.2187976072	0.0017536866
4710.1476049803	0.0017753014
4712.0764123533	0.0016857903
4714.0052197264	0.0017082649
4715.9340270994	0.0018004293
4717.8628344724	0.0016974050
4719.7916418455	0.0016452917
4721.7204492185	0.0016480742
4723.6492565916	0.0016614730
4725.5780639646	0.0017436226
4727.5068713377	0.0017109368
4729.4356787107	0.0016232056
4731.3644860838	0.0016308827
4733.2932934568	0.0016977037
4735.2221008299	0.0016657482
4737.1509082029	0.0016173359
4739.0797155760	0.0016499724
4741.0085229490	0.0016672264
4742.9373303221	0.0016509059
4744.8661376951	0.0015965924
4746.7949450682	0.0016175346
4748.7237524412	0.0016284784
4750.6525598142	0.0015498298
4752.5813671873	0.0015803506
4754.5101745603	0.0016369941
4756.4389819334	0.0016060089
4758.3677893064	0.0016115430
4760.2965966795	0.0016128256
4762.2254040525	0.0016215113
4764.1542114256	0.0016437403
4766.0830187986	0.0015881814
4768.0118261717	0.0016050425
4769.9406335447	0.0015537192
4771.8694409178	0.0015172334
4773.7982482908	0.0015747376
4775.7270556639	0.0014963672
4777.6558630369	0.0015797799
4779.5846704099	0.0016170016
4781.5134777830	0.0015115086
4783.4422851560	0.0015241985
4785.3710925291	0.0015431449
4787.2998999021	0.0015690903
4789.2287072752	0.0015171876
4791.1575146482	0.0015162693
4793.0863220213	0.0015455841
4795.0151293943	0.0015735226
4796.9439367674	0.0015567826
4798.8727441404	0.0014143954
4800.8015515135	0.0014783221
4802.7303588865	0.0015237760
4804.6591662596	0.0014476345
4806.5879736326	0.0014621557
4808.5167810056	0.0015013132
4810.4455883787	0.0015001753
4812.3743957517	0.0014785852
4814.3032031248	0.0015316529
4816.2320104978	0.0014728718
4818.1608178709	0.0014167142
4820.0896252439	0.0015019835
4822.0184326170	0.0015013660
4823.9472399900	0.0014302402
4825.8760473631	0.0014032905
4827.8048547361	0.0014305515
4829.7336621092	0.0013766875
4831.6624694822	0.0013447562
4833.5912768553	0.0014259598
4835.5200842283	0.0014096999
4837.4488916013	0.0013675506
4839.3776989744	0.0014270046
4841.3065063474	0.0014377215
4843.2353137205	0.0013716239
4845.1641210935	0.0013683138
4847.0929284666	0.0014114627
4849.0217358396	0.0013901456
4850.9505432127	0.0013579738
4852.8793505857	0.0014226063
4854.8081579588	0.0014500543
4856.7369653318	0.0014141900
4858.6657727049	0.0013849891
4860.5945800779	0.0013519576
4862.5233874510	0.0013755625
4864.4521948240	0.0013362081
4866.3810021971	0.0012907502
4868.3098095701	0.0013684584
4870.2386169431	0.0013807411
4872.1674243162	0.0013091520
4874.0962316892	0.0013184060
4876.0250390623	0.0013262688
4877.9538464353	0.0013168850
4879.8826538084	0.0013938886
4881.8114611814	0.0013600616
4883.7402685545	0.0013222867
4885.6690759275	0.0013712482
4887.5978833006	0.0013285335
4889.5266906736	0.0012888981
4891.4554980467	0.0012825741
4893.3843054197	0.0013176334
4895.3131127928	0.0013198131
4897.2419201658	0.0013225389
4899.1707275388	0.0013581713
4901.0995349119	0.0012965612
4903.0283422849	0.0012775515
4904.9571496580	0.0012913692
4906.8859570310	0.0012433451
4908.8147644041	0.0012233526
4910.7435717771	0.0012397793
4912.6723791502	0.0012567984
4914.6011865232	0.0012819566
4916.5299938963	0.0012466030
4918.4588012693	0.0012659415
4920.3876086424	0.0013261770
4922.3164160154	0.0012345848
4924.2452233885	0.0012373726
4926.1740307615	0.0012844687
4928.1028381345	0.0012584985
4930.0316455076	0.0012203928
4931.9604528806	0.0011769831
4933.8892602537	0.0012251935
4935.8180676267	0.0012035293
4937.7468749998	0.0011791580
4939.6756823728	0.0012126345
4941.6044897459	0.0012312063
4943.5332971189	0.0012180742
4945.4621044920	0.0011767749
4947.3909118650	0.0012067643
4949.3197192381	0.0012267719
4951.2485266111	0.0012227125
4953.1773339842	0.0011706653
4955.1061413572	0.0011546097
4957.0349487302	0.0011841451
4958.9637561033	0.0012355929
4960.8925634763	0.0012378953
4962.8213708494	0.0011694869
4964.7501782224	0.0012636493
4966.6789855955	0.0011443417
4968.6077929685	0.0010474427
4970.5366003416	0.0011906528
4972.4654077146	0.0011521464
4974.3942150877	0.0011501668
4976.3230224607	0.0011224714
4978.2518298338	0.0011309986
4980.1806372068	0.0011688522
4982.1094445799	0.0011249096
4984.0382519529	0.0011431584
4985.9670593259	0.0010859293
4987.8958666990	0.0010750080
4989.8246740720	0.0011319455
4991.7534814451	0.0011651005
4993.6822888181	0.0011591432
4995.6110961912	0.0011849862
4997.5399035642	0.0011515610
4999.4687109373	0.0010014519
5001.3975183103	0.0010578372
5003.3263256834	0.0011074487
5005.2551330564	0.0010547502
5007.1839404295	0.0010938840
5009.1127478025	0.0010912677
5011.0415551756	0.0010449865
5012.9703625486	0.0010930251
5014.8991699217	0.0011227368
5016.8279772947	0.0010848910
5018.7567846677	0.0011329739
5020.6855920408	0.0010947643
5022.6143994138	0.0010435309
5024.5432067869	0.0010374924
5026.4720141599	0.0010306539
5028.4008215330	0.0011102991
5030.3296289060	0.0010103080
5032.2584362791	0.0009560583
5034.1872436521	0.0010549928
5036.1160510252	0.0010008077
5038.0448583982	0.0010147106
5039.9736657713	0.0011371092
5041.9024731443	0.0011136839
5043.8312805174	0.0010428191
5045.7600878904	0.0010193863
5047.6888952634	0.0010004451
5049.6177026365	0.0010571856
5051.5465100095	0.0010383434
5053.4753173826	0.0010226916
5055.4041247556	0.0010350496
5057.3329321287	0.0009151984
5059.2617395017	0.0009555246
5061.1905468748	0.0010003669
5063.1193542478	0.0008949641
5065.0481616209	0.0008916277
5066.9769689939	0.0010038766
5068.9057763670	0.0010306365
5070.8345837400	0.0009784808
5072.7633911131	0.0010558545
5074.6921984861	0.0010122951
5076.6210058591	0.0009484276
5078.5498132322	0.0009875759
5080.4786206052	0.0009240080
5082.4074279783	0.0009329987
5084.3362353513	0.0009801219
5086.2650427244	0.0010135205
5088.1938500974	0.0009777118
5090.1226574705	0.0009782490
5092.0514648435	0.0010353267
5093.9802722166	0.0009533826
5095.9090795896	0.0009542524
5097.8378869627	0.0009544801
5099.7666943357	0.0009338630
5101.6955017088	0.0009180136
5103.6243090818	0.0008621004
5105.5531164548	0.0009090537
5107.4819238279	0.0008960906
5109.4107312009	0.0009241687
5111.3395385740	0.0010063085
5113.2683459470	0.0009893565
5115.1971533201	0.0009468839
5117.1259606931	0.0009326504
5119.0547680662	0.0009387661
5120.9835754392	0.0009003856
5122.9123828123	0.0009149236
5124.8411901853	0.0009098221
5126.7699975584	0.0009181265
5128.6988049314	0.0009341874
5130.6276123045	0.0008668966
5132.5564196775	0.0009191043
5134.4852270506	0.0009342277
5136.4140344236	0.0008903291
5138.3428417966	0.0008778702
5140.2716491697	0.0008651454
5142.2004565427	0.0008582607
5144.1292639158	0.0008732112
5146.0580712888	0.0009874620
5147.9868786619	0.0008987378
5149.9156860349	0.0008239850
5151.8444934080	0.0008856987
5153.7733007810	0.0008280466
5155.7021081541	0.0009184785
5157.6309155271	0.0008983461
5159.5597229002	0.0008197400
5161.4885302732	0.0008507179
5163.4173376463	0.0007929921
5165.3461450193	0.0008596929
5167.2749523923	0.0008604369
5169.2037597654	0.0008562510
5171.1325671384	0.0008718222
5173.0613745115	0.0007776223
5174.9901818845	0.0008533915
5176.9189892576	0.0008475297
5178.8477966306	0.0008362861
5180.7766040037	0.0009193998
5182.7054113767	0.0008571265
5184.6342187498	0.0008372118
5186.5630261228	0.0008344360
5188.4918334959	0.0008325491
5190.4206408689	0.0008605120
5192.3494482420	0.0008826028
5194.2782556150	0.0008616761
5196.2070629880	0.0007996472
5198.1358703611	0.0008139372
5200.0646777341	0.0007651189
5201.9934851072	0.0007551407
5203.9222924802	0.0008068410
5205.8510998533	0.0008092676
5207.7799072263	0.0008499820
5209.7087145994	0.0008193025
5211.6375219724	0.0008010946
5213.5663293455	0.0007907926
5215.4951367185	0.0007862498
5217.4239440916	0.0008198107
5219.3527514646	0.0007757952
5221.2815588377	0.0008120057
5223.2103662107	0.0008075755
5225.1391735837	0.0007642446
5227.0679809568	0.0008216631
5228.9967883298	0.0007538744
5230.9255957029	0.0007427851
5232.8544030759	0.0008227321
5234.7832104490	0.0007889501
5236.7120178220	0.0008294010
5238.6408251951	0.0008044551
5240.5696325681	0.0007473201
5242.4984399412	0.0008410805
5244.4272473142	0.0007929007
5246.3560546873	0.0007539145
5248.2848620603	0.0007711611
5250.2136694334	0.0007134199
5252.1424768064	0.0007388256
5254.0712841795	0.0007713814
5256.0000915525	0.0007467525
5257.9288989255	0.0006701814
5259.8577062986	0.0007389869
5261.7865136716	0.0008064937
5263.7153210447	0.0007311124
5265.6441284177	0.0007857421
5267.5729357908	0.0007972234
5269.5017431638	0.0007504949
5271.4305505369	0.0006767982
5273.3593579099	0.0006769402
5275.2881652830	0.0008017410
5277.2169726560	0.0007706886
5279.1457800291	0.0007363056
5281.0745874021	0.0007394922
5283.0033947752	0.0007213848
5284.9322021482	0.0006910153
5286.8610095212	0.0006886949
5288.7898168943	0.0007526223
5290.7186242673	0.0007295020
5292.6474316404	0.0006999024
5294.5762390134	0.0007172329
5296.5050463865	0.0007426803
5298.4338537595	0.0007249913
5300.3626611326	0.0006820039
5302.2914685056	0.0006751230
5304.2202758787	0.0006539676
5306.1490832517	0.0006481568
5308.0778906248	0.0006864707
5310.0066979978	0.0007264171
5311.9355053709	0.0007044433
5313.8643127439	0.0006735509
5315.7931201169	0.0006371062
5317.7219274900	0.0006886264
5319.6507348630	0.0007290953
5321.5795422361	0.0005912243
5323.5083496091	0.0006021300
5325.4371569822	0.0006639485
5327.3659643552	0.0006696552
5329.2947717283	0.0007248013
5331.2235791013	0.0006881246
5333.1523864744	0.0006194151
5335.0811938474	0.0006285530
5337.0100012205	0.0006640100
5338.9388085935	0.0006033160
5340.8676159666	0.0006244088
5342.7964233396	0.0006769389
5344.7252307126	0.0006288188
5346.6540380857	0.0006571605
5348.5828454587	0.0006615114
5350.5116528318	0.0006532061
5352.4404602048	0.0006674774
5354.3692675779	0.0006984024
5356.2980749509	0.0006850509
5358.2268823240	0.0006309195
5360.1556896970	0.0006645141
5362.0844970701	0.0006320211
5364.0133044431	0.0006460736
5365.9421118162	0.0006570066
5367.8709191892	0.0005494986
5369.7997265623	0.0005939764
5371.7285339353	0.0006647767
5373.6573413083	0.0006210173
5375.5861486814	0.0006069087
5377.5149560544	0.0006144741
5379.4437634275	0.0005965271
5381.3725708005	0.0006097765
5383.3013781736	0.0005849942
5385.2301855466	0.0005893919
5387.1589929197	0.0006335576
5389.0878002927	0.0005497035
5391.0166076658	0.0006013926
5392.9454150388	0.0006948703
5394.8742224119	0.0006216858
5396.8030297849	0.0006032611
5398.7318371580	0.0005601831
5400.6606445310	0.0005221545
5402.5894519041	0.0005893838
5404.5182592771	0.0006323596
5406.4470666501	0.0005723336
5408.3758740232	0.0005166332
5410.3046813962	0.0005675814
5412.2334887693	0.0005547032
5414.1622961423	0.0005505438
5416.0911035154	0.0006287115
5418.0199108884	0.0005547027
5419.9487182615	0.0004977575
5421.8775256345	0.0006145814
5423.8063330076	0.0006178886
5425.7351403806	0.0005475312
5427.6639477537	0.0005726189
5429.5927551267	0.0005343840
5431.5215624998	0.0005013611
5433.4503698728	0.0005777216
5435.3791772458	0.0006103920
5437.3079846189	0.0006079871
5439.2367919919	0.0006169967
5441.1655993650	0.0005865045
5443.0944067380	0.0005771125
5445.0232141111	0.0005659525
5446.9520214841	0.0005131202
5448.8808288572	0.0005352412
5450.8096362302	0.0005327836
5452.7384436033	0.0005366353
5454.6672509763	0.0005927213
5456.5960583494	0.0005171446
5458.5248657224	0.0005079106
5460.4536730955	0.0006092977
5462.3824804685	0.0006464244
5464.3112878415	0.0005358578
5466.2400952146	0.0004418311
5468.1689025876	0.0005771225
5470.0977099607	0.0005788361
5472.0265173337	0.0004937199
5473.9553247068	0.0004988248
5475.8841320798	0.0004963493
5477.8129394529	0.0005301916
5479.7417468259	0.0005065321
5481.6705541990	0.0005287580
5483.5993615720	0.0004781000
5485.5281689451	0.0004258980
5487.4569763181	0.0005527895
5489.3857836912	0.0005442798
5491.3145910642	0.0005064313
5493.2433984372	0.0004891221
5495.1722058103	0.0004472113
5497.1010131833	0.0004812002
5499.0298205564	0.0005202831
5500.9586279294	0.0005458922
5502.8874353025	0.0004939681
5504.8162426755	0.0005260368
5506.7450500486	0.0005973766
5508.6738574216	0.0004530202
5510.6026647947	0.0003891984
5512.5314721677	0.0004328094
5514.4602795408	0.0004107322
5516.3890869138	0.0004860678
5518.3178942869	0.0005098754
5520.2467016599	0.0004717217
5522.1755090330	0.0005206648
5524.1043164060	0.0005248934
5526.0331237790	0.0004895700
5527.9619311521	0.0004353841
5529.8907385251	0.0004405210
5531.8195458982	0.0004575819
5533.7483532712	0.0004616705
5535.6771606443	0.0005638051
5537.6059680173	0.0005322318
5539.5347753904	0.0004630016
5541.4635827634	0.0005019134
5543.3923901365	0.0004683440
5545.3211975095	0.0004480285
5547.2500048826	0.0004728416
5549.1788122556	0.0004609087
5551.1076196287	0.0004287236
5553.0364270017	0.0004065097
5554.9652343747	0.0004414778
5556.8940417478	0.0004659715
5558.8228491208	0.0004463745
5560.7516564939	0.0004597315
5562.6804638669	0.0004237760
5564.6092712400	0.0004127801
5566.5380786130	0.0004504186
5568.4668859861	0.0004581240
5570.3956933591	0.0005038534
5572.3245007322	0.0004717516
5574.2533081052	0.0004733805
5576.1821154783	0.0005069465
5578.1109228513	0.0004942090
5580.0397302244	0.0004639615
5581.9685375974	0.0004070115
5583.8973449704	0.0004933620
5585.8261523435	0.0004121152
5587.7549597165	0.0003460757
5589.6837670896	0.0004356827
5591.6125744626	0.0003563406
5593.5413818357	0.0004482248
5595.4701892087	0.0004916332
5597.3989965818	0.0004347841
5599.3278039548	0.0004514944
5601.2566113279	0.0004070508
5603.1854187009	0.0004540122
5605.1142260740	0.0004396481
5607.0430334470	0.0004100707
5608.9718408201	0.0004028960
5610.9006481931	0.0003914300
5612.8294555661	0.0004090572
5614.7582629392	0.0003710593
5616.6870703122	0.0004181511
5618.6158776853	0.0004174314
5620.5446850583	0.0003814745
5622.4734924314	0.0004200976
5624.4022998044	0.0004170160
5626.3311071775	0.0003792835
5628.2599145505	0.0003850424
5630.1887219236	0.0004533278
5632.1175292966	0.0004296988
5634.0463366697	0.0004035668
5635.9751440427	0.0003971939
5637.9039514158	0.0003523263
5639.8327587888	0.0003908426
5641.7615661619	0.0004133863
5643.6903735349	0.0003936474
5645.6191809079	0.0003793562
5647.5479882810	0.0003661719
5649.4767956540	0.0003374442
5651.4056030271	0.0003603510
5653.3344104001	0.0004192193
5655.2632177732	0.0003936936
5657.1920251462	0.0004088209
5659.1208325193	0.0003969470
5661.0496398923	0.0003880184
5662.9784472654	0.0004525538
5664.9072546384	0.0004180090
5666.8360620115	0.0003846531
5668.7648693845	0.0003581849
5670.6936767576	0.0003424847
5672.6224841306	0.0003636745
5674.5512915036	0.0003733124
5676.4800988767	0.0004210718
5678.4089062497	0.0004214749
5680.3377136228	0.0003888293
5682.2665209958	0.0003732527
5684.1953283689	0.0003815461
5686.1241357419	0.0004070907
5688.0529431150	0.0004088559
5689.9817504880	0.0003623264
5691.9105578611	0.0003402145
5693.8393652341	0.0003839726
5695.7681726072	0.0003629322
5697.6969799802	0.0003715244
5699.6257873533	0.0003341256
5701.5545947263	0.0003590190
5703.4834020993	0.0004697755
5705.4122094724	0.0003375332
5707.3410168454	0.0003371252
5709.2698242185	0.0003745844
5711.1986315915	0.0003237897
5713.1274389646	0.0003839746
5715.0562463376	0.0003878646
5716.9850537107	0.0003776147
5718.9138610837	0.0002997897
5720.8426684568	0.0003694537
5722.7714758298	0.0004125229
5724.7002832029	0.0003427300
5726.6290905759	0.0004416953
5728.5578979490	0.0003628538
5730.4867053220	0.0002976859
5732.4155126950	0.0003252644
5734.3443200681	0.0003336053
5736.2731274411	0.0003834614
5738.2019348142	0.0003320875
5740.1307421872	0.0003266097
5742.0595495603	0.0003568881
5743.9883569333	0.0003667797
5745.9171643064	0.0003435415
5747.8459716794	0.0003849268
5749.7747790525	0.0004357339
5751.7035864255	0.0003069704
5753.6323937986	0.0003155300
5755.5612011716	0.0004354678
5757.4900085447	0.0003689273
5759.4188159177	0.0002855693
5761.3476232907	0.0003539890
5763.2764306638	0.0003976051
5765.2052380368	0.0003590761
5767.1340454099	0.0003335066
5769.0628527829	0.0003548430
5770.9916601560	0.0003557999
5772.9204675290	0.0002604210
5774.8492749021	0.0002514492
5776.7780822751	0.0002809633
5778.7068896482	0.0002911174
5780.6356970212	0.0003256008
5782.5645043943	0.0003420184
5784.4933117673	0.0003796294
5786.4221191404	0.0002874469
5788.3509265134	0.0002306795
5790.2797338865	0.0003336630
5792.2085412595	0.0003544927
5794.1373486325	0.0002851253
5796.0661560056	0.0002361436
5797.9949633786	0.0003019962
5799.9237707517	0.0003344599
5801.8525781247	0.0002940271
5803.7813854978	0.0003373376
5805.7101928708	0.0003280518
5807.6390002439	0.0003011813
5809.5678076169	0.0003463486
5811.4966149900	0.0003247935
5813.4254223630	0.0003314719
5815.3542297361	0.0003313896
5817.2830371091	0.0002831757
5819.2118444822	0.0002750985
5821.1406518552	0.0002304280
5823.0694592282	0.0003027751
5824.9982666013	0.0003483763
5826.9270739743	0.0002760596
5828.8558813474	0.0003191433
5830.7846887204	0.0003323523
5832.7134960935	0.0003214519
5834.6423034665	0.0003120292
5836.5711108396	0.0002568549
5838.4999182126	0.0002484071
5840.4287255857	0.0002719524
5842.3575329587	0.0002695302
5844.2863403318	0.0002983650
5846.2151477048	0.0003113430
5848.1439550779	0.0002612696
5850.0727624509	0.0002886522
5852.0015698239	0.0002640419
5853.9303771970	0.0002943744
5855.8591845700	0.0003136793
5857.7879919431	0.0002326364
5859.7167993161	0.0003173951
5861.6456066892	0.0002797366
5863.5744140622	0.0002631387
5865.5032214353	0.0003009625
5867.4320288083	0.0002609738
5869.3608361814	0.0002983888
5871.2896435544	0.0002424840
5873.2184509275	0.0002916580
5875.1472583005	0.0002926192
5877.0760656736	0.0002424856
5879.0048730466	0.0003015695
5880.9336804196	0.0002359647
5882.8624877927	0.0002212140
5884.7912951657	0.0002037966
5886.7201025388	0.0002137792
5888.6489099118	0.0002336126
5890.5777172849	0.0002206209
5892.5065246579	0.0002732009
5894.4353320310	0.0002227848
5896.3641394040	0.0002379543
5898.2929467771	0.0003019757
5900.2217541501	0.0003147124
5902.1505615232	0.0002618757
5904.0793688962	0.0001834543
5906.0081762693	0.0002367902
5907.9369836423	0.0002355945
5909.8657910154	0.0002265573
5911.7945983884	0.0002265372
5913.7234057614	0.0002108098
5915.6522131345	0.0002606286
5917.5810205075	0.0002645128
5919.5098278806	0.0002463998
5921.4386352536	0.0002446434
5923.3674426267	0.0002742222
5925.2962499997	0.0002502236
5927.2250573728	0.0002402124
5929.1538647458	0.0002894037
5931.0826721189	0.0002703470
5933.0114794919	0.0002437076
5934.9402868650	0.0001935085
5936.8690942380	0.0002346690
5938.7979016111	0.0002840786
5940.7267089841	0.0002244931
5942.6555163571	0.0002443122
5944.5843237302	0.0002425527
5946.5131311032	0.0002189388
5948.4419384763	0.0002318800
5950.3707458493	0.0002569671
5952.2995532224	0.0002952213
5954.2283605954	0.0002545065
5956.1571679685	0.0002332264
5958.0859753415	0.0002568328
5960.0147827146	0.0002259040
5961.9435900876	0.0002079606
5963.8723974607	0.0002065966
5965.8012048337	0.0001925243
5967.7300122068	0.0002386404
5969.6588195798	0.0002294609
5971.5876269528	0.0001979192
5973.5164343259	0.0002505266
5975.4452416989	0.0002290660
5977.3740490720	0.0002214669
5979.3028564450	0.0001971239
5981.2316638181	0.0001963512
5983.1604711911	0.0002723317
5985.0892785642	0.0002147906
5987.0180859372	0.0002459112
5988.9468933103	0.0002390934
5990.8757006833	0.0001461456
5992.8045080564	0.0002738661
5994.7333154294	0.0002862842
5996.6621228025	0.0001825300
5998.5909301755	0.0002054455
6000.5197375485	0.0001992797
