399.2631262207	0.0003000027
401.1919335938	0.0003419777
403.1207409668	0.0003298204
405.0495483398	0.0001315379
406.9783557129	0.0001248943
408.9071630859	0.0005622152
410.8359704590	0.0002622107
412.7647778320	0.0002473099
414.6935852051	0.0004673455
416.6223925781	0.0001744392
418.5511999512	0.0003333875
420.4800073242	0.0002303144
422.4088146973	0.0003582053
424.3376220703	0.0002635492
426.2664294434	0.0004136573
428.1952368164	0.0001446123
430.1240441895	-0.0000807593
432.0528515625	0.0008820355
433.9816589355	0.0003777955
435.9104663086	0.0004364187
437.8392736816	0.0008082250
439.7680810547	0.0001665452
441.6968884277	0.0004892236
443.6256958008	0.0004910374
445.5545031738	0.0003448903
447.4833105469	0.0003649984
449.4121179199	0.0003067529
451.3409252930	0.0004257950
453.2697326660	-0.0000559288
455.1985400391	0.0000415071
457.1273474121	0.0002891710
459.0561547852	-0.0000145099
460.9849621582	0.0003394295
462.9137695313	0.0003668433
464.8425769043	0.0004636016
466.7713842773	0.0004337882
468.7001916504	-0.0000088853
470.6289990234	0.0000487705
472.5578063965	-0.0001886465
474.4866137695	0.0001634126
476.4154211426	0.0002138874
478.3442285156	-0.0001390672
480.2730358887	0.0002861122
482.2018432617	0.0000067084
484.1306506348	0.0000579298
486.0594580078	0.0001859343
487.9882653809	-0.0000341330
489.9170727539	0.0001991210
491.8458801270	0.0002086785
493.7746875000	0.0005176292
495.7034948730	0.0002567973
497.6323022461	0.0002429173
499.5611096191	0.0005131374
501.4899169922	-0.0000162787
503.4187243652	0.0004154136
505.3475317383	0.0002664200
507.2763391113	-0.0000781175
509.2051464844	0.0003464285
511.1339538574	0.0001192306
513.0627612305	0.0001499380
514.9915686035	0.0000726073
516.9203759766	0.0000992609
518.8491833496	0.0001644650
520.7779907227	0.0000294421
522.7067980957	0.0000921594
524.6356054688	0.0000133410
526.5644128418	0.0003168452
528.4932202148	0.0002767595
530.4220275879	0.0001893938
532.3508349609	0.0003209743
534.2796423340	0.0001356369
536.2084497070	0.0000865055
538.1372570801	0.0004204181
540.0660644531	0.0004779998
541.9948718262	0.0002998527
543.9236791992	0.0003879436
545.8524865723	0.0003400968
547.7812939453	0.0004176440
549.7101013184	0.0000766645
551.6389086914	0.0000426411
553.5677160645	0.0003013923
555.4965234375	-0.0001716764
557.4253308105	0.0000318567
559.3541381836	0.0005115563
561.2829455566	0.0003610055
563.2117529297	-0.0000813602
565.1405603027	-0.0000257213
567.0693676758	0.0000677373
568.9981750488	0.0001639270
570.9269824219	0.0005178495
572.8557897949	0.0000426542
574.7845971680	-0.0000330945
576.7134045410	0.0000677507
578.6422119141	-0.0000175960
580.5710192871	0.0001560643
582.4998266602	-0.0000659783
584.4286340332	0.0000432476
586.3574414063	0.0001771263
588.2862487793	0.0001807104
590.2150561523	0.0002632264
592.1438635254	0.0002269900
594.0726708984	0.0000925158
596.0014782715	0.0000120679
597.9302856445	0.0001980244
599.8590930176	0.0001888546
601.7879003906	-0.0001884181
603.7167077637	-0.0004092657
605.6455151367	0.0000348209
607.5743225098	0.0002099690
609.5031298828	0.0001306256
611.4319372559	-0.0000306363
613.3607446289	-0.0000025013
615.2895520020	0.0002112112
617.2183593750	-0.0000903405
619.1471667480	0.0003941203
621.0759741211	0.0001576539
623.0047814941	-0.0005148580
624.9335888672	0.0002454330
626.8623962402	0.0003058897
628.7912036133	0.0002267752
630.7200109863	0.0002851063
632.6488183594	0.0002875776
634.5776257324	0.0007219891
636.5064331055	0.0003087359
638.4352404785	0.0003911384
640.3640478516	0.0007567640
642.2928552246	0.0006212579
644.2216625977	0.0006223776
646.1504699707	0.0006228543
648.0792773438	0.0008079619
650.0080847168	0.0007364606
651.9368920898	0.0007189760
653.8656994629	0.0005954197
655.7945068359	0.0008878204
657.7233142090	0.0012149082
659.6521215820	0.0009649768
661.5809289551	0.0011724292
663.5097363281	0.0010253892
665.4385437012	0.0011664534
667.3673510742	0.0011990110
669.2961584473	0.0011744360
671.2249658203	0.0015932340
673.1537731934	0.0011471880
675.0825805664	0.0013242052
677.0113879395	0.0016051007
678.9401953125	0.0014209193
680.8690026855	0.0015639213
682.7978100586	0.0013860306
684.7266174316	0.0014227628
686.6554248047	0.0015868274
688.5842321777	0.0012347578
690.5130395508	0.0012381939
692.4418469238	0.0016193066
694.3706542969	0.0014822325
696.2994616699	0.0018894637
698.2282690430	0.0021900455
700.1570764160	0.0021650800
702.0858837891	0.0024846029
704.0146911621	0.0018997254
705.9434985352	0.0018692948
707.8723059082	0.0019863262
709.8011132813	0.0014583869
711.7299206543	0.0012046004
713.6587280273	0.0004587432
715.5875354004	0.0002826097
717.5163427734	0.0003374987
719.4451501465	-0.0001137096
721.3739575195	0.0001597963
723.3027648926	0.0003218354
725.2315722656	-0.0000107881
727.1603796387	-0.0000210510
729.0891870117	-0.0001841977
731.0179943848	0.0000661609
732.9468017578	0.0002795174
734.8756091309	0.0000297020
736.8044165039	0.0001025472
738.7332238770	-0.0000337618
740.6620312500	-0.0000030730
742.5908386230	0.0002550293
744.5196459961	0.0003406124
746.4484533691	0.0001779942
748.3772607422	0.0003661220
750.3060681152	0.0002524118
752.2348754883	0.0000681198
754.1636828613	0.0004861916
756.0924902344	0.0003942930
758.0212976074	0.0003397824
759.9501049805	0.0002361166
761.8789123535	0.0001906238
763.8077197266	0.0003747940
765.7365270996	0.0001834565
767.6653344727	0.0005515130
769.5941418457	0.0004597327
771.5229492188	0.0002038589
773.4517565918	0.0003741134
775.3805639648	0.0002816916
777.3093713379	0.0002553373
779.2381787109	0.0000544542
781.1669860840	0.0002650887
783.0957934570	0.0002724387
785.0246008301	0.0002382647
786.9534082031	0.0004109229
788.8822155762	0.0003057187
790.8110229492	0.0004948905
792.7398303223	0.0002662721
794.6686376953	0.0003820779
796.5974450684	0.0004227157
798.5262524414	0.0002765743
800.4550598145	0.0005943534
802.3838671875	0.0003256727
804.3126745605	0.0003001491
806.2414819336	0.0002345690
808.1702893066	0.0000210757
810.0990966797	0.0002131837
812.0279040527	0.0005728218
813.9567114258	0.0003600125
815.8855187988	0.0000098650
817.8143261719	0.0005038653
819.7431335449	0.0002055446
821.6719409180	0.0000990704
823.6007482910	0.0003225033
825.5295556641	0.0001524822
827.4583630371	0.0005379723
829.3871704102	0.0005301862
831.3159777832	0.0007807358
833.2447851563	0.0009384905
835.1735925293	0.0006692563
837.1023999023	0.0007805285
839.0312072754	0.0006587253
840.9600146484	0.0006030423
842.8888220215	0.0005783224
844.8176293945	0.0005861720
846.7464367676	0.0005283264
848.6752441406	0.0005138426
850.6040515137	0.0006716375
852.5328588867	0.0005904030
854.4616662598	0.0006743030
856.3904736328	0.0005995324
858.3192810059	0.0004362547
860.2480883789	0.0003066008
862.1768957520	0.0002978910
864.1057031250	0.0004498541
866.0345104980	0.0001711697
867.9633178711	0.0004892944
869.8921252441	0.0007052126
871.8209326172	0.0003382263
873.7497399902	0.0005145621
875.6785473633	0.0002945497
877.6073547363	0.0001463995
879.5361621094	0.0004890013
881.4649694824	0.0003362441
883.3937768555	0.0002441405
885.3225842285	0.0003221561
887.2513916016	0.0002509237
889.1801989746	0.0004952706
891.1090063477	0.0006442298
893.0378137207	0.0004592622
894.9666210938	0.0004813358
896.8954284668	0.0005700815
898.8242358398	0.0005671013
900.7530432129	0.0003935325
902.6818505859	0.0002751945
904.6106579590	0.0003147225
906.5394653320	0.0002405137
908.4682727051	0.0002824064
910.3970800781	0.0004035578
912.3258874512	0.0005728648
914.2546948242	0.0004393631
916.1835021973	0.0002946946
918.1123095703	0.0006582312
920.0411169434	0.0007099267
921.9699243164	0.0007621190
923.8987316895	0.0007240998
925.8275390625	0.0005833723
927.7563464355	0.0009132017
929.6851538086	0.0007765967
931.6139611816	0.0006404605
933.5427685547	0.0009028555
935.4715759277	0.0010082775
937.4003833008	0.0009022549
939.3291906738	0.0007856395
941.2579980469	0.0010753813
943.1868054199	0.0011679207
945.1156127930	0.0011257754
947.0444201660	0.0011310931
948.9732275391	0.0011650256
950.9020349121	0.0013215966
952.8308422852	0.0010679252
954.7596496582	0.0009154833
956.6884570313	0.0009280920
958.6172644043	0.0009223025
960.5460717773	0.0008148758
962.4748791504	0.0006650124
964.4036865234	0.0010422383
966.3324938965	0.0011042767
968.2613012695	0.0009909392
970.1901086426	0.0010643477
972.1189160156	0.0009235868
974.0477233887	0.0011444965
975.9765307617	0.0012814647
977.9053381348	0.0011581312
979.8341455078	0.0013236818
981.7629528809	0.0015112669
983.6917602539	0.0017113013
985.6205676270	0.0018356880
987.5493750000	0.0018587577
989.4781823730	0.0020199388
991.4069897461	0.0022220025
993.3357971191	0.0026109917
995.2646044922	0.0027858685
997.1934118652	0.0027182559
999.1222192383	0.0030542540
1001.0510266113	0.0034095403
1002.9798339844	0.0037176567
1004.9086413574	0.0038285991
1006.8374487305	0.0040528625
1008.7662561035	0.0044836719
1010.6950634766	0.0043435274
1012.6238708496	0.0047358777
1014.5526782227	0.0051676678
1016.4814855957	0.0051285885
1018.4102929688	0.0054623270
1020.3391003418	0.0054438272
1022.2679077148	0.0057584886
1024.1967150879	0.0061094877
1026.1255224609	0.0060283197
1028.0543298340	0.0064308676
1029.9831372070	0.0066221380
1031.9119445801	0.0067637283
1033.8407519531	0.0070294365
1035.7695593262	0.0069576064
1037.6983666992	0.0069279661
1039.6271740723	0.0069919601
1041.5559814453	0.0070383502
1043.4847888184	0.0070176953
1045.4135961914	0.0068793204
1047.3424035645	0.0068709441
1049.2712109375	0.0067135692
1051.2000183105	0.0063855378
1053.1288256836	0.0064779771
1055.0576330566	0.0062743467
1056.9864404297	0.0061321454
1058.9152478027	0.0062285457
1060.8440551758	0.0056869807
1062.7728625488	0.0055209775
1064.7016699219	0.0054867868
1066.6304772949	0.0051741535
1068.5592846680	0.0050292159
1070.4880920410	0.0049544848
1072.4168994141	0.0047169253
1074.3457067871	0.0043230043
1076.2745141602	0.0042132214
1078.2033215332	0.0038755247
1080.1321289062	0.0040079346
1082.0609362793	0.0039959284
1083.9897436523	0.0033357018
1085.9185510254	0.0035667252
1087.8473583984	0.0033327886
1089.7761657715	0.0029955031
1091.7049731445	0.0031497260
1093.6337805176	0.0028770384
1095.5625878906	0.0028325096
1097.4913952637	0.0027484279
1099.4202026367	0.0025676633
1101.3490100098	0.0025344910
1103.2778173828	0.0027583411
1105.2066247559	0.0027277302
1107.1354321289	0.0025066356
1109.0642395019	0.0027176598
1110.9930468750	0.0025142804
1112.9218542480	0.0024898760
1114.8506616211	0.0026009129
1116.7794689941	0.0023381440
1118.7082763672	0.0024930977
1120.6370837402	0.0024143748
1122.5658911133	0.0023532384
1124.4946984863	0.0027123662
1126.4235058594	0.0026117042
1128.3523132324	0.0024900110
1130.2811206055	0.0026771305
1132.2099279785	0.0026932387
1134.1387353516	0.0026680506
1136.0675427246	0.0027506256
1137.9963500977	0.0029565145
1139.9251574707	0.0031397105
1141.8539648437	0.0031566024
1143.7827722168	0.0033492504
1145.7115795898	0.0034953887
1147.6403869629	0.0037441039
1149.5691943359	0.0042200568
1151.4980017090	0.0041629653
1153.4268090820	0.0042481227
1155.3556164551	0.0045278519
1157.2844238281	0.0045055798
1159.2132312012	0.0049022259
1161.1420385742	0.0051536327
1163.0708459473	0.0051903585
1164.9996533203	0.0053768046
1166.9284606934	0.0053780340
1168.8572680664	0.0055823759
1170.7860754394	0.0058728931
1172.7148828125	0.0062219612
1174.6436901855	0.0064140400
1176.5724975586	0.0065804971
1178.5013049316	0.0069761048
1180.4301123047	0.0070420988
1182.3589196777	0.0074766595
1184.2877270508	0.0078400355
1186.2165344238	0.0078605153
1188.1453417969	0.0083412826
1190.0741491699	0.0087085329
1192.0029565430	0.0090907440
1193.9317639160	0.0095314868
1195.8605712891	0.0098096672
1197.7893786621	0.0102140345
1199.7181860351	0.0107521033
1201.6469934082	0.0111426804
1203.5758007812	0.0116410982
1205.5046081543	0.0122575471
1207.4334155273	0.0122816078
1209.3622229004	0.0126319304
1211.2910302734	0.0133653488
1213.2198376465	0.0135583896
1215.1486450195	0.0137611479
1217.0774523926	0.0141236447
1219.0062597656	0.0143695828
1220.9350671387	0.0145739652
1222.8638745117	0.0147551894
1224.7926818848	0.0148833636
1226.7214892578	0.0149364211
1228.6502966308	0.0147752911
1230.5791040039	0.0149385855
1232.5079113769	0.0151510807
1234.4367187500	0.0151396208
1236.3655261230	0.0154071255
1238.2943334961	0.0152305700
1240.2231408691	0.0151142292
1242.1519482422	0.0151459724
1244.0807556152	0.0148355113
1246.0095629883	0.0147292353
1247.9383703613	0.0147610363
1249.8671777344	0.0148205822
1251.7959851074	0.0146142915
1253.7247924805	0.0144560840
1255.6535998535	0.0142360358
1257.5824072266	0.0140262432
1259.5112145996	0.0139485300
1261.4400219726	0.0136499852
1263.3688293457	0.0136628542
1265.2976367187	0.0133517534
1267.2264440918	0.0130267655
1269.1552514648	0.0130026527
1271.0840588379	0.0126709435
1273.0128662109	0.0125139151
1274.9416735840	0.0123640150
1276.8704809570	0.0120584648
1278.7992883301	0.0118727097
1280.7280957031	0.0118655656
1282.6569030762	0.0115337316
1284.5857104492	0.0112147927
1286.5145178223	0.0111983605
1288.4433251953	0.0109221591
1290.3721325683	0.0108247139
1292.3009399414	0.0108314296
1294.2297473144	0.0106293447
1296.1585546875	0.0104416087
1298.0873620605	0.0105170999
1300.0161694336	0.0106576793
1301.9449768066	0.0107322372
1303.8737841797	0.0107071847
1305.8025915527	0.0105508035
1307.7313989258	0.0108362958
1309.6602062988	0.0110524762
1311.5890136719	0.0111745950
1313.5178210449	0.0115317786
1315.4466284180	0.0116892271
1317.3754357910	0.0119035542
1319.3042431640	0.0123053147
1321.2330505371	0.0126134828
1323.1618579101	0.0127710942
1325.0906652832	0.0132435039
1327.0194726562	0.0136933047
1328.9482800293	0.0139996540
1330.8770874023	0.0143262818
1332.8058947754	0.0144812576
1334.7347021484	0.0149836103
1336.6635095215	0.0151154893
1338.5923168945	0.0149362804
1340.5211242676	0.0153715406
1342.4499316406	0.0156683251
1344.3787390137	0.0157529600
1346.3075463867	0.0158944800
1348.2363537597	0.0156569090
1350.1651611328	0.0155741870
1352.0939685058	0.0156628229
1354.0227758789	0.0153355971
1355.9515832519	0.0152090807
1357.8803906250	0.0150991557
1359.8091979980	0.0149330515
1361.7380053711	0.0145278936
1363.6668127441	0.0142289437
1365.5956201172	0.0147693725
1367.5244274902	0.0145103373
1369.4532348633	0.0143715143
1371.3820422363	0.0144753940
1373.3108496094	0.0138501972
1375.2396569824	0.0141459424
1377.1684643555	0.0144041805
1379.0972717285	0.0142518161
1381.0260791015	0.0140990485
1382.9548864746	0.0140760308
1384.8836938476	0.0141648985
1386.8125012207	0.0135589670
1388.7413085937	0.0138519118
1390.6701159668	0.0147051625
1392.5989233398	0.0143705504
1394.5277307129	0.0139556192
1396.4565380859	0.0143420845
1398.3853454590	0.0141290985
1400.3141528320	0.0141835995
1402.2429602051	0.0150794471
1404.1717675781	0.0144085567
1406.1005749512	0.0143996049
1408.0293823242	0.0149293859
1409.9581896972	0.0145782391
1411.8869970703	0.0147007760
1413.8158044433	0.0141970348
1415.7446118164	0.0143832434
1417.6734191894	0.0134675736
1419.6022265625	0.0121914223
1421.5310339355	0.0134121776
1423.4598413086	0.0131347403
1425.3886486816	0.0127146672
1427.3174560547	0.0129845692
1429.2462634277	0.0120482706
1431.1750708008	0.0114781512
1433.1038781738	0.0116881654
1435.0326855469	0.0109273884
1436.9614929199	0.0094826259
1438.8903002929	0.0105786556
1440.8191076660	0.0108109638
1442.7479150390	0.0098178601
1444.6767224121	0.0104131326
1446.6055297851	0.0098152515
1448.5343371582	0.0098437238
1450.4631445312	0.0101769287
1452.3919519043	0.0102769099
1454.3207592773	0.0107191335
1456.2495666504	0.0091192909
1458.1783740234	0.0096999817
1460.1071813965	0.0122204144
1462.0359887695	0.0125945657
1463.9647961426	0.0128192008
1465.8936035156	0.0132097043
1467.8224108886	0.0146467257
1469.7512182617	0.0157125480
1471.6800256347	0.0144250719
1473.6088330078	0.0152142271
1475.5376403808	0.0170703381
1477.4664477539	0.0183235053
1479.3952551269	0.0197692327
1481.3240625000	0.0198851563
1483.2528698730	0.0209507532
1485.1816772461	0.0219005570
1487.1104846191	0.0219325759
1489.0392919922	0.0216623880
1490.9680993652	0.0217434838
1492.8969067383	0.0247131102
1494.8257141113	0.0241505280
1496.7545214843	0.0224109422
1498.6833288574	0.0249775480
1500.6121362304	0.0255736448
1502.5409436035	0.0271563008
1504.4697509765	0.0258124657
1506.3985583496	0.0202664584
1508.3273657226	0.0238109790
1510.2561730957	0.0269001164
1512.1849804687	0.0261494257
1514.1137878418	0.0278503951
1516.0425952148	0.0258120056
1517.9714025879	0.0266391486
1519.9002099609	0.0257797614
1521.8290173340	0.0231493395
1523.7578247070	0.0269338880
1525.6866320801	0.0265982933
1527.6154394531	0.0267565399
1529.5442468261	0.0287623070
1531.4730541992	0.0275500938
1533.4018615722	0.0259325132
1535.3306689453	0.0273358040
1537.2594763183	0.0283903368
1539.1882836914	0.0217819121
1541.1170910644	0.0227719601
1543.0458984375	0.0260641053
1544.9747058105	0.0253876597
1546.9035131836	0.0289890841
1548.8323205566	0.0273954272
1550.7611279297	0.0281884912
1552.6899353027	0.0276575573
1554.6187426758	0.0258160755
1556.5475500488	0.0272736251
1558.4763574218	0.0206489731
1560.4051647949	0.0219608806
1562.3339721679	0.0288282372
1564.2627795410	0.0276126824
1566.1915869140	0.0279881973
1568.1203942871	0.0278594196
1570.0492016601	0.0254431590
1571.9780090332	0.0283683389
1573.9068164062	0.0284842066
1575.8356237793	0.0235051587
1577.7644311523	0.0264043994
1579.6932385254	0.0285418164
1581.6220458984	0.0271976218
1583.5508532715	0.0283375215
1585.4796606445	0.0278229304
1587.4084680175	0.0279766191
1589.3372753906	0.0277617350
1591.2660827636	0.0277918875
1593.1948901367	0.0277109928
1595.1236975097	0.0273986533
1597.0525048828	0.0278116949
1598.9813122558	0.0275590252
1600.9101196289	0.0277085081
1602.8389270019	0.0272874925
1604.7677343750	0.0278160125
1606.6965417480	0.0272921342
1608.6253491211	0.0271978825
1610.5541564941	0.0271736234
1612.4829638672	0.0272772200
1614.4117712402	0.0276392158
1616.3405786132	0.0233581290
1618.2693859863	0.0252991989
1620.1981933593	0.0286173709
1622.1270007324	0.0261524655
1624.0558081054	0.0263307802
1625.9846154785	0.0272704531
1627.9134228515	0.0275464579
1629.8422302246	0.0274064150
1631.7710375976	0.0291925333
1633.6998449707	0.0272900797
1635.6286523437	0.0236445591
1637.5574597168	0.0270013660
1639.4862670898	0.0291027855
1641.4150744629	0.0289682318
1643.3438818359	0.0297346972
1645.2726892090	0.0274108611
1647.2014965820	0.0249181632
1649.1303039550	0.0299628116
1651.0591113281	0.0284935720
1652.9879187011	0.0202251188
1654.9167260742	0.0263114218
1656.8455334472	0.0316107050
1658.7743408203	0.0306188278
1660.7031481933	0.0314172432
1662.6319555664	0.0292588081
1664.5607629394	0.0306417905
1666.4895703125	0.0324489661
1668.4183776855	0.0293633826
1670.3471850586	0.0287556797
1672.2759924316	0.0319194421
1674.2047998047	0.0298682377
1676.1336071777	0.0289207958
1678.0624145507	0.0324709639
1679.9912219238	0.0314071849
1681.9200292968	0.0313258320
1683.8488366699	0.0265341178
1685.7776440429	0.0264467523
1687.7064514160	0.0339787193
1689.6352587890	0.0300209131
1691.5640661621	0.0325405002
1693.4928735351	0.0328500271
1695.4216809082	0.0255705211
1697.3504882812	0.0303934813
1699.2792956543	0.0273642465
1701.2081030273	0.0254239552
1703.1369104004	0.0322660021
1705.0657177734	0.0299314000
1706.9945251464	0.0301198121
1708.9233325195	0.0319699049
1710.8521398925	0.0310254283
1712.7809472656	0.0314179361
1714.7097546386	0.0294479318
1716.6385620117	0.0268923286
1718.5673693847	0.0264496654
1720.4961767578	0.0304691568
1722.4249841308	0.0311484933
1724.3537915039	0.0292491242
1726.2825988769	0.0313003808
1728.2114062500	0.0292755440
1730.1402136230	0.0294278897
1732.0690209961	0.0285007041
1733.9978283691	0.0232227128
1735.9266357421	0.0274518635
1737.8554431152	0.0295598097
1739.7842504882	0.0270338915
1741.7130578613	0.0288458802
1743.6418652343	0.0291425176
1745.5706726074	0.0291063804
1747.4994799804	0.0295001045
1749.4282873535	0.0285001006
1751.3570947265	0.0272593200
1753.2859020996	0.0296041947
1755.2147094726	0.0306605007
1757.1435168457	0.0284487810
1759.0723242187	0.0306595247
1761.0011315918	0.0291627347
1762.9299389648	0.0283661075
1764.8587463379	0.0316118076
1766.7875537109	0.0290079191
1768.7163610839	0.0289883092
1770.6451684570	0.0289617293
1772.5739758300	0.0267124958
1774.5027832031	0.0289301760
1776.4315905761	0.0301880464
1778.3603979492	0.0297589097
1780.2892053222	0.0294628255
1782.2180126953	0.0297128148
1784.1468200683	0.0295981746
1786.0756274414	0.0290146768
1788.0044348144	0.0301511493
1789.9332421875	0.0294439942
1791.8620495605	0.0273188092
1793.7908569336	0.0283570290
1795.7196643066	0.0296828002
1797.6484716796	0.0293532461
1799.5772790527	0.0289704278
1801.5060864257	0.0285471305
1803.4348937988	0.0295075998
1805.3637011718	0.0296831504
1807.2925085449	0.0292741433
1809.2213159179	0.0296436120
1811.1501232910	0.0289571565
1813.0789306640	0.0295115486
1815.0077380371	0.0295511726
1816.9365454101	0.0293199494
1818.8653527832	0.0294037983
1820.7941601562	0.0293717571
1822.7229675293	0.0296944492
1824.6517749023	0.0280061327
1826.5805822753	0.0289685801
1828.5093896484	0.0289520733
1830.4381970214	0.0274164192
1832.3670043945	0.0292277522
1834.2958117675	0.0291773826
1836.2246191406	0.0291426219
1838.1534265136	0.0288375076
1840.0822338867	0.0291449688
1842.0110412597	0.0290652588
1843.9398486328	0.0263536926
1845.8686560058	0.0278145373
1847.7974633789	0.0289584268
1849.7262707519	0.0284336824
1851.6550781250	0.0289761275
1853.5838854980	0.0285229124
1855.5126928710	0.0286035500
1857.4415002441	0.0284659974
1859.3703076171	0.0287060887
1861.2991149902	0.0286957808
1863.2279223632	0.0283029117
1865.1567297363	0.0285836495
1867.0855371093	0.0277039595
1869.0143444824	0.0269318447
1870.9431518554	0.0276922248
1872.8719592285	0.0283010434
1874.8007666015	0.0279096775
1876.7295739746	0.0281156674
1878.6583813476	0.0281610601
1880.5871887207	0.0279848501
1882.5159960937	0.0281569660
1884.4448034667	0.0275830142
1886.3736108398	0.0277452469
1888.3024182128	0.0274552591
1890.2312255859	0.0269813482
1892.1600329589	0.0277363583
1894.0888403320	0.0275387354
1896.0176477050	0.0273066647
1897.9464550781	0.0274128318
1899.8752624511	0.0274319798
1901.8040698242	0.0275067985
1903.7328771972	0.0272105075
1905.6616845703	0.0272562969
1907.5904919433	0.0270096157
1909.5192993164	0.0268563163
1911.4481066894	0.0270095523
1913.3769140625	0.0270255283
1915.3057214355	0.0271447767
1917.2345288085	0.0262763090
1919.1633361816	0.0262668058
1921.0921435546	0.0267995708
1923.0209509277	0.0261654742
1924.9497583007	0.0266019888
1926.8785656738	0.0268714130
1928.8073730468	0.0266800616
1930.7361804199	0.0267291963
1932.6649877929	0.0264013670
1934.5937951660	0.0267114881
1936.5226025390	0.0265337452
1938.4514099121	0.0264512375
1940.3802172851	0.0264447145
1942.3090246582	0.0258393250
1944.2378320312	0.0262532942
1946.1666394042	0.0264911130
1948.0954467773	0.0263756923
1950.0242541503	0.0263160840
1951.9530615234	0.0261931494
1953.8818688964	0.0263005495
1955.8106762695	0.0260814913
1957.7394836425	0.0261750668
1959.6682910156	0.0261764787
1961.5970983886	0.0260111298
1963.5259057617	0.0261928067
1965.4547131347	0.0258937962
1967.3835205078	0.0256869905
1969.3123278808	0.0260409880
1971.2411352539	0.0260491278
1973.1699426269	0.0258886255
1975.0987499999	0.0260640755
1977.0275573730	0.0259379260
1978.9563647460	0.0257494319
1980.8851721191	0.0257868282
1982.8139794921	0.0258127637
1984.7427868652	0.0258436203
1986.6715942382	0.0256575011
1988.6004016113	0.0255695693
1990.5292089843	0.0253121592
1992.4580163574	0.0251764469
1994.3868237304	0.0254463851
1996.3156311035	0.0253851246
1998.2444384765	0.0253171269
2000.1732458496	0.0252427794
2002.1020532226	0.0251680203
2004.0308605956	0.0251683332
2005.9596679687	0.0251038019
2007.8884753417	0.0250282027
2009.8172827148	0.0248608813
2011.7460900878	0.0249392688
2013.6748974609	0.0250302292
2015.6037048339	0.0247536935
2017.5325122070	0.0244650356
2019.4613195800	0.0246034153
2021.3901269531	0.0246452875
2023.3189343261	0.0244192220
2025.2477416992	0.0244999602
2027.1765490722	0.0245140698
2029.1053564453	0.0244348980
2031.0341638183	0.0243936181
2032.9629711914	0.0243322402
2034.8917785644	0.0242121760
2036.8205859374	0.0241022650
2038.7493933105	0.0240629725
2040.6782006835	0.0238820296
2042.6070080566	0.0238780044
2044.5358154296	0.0239232183
2046.4646228027	0.0239740331
2048.3934301757	0.0238760039
2050.3222375488	0.0236568078
2052.2510449218	0.0236807056
2054.1798522949	0.0236322843
2056.1086596679	0.0236799344
2058.0374670410	0.0235784594
2059.9662744140	0.0235043690
2061.8950817871	0.0235373005
2063.8238891601	0.0233470593
2065.7526965331	0.0233137012
2067.6815039062	0.0233023167
2069.6103112792	0.0233823061
2071.5391186523	0.0232327953
2073.4679260253	0.0230133124
2075.3967333984	0.0231266767
2077.3255407714	0.0231399052
2079.2543481445	0.0229864996
2081.1831555175	0.0228857342
2083.1119628906	0.0230547786
2085.0407702636	0.0229557194
2086.9695776367	0.0227827914
2088.8983850097	0.0227091350
2090.8271923828	0.0226306766
2092.7559997558	0.0227857307
2094.6848071288	0.0226353053
2096.6136145019	0.0225192755
2098.5424218749	0.0225047674
2100.4712292480	0.0224712603
2102.4000366210	0.0224846378
2104.3288439941	0.0223060362
2106.2576513671	0.0223133583
2108.1864587402	0.0224268921
2110.1152661132	0.0224767923
2112.0440734863	0.0223520435
2113.9728808593	0.0222262479
2115.9016882324	0.0222089067
2117.8304956054	0.0221023671
2119.7593029785	0.0221068673
2121.6881103515	0.0220992453
2123.6169177245	0.0220386274
2125.5457250976	0.0220594741
2127.4745324706	0.0220303386
2129.4033398437	0.0219568498
2131.3321472167	0.0220526829
2133.2609545898	0.0220111497
2135.1897619628	0.0218554344
2137.1185693359	0.0218441263
2139.0473767089	0.0217110422
2140.9761840820	0.0216860808
2142.9049914550	0.0217557810
2144.8337988281	0.0217539817
2146.7626062011	0.0216589198
2148.6914135742	0.0216456130
2150.6202209472	0.0216422025
2152.5490283203	0.0214464180
2154.4778356933	0.0215085093
2156.4066430663	0.0214834847
2158.3354504394	0.0213278346
2160.2642578124	0.0213260502
2162.1930651855	0.0213949196
2164.1218725585	0.0214430429
2166.0506799316	0.0213404335
2167.9794873046	0.0213493854
2169.9082946777	0.0212404840
2171.8371020507	0.0211257823
2173.7659094238	0.0211792663
2175.6947167968	0.0212751254
2177.6235241699	0.0212394483
2179.5523315429	0.0210589468
2181.4811389160	0.0211292021
2183.4099462890	0.0210392922
2185.3387536620	0.0210385267
2187.2675610351	0.0210967250
2189.1963684081	0.0208716393
2191.1251757812	0.0209868550
2193.0539831542	0.0210532285
2194.9827905273	0.0209428351
2196.9115979003	0.0209630132
2198.8404052734	0.0208586939
2200.7692126464	0.0207734890
2202.6980200195	0.0207802001
2204.6268273925	0.0206695609
2206.5556347656	0.0206148401
2208.4844421386	0.0206078775
2210.4132495117	0.0205858685
2212.3420568847	0.0205850191
2214.2708642577	0.0204655565
2216.1996716308	0.0204588659
2218.1284790038	0.0204902254
2220.0572863769	0.0205753855
2221.9860937499	0.0206035972
2223.9149011230	0.0204746127
2225.8437084960	0.0204674006
2227.7725158691	0.0203146655
2229.7013232421	0.0203377921
2231.6301306152	0.0203741416
2233.5589379882	0.0202130452
2235.4877453613	0.0202899445
2237.4165527343	0.0201738179
2239.3453601074	0.0199570395
2241.2741674804	0.0200811923
2243.2029748534	0.0201206319
2245.1317822265	0.0199151281
2247.0605895995	0.0199792497
2248.9893969726	0.0199810565
2250.9182043456	0.0198532566
2252.8470117187	0.0198670272
2254.7758190917	0.0198241472
2256.7046264648	0.0199254528
2258.6334338378	0.0197983086
2260.5622412109	0.0196377821
2262.4910485839	0.0197003186
2264.4198559570	0.0196951590
2266.3486633300	0.0196461193
2268.2774707031	0.0195295028
2270.2062780761	0.0195680577
2272.1350854491	0.0195737295
2274.0638928222	0.0195781160
2275.9927001952	0.0195166580
2277.9215075683	0.0194530711
2279.8503149413	0.0194679350
2281.7791223144	0.0193914529
2283.7079296874	0.0193871390
2285.6367370605	0.0192083754
2287.5655444335	0.0192523766
2289.4943518066	0.0193135366
2291.4231591796	0.0193251744
2293.3519665527	0.0192510746
2295.2807739257	0.0189236794
2297.2095812988	0.0190739874
2299.1383886718	0.0188872442
2301.0671960449	0.0188075528
2302.9960034179	0.0188461766
2304.9248107909	0.0185175799
2306.8536181640	0.0186921302
2308.7824255370	0.0184735879
2310.7112329101	0.0182159059
2312.6400402831	0.0182077717
2314.5688476562	0.0180990584
2316.4976550292	0.0181159731
2318.4264624023	0.0178114660
2320.3552697753	0.0175182894
2322.2840771484	0.0173315536
2324.2128845214	0.0171349905
2326.1416918945	0.0168907363
2328.0704992675	0.0168036446
2329.9993066406	0.0167230926
2331.9281140136	0.0164455511
2333.8569213866	0.0164496135
2335.7857287597	0.0163963381
2337.7145361327	0.0163635351
2339.6433435058	0.0163141377
2341.5721508788	0.0163732227
2343.5009582519	0.0166577548
2345.4297656249	0.0167155191
2347.3585729980	0.0172712505
2349.2873803710	0.0177494660
2351.2161877441	0.0173017550
2353.1449951171	0.0166570619
2355.0738024902	0.0161462538
2357.0026098632	0.0157788917
2358.9314172363	0.0154988114
2360.8602246093	0.0154107679
2362.7890319823	0.0154485023
2364.7178393554	0.0153035130
2366.6466467284	0.0152800307
2368.5754541015	0.0156138726
2370.5042614745	0.0159537904
2372.4330688476	0.0162730925
2374.3618762206	0.0167156793
2376.2906835937	0.0170775689
2378.2194909667	0.0172459520
2380.1482983398	0.0174074546
2382.0771057128	0.0176823549
2384.0059130859	0.0177297313
2385.9347204589	0.0176759511
2387.8635278320	0.0177820474
2389.7923352050	0.0177432727
2391.7211425780	0.0176916905
2393.6499499511	0.0176949836
2395.5787573241	0.0176822711
2397.5075646972	0.0177036207
2399.4363720702	0.0176110100
2401.3651794433	0.0175867863
2403.2939868163	0.0176151730
2405.2227941894	0.0174898133
2407.1516015624	0.0174400490
2409.0804089355	0.0173985176
2411.0092163085	0.0173650794
2412.9380236816	0.0174618922
2414.8668310546	0.0173567496
2416.7956384277	0.0172487181
2418.7244458007	0.0172317252
2420.6532531738	0.0171445236
2422.5820605468	0.0172591973
2424.5108679198	0.0172679536
2426.4396752929	0.0170872360
2428.3684826659	0.0170817804
2430.2972900390	0.0171163417
2432.2260974120	0.0170544349
2434.1549047851	0.0169540569
2436.0837121581	0.0169417169
2438.0125195312	0.0169982053
2439.9413269042	0.0169239752
2441.8701342773	0.0167577844
2443.7989416503	0.0167672038
2445.7277490234	0.0168665238
2447.6565563964	0.0168148391
2449.5853637695	0.0167655572
2451.5141711425	0.0167953800
2453.4429785155	0.0167162251
2455.3717858886	0.0166987814
2457.3005932616	0.0167565122
2459.2294006347	0.0165542290
2461.1582080077	0.0165096484
2463.0870153808	0.0166008268
2465.0158227538	0.0165086351
2466.9446301269	0.0165704526
2468.8734374999	0.0165584944
2470.8022448730	0.0164716803
2472.7310522460	0.0164657235
2474.6598596191	0.0164726526
2476.5886669921	0.0164743681
2478.5174743652	0.0163877234
2480.4462817382	0.0163718611
2482.3750891112	0.0163175873
2484.3038964843	0.0162990317
2486.2327038573	0.0163168758
2488.1615112304	0.0163061675
2490.0903186034	0.0161866583
2492.0191259765	0.0160197504
2493.9479333495	0.0161782689
2495.8767407226	0.0161511265
2497.8055480956	0.0161151085
2499.7343554687	0.0161349773
2501.6631628417	0.0160259604
2503.5919702148	0.0161682926
2505.5207775878	0.0160065070
2507.4495849609	0.0159362145
2509.3783923339	0.0161122419
2511.3071997069	0.0159982797
2513.2360070800	0.0158824511
2515.1648144530	0.0158122741
2517.0936218261	0.0158326160
2519.0224291991	0.0158649459
2520.9512365722	0.0157841127
2522.8800439452	0.0156102078
2524.8088513183	0.0157056991
2526.7376586913	0.0157675967
2528.6664660644	0.0156032369
2530.5952734374	0.0157997683
2532.5240808105	0.0157148354
2534.4528881835	0.0155243864
2536.3816955566	0.0155909704
2538.3105029296	0.0154968202
2540.2393103027	0.0154918907
2542.1681176757	0.0154708726
2544.0969250487	0.0154711679
2546.0257324218	0.0154714203
2547.9545397948	0.0154057760
2549.8833471679	0.0154177938
2551.8121545409	0.0153966919
2553.7409619140	0.0153468288
2555.6697692870	0.0153024271
2557.5985766601	0.0153281000
2559.5273840331	0.0153288282
2561.4561914062	0.0152803799
2563.3849987792	0.0152016962
2565.3138061523	0.0151904691
2567.2426135253	0.0152478479
2569.1714208984	0.0151021611
2571.1002282714	0.0150518510
2573.0290356444	0.0151303131
2574.9578430175	0.0150599442
2576.8866503905	0.0150828641
2578.8154577636	0.0150528224
2580.7442651366	0.0149419997
2582.6730725097	0.0149791781
2584.6018798827	0.0149024036
2586.5306872558	0.0149186850
2588.4594946288	0.0148621174
2590.3883020019	0.0146727683
2592.3171093749	0.0148469377
2594.2459167480	0.0147955716
2596.1747241210	0.0146864811
2598.1035314941	0.0146884406
2600.0323388671	0.0145545267
2601.9611462401	0.0146656167
2603.8899536132	0.0146774445
2605.8187609862	0.0146506689
2607.7475683593	0.0146040823
2609.6763757323	0.0145043675
2611.6051831054	0.0145087261
2613.5339904784	0.0144261550
2615.4627978515	0.0144729260
2617.3916052245	0.0144020915
2619.3204125976	0.0143631371
2621.2492199706	0.0145188868
2623.1780273437	0.0144254975
2625.1068347167	0.0143711120
2627.0356420898	0.0144182425
2628.9644494628	0.0143553521
2630.8932568358	0.0142506873
2632.8220642089	0.0141587080
2634.7508715819	0.0141987354
2636.6796789550	0.0142404735
2638.6084863280	0.0142095573
2640.5372937011	0.0142270681
2642.4661010741	0.0141061693
2644.3949084472	0.0140535273
2646.3237158202	0.0140735433
2648.2525231933	0.0139820240
2650.1813305663	0.0140318368
2652.1101379394	0.0139867701
2654.0389453124	0.0139548983
2655.9677526855	0.0139363669
2657.8965600585	0.0138745066
2659.8253674315	0.0139273684
2661.7541748046	0.0138865914
2663.6829821776	0.0138641074
2665.6117895507	0.0137805268
2667.5405969237	0.0138450135
2669.4694042968	0.0138504431
2671.3982116698	0.0137208346
2673.3270190429	0.0137641821
2675.2558264159	0.0135876331
2677.1846337890	0.0135749560
2679.1134411620	0.0136137865
2681.0422485351	0.0135845821
2682.9710559081	0.0136456471
2684.8998632812	0.0135214925
2686.8286706542	0.0133999195
2688.7574780273	0.0133753568
2690.6862854003	0.0135656130
2692.6150927733	0.0134221222
2694.5439001464	0.0131883770
2696.4727075194	0.0133995572
2698.4015148925	0.0133727444
2700.3303222655	0.0132961953
2702.2591296386	0.0133793140
2704.1879370116	0.0133455107
2706.1167443847	0.0131751560
2708.0455517577	0.0131141040
2709.9743591308	0.0131862303
2711.9031665038	0.0131594986
2713.8319738769	0.0131385587
2715.7607812499	0.0131392330
2717.6895886230	0.0131240590
2719.6183959960	0.0131042115
2721.5472033690	0.0131099559
2723.4760107421	0.0130349081
2725.4048181151	0.0129085891
2727.3336254882	0.0128833856
2729.2624328612	0.0129458513
2731.1912402343	0.0128830820
2733.1200476073	0.0127546992
2735.0488549804	0.0128524192
2736.9776623534	0.0128055969
2738.9064697265	0.0127802882
2740.8352770995	0.0127874659
2742.7640844726	0.0126746995
2744.6928918456	0.0127634704
2746.6216992187	0.0127400737
2748.5505065917	0.0127247907
2750.4793139647	0.0126239648
2752.4081213378	0.0124866059
2754.3369287108	0.0125986636
2756.2657360839	0.0125368070
2758.1945434569	0.0124517223
2760.1233508300	0.0125112198
2762.0521582030	0.0124236550
2763.9809655761	0.0122653544
2765.9097729491	0.0124050919
2767.8385803222	0.0123929176
2769.7673876952	0.0122298254
2771.6961950683	0.0123316757
2773.6250024413	0.0122939069
2775.5538098144	0.0123068765
2777.4826171874	0.0123274373
2779.4114245604	0.0122214053
2781.3402319335	0.0121125281
2783.2690393065	0.0120844617
2785.1978466796	0.0122102536
2787.1266540526	0.0121156890
2789.0554614257	0.0120327873
2790.9842687987	0.0119680306
2792.9130761718	0.0119267665
2794.8418835448	0.0120848455
2796.7706909179	0.0120120924
2798.6994982909	0.0119133610
2800.6283056640	0.0118834265
2802.5571130370	0.0117711984
2804.4859204101	0.0118410829
2806.4147277831	0.0118362438
2808.3435351562	0.0116602611
2810.2723425292	0.0117044300
2812.2011499022	0.0117809772
2814.1299572753	0.0117684193
2816.0587646483	0.0116623193
2817.9875720214	0.0115426341
2819.9163793944	0.0116033144
2821.8451867675	0.0115621090
2823.7739941405	0.0115361102
2825.7028015136	0.0115461349
2827.6316088866	0.0115082860
2829.5604162597	0.0114369988
2831.4892236327	0.0112858079
2833.4180310058	0.0113143027
2835.3468383788	0.0113564394
2837.2756457519	0.0113276346
2839.2044531249	0.0112242289
2841.1332604979	0.0112008899
2843.0620678710	0.0112071447
2844.9908752440	0.0110624731
2846.9196826171	0.0110336374
2848.8484899901	0.0109152272
2850.7772973632	0.0109422030
2852.7061047362	0.0109854080
2854.6349121093	0.0108243795
2856.5637194823	0.0108994208
2858.4925268554	0.0109356679
2860.4213342284	0.0108082369
2862.3501416015	0.0107151326
2864.2789489745	0.0108269211
2866.2077563476	0.0108209513
2868.1365637206	0.0106924549
2870.0653710936	0.0106777698
2871.9941784667	0.0105246156
2873.9229858397	0.0106119821
2875.8517932128	0.0106441630
2877.7806005858	0.0105236210
2879.7094079589	0.0106648440
2881.6382153319	0.0105915982
2883.5670227050	0.0105141457
2885.4958300780	0.0105679231
2887.4246374511	0.0104702339
2889.3534448241	0.0104755219
2891.2822521972	0.0104375724
2893.2110595702	0.0103368498
2895.1398669433	0.0103783095
2897.0686743163	0.0102926400
2898.9974816893	0.0102299303
2900.9262890624	0.0102350228
2902.8550964354	0.0101758949
2904.7839038085	0.0101839751
2906.7127111815	0.0101260915
2908.6415185546	0.0101683959
2910.5703259276	0.0101816813
2912.4991333007	0.0100043211
2914.4279406737	0.0099408608
2916.3567480468	0.0099296737
2918.2855554198	0.0098436866
2920.2143627929	0.0097625330
2922.1431701659	0.0098204408
2924.0719775390	0.0097721219
2926.0007849120	0.0097017456
2927.9295922851	0.0097660813
2929.8583996581	0.0097284634
2931.7872070311	0.0097476263
2933.7160144042	0.0097245239
2935.6448217772	0.0096956873
2937.5736291503	0.0097801778
2939.5024365233	0.0097529516
2941.4312438964	0.0097068436
2943.3600512694	0.0097207129
2945.2888586425	0.0096602608
2947.2176660155	0.0095515596
2949.1464733886	0.0095139761
2951.0752807616	0.0094950255
2953.0040881347	0.0095948800
2954.9328955077	0.0095937699
2956.8617028808	0.0094478624
2958.7905102538	0.0094615463
2960.7193176268	0.0093976399
2962.6481249999	0.0094191879
2964.5769323729	0.0094045792
2966.5057397460	0.0092542004
2968.4345471190	0.0093158688
2970.3633544921	0.0093090087
2972.2921618651	0.0093481699
2974.2209692382	0.0094238743
2976.1497766112	0.0093106134
2978.0785839843	0.0092778439
2980.0073913573	0.0093576722
2981.9361987304	0.0093196295
2983.8650061034	0.0092186406
2985.7938134765	0.0093340306
2987.7226208495	0.0093361214
2989.6514282225	0.0092158848
2991.5802355956	0.0091557913
2993.5090429686	0.0090443064
2995.4378503417	0.0092317723
2997.3666577147	0.0092266519
2999.2954650878	0.0089958236
3001.2242724608	0.0090744542
3003.1530798339	0.0089804996
3005.0818872069	0.0089019528
3007.0106945800	0.0088985264
3008.9395019530	0.0088368393
3010.8683093261	0.0088775866
3012.7971166991	0.0088547301
3014.7259240722	0.0089312755
3016.6547314452	0.0088191051
3018.5835388182	0.0087802419
3020.5123461913	0.0089377183
3022.4411535643	0.0086647337
3024.3699609374	0.0086674057
3026.2987683104	0.0088004358
3028.2275756835	0.0086477362
3030.1563830565	0.0087353680
3032.0851904296	0.0087383911
3034.0139978026	0.0086366227
3035.9428051757	0.0085284393
3037.8716125487	0.0084282923
3039.8004199218	0.0085345171
3041.7292272948	0.0085172951
3043.6580346679	0.0084616244
3045.5868420409	0.0084817279
3047.5156494139	0.0084140506
3049.4444567870	0.0084102713
3051.3732641600	0.0084025413
3053.3020715331	0.0083563086
3055.2308789061	0.0083180889
3057.1596862792	0.0082657617
3059.0884936522	0.0082743522
3061.0173010253	0.0081728138
3062.9461083983	0.0080888364
3064.8749157714	0.0081384182
3066.8037231444	0.0080893654
3068.7325305175	0.0081211310
3070.6613378905	0.0081101004
3072.5901452636	0.0080391355
3074.5189526366	0.0081543531
3076.4477600097	0.0081415679
3078.3765673827	0.0080113960
3080.3053747557	0.0079346281
3082.2341821288	0.0079565533
3084.1629895018	0.0079935472
3086.0917968749	0.0079976758
3088.0206042479	0.0080086188
3089.9494116210	0.0078481259
3091.8782189940	0.0078899544
3093.8070263671	0.0078928573
3095.7358337401	0.0077369334
3097.6646411132	0.0078524612
3099.5934484862	0.0077082720
3101.5222558593	0.0077234386
3103.4510632323	0.0078120623
3105.3798706054	0.0075365095
3107.3086779784	0.0075991456
3109.2374853514	0.0076345750
3111.1662927245	0.0075813197
3113.0951000975	0.0075517138
3115.0239074706	0.0074384557
3116.9527148436	0.0075514382
3118.8815222167	0.0075978618
3120.8103295897	0.0074776807
3122.7391369628	0.0074565532
3124.6679443358	0.0075246422
3126.5967517089	0.0074212081
3128.5255590819	0.0074019488
3130.4543664550	0.0073676985
3132.3831738280	0.0072860061
3134.3119812011	0.0075049913
3136.2407885741	0.0074021397
3138.1695959471	0.0073291152
3140.0984033202	0.0072773974
3142.0272106932	0.0071271742
3143.9560180663	0.0073173465
3145.8848254393	0.0072155250
3147.8136328124	0.0072683585
3149.7424401854	0.0072768899
3151.6712475585	0.0070871487
3153.6000549315	0.0072098505
3155.5288623046	0.0071476796
3157.4576696776	0.0072026392
3159.3864770507	0.0070684412
3161.3152844237	0.0068937046
3163.2440917968	0.0070272055
3165.1728991698	0.0069060707
3167.1017065428	0.0069626775
3169.0305139159	0.0070178146
3170.9593212889	0.0069375494
3172.8881286620	0.0069678291
3174.8169360350	0.0069680014
3176.7457434081	0.0069674253
3178.6745507811	0.0068896655
3180.6033581542	0.0069052475
3182.5321655272	0.0068381224
3184.4609729003	0.0068073217
3186.3897802733	0.0070172371
3188.3185876464	0.0069648772
3190.2473950194	0.0068507255
3192.1762023925	0.0068759969
3194.1050097655	0.0068765460
3196.0338171386	0.0068192133
3197.9626245116	0.0067604468
3199.8914318846	0.0068994309
3201.8202392577	0.0069113821
3203.7490466307	0.0067682415
3205.6778540038	0.0067908345
3207.6066613768	0.0067898259
3209.5354687499	0.0067851380
3211.4642761229	0.0068577477
3213.3930834960	0.0068383664
3215.3218908690	0.0067659374
3217.2506982421	0.0068146982
3219.1795056151	0.0067955060
3221.1083129882	0.0067816097
3223.0371203612	0.0069278642
3224.9659277343	0.0067747082
3226.8947351073	0.0066862437
3228.8235424803	0.0068160542
3230.7523498534	0.0067334673
3232.6811572264	0.0067444351
3234.6099645995	0.0067954492
3236.5387719725	0.0069000777
3238.4675793456	0.0069690389
3240.3963867186	0.0067700874
3242.3251940917	0.0066950927
3244.2540014647	0.0067760996
3246.1828088378	0.0068402593
3248.1116162108	0.0068809213
3250.0404235839	0.0069495440
3251.9692309569	0.0068884660
3253.8980383300	0.0067766719
3255.8268457030	0.0068561891
3257.7556530760	0.0069060950
3259.6844604491	0.0069546802
3261.6132678221	0.0068944828
3263.5420751952	0.0068315417
3265.4708825682	0.0069908015
3267.3996899413	0.0070038745
3269.3284973143	0.0069276183
3271.2573046874	0.0069185859
3273.1861120604	0.0068753483
3275.1149194335	0.0068466812
3277.0437268065	0.0069056368
3278.9725341796	0.0069129178
3280.9013415526	0.0069115460
3282.8301489257	0.0069985390
3284.7589562987	0.0069965636
3286.6877636717	0.0070108464
3288.6165710448	0.0069934442
3290.5453784178	0.0069704424
3292.4741857909	0.0069636395
3294.4029931639	0.0069614919
3296.3318005370	0.0070471587
3298.2606079100	0.0069481139
3300.1894152831	0.0070086988
3302.1182226561	0.0070784092
3304.0470300292	0.0069822753
3305.9758374022	0.0070508197
3307.9046447753	0.0069323163
3309.8334521483	0.0069573484
3311.7622595214	0.0070338133
3313.6910668944	0.0069796536
3315.6198742675	0.0070736338
3317.5486816405	0.0070784995
3319.4774890135	0.0071481951
3321.4062963866	0.0070909355
3323.3351037596	0.0070832185
3325.2639111327	0.0072488440
3327.1927185057	0.0071457550
3329.1215258788	0.0070687397
3331.0503332518	0.0070458436
3332.9791406249	0.0070702038
3334.9079479979	0.0071060406
3336.8367553710	0.0070607015
3338.7655627440	0.0071752574
3340.6943701171	0.0071972357
3342.6231774901	0.0070816646
3344.5519848632	0.0071376152
3346.4807922362	0.0071750209
3348.4095996092	0.0071486356
3350.3384069823	0.0072248122
3352.2672143553	0.0072214017
3354.1960217284	0.0071940296
3356.1248291014	0.0072368002
3358.0536364745	0.0072626704
3359.9824438475	0.0072489898
3361.9112512206	0.0072578434
3363.8400585936	0.0073173037
3365.7688659667	0.0072543588
3367.6976733397	0.0073037581
3369.6264807128	0.0073951045
3371.5552880858	0.0073489686
3373.4840954589	0.0073999707
3375.4129028319	0.0074533345
3377.3417102049	0.0075010420
3379.2705175780	0.0074455985
3381.1993249510	0.0073879370
3383.1281323241	0.0074697579
3385.0569396971	0.0074417260
3386.9857470702	0.0074428953
3388.9145544432	0.0075834841
3390.8433618163	0.0075320145
3392.7721691893	0.0074326592
3394.7009765624	0.0075212028
3396.6297839354	0.0074682562
3398.5585913085	0.0075401021
3400.4873986815	0.0076053413
3402.4162060546	0.0075464188
3404.3450134276	0.0076881666
3406.2738208006	0.0076295864
3408.2026281737	0.0076729530
3410.1314355467	0.0076700915
3412.0602429198	0.0076350244
3413.9890502928	0.0078295525
3415.9178576659	0.0076995473
3417.8466650389	0.0077431956
3419.7754724120	0.0078236852
3421.7042797850	0.0076947054
3423.6330871581	0.0077759014
3425.5618945311	0.0078541422
3427.4907019042	0.0078569017
3429.4195092772	0.0078959428
3431.3483166503	0.0079613421
3433.2771240233	0.0079142582
3435.2059313963	0.0079375356
3437.1347387694	0.0079842582
3439.0635461424	0.0079821860
3440.9923535155	0.0079157222
3442.9211608885	0.0078048962
3444.8499682616	0.0080062365
3446.7787756346	0.0080321021
3448.7075830077	0.0079173185
3450.6363903807	0.0080227926
3452.5651977538	0.0080570877
3454.4940051268	0.0080925673
3456.4228124999	0.0080957897
3458.3516198729	0.0080807153
3460.2804272460	0.0081039686
3462.2092346190	0.0081168897
3464.1380419921	0.0081479223
3466.0668493651	0.0080983397
3467.9956567381	0.0080763455
3469.9244641112	0.0082216924
3471.8532714842	0.0082529727
3473.7820788573	0.0081579927
3475.7108862303	0.0081856232
3477.6396936034	0.0082303751
3479.5685009764	0.0082457773
3481.4973083495	0.0082273632
3483.4261157225	0.0082279425
3485.3549230956	0.0082923993
3487.2837304686	0.0083114970
3489.2125378417	0.0082872342
3491.1413452147	0.0083088400
3493.0701525878	0.0082919020
3494.9989599608	0.0082409913
3496.9277673338	0.0083015077
3498.8565747069	0.0082822936
3500.7853820799	0.0082974788
3502.7141894530	0.0082861632
3504.6429968260	0.0082385652
3506.5718041991	0.0083652660
3508.5006115721	0.0083705001
3510.4294189452	0.0083845258
3512.3582263182	0.0083608963
3514.2870336913	0.0083680041
3516.2158410643	0.0084141381
3518.1446484374	0.0083599482
3520.0734558104	0.0084717590
3522.0022631835	0.0084213605
3523.9310705565	0.0083309896
3525.8598779295	0.0083883982
3527.7886853026	0.0083545409
3529.7174926756	0.0082964348
3531.6463000487	0.0084501831
3533.5751074217	0.0085947942
3535.5039147948	0.0083975047
3537.4327221678	0.0083434395
3539.3615295409	0.0084462203
3541.2903369139	0.0084409565
3543.2191442870	0.0083248019
3545.1479516600	0.0082162376
3547.0767590331	0.0082176309
3549.0055664061	0.0083401073
3550.9343737792	0.0084087551
3552.8631811522	0.0082722930
3554.7919885252	0.0083852429
3556.7207958983	0.0084547419
3558.6496032713	0.0083983187
3560.5784106444	0.0082746036
3562.5072180174	0.0083149876
3564.4360253905	0.0084832255
3566.3648327635	0.0079074949
3568.2936401366	0.0078074001
3570.2224475096	0.0082567576
3572.1512548827	0.0083582606
3574.0800622557	0.0083869267
3576.0088696288	0.0083432999
3577.9376770018	0.0084118284
3579.8664843749	0.0082639139
3581.7952917479	0.0082550608
3583.7240991210	0.0084156953
3585.6529064940	0.0081417207
3587.5817138670	0.0076626688
3589.5105212401	0.0078145834
3591.4393286131	0.0083686262
3593.3681359862	0.0081057083
3595.2969433592	0.0079489108
3597.2257507323	0.0081565324
3599.1545581053	0.0081422003
3601.0833654784	0.0081823906
3603.0121728514	0.0081861084
3604.9409802245	0.0081890076
3606.8697875975	0.0079726446
3608.7985949706	0.0076707788
3610.7274023436	0.0077929571
3612.6562097167	0.0078898044
3614.5850170897	0.0078285225
3616.5138244627	0.0081346165
3618.4426318358	0.0076310989
3620.3714392088	0.0074601122
3622.3002465819	0.0081366785
3624.2290539549	0.0079982011
3626.1578613280	0.0082584247
3628.0866687010	0.0072632404
3630.0154760741	0.0067701158
3631.9442834471	0.0080848830
3633.8730908202	0.0078510912
3635.8018981932	0.0080066137
3637.7307055663	0.0080564218
3639.6595129393	0.0078941621
3641.5883203124	0.0081255892
3643.5171276854	0.0078424215
3645.4459350584	0.0079089897
3647.3747424315	0.0072907745
3649.3035498045	0.0067998292
3651.2323571776	0.0070015835
3653.1611645506	0.0078336466
3655.0899719237	0.0077928845
3657.0187792967	0.0071538072
3658.9475866698	0.0078864498
3660.8763940428	0.0078046685
3662.8052014159	0.0078897551
3664.7340087889	0.0078157457
3666.6628161620	0.0076814936
3668.5916235350	0.0074921651
3670.5204309081	0.0063218921
3672.4492382811	0.0073150033
3674.3780456541	0.0070425617
3676.3068530272	0.0060952138
3678.2356604002	0.0072980737
3680.1644677733	0.0073715756
3682.0932751463	0.0073689553
3684.0220825194	0.0075281104
3685.9508898924	0.0073216320
3687.8796972655	0.0066420278
3689.8085046385	0.0063210614
3691.7373120116	0.0069596949
3693.6661193846	0.0069968626
3695.5949267577	0.0071832244
3697.5237341307	0.0071306811
3699.4525415038	0.0071355980
3701.3813488768	0.0070146439
3703.3101562499	0.0067833601
3705.2389636229	0.0072949096
3707.1677709959	0.0068873744
3709.0965783690	0.0067636436
3711.0253857420	0.0064443834
3712.9541931151	0.0061595459
3714.8830004881	0.0069551701
3716.8118078612	0.0067666098
3718.7406152342	0.0068260971
3720.6694226073	0.0066890754
3722.5982299803	0.0064541316
3724.5270373534	0.0066158557
3726.4558447264	0.0062338794
3728.3846520995	0.0066542285
3730.3134594725	0.0065379199
3732.2422668456	0.0060891816
3734.1710742186	0.0060158074
3736.0998815916	0.0057605850
3738.0286889647	0.0059823180
3739.9574963377	0.0063835476
3741.8863037108	0.0065988144
3743.8151110838	0.0054187141
3745.7439184569	0.0051887715
3747.6727258299	0.0063611730
3749.6015332030	0.0056652562
3751.5303405760	0.0052210111
3753.4591479491	0.0058068782
3755.3879553221	0.0062146946
3757.3167626952	0.0063722515
3759.2455700682	0.0059847510
3761.1743774413	0.0061439248
3763.1031848143	0.0063149054
3765.0319921873	0.0059777009
3766.9607995604	0.0061648842
3768.8896069334	0.0060713543
3770.8184143065	0.0058455020
3772.7472216795	0.0061791316
3774.6760290526	0.0061727697
3776.6048364256	0.0062042922
3778.5336437987	0.0060544470
3780.4624511717	0.0058503561
3782.3912585448	0.0061250767
3784.3200659178	0.0060369400
3786.2488732909	0.0059914696
3788.1776806639	0.0060141310
3790.1064880370	0.0059680007
3792.0352954100	0.0060375081
3793.9641027830	0.0061122430
3795.8929101561	0.0057357964
3797.8217175291	0.0057308981
3799.7505249022	0.0059312559
3801.6793322752	0.0049893251
3803.6081396483	0.0056139743
3805.5369470213	0.0058661462
3807.4657543944	0.0051050847
3809.3945617674	0.0059086103
3811.3233691405	0.0057213260
3813.2521765135	0.0058682105
3815.1809838866	0.0054508075
3817.1097912596	0.0049371105
3819.0385986327	0.0058656791
3820.9674060057	0.0050311433
3822.8962133787	0.0052125202
3824.8250207518	0.0058540390
3826.7538281248	0.0054006190
3828.6826354979	0.0056548100
3830.6114428709	0.0055186544
3832.5402502440	0.0053956453
3834.4690576170	0.0054379795
3836.3978649901	0.0052764881
3838.3266723631	0.0048592566
3840.2554797362	0.0050533293
3842.1842871092	0.0054729683
3844.1130944823	0.0052052448
3846.0419018553	0.0055069067
3847.9707092284	0.0056082644
3849.8995166014	0.0054448601
3851.8283239745	0.0050001857
3853.7571313475	0.0040749377
3855.6859387205	0.0045605153
3857.6147460936	0.0055040903
3859.5435534666	0.0053510461
3861.4723608397	0.0053086053
3863.4011682127	0.0052225813
3865.3299755858	0.0048981295
3867.2587829588	0.0052677817
3869.1875903319	0.0048958263
3871.1163977049	0.0047219088
3873.0452050780	0.0053262617
3874.9740124510	0.0049079694
3876.9028198241	0.0053073498
3878.8316271971	0.0053818091
3880.7604345702	0.0046411771
3882.6892419432	0.0052725347
3884.6180493162	0.0050683683
3886.5468566893	0.0047013732
3888.4756640623	0.0052966708
3890.4044714354	0.0049946383
3892.3332788084	0.0048145242
3894.2620861815	0.0051817256
3896.1908935545	0.0051869377
3898.1197009276	0.0049777571
3900.0485083006	0.0047793179
3901.9773156737	0.0047361888
3903.9061230467	0.0045929360
3905.8349304198	0.0047533587
3907.7637377928	0.0051449332
3909.6925451659	0.0050246008
3911.6213525389	0.0049884990
3913.5501599119	0.0050526159
3915.4789672850	0.0049152300
3917.4077746580	0.0048131738
3919.3365820311	0.0047982140
3921.2653894041	0.0049022930
3923.1941967772	0.0049157348
3925.1230041502	0.0048708594
3927.0518115233	0.0048659784
3928.9806188963	0.0049256687
3930.9094262694	0.0047819465
3932.8382336424	0.0046873838
3934.7670410155	0.0048756874
3936.6958483885	0.0047712140
3938.6246557616	0.0048548654
3940.5534631346	0.0049111042
3942.4822705076	0.0047053108
3944.4110778807	0.0047805514
3946.3398852537	0.0047316975
3948.2686926268	0.0046734349
3950.1974999998	0.0046591694
3952.1263073729	0.0046885111
3954.0551147459	0.0047539584
3955.9839221190	0.0046699233
3957.9127294920	0.0046723848
3959.8415368651	0.0046732407
3961.7703442381	0.0047062924
3963.6991516112	0.0046735201
3965.6279589842	0.0046969000
3967.5567663573	0.0047756545
3969.4855737303	0.0046379454
3971.4143811034	0.0045869048
3973.3431884764	0.0045905421
3975.2719958494	0.0046045161
3977.2008032225	0.0046150461
3979.1296105955	0.0046069133
3981.0584179686	0.0045389179
3982.9872253416	0.0045025768
3984.9160327147	0.0045794919
3986.8448400877	0.0045116278
3988.7736474608	0.0044970666
3990.7024548338	0.0044746706
3992.6312622069	0.0045768181
3994.5600695799	0.0045972541
3996.4888769530	0.0043778736
3998.4176843260	0.0044331588
4000.3464916991	0.0044032065
4002.2752990721	0.0044832397
4004.2041064451	0.0045251129
4006.1329138182	0.0043874150
4008.0617211912	0.0044617793
4009.9905285643	0.0044069579
4011.9193359373	0.0044203866
4013.8481433104	0.0043931389
4015.7769506834	0.0043243365
4017.7057580565	0.0043259645
4019.6345654295	0.0043201912
4021.5633728026	0.0043763779
4023.4921801756	0.0043185791
4025.4209875487	0.0043176077
4027.3497949217	0.0042587165
4029.2786022948	0.0042940900
4031.2074096678	0.0043028891
4033.1362170408	0.0041644848
4035.0650244139	0.0042355200
4036.9938317869	0.0042109694
4038.9226391600	0.0042033512
4040.8514465330	0.0042467522
4042.7802539061	0.0041869017
4044.7090612791	0.0040976414
4046.6378686522	0.0041285288
4048.5666760252	0.0041785343
4050.4954833983	0.0040901280
4052.4242907713	0.0041743149
4054.3530981444	0.0041955365
4056.2819055174	0.0041062664
4058.2107128905	0.0040922202
4060.1395202635	0.0041482961
4062.0683276365	0.0041602273
4063.9971350096	0.0040999511
4065.9259423826	0.0041343411
4067.8547497557	0.0040938193
4069.7835571287	0.0040597143
4071.7123645018	0.0040123975
4073.6411718748	0.0040753530
4075.5699792479	0.0041067218
4077.4987866209	0.0039497893
4079.4275939940	0.0039723627
4081.3564013670	0.0040190741
4083.2852087401	0.0040463470
4085.2140161131	0.0039572166
4087.1428234862	0.0039502485
4089.0716308592	0.0039927941
4091.0004382323	0.0039210757
4092.9292456053	0.0039573256
4094.8580529783	0.0039004122
4096.7868603514	0.0039286888
4098.7156677244	0.0038446649
4100.6444750975	0.0037480206
4102.5732824705	0.0038803110
4104.5020898436	0.0039023531
4106.4308972166	0.0038952520
4108.3597045897	0.0038360041
4110.2885119627	0.0038084323
4112.2173193358	0.0038059598
4114.1461267088	0.0038070264
4116.0749340819	0.0037798088
4118.0037414549	0.0037540449
4119.9325488280	0.0037597127
4121.8613562010	0.0037580591
4123.7901635740	0.0038539325
4125.7189709471	0.0037981588
4127.6477783201	0.0037627937
4129.5765856932	0.0037542202
4131.5053930662	0.0037294179
4133.4342004393	0.0037207832
4135.3630078123	0.0036868493
4137.2918151854	0.0037544772
4139.2206225584	0.0036407022
4141.1494299315	0.0036514837
4143.0782373045	0.0037036790
4145.0070446776	0.0036403928
4146.9358520506	0.0036274209
4148.8646594237	0.0035441653
4150.7934667967	0.0035999352
4152.7222741697	0.0036248392
4154.6510815428	0.0036326791
4156.5798889158	0.0036343141
4158.5086962889	0.0036183032
4160.4375036619	0.0035738004
4162.3663110350	0.0035268709
4164.2951184080	0.0035822438
4166.2239257811	0.0035373904
4168.1527331541	0.0035954430
4170.0815405272	0.0035020420
4172.0103479002	0.0034319381
4173.9391552733	0.0035535078
4175.8679626463	0.0034724255
4177.7967700194	0.0034335484
4179.7255773924	0.0034423030
4181.6543847654	0.0035241004
4183.5831921385	0.0035387017
4185.5119995115	0.0035087336
4187.4408068846	0.0035020080
4189.3696142576	0.0034564668
4191.2984216307	0.0034445040
4193.2272290037	0.0033430876
4195.1560363768	0.0034036776
4197.0848437498	0.0034217415
4199.0136511229	0.0033228938
4200.9424584959	0.0033693409
4202.8712658690	0.0034439038
4204.8000732420	0.0033372375
4206.7288806151	0.0032586879
4208.6576879881	0.0034226831
4210.5864953611	0.0033197175
4212.5153027342	0.0032762089
4214.4441101072	0.0033389779
4216.3729174803	0.0033075961
4218.3017248533	0.0033589797
4220.2305322264	0.0032870946
4222.1593395994	0.0033375595
4224.0881469725	0.0032875580
4226.0169543455	0.0033068564
4227.9457617186	0.0033429824
4229.8745690916	0.0031715380
4231.8033764647	0.0032875356
4233.7321838377	0.0032406896
4235.6609912108	0.0031758272
4237.5897985838	0.0032382528
4239.5186059569	0.0032444862
4241.4474133299	0.0032998270
4243.3762207029	0.0031714640
4245.3050280760	0.0031692323
4247.2338354490	0.0032055476
4249.1626428221	0.0031244573
4251.0914501951	0.0030847501
4253.0202575682	0.0031226808
4254.9490649412	0.0032052775
4256.8778723143	0.0030983607
4258.8066796873	0.0030786991
4260.7354870604	0.0031377063
4262.6642944334	0.0031253290
4264.5931018065	0.0031244853
4266.5219091795	0.0030858535
4268.4507165526	0.0031232245
4270.3795239256	0.0030825790
4272.3083312986	0.0030756581
4274.2371386717	0.0031276634
4276.1659460447	0.0030061351
4278.0947534178	0.0029917771
4280.0235607908	0.0030478700
4281.9523681639	0.0030118746
4283.8811755369	0.0030469028
4285.8099829100	0.0030995067
4287.7387902830	0.0029968442
4289.6675976561	0.0029566265
4291.5964050291	0.0029978058
4293.5252124022	0.0028998957
4295.4540197752	0.0029149237
4297.3828271483	0.0029980326
4299.3116345213	0.0030411123
4301.2404418943	0.0030051006
4303.1692492674	0.0028776852
4305.0980566404	0.0029493324
4307.0268640135	0.0029714028
4308.9556713865	0.0028969664
4310.8844787596	0.0029196148
4312.8132861326	0.0028864092
4314.7420935057	0.0028221717
4316.6709008787	0.0028373902
4318.5997082518	0.0029396662
4320.5285156248	0.0029701579
4322.4573229979	0.0028800373
4324.3861303709	0.0027999803
4326.3149377440	0.0028451323
4328.2437451170	0.0028284518
4330.1725524900	0.0027791839
4332.1013598631	0.0028505062
4334.0301672361	0.0027850172
4335.9589746092	0.0027851143
4337.8877819822	0.0028108405
4339.8165893553	0.0027825325
4341.7453967283	0.0028732205
4343.6742041014	0.0027760519
4345.6030114744	0.0026920128
4347.5318188475	0.0027558920
4349.4606262205	0.0027400460
4351.3894335936	0.0027110190
4353.3182409666	0.0027352357
4355.2470483397	0.0027626285
4357.1758557127	0.0026833843
4359.1046630858	0.0026152469
4361.0334704588	0.0026538831
4362.9622778318	0.0027067647
4364.8910852049	0.0026862726
4366.8198925779	0.0026722697
4368.7486999510	0.0027266447
4370.6775073240	0.0026784674
4372.6063146971	0.0026577963
4374.5351220701	0.0026969132
4376.4639294432	0.0026008799
4378.3927368162	0.0026296810
4380.3215441893	0.0027331202
4382.2503515623	0.0026478868
4384.1791589354	0.0025905403
4386.1079663084	0.0025627478
4388.0367736815	0.0025257047
4389.9655810545	0.0025815261
4391.8943884275	0.0026003080
4393.8231958006	0.0025297950
4395.7520031736	0.0025269878
4397.6808105467	0.0025447533
4399.6096179197	0.0025117723
4401.5384252928	0.0026069768
4403.4672326658	0.0026062226
4405.3960400389	0.0025270926
4407.3248474119	0.0025487049
4409.2536547850	0.0024947408
4411.1824621580	0.0025404454
4413.1112695311	0.0025637674
4415.0400769041	0.0024855118
4416.9688842772	0.0024751681
4418.8976916502	0.0024889633
4420.8264990232	0.0024952979
4422.7553063963	0.0024474878
4424.6841137693	0.0024579260
4426.6129211424	0.0024890243
4428.5417285154	0.0024706218
4430.4705358885	0.0024027070
4432.3993432615	0.0023949929
4434.3281506346	0.0024580078
4436.2569580076	0.0024689059
4438.1857653807	0.0024739415
4440.1145727537	0.0024010744
4442.0433801268	0.0023827180
4443.9721874998	0.0023922997
4445.9009948729	0.0024332050
4447.8298022459	0.0024558199
4449.7586096189	0.0023281388
4451.6874169920	0.0023418949
4453.6162243650	0.0023383261
4455.5450317381	0.0023514796
4457.4738391111	0.0024025561
4459.4026464842	0.0023124504
4461.3314538572	0.0023148465
4463.2602612303	0.0023480770
4465.1890686033	0.0023367743
4467.1178759764	0.0023563511
4469.0466833494	0.0023496989
4470.9754907225	0.0022855098
4472.9042980955	0.0023174435
4474.8331054686	0.0023064767
4476.7619128416	0.0022690301
4478.6907202147	0.0023443748
4480.6195275877	0.0023203923
4482.5483349607	0.0023347577
4484.4771423338	0.0023226726
4486.4059497068	0.0023159417
4488.3347570799	0.0023056499
4490.2635644529	0.0022070932
4492.1923718260	0.0022406513
4494.1211791990	0.0022334487
4496.0499865721	0.0022475650
4497.9787939451	0.0022472250
4499.9076013182	0.0021901703
4501.8364086912	0.0022165515
4503.7652160643	0.0022392469
4505.6940234373	0.0022349567
4507.6228308104	0.0022386299
4509.5516381834	0.0022675088
4511.4804455564	0.0021720510
4513.4092529295	0.0022038554
4515.3380603025	0.0023132432
4517.2668676756	0.0022388294
4519.1956750486	0.0021352298
4521.1244824217	0.0020866743
4523.0532897947	0.0021459707
4524.9820971678	0.0021371595
4526.9109045408	0.0021866739
4528.8397119139	0.0021557424
4530.7685192869	0.0021235733
4532.6973266600	0.0022256770
4534.6261340330	0.0020250939
4536.5549414061	0.0019879867
4538.4837487791	0.0020622611
4540.4125561521	0.0020812773
4542.3413635252	0.0021500699
4544.2701708982	0.0020513562
4546.1989782713	0.0020997874
4548.1277856443	0.0021091681
4550.0565930174	0.0020719492
4551.9854003904	0.0020855172
4553.9142077635	0.0020249763
4555.8430151365	0.0020508945
4557.7718225096	0.0020131310
4559.7006298826	0.0020052323
4561.6294372557	0.0020503765
4563.5582446287	0.0020764484
4565.4870520018	0.0020855400
4567.4158593748	0.0020076456
4569.3446667478	0.0020325989
4571.2734741209	0.0020318904
4573.2022814939	0.0019458851
4575.1310888670	0.0019819625
4577.0598962400	0.0020036534
4578.9887036131	0.0019828957
4580.9175109861	0.0020312625
4582.8463183592	0.0020110090
4584.7751257322	0.0019467745
4586.7039331053	0.0019630892
4588.6327404783	0.0019677088
4590.5615478514	0.0020272601
4592.4903552244	0.0020380549
4594.4191625975	0.0019154177
4596.3479699705	0.0019671863
4598.2767773435	0.0019678585
4600.2055847166	0.0018454710
4602.1343920896	0.0019405526
4604.0631994627	0.0019866829
4605.9920068357	0.0019100029
4607.9208142088	0.0018565778
4609.8496215818	0.0017979112
4611.7784289549	0.0018376734
4613.7072363279	0.0018706520
4615.6360437010	0.0018267436
4617.5648510740	0.0018516849
4619.4936584471	0.0019182174
4621.4224658201	0.0018994083
4623.3512731932	0.0018636601
4625.2800805662	0.0018730783
4627.2088879393	0.0018440445
4629.1376953123	0.0017968439
4631.0665026853	0.0018118853
4632.9953100584	0.0018363914
4634.9241174314	0.0018038554
4636.8529248045	0.0018172099
4638.7817321775	0.0018289753
4640.7105395506	0.0018243159
4642.6393469236	0.0018028805
4644.5681542967	0.0017557007
4646.4969616697	0.0018376242
4648.4257690428	0.0017737732
4650.3545764158	0.0016967073
4652.2833837889	0.0018081688
4654.2121911619	0.0017780426
4656.1409985350	0.0017497580
4658.0698059080	0.0017663394
4659.9986132810	0.0017688069
4661.9274206541	0.0017698200
4663.8562280271	0.0017414186
4665.7850354002	0.0017053755
4667.7138427732	0.0017167507
4669.6426501463	0.0017815386
4671.5714575193	0.0016977363
4673.5002648924	0.0017173272
4675.4290722654	0.0017498019
4677.3578796385	0.0017037829
4679.2866870115	0.0017739453
4681.2154943846	0.0016983830
4683.1443017576	0.0017461827
4685.0731091307	0.0017610209
4687.0019165037	0.0016683794
4688.9307238767	0.0017151702
4690.8595312498	0.0016149445
4692.7883386228	0.0016712883
4694.7171459959	0.0016830843
4696.6459533689	0.0015791508
4698.5747607420	0.0017046183
4700.5035681150	0.0016657396
4702.4323754881	0.0016226780
4704.3611828611	0.0017126058
4706.2899902342	0.0016864578
4708.2187976072	0.0016667461
4710.1476049803	0.0016535204
4712.0764123533	0.0015803275
4714.0052197264	0.0015955609
4715.9340270994	0.0015944140
4717.8628344724	0.0015767500
4719.7916418455	0.0016627624
4721.7204492185	0.0016256080
4723.6492565916	0.0016060481
4725.5780639646	0.0015845314
4727.5068713377	0.0015688960
4729.4356787107	0.0016546566
4731.3644860838	0.0015782057
4733.2932934568	0.0015683214
4735.2221008299	0.0015897076
4737.1509082029	0.0015850379
4739.0797155760	0.0016158684
4741.0085229490	0.0015927684
4742.9373303221	0.0015434657
4744.8661376951	0.0014817310
4746.7949450682	0.0015966173
4748.7237524412	0.0015625359
4750.6525598142	0.0015102188
4752.5813671873	0.0015679535
4754.5101745603	0.0014899203
4756.4389819334	0.0015333846
4758.3677893064	0.0014859445
4760.2965966795	0.0014612651
4762.2254040525	0.0014623664
4764.1542114256	0.0014896565
4766.0830187986	0.0015973768
4768.0118261717	0.0015044515
4769.9406335447	0.0015625486
4771.8694409178	0.0015078026
4773.7982482908	0.0014211425
4775.7270556639	0.0015191007
4777.6558630369	0.0014216647
4779.5846704099	0.0014470750
4781.5134777830	0.0015189401
4783.4422851560	0.0014913187
4785.3710925291	0.0015186558
4787.2998999021	0.0015132000
4789.2287072752	0.0014636815
4791.1575146482	0.0014474936
4793.0863220213	0.0014578006
4795.0151293943	0.0014685940
4796.9439367674	0.0015206672
4798.8727441404	0.0015077163
4800.8015515135	0.0014053080
4802.7303588865	0.0013712377
4804.6591662596	0.0014561729
4806.5879736326	0.0014496768
4808.5167810056	0.0014015409
4810.4455883787	0.0013953617
4812.3743957517	0.0013916332
4814.3032031248	0.0014310231
4816.2320104978	0.0013851856
4818.1608178709	0.0014186563
4820.0896252439	0.0014571982
4822.0184326170	0.0014338221
4823.9472399900	0.0013757452
4825.8760473631	0.0013390356
4827.8048547361	0.0014327171
4829.7336621092	0.0013459396
4831.6624694822	0.0013485411
4833.5912768553	0.0013533314
4835.5200842283	0.0013259307
4837.4488916013	0.0013725980
4839.3776989744	0.0013208673
4841.3065063474	0.0014711376
4843.2353137205	0.0014015692
4845.1641210935	0.0013311040
4847.0929284666	0.0013658139
4849.0217358396	0.0012324813
4850.9505432127	0.0013080697
4852.8793505857	0.0013087036
4854.8081579588	0.0013241426
4856.7369653318	0.0013533337
4858.6657727049	0.0013311725
4860.5945800779	0.0013413022
4862.5233874510	0.0013192857
4864.4521948240	0.0013411015
4866.3810021971	0.0012784773
4868.3098095701	0.0012842305
4870.2386169431	0.0012492093
4872.1674243162	0.0012660180
4874.0962316892	0.0012942965
4876.0250390623	0.0012346152
4877.9538464353	0.0013183759
4879.8826538084	0.0012389603
4881.8114611814	0.0012093859
4883.7402685545	0.0012275067
4885.6690759275	0.0011952471
4887.5978833006	0.0012596790
4889.5266906736	0.0012389333
4891.4554980467	0.0012616466
4893.3843054197	0.0012631258
4895.3131127928	0.0012992227
4897.2419201658	0.0013468890
4899.1707275388	0.0012516296
4901.0995349119	0.0011968749
4903.0283422849	0.0012094761
4904.9571496580	0.0012313863
4906.8859570310	0.0011828279
4908.8147644041	0.0012122511
4910.7435717771	0.0012805433
4912.6723791502	0.0011801645
4914.6011865232	0.0011567727
4916.5299938963	0.0011802568
4918.4588012693	0.0011807790
4920.3876086424	0.0012542398
4922.3164160154	0.0012064381
4924.2452233885	0.0012244319
4926.1740307615	0.0012214021
4928.1028381345	0.0010857403
4930.0316455076	0.0011986113
4931.9604528806	0.0011910670
4933.8892602537	0.0011511326
4935.8180676267	0.0012658439
4937.7468749998	0.0011769868
4939.6756823728	0.0011529361
4941.6044897459	0.0011881044
4943.5332971189	0.0011658447
4945.4621044920	0.0011340301
4947.3909118650	0.0011307138
4949.3197192381	0.0011286438
4951.2485266111	0.0010880467
4953.1773339842	0.0011584370
4955.1061413572	0.0011462448
4957.0349487302	0.0011270202
4958.9637561033	0.0011162219
4960.8925634763	0.0010301474
4962.8213708494	0.0011010914
4964.7501782224	0.0011943385
4966.6789855955	0.0011990982
4968.6077929685	0.0011358969
4970.5366003416	0.0010877044
4972.4654077146	0.0010526940
4974.3942150877	0.0010665355
4976.3230224607	0.0011449130
4978.2518298338	0.0010587537
4980.1806372068	0.0010070717
4982.1094445799	0.0010725443
4984.0382519529	0.0011012692
4985.9670593259	0.0011088571
4987.8958666990	0.0011281352
4989.8246740720	0.0011480808
4991.7534814451	0.0010776781
4993.6822888181	0.0010909742
4995.6110961912	0.0011000623
4997.5399035642	0.0010553251
4999.4687109373	0.0011445910
5001.3975183103	0.0011233457
5003.3263256834	0.0010805103
5005.2551330564	0.0011025688
5007.1839404295	0.0011324622
5009.1127478025	0.0011510765
5011.0415551756	0.0010081370
5012.9703625486	0.0010276223
5014.8991699217	0.0010979540
5016.8279772947	0.0010438684
5018.7567846677	0.0010586169
5020.6855920408	0.0010120854
5022.6143994138	0.0010130811
5024.5432067869	0.0010315293
5026.4720141599	0.0010295254
5028.4008215330	0.0010334390
5030.3296289060	0.0010005680
5032.2584362791	0.0010118901
5034.1872436521	0.0009924711
5036.1160510252	0.0010465333
5038.0448583982	0.0010741241
5039.9736657713	0.0010198583
5041.9024731443	0.0009900234
5043.8312805174	0.0009688343
5045.7600878904	0.0009897763
5047.6888952634	0.0009376892
5049.6177026365	0.0009862848
5051.5465100095	0.0010461655
5053.4753173826	0.0009816174
5055.4041247556	0.0010132657
5057.3329321287	0.0010073718
5059.2617395017	0.0009771953
5061.1905468748	0.0010026862
5063.1193542478	0.0010063190
5065.0481616209	0.0009796086
5066.9769689939	0.0009542755
5068.9057763670	0.0009560257
5070.8345837400	0.0009479336
5072.7633911131	0.0009613137
5074.6921984861	0.0009954306
5076.6210058591	0.0009216336
5078.5498132322	0.0008728200
5080.4786206052	0.0009812026
5082.4074279783	0.0009504594
5084.3362353513	0.0008706171
5086.2650427244	0.0008880852
5088.1938500974	0.0008894649
5090.1226574705	0.0008610416
5092.0514648435	0.0008281170
5093.9802722166	0.0009261282
5095.9090795896	0.0009078443
5097.8378869627	0.0008868515
5099.7666943357	0.0009393569
5101.6955017088	0.0008688982
5103.6243090818	0.0009096271
5105.5531164548	0.0008636940
5107.4819238279	0.0008727837
5109.4107312009	0.0009845439
5111.3395385740	0.0009339123
5113.2683459470	0.0008886337
5115.1971533201	0.0008892672
5117.1259606931	0.0009689277
5119.0547680662	0.0009237679
5120.9835754392	0.0008317045
5122.9123828123	0.0008560025
5124.8411901853	0.0008882900
5126.7699975584	0.0008567824
5128.6988049314	0.0008037835
5130.6276123045	0.0008944818
5132.5564196775	0.0008784960
5134.4852270506	0.0008676278
5136.4140344236	0.0008804730
5138.3428417966	0.0008722948
5140.2716491697	0.0008982136
5142.2004565427	0.0007413650
5144.1292639158	0.0008063960
5146.0580712888	0.0008392265
5147.9868786619	0.0007938799
5149.9156860349	0.0008935491
5151.8444934080	0.0007599585
5153.7733007810	0.0008270639
5155.7021081541	0.0008862749
5157.6309155271	0.0007386816
5159.5597229002	0.0007968235
5161.4885302732	0.0008162305
5163.4173376463	0.0007743551
5165.3461450193	0.0007561479
5167.2749523923	0.0007839618
5169.2037597654	0.0008083467
5171.1325671384	0.0007460567
5173.0613745115	0.0007337084
5174.9901818845	0.0007568351
5176.9189892576	0.0007875522
5178.8477966306	0.0008268633
5180.7766040037	0.0008178058
5182.7054113767	0.0007794645
5184.6342187498	0.0007752859
5186.5630261228	0.0007939835
5188.4918334959	0.0007744471
5190.4206408689	0.0007823287
5192.3494482420	0.0008372925
5194.2782556150	0.0008085587
5196.2070629880	0.0008013803
5198.1358703611	0.0007954999
5200.0646777341	0.0007182806
5201.9934851072	0.0007800220
5203.9222924802	0.0007916813
5205.8510998533	0.0007765552
5207.7799072263	0.0008079944
5209.7087145994	0.0007308749
5211.6375219724	0.0007732776
5213.5663293455	0.0007708282
5215.4951367185	0.0007298949
5217.4239440916	0.0007890804
5219.3527514646	0.0007487405
5221.2815588377	0.0007460042
5223.2103662107	0.0007875125
5225.1391735837	0.0007656391
5227.0679809568	0.0007181549
5228.9967883298	0.0007395342
5230.9255957029	0.0007769886
5232.8544030759	0.0007574382
5234.7832104490	0.0007252478
5236.7120178220	0.0006724626
5238.6408251951	0.0007195667
5240.5696325681	0.0007719327
5242.4984399412	0.0007673528
5244.4272473142	0.0007586599
5246.3560546873	0.0007078982
5248.2848620603	0.0006961045
5250.2136694334	0.0007183969
5252.1424768064	0.0007380007
5254.0712841795	0.0007004726
5256.0000915525	0.0007124312
5257.9288989255	0.0007339698
5259.8577062986	0.0006384043
5261.7865136716	0.0006743033
5263.7153210447	0.0007093188
5265.6441284177	0.0006548388
5267.5729357908	0.0007650782
5269.5017431638	0.0007181654
5271.4305505369	0.0005757174
5273.3593579099	0.0006879950
5275.2881652830	0.0006444769
5277.2169726560	0.0006497364
5279.1457800291	0.0007669476
5281.0745874021	0.0006462666
5283.0033947752	0.0006906503
5284.9322021482	0.0006831194
5286.8610095212	0.0006204104
5288.7898168943	0.0007131904
5290.7186242673	0.0006072293
5292.6474316404	0.0005407286
5294.5762390134	0.0006268799
5296.5050463865	0.0006593486
5298.4338537595	0.0006261662
5300.3626611326	0.0006487620
5302.2914685056	0.0006520757
5304.2202758787	0.0006436963
5306.1490832517	0.0006913948
5308.0778906248	0.0006176647
5310.0066979978	0.0006189481
5311.9355053709	0.0006018177
5313.8643127439	0.0006076397
5315.7931201169	0.0006957187
5317.7219274900	0.0006177344
5319.6507348630	0.0006656200
5321.5795422361	0.0006732753
5323.5083496091	0.0006337237
5325.4371569822	0.0006851126
5327.3659643552	0.0006117182
5329.2947717283	0.0006123194
5331.2235791013	0.0006120499
5333.1523864744	0.0006603136
5335.0811938474	0.0007709860
5337.0100012205	0.0006521919
5338.9388085935	0.0006021804
5340.8676159666	0.0006635034
5342.7964233396	0.0006399143
5344.7252307126	0.0006297518
5346.6540380857	0.0005829255
5348.5828454587	0.0006118715
5350.5116528318	0.0006571508
5352.4404602048	0.0006073429
5354.3692675779	0.0006245873
5356.2980749509	0.0006177833
5358.2268823240	0.0005804652
5360.1556896970	0.0005559239
5362.0844970701	0.0005885037
5364.0133044431	0.0006197987
5365.9421118162	0.0006141684
5367.8709191892	0.0006442796
5369.7997265623	0.0005614491
5371.7285339353	0.0005383621
5373.6573413083	0.0005795552
5375.5861486814	0.0005965311
5377.5149560544	0.0006133226
5379.4437634275	0.0005501894
5381.3725708005	0.0005625185
5383.3013781736	0.0006307820
5385.2301855466	0.0006444086
5387.1589929197	0.0005523726
5389.0878002927	0.0005467057
5391.0166076658	0.0005526527
5392.9454150388	0.0005159177
5394.8742224119	0.0005799890
5396.8030297849	0.0005093370
5398.7318371580	0.0005406854
5400.6606445310	0.0005771082
5402.5894519041	0.0005274781
5404.5182592771	0.0005473840
5406.4470666501	0.0005273207
5408.3758740232	0.0005928692
5410.3046813962	0.0005770028
5412.2334887693	0.0005486491
5414.1622961423	0.0005584453
5416.0911035154	0.0005632656
5418.0199108884	0.0005084550
5419.9487182615	0.0004817795
5421.8775256345	0.0005560234
5423.8063330076	0.0004264763
5425.7351403806	0.0005255704
5427.6639477537	0.0005645832
5429.5927551267	0.0004251516
5431.5215624998	0.0005361340
5433.4503698728	0.0004482440
5435.3791772458	0.0004435370
5437.3079846189	0.0005092520
5439.2367919919	0.0004629333
5441.1655993650	0.0005824661
5443.0944067380	0.0005949392
5445.0232141111	0.0004492038
5446.9520214841	0.0004527147
5448.8808288572	0.0005202367
5450.8096362302	0.0004547117
5452.7384436033	0.0004621802
5454.6672509763	0.0004732915
5456.5960583494	0.0005177268
5458.5248657224	0.0005494120
5460.4536730955	0.0004845963
5462.3824804685	0.0005909370
5464.3112878415	0.0005437875
5466.2400952146	0.0004809905
5468.1689025876	0.0005306213
5470.0977099607	0.0004514393
5472.0265173337	0.0004904217
5473.9553247068	0.0004900850
5475.8841320798	0.0004301767
5477.8129394529	0.0004731172
5479.7417468259	0.0004768755
5481.6705541990	0.0004729314
5483.5993615720	0.0004846343
5485.5281689451	0.0004611440
5487.4569763181	0.0004508878
5489.3857836912	0.0004726917
5491.3145910642	0.0004752621
5493.2433984372	0.0004275746
5495.1722058103	0.0004529845
5497.1010131833	0.0005157423
5499.0298205564	0.0004743570
5500.9586279294	0.0004909557
5502.8874353025	0.0004873572
5504.8162426755	0.0005082527
5506.7450500486	0.0005464591
5508.6738574216	0.0004529933
5510.6026647947	0.0005020852
5512.5314721677	0.0004857192
5514.4602795408	0.0004118059
5516.3890869138	0.0004402250
5518.3178942869	0.0004085458
5520.2467016599	0.0004246017
5522.1755090330	0.0004302880
5524.1043164060	0.0004794854
5526.0331237790	0.0004845388
5527.9619311521	0.0004159500
5529.8907385251	0.0004868438
5531.8195458982	0.0005036495
5533.7483532712	0.0004501641
5535.6771606443	0.0004810613
5537.6059680173	0.0004451826
5539.5347753904	0.0003689436
5541.4635827634	0.0004791805
5543.3923901365	0.0005311110
5545.3211975095	0.0004716814
5547.2500048826	0.0004750691
5549.1788122556	0.0004380564
5551.1076196287	0.0004369548
5553.0364270017	0.0004548840
5554.9652343747	0.0004529339
5556.8940417478	0.0004507852
5558.8228491208	0.0004396960
5560.7516564939	0.0004193761
5562.6804638669	0.0004206959
5564.6092712400	0.0004473166
5566.5380786130	0.0004296459
5568.4668859861	0.0004404921
5570.3956933591	0.0004191903
5572.3245007322	0.0004442477
5574.2533081052	0.0004761663
5576.1821154783	0.0004388434
5578.1109228513	0.0004146328
5580.0397302244	0.0003462680
5581.9685375974	0.0004405928
5583.8973449704	0.0004996427
5585.8261523435	0.0004501411
5587.7549597165	0.0004490391
5589.6837670896	0.0004051790
5591.6125744626	0.0004209935
5593.5413818357	0.0004090215
5595.4701892087	0.0004356189
5597.3989965818	0.0004507869
5599.3278039548	0.0004233386
5601.2566113279	0.0004082722
5603.1854187009	0.0003823939
5605.1142260740	0.0004661946
5607.0430334470	0.0004275130
5608.9718408201	0.0004311818
5610.9006481931	0.0004735158
5612.8294555661	0.0003789906
5614.7582629392	0.0004048135
5616.6870703122	0.0004523080
5618.6158776853	0.0004805533
5620.5446850583	0.0004198813
5622.4734924314	0.0003732941
5624.4022998044	0.0003940322
5626.3311071775	0.0003502835
5628.2599145505	0.0003642401
5630.1887219236	0.0003252634
5632.1175292966	0.0003511055
5634.0463366697	0.0004142582
5635.9751440427	0.0003700687
5637.9039514158	0.0004037347
5639.8327587888	0.0004369457
5641.7615661619	0.0003912254
5643.6903735349	0.0003483328
5645.6191809079	0.0003838381
5647.5479882810	0.0003935408
5649.4767956540	0.0003725581
5651.4056030271	0.0003769861
5653.3344104001	0.0003616810
5655.2632177732	0.0004079577
5657.1920251462	0.0004126415
5659.1208325193	0.0003554409
5661.0496398923	0.0003626998
5662.9784472654	0.0004014354
5664.9072546384	0.0004058498
5666.8360620115	0.0003953748
5668.7648693845	0.0004019553
5670.6936767576	0.0003839007
5672.6224841306	0.0003787970
5674.5512915036	0.0004063395
5676.4800988767	0.0004003081
5678.4089062497	0.0003356070
5680.3377136228	0.0003060123
5682.2665209958	0.0003459018
5684.1953283689	0.0003978384
5686.1241357419	0.0004027563
5688.0529431150	0.0003503466
5689.9817504880	0.0003232403
5691.9105578611	0.0002867008
5693.8393652341	0.0003334753
5695.7681726072	0.0004293700
5697.6969799802	0.0004130279
5699.6257873533	0.0003661152
5701.5545947263	0.0003384104
5703.4834020993	0.0003758462
5705.4122094724	0.0003458821
5707.3410168454	0.0002930728
5709.2698242185	0.0003157763
5711.1986315915	0.0003176481
5713.1274389646	0.0003610485
5715.0562463376	0.0003956287
5716.9850537107	0.0003859165
5718.9138610837	0.0003035613
5720.8426684568	0.0002976894
5722.7714758298	0.0003239153
5724.7002832029	0.0002937354
5726.6290905759	0.0003744432
5728.5578979490	0.0003159370
5730.4867053220	0.0002857818
5732.4155126950	0.0003723986
5734.3443200681	0.0003678054
5736.2731274411	0.0003743354
5738.2019348142	0.0003534369
5740.1307421872	0.0003322086
5742.0595495603	0.0002904383
5743.9883569333	0.0003341618
5745.9171643064	0.0003711477
5747.8459716794	0.0002930438
5749.7747790525	0.0002641291
5751.7035864255	0.0002812549
5753.6323937986	0.0003670674
5755.5612011716	0.0003566744
5757.4900085447	0.0003036074
5759.4188159177	0.0002661223
5761.3476232907	0.0002427826
5763.2764306638	0.0002949759
5765.2052380368	0.0003312876
5767.1340454099	0.0003882337
5769.0628527829	0.0003330626
5770.9916601560	0.0003078872
5772.9204675290	0.0002961420
5774.8492749021	0.0002652234
5776.7780822751	0.0003531344
5778.7068896482	0.0003005469
5780.6356970212	0.0002983416
5782.5645043943	0.0003456566
5784.4933117673	0.0003200923
5786.4221191404	0.0003133135
5788.3509265134	0.0002913409
5790.2797338865	0.0003185740
5792.2085412595	0.0002927642
5794.1373486325	0.0002799072
5796.0661560056	0.0003079856
5797.9949633786	0.0003355636
5799.9237707517	0.0003140849
5801.8525781247	0.0002999879
5803.7813854978	0.0003286996
5805.7101928708	0.0002062416
5807.6390002439	0.0002809986
5809.5678076169	0.0004090650
5811.4966149900	0.0002984389
5813.4254223630	0.0002577658
5815.3542297361	0.0002652215
5817.2830371091	0.0003168586
5819.2118444822	0.0003183754
5821.1406518552	0.0002959509
5823.0694592282	0.0002750649
5824.9982666013	0.0002191022
5826.9270739743	0.0002950343
5828.8558813474	0.0002976618
5830.7846887204	0.0002365217
5832.7134960935	0.0002098410
5834.6423034665	0.0002321511
5836.5711108396	0.0002893562
5838.4999182126	0.0002293909
5840.4287255857	0.0002773408
5842.3575329587	0.0003300728
5844.2863403318	0.0002271350
5846.2151477048	0.0001923730
5848.1439550779	0.0002520384
5850.0727624509	0.0003125306
5852.0015698239	0.0002585205
5853.9303771970	0.0002685559
5855.8591845700	0.0003116163
5857.7879919431	0.0002381598
5859.7167993161	0.0003110597
5861.6456066892	0.0003436221
5863.5744140622	0.0002365505
5865.5032214353	0.0002350143
5867.4320288083	0.0002280616
5869.3608361814	0.0002492153
5871.2896435544	0.0003062917
5873.2184509275	0.0002532030
5875.1472583005	0.0002497783
5877.0760656736	0.0003091508
5879.0048730466	0.0002846580
5880.9336804196	0.0002745630
5882.8624877927	0.0002820346
5884.7912951657	0.0002574405
5886.7201025388	0.0002875222
5888.6489099118	0.0002659236
5890.5777172849	0.0002049920
5892.5065246579	0.0002589565
5894.4353320310	0.0002244331
5896.3641394040	0.0001911803
5898.2929467771	0.0002725383
5900.2217541501	0.0002164720
5902.1505615232	0.0002151753
5904.0793688962	0.0002399444
5906.0081762693	0.0002025788
5907.9369836423	0.0002299136
5909.8657910154	0.0002110360
5911.7945983884	0.0002663099
5913.7234057614	0.0002559349
5915.6522131345	0.0002439826
5917.5810205075	0.0002911423
5919.5098278806	0.0001929130
5921.4386352536	0.0002641652
5923.3674426267	0.0002716799
5925.2962499997	0.0001754818
5927.2250573728	0.0002250508
5929.1538647458	0.0001907781
5931.0826721189	0.0001815351
5933.0114794919	0.0001904960
5934.9402868650	0.0002202943
5936.8690942380	0.0002501476
5938.7979016111	0.0002079715
5940.7267089841	0.0001900890
5942.6555163571	0.0001687648
5944.5843237302	0.0002500943
5946.5131311032	0.0002672634
5948.4419384763	0.0001901733
5950.3707458493	0.0001601646
5952.2995532224	0.0001410241
5954.2283605954	0.0002468113
5956.1571679685	0.0002147863
5958.0859753415	0.0001830641
5960.0147827146	0.0003287293
5961.9435900876	0.0002393780
5963.8723974607	0.0001654128
5965.8012048337	0.0001733432
5967.7300122068	0.0001321149
5969.6588195798	0.0001934449
5971.5876269528	0.0001735518
5973.5164343259	0.0001812136
5975.4452416989	0.0002675006
5977.3740490720	0.0002261800
5979.3028564450	0.0001821556
5981.2316638181	0.0002057609
5983.1604711911	0.0001691518
5985.0892785642	0.0001976785
5987.0180859372	0.0002255029
5988.9468933103	0.0001210238
5990.8757006833	0.0002250212
5992.8045080564	0.0002225957
5994.7333154294	0.0001012903
5996.6621228025	0.0002009576
5998.5909301755	0.0001675070
6000.5197375485	0.0001605503
