399.2631262207	0.0004967596
401.1919335938	0.0008623377
403.1207409668	0.0003309720
405.0495483398	0.0004354533
406.9783557129	0.0004348387
408.9071630859	0.0005090213
410.8359704590	0.0010605764
412.7647778320	-0.0001684675
414.6935852051	0.0001924307
416.6223925781	0.0008253403
418.5511999512	0.0001643756
420.4800073242	0.0007394957
422.4088146973	0.0007716335
424.3376220703	0.0004123901
426.2664294434	0.0004898345
428.1952368164	0.0005469726
430.1240441895	0.0004154713
432.0528515625	0.0004899747
433.9816589355	0.0008821090
435.9104663086	0.0006295507
437.8392736816	0.0002666878
439.7680810547	0.0003434187
441.6968884277	0.0005252541
443.6256958008	0.0005892416
445.5545031738	0.0007666809
447.4833105469	0.0008671689
449.4121179199	0.0007317273
451.3409252930	0.0003485895
453.2697326660	0.0002133323
455.1985400391	0.0006900887
457.1273474121	0.0005376601
459.0561547852	0.0002675161
460.9849621582	0.0002977026
462.9137695313	0.0003929473
464.8425769043	0.0005066081
466.7713842773	0.0002616534
468.7001916504	0.0002907808
470.6289990234	0.0002803197
472.5578063965	0.0002744934
474.4866137695	0.0001701325
476.4154211426	0.0000082986
478.3442285156	0.0001732898
480.2730358887	0.0003599823
482.2018432617	0.0002619528
484.1306506348	-0.0001685073
486.0594580078	0.0003731564
487.9882653809	0.0003929230
489.9170727539	0.0001929993
491.8458801270	0.0004327812
493.7746875000	-0.0000853903
495.7034948730	0.0001253827
497.6323022461	0.0002464419
499.5611096191	0.0002561321
501.4899169922	0.0003177803
503.4187243652	0.0001391286
505.3475317383	0.0002167429
507.2763391113	0.0001449187
509.2051464844	0.0004565992
511.1339538574	0.0002585770
513.0627612305	0.0000583719
514.9915686035	0.0001967262
516.9203759766	0.0001140141
518.8491833496	0.0003878952
520.7779907227	0.0003476578
522.7067980957	0.0003094967
524.6356054688	0.0001779283
526.5644128418	0.0000874215
528.4932202148	0.0002473135
530.4220275879	0.0003519573
532.3508349609	0.0002502934
534.2796423340	-0.0002118129
536.2084497070	-0.0001371349
538.1372570801	0.0000405764
540.0660644531	0.0004659841
541.9948718262	0.0005641336
543.9236791992	-0.0000609417
545.8524865723	0.0002404878
547.7812939453	0.0002318011
549.7101013184	-0.0001783874
551.6389086914	0.0002228918
553.5677160645	0.0002034036
555.4965234375	0.0001764478
557.4253308105	0.0002297256
559.3541381836	-0.0002421934
561.2829455566	0.0000906315
563.2117529297	0.0001702549
565.1405603027	0.0002018443
567.0693676758	0.0004404839
568.9981750488	0.0001814394
570.9269824219	0.0001159304
572.8557897949	-0.0002577217
574.7845971680	0.0000798769
576.7134045410	0.0000436543
578.6422119141	0.0000452544
580.5710192871	0.0006386957
582.4998266602	0.0001325471
584.4286340332	-0.0001514556
586.3574414063	0.0000739936
588.2862487793	0.0004717669
590.2150561523	0.0003670602
592.1438635254	0.0000169786
594.0726708984	-0.0000505530
596.0014782715	-0.0001033090
597.9302856445	0.0002486016
599.8590930176	0.0002630031
601.7879003906	0.0002514559
603.7167077637	0.0002266948
605.6455151367	-0.0000072037
607.5743225098	0.0000280509
609.5031298828	-0.0001144802
611.4319372559	0.0002313689
613.3607446289	0.0003189635
615.2895520020	-0.0000188619
617.2183593750	0.0004262464
619.1471667480	0.0003573415
621.0759741211	0.0001346639
623.0047814941	-0.0000904154
624.9335888672	-0.0003988240
626.8623962402	0.0001711931
628.7912036133	0.0001456707
630.7200109863	0.0002045419
632.6488183594	0.0007575917
634.5776257324	0.0006591969
636.5064331055	0.0006246137
638.4352404785	0.0003185162
640.3640478516	0.0005236238
642.2928552246	0.0008263579
644.2216625977	0.0005689678
646.1504699707	0.0010853261
648.0792773438	0.0010543838
650.0080847168	0.0009165886
651.9368920898	0.0011642291
653.8656994629	0.0009718843
655.7945068359	0.0010805628
657.7233142090	0.0011237590
659.6521215820	0.0012754146
661.5809289551	0.0012834780
663.5097363281	0.0012502482
665.4385437012	0.0016528205
667.3673510742	0.0014707420
669.2961584473	0.0013511106
671.2249658203	0.0015524325
673.1537731934	0.0016000457
675.0825805664	0.0018244043
677.0113879395	0.0019107435
678.9401953125	0.0018175703
680.8690026855	0.0017920451
682.7978100586	0.0019282460
684.7266174316	0.0019913993
686.6554248047	0.0018855205
688.5842321777	0.0019768304
690.5130395508	0.0021075378
692.4418469238	0.0021869470
694.3706542969	0.0022845101
696.2994616699	0.0025306395
698.2282690430	0.0029669246
700.1570764160	0.0030906424
702.0858837891	0.0029844905
704.0146911621	0.0029318915
705.9434985352	0.0026425556
707.8723059082	0.0021013562
709.8011132813	0.0017351027
711.7299206543	0.0014232220
713.6587280273	0.0008669081
715.5875354004	0.0003888951
717.5163427734	0.0004025873
719.4451501465	0.0006051197
721.3739575195	0.0002984745
723.3027648926	0.0002220386
725.2315722656	0.0004284972
727.1603796387	0.0001339235
729.0891870117	0.0000043107
731.0179943848	-0.0000118558
732.9468017578	0.0002559579
734.8756091309	0.0002820566
736.8044165039	-0.0000893894
738.7332238770	0.0001376235
740.6620312500	0.0002136883
742.5908386230	0.0001532476
744.5196459961	0.0001094399
746.4484533691	0.0003256780
748.3772607422	0.0006617288
750.3060681152	0.0003810028
752.2348754883	-0.0000704338
754.1636828613	0.0001239202
756.0924902344	0.0004787456
758.0212976074	0.0003473072
759.9501049805	0.0005904407
761.8789123535	0.0003906668
763.8077197266	-0.0000310879
765.7365270996	0.0002144501
767.6653344727	0.0002642257
769.5941418457	0.0004837172
771.5229492188	0.0004989357
773.4517565918	0.0001664203
775.3805639648	0.0002027225
777.3093713379	0.0005382670
779.2381787109	0.0003177337
781.1669860840	-0.0000598814
783.0957934570	0.0002510106
785.0246008301	0.0004585804
786.9534082031	0.0004466199
788.8822155762	0.0004764288
790.8110229492	0.0005106551
792.7398303223	0.0002009126
794.6686376953	0.0003357374
796.5974450684	0.0004862681
798.5262524414	0.0001666346
800.4550598145	0.0006895722
802.3838671875	0.0007308838
804.3126745605	0.0005525655
806.2414819336	0.0005497138
808.1702893066	0.0003856547
810.0990966797	0.0006172881
812.0279040527	0.0004819013
813.9567114258	0.0003704052
815.8855187988	0.0002148136
817.8143261719	0.0002406241
819.7431335449	0.0002905895
821.6719409180	0.0003180962
823.6007482910	0.0006463015
825.5295556641	0.0004464513
827.4583630371	0.0004976441
829.3871704102	0.0005651223
831.3159777832	0.0005557158
833.2447851563	0.0008213029
835.1735925293	0.0010866597
837.1023999023	0.0010261827
839.0312072754	0.0006748543
840.9600146484	0.0009927204
842.8888220215	0.0010436331
844.8176293945	0.0009323217
846.7464367676	0.0009574598
848.6752441406	0.0007537741
850.6040515137	0.0007945557
852.5328588867	0.0008277465
854.4616662598	0.0006765737
856.3904736328	0.0004649434
858.3192810059	0.0005655258
860.2480883789	0.0004650569
862.1768957520	0.0005809186
864.1057031250	0.0006806116
866.0345104980	0.0004389718
867.9633178711	0.0005010247
869.8921252441	0.0004218139
871.8209326172	0.0005655704
873.7497399902	0.0003277014
875.6785473633	0.0002614858
877.6073547363	0.0005279194
879.5361621094	0.0005001599
881.4649694824	0.0006263645
883.3937768555	0.0004574727
885.3225842285	0.0005343249
887.2513916016	0.0004928227
889.1801989746	0.0004685160
891.1090063477	0.0005646530
893.0378137207	0.0001816145
894.9666210938	0.0003230478
896.8954284668	0.0004940438
898.8242358398	0.0003298586
900.7530432129	0.0002504390
902.6818505859	0.0003301684
904.6106579590	0.0004434680
906.5394653320	0.0005170814
908.4682727051	0.0006087173
910.3970800781	0.0005749579
912.3258874512	0.0006807637
914.2546948242	0.0006592367
916.1835021973	0.0006634759
918.1123095703	0.0007298089
920.0411169434	0.0007986533
921.9699243164	0.0010836623
923.8987316895	0.0010610162
925.8275390625	0.0010257403
927.7563464355	0.0011590505
929.6851538086	0.0014018461
931.6139611816	0.0014917371
933.5427685547	0.0014862760
935.4715759277	0.0016061775
937.4003833008	0.0014741286
939.3291906738	0.0016765683
941.2579980469	0.0018023739
943.1868054199	0.0014450703
945.1156127930	0.0015335513
947.0444201660	0.0017087176
948.9732275391	0.0015846693
950.9020349121	0.0017159756
952.8308422852	0.0015775377
954.7596496582	0.0014390291
956.6884570313	0.0018757966
958.6172644043	0.0015729873
960.5460717773	0.0014031120
962.4748791504	0.0017691271
964.4036865234	0.0015475394
966.3324938965	0.0016188071
968.2613012695	0.0018309315
970.1901086426	0.0018226961
972.1189160156	0.0018344593
974.0477233887	0.0021444247
975.9765307617	0.0024741094
977.9053381348	0.0022540814
979.8341455078	0.0023711089
981.7629528809	0.0026761759
983.6917602539	0.0030085440
985.6205676270	0.0034495634
987.5493750000	0.0036672361
989.4781823730	0.0041432120
991.4069897461	0.0045475047
993.3357971191	0.0049107047
995.2646044922	0.0054804371
997.1934118652	0.0059207389
999.1222192383	0.0064345794
1001.0510266113	0.0069059450
1002.9798339844	0.0073019522
1004.9086413574	0.0078398362
1006.8374487305	0.0081519354
1008.7662561035	0.0085095288
1010.6950634766	0.0091869002
1012.6238708496	0.0095452219
1014.5526782227	0.0099326223
1016.4814855957	0.0105511025
1018.4102929688	0.0110293003
1020.3391003418	0.0115661025
1022.2679077148	0.0120120812
1024.1967150879	0.0123850014
1026.1255224609	0.0128454454
1028.0543298340	0.0132115027
1029.9831372070	0.0135146966
1031.9119445801	0.0139069082
1033.8407519531	0.0140925935
1035.7695593262	0.0141874338
1037.6983666992	0.0146190934
1039.6271740723	0.0147398543
1041.5559814453	0.0143520869
1043.4847888184	0.0141848642
1045.4135961914	0.0143192820
1047.3424035645	0.0140065253
1049.2712109375	0.0135712959
1051.2000183105	0.0135966409
1053.1288256836	0.0132242795
1055.0576330566	0.0128540937
1056.9864404297	0.0125524895
1058.9152478027	0.0119919358
1060.8440551758	0.0119136106
1062.7728625488	0.0114648063
1064.7016699219	0.0109273307
1066.6304772949	0.0107736234
1068.5592846680	0.0102107413
1070.4880920410	0.0096453130
1072.4168994141	0.0090688448
1074.3457067871	0.0087538641
1076.2745141602	0.0085061099
1078.2033215332	0.0080649462
1080.1321289062	0.0078886487
1082.0609362793	0.0073506245
1083.9897436523	0.0068316599
1085.9185510254	0.0065114200
1087.8473583984	0.0062183402
1089.7761657715	0.0060411124
1091.7049731445	0.0057155779
1093.6337805176	0.0055384017
1095.5625878906	0.0051850015
1097.4913952637	0.0049907737
1099.4202026367	0.0050149574
1101.3490100098	0.0049002199
1103.2778173828	0.0047059227
1105.2066247559	0.0045102928
1107.1354321289	0.0047167502
1109.0642395019	0.0045113238
1110.9930468750	0.0045285085
1112.9218542480	0.0046290890
1114.8506616211	0.0040595476
1116.7794689941	0.0041273599
1118.7082763672	0.0042391294
1120.6370837402	0.0042836219
1122.5658911133	0.0044228639
1124.4946984863	0.0044157291
1126.4235058594	0.0045848624
1128.3523132324	0.0046737613
1130.2811206055	0.0046272855
1132.2099279785	0.0045620035
1134.1387353516	0.0048699672
1136.0675427246	0.0050105648
1137.9963500977	0.0053714225
1139.9251574707	0.0058543952
1141.8539648437	0.0057962947
1143.7827722168	0.0062919613
1145.7115795898	0.0067775566
1147.6403869629	0.0070645101
1149.5691943359	0.0073743337
1151.4980017090	0.0076762214
1153.4268090820	0.0082607437
1155.3556164551	0.0086010098
1157.2844238281	0.0087687653
1159.2132312012	0.0090469029
1161.1420385742	0.0095078666
1163.0708459473	0.0098037384
1164.9996533203	0.0101239868
1166.9284606934	0.0104225464
1168.8572680664	0.0106744673
1170.7860754394	0.0112501029
1172.7148828125	0.0115973931
1174.6436901855	0.0119803064
1176.5724975586	0.0124057177
1178.5013049316	0.0127932467
1180.4301123047	0.0132629406
1182.3589196777	0.0138761550
1184.2877270508	0.0145876929
1186.2165344238	0.0150372908
1188.1453417969	0.0157292485
1190.0741491699	0.0163913071
1192.0029565430	0.0169626474
1193.9317639160	0.0177956149
1195.8605712891	0.0186988562
1197.7893786621	0.0194520559
1199.7181860351	0.0202645138
1201.6469934082	0.0212754123
1203.5758007812	0.0218756553
1205.5046081543	0.0226892307
1207.4334155273	0.0235525295
1209.3622229004	0.0241437349
1211.2910302734	0.0250303149
1213.2198376465	0.0256789625
1215.1486450195	0.0261459835
1217.0774523926	0.0267735682
1219.0062597656	0.0272350237
1220.9350671387	0.0273915567
1222.8638745117	0.0278291702
1224.7926818848	0.0282082707
1226.7214892578	0.0281996839
1228.6502966308	0.0283506829
1230.5791040039	0.0285117328
1232.5079113769	0.0285291281
1234.4367187500	0.0284857973
1236.3655261230	0.0284632780
1238.2943334961	0.0282222740
1240.2231408691	0.0282810926
1242.1519482422	0.0282907393
1244.0807556152	0.0278749689
1246.0095629883	0.0277318768
1247.9383703613	0.0274959151
1249.8671777344	0.0275247414
1251.7959851074	0.0272996388
1253.7247924805	0.0268674437
1255.6535998535	0.0267171338
1257.5824072266	0.0262656789
1259.5112145996	0.0258639865
1261.4400219726	0.0253538918
1263.3688293457	0.0250550918
1265.2976367187	0.0248725042
1267.2264440918	0.0245213620
1269.1552514648	0.0240448266
1271.0840588379	0.0236559883
1273.0128662109	0.0233066007
1274.9416735840	0.0226012692
1276.8704809570	0.0223802123
1278.7992883301	0.0219543353
1280.7280957031	0.0214146599
1282.6569030762	0.0211098529
1284.5857104492	0.0206661932
1286.5145178223	0.0204077158
1288.4433251953	0.0199575368
1290.3721325683	0.0196712520
1292.3009399414	0.0193232000
1294.2297473144	0.0192987695
1296.1585546875	0.0192966778
1298.0873620605	0.0189919267
1300.0161694336	0.0192913674
1301.9449768066	0.0193488561
1303.8737841797	0.0192809943
1305.8025915527	0.0194260012
1307.7313989258	0.0197875984
1309.6602062988	0.0200728253
1311.5890136719	0.0201994628
1313.5178210449	0.0207060110
1315.4466284180	0.0212517455
1317.3754357910	0.0216881298
1319.3042431640	0.0221733302
1321.2330505371	0.0230153240
1323.1618579101	0.0237702131
1325.0906652832	0.0244978853
1327.0194726562	0.0250817928
1328.9482800293	0.0254870877
1330.8770874023	0.0261560902
1332.8058947754	0.0266832076
1334.7347021484	0.0272084270
1336.6635095215	0.0273374021
1338.5923168945	0.0272964686
1340.5211242676	0.0275388099
1342.4499316406	0.0283473395
1344.3787390137	0.0288135894
1346.3075463867	0.0285519063
1348.2363537597	0.0285851248
1350.1651611328	0.0281831995
1352.0939685058	0.0281646214
1354.0227758789	0.0279624593
1355.9515832519	0.0275287945
1357.8803906250	0.0275297910
1359.8091979980	0.0270978734
1361.7380053711	0.0263209864
1363.6668127441	0.0256522316
1365.5956201172	0.0266086403
1367.5244274902	0.0262379609
1369.4532348633	0.0255888738
1371.3820422363	0.0261930451
1373.3108496094	0.0249746852
1375.2396569824	0.0250052772
1377.1684643555	0.0255788062
1379.0972717285	0.0254209023
1381.0260791015	0.0254524909
1382.9548864746	0.0254617073
1384.8836938476	0.0254572481
1386.8125012207	0.0245629791
1388.7413085937	0.0248689894
1390.6701159668	0.0260574184
1392.5989233398	0.0258128084
1394.5277307129	0.0246627610
1396.4565380859	0.0253591873
1398.3853454590	0.0255788770
1400.3141528320	0.0253301393
1402.2429602051	0.0267552882
1404.1717675781	0.0256021414
1406.1005749512	0.0258328188
1408.0293823242	0.0265360661
1409.9581896972	0.0256453417
1411.8869970703	0.0259992871
1413.8158044433	0.0252942778
1415.7446118164	0.0256466344
1417.6734191894	0.0233568698
1419.6022265625	0.0214918666
1421.5310339355	0.0236789547
1423.4598413086	0.0229253452
1425.3886486816	0.0224204585
1427.3174560547	0.0224170778
1429.2462634277	0.0210665092
1431.1750708008	0.0203993879
1433.1038781738	0.0204591081
1435.0326855469	0.0186981708
1436.9614929199	0.0163755398
1438.8903002929	0.0181207396
1440.8191076660	0.0181491226
1442.7479150390	0.0171419010
1444.6767224121	0.0177875198
1446.6055297851	0.0165053681
1448.5343371582	0.0167296417
1450.4631445312	0.0171557032
1452.3919519043	0.0175081566
1454.3207592773	0.0182764996
1456.2495666504	0.0156610943
1458.1783740234	0.0162307844
1460.1071813965	0.0206685942
1462.0359887695	0.0216751620
1463.9647961426	0.0218365416
1465.8936035156	0.0229007341
1467.8224108886	0.0255159214
1469.7512182617	0.0272708647
1471.6800256347	0.0250909589
1473.6088330078	0.0263826437
1475.5376403808	0.0297147986
1477.4664477539	0.0317514315
1479.3952551269	0.0341632813
1481.3240625000	0.0348927602
1483.2528698730	0.0367671028
1485.1816772461	0.0378512926
1487.1104846191	0.0376221761
1489.0392919922	0.0375604928
1490.9680993652	0.0379953906
1492.8969067383	0.0426858440
1494.8257141113	0.0419478081
1496.7545214843	0.0388535857
1498.6833288574	0.0428368375
1500.6121362304	0.0440052487
1502.5409436035	0.0466032736
1504.4697509765	0.0441879220
1506.3985583496	0.0347186550
1508.3273657226	0.0409069248
1510.2561730957	0.0459948406
1512.1849804687	0.0449230745
1514.1137878418	0.0475765541
1516.0425952148	0.0437239334
1517.9714025879	0.0455808342
1519.9002099609	0.0435458645
1521.8290173340	0.0392699167
1523.7578247070	0.0459790044
1525.6866320801	0.0450319275
1527.6154394531	0.0452608988
1529.5442468261	0.0485143028
1531.4730541992	0.0468597375
1533.4018615722	0.0435328521
1535.3306689453	0.0455852076
1537.2594763183	0.0478398502
1539.1882836914	0.0363780782
1541.1170910644	0.0380594395
1543.0458984375	0.0436499417
1544.9747058105	0.0421826988
1546.9035131836	0.0480061434
1548.8323205566	0.0450095423
1550.7611279297	0.0461760461
1552.6899353027	0.0456876978
1554.6187426758	0.0422883369
1556.5475500488	0.0444263965
1558.4763574218	0.0336985588
1560.4051647949	0.0356717929
1562.3339721679	0.0467994548
1564.2627795410	0.0446572751
1566.1915869140	0.0453136154
1568.1203942871	0.0446545035
1570.0492016601	0.0405518934
1571.9780090332	0.0451349914
1573.9068164062	0.0451311767
1575.8356237793	0.0371844992
1577.7644311523	0.0410712734
1579.6932385254	0.0452330001
1581.6220458984	0.0433077812
1583.5508532715	0.0439908877
1585.4796606445	0.0430887267
1587.4084680175	0.0430798940
1589.3372753906	0.0426564068
1591.2660827636	0.0424535237
1593.1948901367	0.0421464145
1595.1236975097	0.0415637046
1597.0525048828	0.0416721664
1598.9813122558	0.0411685742
1600.9101196289	0.0414819121
1602.8389270019	0.0406052396
1604.7677343750	0.0410698280
1606.6965417480	0.0403117612
1608.6253491211	0.0399379358
1610.5541564941	0.0397863016
1612.4829638672	0.0400916636
1614.4117712402	0.0406154208
1616.3405786132	0.0341347009
1618.2693859863	0.0367424898
1620.1981933593	0.0415166207
1622.1270007324	0.0377484858
1624.0558081054	0.0382937491
1625.9846154785	0.0396518335
1627.9134228515	0.0399629436
1629.8422302246	0.0401260033
1631.7710375976	0.0426495485
1633.6998449707	0.0400683358
1635.6286523437	0.0348815024
1637.5574597168	0.0399240032
1639.4862670898	0.0434054136
1641.4150744629	0.0432617478
1643.3438818359	0.0446855202
1645.2726892090	0.0414627381
1647.2014965820	0.0380348042
1649.1303039550	0.0462892801
1651.0591113281	0.0442735553
1652.9879187011	0.0317723528
1654.9167260742	0.0413041562
1656.8455334472	0.0497131124
1658.7743408203	0.0487522706
1660.7031481933	0.0504419543
1662.6319555664	0.0473187938
1664.5607629394	0.0501717702
1666.4895703125	0.0534670651
1668.4183776855	0.0485936999
1670.3471850586	0.0481990278
1672.2759924316	0.0538032725
1674.2047998047	0.0508007407
1676.1336071777	0.0500600114
1678.0624145507	0.0565033704
1679.9912219238	0.0551341623
1681.9200292968	0.0552159660
1683.8488366699	0.0467666984
1685.7776440429	0.0471753702
1687.7064514160	0.0614119656
1689.6352587890	0.0550661609
1691.5640661621	0.0602482893
1693.4928735351	0.0612249747
1695.4216809082	0.0479083844
1697.3504882812	0.0571348779
1699.2792956543	0.0516909584
1701.2081030273	0.0481229536
1703.1369104004	0.0619013384
1705.0657177734	0.0579039156
1706.9945251464	0.0586433001
1708.9233325195	0.0627560988
1710.8521398925	0.0608184189
1712.7809472656	0.0619028807
1714.7097546386	0.0584996305
1716.6385620117	0.0536664277
1718.5673693847	0.0533008352
1720.4961767578	0.0613962486
1722.4249841308	0.0628108233
1724.3537915039	0.0595833138
1726.2825988769	0.0635203272
1728.2114062500	0.0593268797
1730.1402136230	0.0603456497
1732.0690209961	0.0583006069
1733.9978283691	0.0473696180
1735.9266357421	0.0565725490
1737.8554431152	0.0609565973
1739.7842504882	0.0555422008
1741.7130578613	0.0595019646
1743.6418652343	0.0604520291
1745.5706726074	0.0604083687
1747.4994799804	0.0609942898
1749.4282873535	0.0588972420
1751.3570947265	0.0568668544
1753.2859020996	0.0617477149
1755.2147094726	0.0637794137
1757.1435168457	0.0595449880
1759.0723242187	0.0640308633
1761.0011315918	0.0608496331
1762.9299389648	0.0593672991
1764.8587463379	0.0658720136
1766.7875537109	0.0604754835
1768.7163610839	0.0609597676
1770.6451684570	0.0605881251
1772.5739758300	0.0555826798
1774.5027832031	0.0607775375
1776.4315905761	0.0633299276
1778.3603979492	0.0623344779
1780.2892053222	0.0616938025
1782.2180126953	0.0618399680
1784.1468200683	0.0618495941
1786.0756274414	0.0608528033
1788.0044348144	0.0631708801
1789.9332421875	0.0617187098
1791.8620495605	0.0568649173
1793.7908569336	0.0589000285
1795.7196643066	0.0621807836
1797.6484716796	0.0613726899
1799.5772790527	0.0606269464
1801.5060864257	0.0598077141
1803.4348937988	0.0612510741
1805.3637011718	0.0620425455
1807.2925085449	0.0613331422
1809.2213159179	0.0615653880
1811.1501232910	0.0601624101
1813.0789306640	0.0615277141
1815.0077380371	0.0616910420
1816.9365454101	0.0610921532
1818.8653527832	0.0613394827
1820.7941601562	0.0611126870
1822.7229675293	0.0616862625
1824.6517749023	0.0583531372
1826.5805822753	0.0599924363
1828.5093896484	0.0598025024
1830.4381970214	0.0570661761
1832.3670043945	0.0607845932
1834.2958117675	0.0601122603
1836.2246191406	0.0602477491
1838.1534265136	0.0597981140
1840.0822338867	0.0599832498
1842.0110412597	0.0597879291
1843.9398486328	0.0543338060
1845.8686560058	0.0573221557
1847.7974633789	0.0595881939
1849.7262707519	0.0585810989
1851.6550781250	0.0597110465
1853.5838854980	0.0587419420
1855.5126928710	0.0591421425
1857.4415002441	0.0585473478
1859.3703076171	0.0583965853
1861.2991149902	0.0584709868
1863.2279223632	0.0578460246
1865.1567297363	0.0583652891
1867.0855371093	0.0566559285
1869.0143444824	0.0548207015
1870.9431518554	0.0563642308
1872.8719592285	0.0579022691
1874.8007666015	0.0570188910
1876.7295739746	0.0572107024
1878.6583813476	0.0569641516
1880.5871887207	0.0565039590
1882.5159960937	0.0568832532
1884.4448034667	0.0559874475
1886.3736108398	0.0565509051
1888.3024182128	0.0554924831
1890.2312255859	0.0544931442
1892.1600329589	0.0561261140
1894.0888403320	0.0551743731
1896.0176477050	0.0548814610
1897.9464550781	0.0555504858
1899.8752624511	0.0551350750
1901.8040698242	0.0551244281
1903.7328771972	0.0547899157
1905.6616845703	0.0549181029
1907.5904919433	0.0543569252
1909.5192993164	0.0539105870
1911.4481066894	0.0540789142
1913.3769140625	0.0540821850
1915.3057214355	0.0543019995
1917.2345288085	0.0522410944
1919.1633361816	0.0523829982
1921.0921435546	0.0537065938
1923.0209509277	0.0523106381
1924.9497583007	0.0531178936
1926.8785656738	0.0533656590
1928.8073730468	0.0530361421
1930.7361804199	0.0532294735
1932.6649877929	0.0525643751
1934.5937951660	0.0529008657
1936.5226025390	0.0524524972
1938.4514099121	0.0526757576
1940.3802172851	0.0524423979
1942.3090246582	0.0512499362
1944.2378320312	0.0517913066
1946.1666394042	0.0519617200
1948.0954467773	0.0518810451
1950.0242541503	0.0517721027
1951.9530615234	0.0516842902
1953.8818688964	0.0517242774
1955.8106762695	0.0514237098
1957.7394836425	0.0513689891
1959.6682910156	0.0512650907
1961.5970983886	0.0511966944
1963.5259057617	0.0511497855
1965.4547131347	0.0507168919
1967.3835205078	0.0502364710
1969.3123278808	0.0505760759
1971.2411352539	0.0506243967
1973.1699426269	0.0501934737
1975.0987499999	0.0503398255
1977.0275573730	0.0503283329
1978.9563647460	0.0501101688
1980.8851721191	0.0498212948
1982.8139794921	0.0498626493
1984.7427868652	0.0497771204
1986.6715942382	0.0493067764
1988.6004016113	0.0492896736
1990.5292089843	0.0489564314
1992.4580163574	0.0484193861
1994.3868237304	0.0488197953
1996.3156311035	0.0491814166
1998.2444384765	0.0486791879
2000.1732458496	0.0485944450
2002.1020532226	0.0484514758
2004.0308605956	0.0481324345
2005.9596679687	0.0480768755
2007.8884753417	0.0477229804
2009.8172827148	0.0476546697
2011.7460900878	0.0473931432
2013.6748974609	0.0473958887
2015.6037048339	0.0472664684
2017.5325122070	0.0466712415
2019.4613195800	0.0469775274
2021.3901269531	0.0468190908
2023.3189343261	0.0464592762
2025.2477416992	0.0464868918
2027.1765490722	0.0463039428
2029.1053564453	0.0462175533
2031.0341638183	0.0459214859
2032.9629711914	0.0457830131
2034.8917785644	0.0456383899
2036.8205859374	0.0454778969
2038.7493933105	0.0454992466
2040.6782006835	0.0451289564
2042.6070080566	0.0450354069
2044.5358154296	0.0451074019
2046.4646228027	0.0448568910
2048.3934301757	0.0447653793
2050.3222375488	0.0445985496
2052.2510449218	0.0445410162
2054.1798522949	0.0444578566
2056.1086596679	0.0441881120
2058.0374670410	0.0442514941
2059.9662744140	0.0441148952
2061.8950817871	0.0438587144
2063.8238891601	0.0437003300
2065.7526965331	0.0435757563
2067.6815039062	0.0435318500
2069.6103112792	0.0432935320
2071.5391186523	0.0432488546
2073.4679260253	0.0431644171
2075.3967333984	0.0429406986
2077.3255407714	0.0429610275
2079.2543481445	0.0428622663
2081.1831555175	0.0426954404
2083.1119628906	0.0426506661
2085.0407702636	0.0424884073
2086.9695776367	0.0423892438
2088.8983850097	0.0422664210
2090.8271923828	0.0420050584
2092.7559997558	0.0421087258
2094.6848071288	0.0421259403
2096.6136145019	0.0419489071
2098.5424218749	0.0418218374
2100.4712292480	0.0417560712
2102.4000366210	0.0418017656
2104.3288439941	0.0415755212
2106.2576513671	0.0416011363
2108.1864587402	0.0416055731
2110.1152661132	0.0413416997
2112.0440734863	0.0412963331
2113.9728808593	0.0412463918
2115.9016882324	0.0411168896
2117.8304956054	0.0409373492
2119.7593029785	0.0409720093
2121.6881103515	0.0408818685
2123.6169177245	0.0407983735
2125.5457250976	0.0408190787
2127.4745324706	0.0407330953
2129.4033398437	0.0408055708
2131.3321472167	0.0407061204
2133.2609545898	0.0405847840
2135.1897619628	0.0403885022
2137.1185693359	0.0404174253
2139.0473767089	0.0405083075
2140.9761840820	0.0403618664
2142.9049914550	0.0404298007
2144.8337988281	0.0402294509
2146.7626062011	0.0401943251
2148.6914135742	0.0402093306
2150.6202209472	0.0400118381
2152.5490283203	0.0399803296
2154.4778356933	0.0399025530
2156.4066430663	0.0399393104
2158.3354504394	0.0399050042
2160.2642578124	0.0398109779
2162.1930651855	0.0397564508
2164.1218725585	0.0397619046
2166.0506799316	0.0397302434
2167.9794873046	0.0396915115
2169.9082946777	0.0396951512
2171.8371020507	0.0395424515
2173.7659094238	0.0395415090
2175.6947167968	0.0394531600
2177.6235241699	0.0393864587
2179.5523315429	0.0394043028
2181.4811389160	0.0393322855
2183.4099462890	0.0393406153
2185.3387536620	0.0392606854
2187.2675610351	0.0392654799
2189.1963684081	0.0391452499
2191.1251757812	0.0390605852
2193.0539831542	0.0390891954
2194.9827905273	0.0389403179
2196.9115979003	0.0390129127
2198.8404052734	0.0389859602
2200.7692126464	0.0388429165
2202.6980200195	0.0388995782
2204.6268273925	0.0388594270
2206.5556347656	0.0388881005
2208.4844421386	0.0388754681
2210.4132495117	0.0386983976
2212.3420568847	0.0387107208
2214.2708642577	0.0386216342
2216.1996716308	0.0385214090
2218.1284790038	0.0385609791
2220.0572863769	0.0385356024
2221.9860937499	0.0385089777
2223.9149011230	0.0382961109
2225.8437084960	0.0383140445
2227.7725158691	0.0383889005
2229.7013232421	0.0381683409
2231.6301306152	0.0381661206
2233.5589379882	0.0381832346
2235.4877453613	0.0380864628
2237.4165527343	0.0380218849
2239.3453601074	0.0380104892
2241.2741674804	0.0378734060
2243.2029748534	0.0377928093
2245.1317822265	0.0378731564
2247.0605895995	0.0377178006
2248.9893969726	0.0376297757
2250.9182043456	0.0375449359
2252.8470117187	0.0373529568
2254.7758190917	0.0373198390
2256.7046264648	0.0373286456
2258.6334338378	0.0373290405
2260.5622412109	0.0373381823
2262.4910485839	0.0373167470
2264.4198559570	0.0371609367
2266.3486633300	0.0369924046
2268.2774707031	0.0369733274
2270.2062780761	0.0370182358
2272.1350854491	0.0369512364
2274.0638928222	0.0368743800
2275.9927001952	0.0369123630
2277.9215075683	0.0368223153
2279.8503149413	0.0366687253
2281.7791223144	0.0367619693
2283.7079296874	0.0368205979
2285.6367370605	0.0366583541
2287.5655444335	0.0366038494
2289.4943518066	0.0364190042
2291.4231591796	0.0363027453
2293.3519665527	0.0362669416
2295.2807739257	0.0360100269
2297.2095812988	0.0360079035
2299.1383886718	0.0358177498
2301.0671960449	0.0356122218
2302.9960034179	0.0356058478
2304.9248107909	0.0353295505
2306.8536181640	0.0351877436
2308.7824255370	0.0350034460
2310.7112329101	0.0345684588
2312.6400402831	0.0341427587
2314.5688476562	0.0339571089
2316.4976550292	0.0336131789
2318.4264624023	0.0330276676
2320.3552697753	0.0326961279
2322.2840771484	0.0322193168
2324.2128845214	0.0317809246
2326.1416918945	0.0315367430
2328.0704992675	0.0311472304
2329.9993066406	0.0307656154
2331.9281140136	0.0305862613
2333.8569213866	0.0304989498
2335.7857287597	0.0303134993
2337.7145361327	0.0302756056
2339.6433435058	0.0302535705
2341.5721508788	0.0303594619
2343.5009582519	0.0307626054
2345.4297656249	0.0312753133
2347.3585729980	0.0324519724
2349.2873803710	0.0333490223
2351.2161877441	0.0323692933
2353.1449951171	0.0307100043
2355.0738024902	0.0296194367
2357.0026098632	0.0288008563
2358.9314172363	0.0282731559
2360.8602246093	0.0279375315
2362.7890319823	0.0278555453
2364.7178393554	0.0280705206
2366.6466467284	0.0284433309
2368.5754541015	0.0289146509
2370.5042614745	0.0294083767
2372.4330688476	0.0303250402
2374.3618762206	0.0310837142
2376.2906835937	0.0317158401
2378.2194909667	0.0326063558
2380.1482983398	0.0329593569
2382.0771057128	0.0332109481
2384.0059130859	0.0334290266
2385.9347204589	0.0334538259
2387.8635278320	0.0335257947
2389.7923352050	0.0334940702
2391.7211425780	0.0335747078
2393.6499499511	0.0334666967
2395.5787573241	0.0333474465
2397.5075646972	0.0333805494
2399.4363720702	0.0332512781
2401.3651794433	0.0331579670
2403.2939868163	0.0331108235
2405.2227941894	0.0331547260
2407.1516015624	0.0330897272
2409.0804089355	0.0329147279
2411.0092163085	0.0328685232
2412.9380236816	0.0328015387
2414.8668310546	0.0327594951
2416.7956384277	0.0326791704
2418.7244458007	0.0325774550
2420.6532531738	0.0325544327
2422.5820605468	0.0324705094
2424.5108679198	0.0324532725
2426.4396752929	0.0324613675
2428.3684826659	0.0323133729
2430.2972900390	0.0322627872
2432.2260974120	0.0322339274
2434.1549047851	0.0321309417
2436.0837121581	0.0320791379
2438.0125195312	0.0319498032
2439.9413269042	0.0319821462
2441.8701342773	0.0319134258
2443.7989416503	0.0316877663
2445.7277490234	0.0317784622
2447.6565563964	0.0316950418
2449.5853637695	0.0316803604
2451.5141711425	0.0318127237
2453.4429785155	0.0316167660
2455.3717858886	0.0314928666
2457.3005932616	0.0313676000
2459.2294006347	0.0313037038
2461.1582080077	0.0312974118
2463.0870153808	0.0312295686
2465.0158227538	0.0312903747
2466.9446301269	0.0311722979
2468.8734374999	0.0310799517
2470.8022448730	0.0309753269
2472.7310522460	0.0307146348
2474.6598596191	0.0307698939
2476.5886669921	0.0308491141
2478.5174743652	0.0307613090
2480.4462817382	0.0307107978
2482.3750891112	0.0306437761
2484.3038964843	0.0306286700
2486.2327038573	0.0305407755
2488.1615112304	0.0303233322
2490.0903186034	0.0302413404
2492.0191259765	0.0303387493
2493.9479333495	0.0303560719
2495.8767407226	0.0301443748
2497.8055480956	0.0300585404
2499.7343554687	0.0301298350
2501.6631628417	0.0300627723
2503.5919702148	0.0299311429
2505.5207775878	0.0297936909
2507.4495849609	0.0297717750
2509.3783923339	0.0297589526
2511.3071997069	0.0296801813
2513.2360070800	0.0296003036
2515.1648144530	0.0294772908
2517.0936218261	0.0294768922
2519.0224291991	0.0294983182
2520.9512365722	0.0294260904
2522.8800439452	0.0293219946
2524.8088513183	0.0292826034
2526.7376586913	0.0292130988
2528.6664660644	0.0290756412
2530.5952734374	0.0289706215
2532.5240808105	0.0288951751
2534.4528881835	0.0288361199
2536.3816955566	0.0286686681
2538.3105029296	0.0287749134
2540.2393103027	0.0287816711
2542.1681176757	0.0286822189
2544.0969250487	0.0287587456
2546.0257324218	0.0283867549
2547.9545397948	0.0283799581
2549.8833471679	0.0284984782
2551.8121545409	0.0283384714
2553.7409619140	0.0283078272
2555.6697692870	0.0281840339
2557.5985766601	0.0282163695
2559.5273840331	0.0280441251
2561.4561914062	0.0280124620
2563.3849987792	0.0280894563
2565.3138061523	0.0279819556
2567.2426135253	0.0279016346
2569.1714208984	0.0276965685
2571.1002282714	0.0277550612
2573.0290356444	0.0276024863
2574.9578430175	0.0274861790
2576.8866503905	0.0275689662
2578.8154577636	0.0274591073
2580.7442651366	0.0274358504
2582.6730725097	0.0272978060
2584.6018798827	0.0272265114
2586.5306872558	0.0271803997
2588.4594946288	0.0271748379
2590.3883020019	0.0271034818
2592.3171093749	0.0269589275
2594.2459167480	0.0269077457
2596.1747241210	0.0268104672
2598.1035314941	0.0268342178
2600.0323388671	0.0267290231
2601.9611462401	0.0266420040
2603.8899536132	0.0265217200
2605.8187609862	0.0264609568
2607.7475683593	0.0265250821
2609.6763757323	0.0263394862
2611.6051831054	0.0262785777
2613.5339904784	0.0262795128
2615.4627978515	0.0261905510
2617.3916052245	0.0260057002
2619.3204125976	0.0259898193
2621.2492199706	0.0260626730
2623.1780273437	0.0259943418
2625.1068347167	0.0259564966
2627.0356420898	0.0258300155
2628.9644494628	0.0257753991
2630.8932568358	0.0256623682
2632.8220642089	0.0256138444
2634.7508715819	0.0255398229
2636.6796789550	0.0254618414
2638.6084863280	0.0254398920
2640.5372937011	0.0251940452
2642.4661010741	0.0252043791
2644.3949084472	0.0251775198
2646.3237158202	0.0251569878
2648.2525231933	0.0251168832
2650.1813305663	0.0249613523
2652.1101379394	0.0249791220
2654.0389453124	0.0247961748
2655.9677526855	0.0247194842
2657.8965600585	0.0246827155
2659.8253674315	0.0246145017
2661.7541748046	0.0245579369
2663.6829821776	0.0244665816
2665.6117895507	0.0244303700
2667.5405969237	0.0243650451
2669.4694042968	0.0243582055
2671.3982116698	0.0242203474
2673.3270190429	0.0241715945
2675.2558264159	0.0240196139
2677.1846337890	0.0239573680
2679.1134411620	0.0240410678
2681.0422485351	0.0238172617
2682.9710559081	0.0237609521
2684.8998632812	0.0236326419
2686.8286706542	0.0236200914
2688.7574780273	0.0236549787
2690.6862854003	0.0234852098
2692.6150927733	0.0235023666
2694.5439001464	0.0234062523
2696.4727075194	0.0234033354
2698.4015148925	0.0234373715
2700.3303222655	0.0232524052
2702.2591296386	0.0230866149
2704.1879370116	0.0230364818
2706.1167443847	0.0230005533
2708.0455517577	0.0228973180
2709.9743591308	0.0228118785
2711.9031665038	0.0227365419
2713.8319738769	0.0227011908
2715.7607812499	0.0226234589
2717.6895886230	0.0225471184
2719.6183959960	0.0225132629
2721.5472033690	0.0224678833
2723.4760107421	0.0223121457
2725.4048181151	0.0221623927
2727.3336254882	0.0221152902
2729.2624328612	0.0219688360
2731.1912402343	0.0219491981
2733.1200476073	0.0219539460
2735.0488549804	0.0218728706
2736.9776623534	0.0217034668
2738.9064697265	0.0216609165
2740.8352770995	0.0217855945
2742.7640844726	0.0216061380
2744.6928918456	0.0215315334
2746.6216992187	0.0214335918
2748.5505065917	0.0213947259
2750.4793139647	0.0214124881
2752.4081213378	0.0210788567
2754.3369287108	0.0211678259
2756.2657360839	0.0212123618
2758.1945434569	0.0208968837
2760.1233508300	0.0208329037
2762.0521582030	0.0208918769
2763.9809655761	0.0208686162
2765.9097729491	0.0206439942
2767.8385803222	0.0205812622
2769.7673876952	0.0205603987
2771.6961950683	0.0204113256
2773.6250024413	0.0203992818
2775.5538098144	0.0202750228
2777.4826171874	0.0202323496
2779.4114245604	0.0202608481
2781.3402319335	0.0200787410
2783.2690393065	0.0200079232
2785.1978466796	0.0199023876
2787.1266540526	0.0197798572
2789.0554614257	0.0198130459
2790.9842687987	0.0196765624
2792.9130761718	0.0195703190
2794.8418835448	0.0195154734
2796.7706909179	0.0193014815
2798.6994982909	0.0192190520
2800.6283056640	0.0192962848
2802.5571130370	0.0192424767
2804.4859204101	0.0191352945
2806.4147277831	0.0191328768
2808.3435351562	0.0189951286
2810.2723425292	0.0188275836
2812.2011499022	0.0187797472
2814.1299572753	0.0187103134
2816.0587646483	0.0186426584
2817.9875720214	0.0185617581
2819.9163793944	0.0184756462
2821.8451867675	0.0183165651
2823.7739941405	0.0182207190
2825.7028015136	0.0182689521
2827.6316088866	0.0182168856
2829.5604162597	0.0181470476
2831.4892236327	0.0180656482
2833.4180310058	0.0179362372
2835.3468383788	0.0178916268
2837.2756457519	0.0177858565
2839.2044531249	0.0176249519
2841.1332604979	0.0175247472
2843.0620678710	0.0174109861
2844.9908752440	0.0173283685
2846.9196826171	0.0171698742
2848.8484899901	0.0169715993
2850.7772973632	0.0169267394
2852.7061047362	0.0168792568
2854.6349121093	0.0167772137
2856.5637194823	0.0167494006
2858.4925268554	0.0167351328
2860.4213342284	0.0166011341
2862.3501416015	0.0165542513
2864.2789489745	0.0165257938
2866.2077563476	0.0164057817
2868.1365637206	0.0163905434
2870.0653710936	0.0162864104
2871.9941784667	0.0162305664
2873.9229858397	0.0162275396
2875.8517932128	0.0161050558
2877.7806005858	0.0160673559
2879.7094079589	0.0159939528
2881.6382153319	0.0158529989
2883.5670227050	0.0158066675
2885.4958300780	0.0158331990
2887.4246374511	0.0157313608
2889.3534448241	0.0155791137
2891.2822521972	0.0154828075
2893.2110595702	0.0153933913
2895.1398669433	0.0154004712
2897.0686743163	0.0152725764
2898.9974816893	0.0151102562
2900.9262890624	0.0150917619
2902.8550964354	0.0149752237
2904.7839038085	0.0149543248
2906.7127111815	0.0149650211
2908.6415185546	0.0147201726
2910.5703259276	0.0145860109
2912.4991333007	0.0145261874
2914.4279406737	0.0143356342
2916.3567480468	0.0142577514
2918.2855554198	0.0142277405
2920.2143627929	0.0141461389
2922.1431701659	0.0140292607
2924.0719775390	0.0140250679
2926.0007849120	0.0139701888
2927.9295922851	0.0138481651
2929.8583996581	0.0140026491
2931.7872070311	0.0140145794
2933.7160144042	0.0138735315
2935.6448217772	0.0138954241
2937.5736291503	0.0139045641
2939.5024365233	0.0137767829
2941.4312438964	0.0137166232
2943.3600512694	0.0136853680
2945.2888586425	0.0135520492
2947.2176660155	0.0136027038
2949.1464733886	0.0134742968
2951.0752807616	0.0133581273
2953.0040881347	0.0133588258
2954.9328955077	0.0131448405
2956.8617028808	0.0131853018
2958.7905102538	0.0132000484
2960.7193176268	0.0130942352
2962.6481249999	0.0130149368
2964.5769323729	0.0129833901
2966.5057397460	0.0130076371
2968.4345471190	0.0129295737
2970.3633544921	0.0129449833
2972.2921618651	0.0128249004
2974.2209692382	0.0127169583
2976.1497766112	0.0127575248
2978.0785839843	0.0127031039
2980.0073913573	0.0126658743
2981.9361987304	0.0126365460
2983.8650061034	0.0125953238
2985.7938134765	0.0126059968
2987.7226208495	0.0125302114
2989.6514282225	0.0123950671
2991.5802355956	0.0124700330
2993.5090429686	0.0123675521
2995.4378503417	0.0122825205
2997.3666577147	0.0123480745
2999.2954650878	0.0121753756
3001.2242724608	0.0121808536
3003.1530798339	0.0122149382
3005.0818872069	0.0121987220
3007.0106945800	0.0120873842
3008.9395019530	0.0119072776
3010.8683093261	0.0119914524
3012.7971166991	0.0120192077
3014.7259240722	0.0118597522
3016.6547314452	0.0116948225
3018.5835388182	0.0117748193
3020.5123461913	0.0117469057
3022.4411535643	0.0115766386
3024.3699609374	0.0115426425
3026.2987683104	0.0114717819
3028.2275756835	0.0114810616
3030.1563830565	0.0114216655
3032.0851904296	0.0113806762
3034.0139978026	0.0113661410
3035.9428051757	0.0112372469
3037.8716125487	0.0112220142
3039.8004199218	0.0112872254
3041.7292272948	0.0112278201
3043.6580346679	0.0111379325
3045.5868420409	0.0111054312
3047.5156494139	0.0109297596
3049.4444567870	0.0109272543
3051.3732641600	0.0109859034
3053.3020715331	0.0109219197
3055.2308789061	0.0109173022
3057.1596862792	0.0107815489
3059.0884936522	0.0107165370
3061.0173010253	0.0107227108
3062.9461083983	0.0106786089
3064.8749157714	0.0106309010
3066.8037231444	0.0106376801
3068.7325305175	0.0105898976
3070.6613378905	0.0104751233
3072.5901452636	0.0104651116
3074.5189526366	0.0103896065
3076.4477600097	0.0103589036
3078.3765673827	0.0102870036
3080.3053747557	0.0102397623
3082.2341821288	0.0102829933
3084.1629895018	0.0102102505
3086.0917968749	0.0101824272
3088.0206042479	0.0101792132
3089.9494116210	0.0101894699
3091.8782189940	0.0101137143
3093.8070263671	0.0100559127
3095.7358337401	0.0099888146
3097.6646411132	0.0099234013
3099.5934484862	0.0099652391
3101.5222558593	0.0098234145
3103.4510632323	0.0098464936
3105.3798706054	0.0098589398
3107.3086779784	0.0097091030
3109.2374853514	0.0098080114
3111.1662927245	0.0097634168
3113.0951000975	0.0096670613
3115.0239074706	0.0097383363
3116.9527148436	0.0096336156
3118.8815222167	0.0094906539
3120.8103295897	0.0094669769
3122.7391369628	0.0094737178
3124.6679443358	0.0093939714
3126.5967517089	0.0092772320
3128.5255590819	0.0093900273
3130.4543664550	0.0093828328
3132.3831738280	0.0092798527
3134.3119812011	0.0093044955
3136.2407885741	0.0092237201
3138.1695959471	0.0092957225
3140.0984033202	0.0093422160
3142.0272106932	0.0092324829
3143.9560180663	0.0091796480
3145.8848254393	0.0091635147
3147.8136328124	0.0090962537
3149.7424401854	0.0090343021
3151.6712475585	0.0090693105
3153.6000549315	0.0089522740
3155.5288623046	0.0089740828
3157.4576696776	0.0090043675
3159.3864770507	0.0089191124
3161.3152844237	0.0089398501
3163.2440917968	0.0088873664
3165.1728991698	0.0089215823
3167.1017065428	0.0088767726
3169.0305139159	0.0088440590
3170.9593212889	0.0088022966
3172.8881286620	0.0087487847
3174.8169360350	0.0087944809
3176.7457434081	0.0087024681
3178.6745507811	0.0086707659
3180.6033581542	0.0086098444
3182.5321655272	0.0086260382
3184.4609729003	0.0085965851
3186.3897802733	0.0086124931
3188.3185876464	0.0087460745
3190.2473950194	0.0086128302
3192.1762023925	0.0085964249
3194.1050097655	0.0085170325
3196.0338171386	0.0084932623
3197.9626245116	0.0085969446
3199.8914318846	0.0085615497
3201.8202392577	0.0086050499
3203.7490466307	0.0085015371
3205.6778540038	0.0084737502
3207.6066613768	0.0085979607
3209.5354687499	0.0085272435
3211.4642761229	0.0084411530
3213.3930834960	0.0085616549
3215.3218908690	0.0085831359
3217.2506982421	0.0085023232
3219.1795056151	0.0085698981
3221.1083129882	0.0085349213
3223.0371203612	0.0085035097
3224.9659277343	0.0085352166
3226.8947351073	0.0085523706
3228.8235424803	0.0085665025
3230.7523498534	0.0085352408
3232.6811572264	0.0085283099
3234.6099645995	0.0085612796
3236.5387719725	0.0086235730
3238.4675793456	0.0085210465
3240.3963867186	0.0084632067
3242.3251940917	0.0086442307
3244.2540014647	0.0086450316
3246.1828088378	0.0085886829
3248.1116162108	0.0087215379
3250.0404235839	0.0086690020
3251.9692309569	0.0086792037
3253.8980383300	0.0087452065
3255.8268457030	0.0086298138
3257.7556530760	0.0087931138
3259.6844604491	0.0087877195
3261.6132678221	0.0087187886
3263.5420751952	0.0088009052
3265.4708825682	0.0087206420
3267.3996899413	0.0088595618
3269.3284973143	0.0088916095
3271.2573046874	0.0087670302
3273.1861120604	0.0087728687
3275.1149194335	0.0087975729
3277.0437268065	0.0087785646
3278.9725341796	0.0089382585
3280.9013415526	0.0090481229
3282.8301489257	0.0088143349
3284.7589562987	0.0088995658
3286.6877636717	0.0088970335
3288.6165710448	0.0088230260
3290.5453784178	0.0090197157
3292.4741857909	0.0089950943
3294.4029931639	0.0089324042
3296.3318005370	0.0088696387
3298.2606079100	0.0089736367
3300.1894152831	0.0090188682
3302.1182226561	0.0088951671
3304.0470300292	0.0090044094
3305.9758374022	0.0091668591
3307.9046447753	0.0091841482
3309.8334521483	0.0090897521
3311.7622595214	0.0091281300
3313.6910668944	0.0091362819
3315.6198742675	0.0090507679
3317.5486816405	0.0090354783
3319.4774890135	0.0090288129
3321.4062963866	0.0090040490
3323.3351037596	0.0091001661
3325.2639111327	0.0092195654
3327.1927185057	0.0091556245
3329.1215258788	0.0092625478
3331.0503332518	0.0092647076
3332.9791406249	0.0091924593
3334.9079479979	0.0092920512
3336.8367553710	0.0092759375
3338.7655627440	0.0093290322
3340.6943701171	0.0093018450
3342.6231774901	0.0093136951
3344.5519848632	0.0094066635
3346.4807922362	0.0094170272
3348.4095996092	0.0094023421
3350.3384069823	0.0093079740
3352.2672143553	0.0094615556
3354.1960217284	0.0095147127
3356.1248291014	0.0093762996
3358.0536364745	0.0095400084
3359.9824438475	0.0095948381
3361.9112512206	0.0095179938
3363.8400585936	0.0095316600
3365.7688659667	0.0095191207
3367.6976733397	0.0096235918
3369.6264807128	0.0095950309
3371.5552880858	0.0095478063
3373.4840954589	0.0096252691
3375.4129028319	0.0096539520
3377.3417102049	0.0098070931
3379.2705175780	0.0097957794
3381.1993249510	0.0098729525
3383.1281323241	0.0099008987
3385.0569396971	0.0097629046
3386.9857470702	0.0100143813
3388.9145544432	0.0100527843
3390.8433618163	0.0099573452
3392.7721691893	0.0099949818
3394.7009765624	0.0100879353
3396.6297839354	0.0102146324
3398.5585913085	0.0101994984
3400.4873986815	0.0102562997
3402.4162060546	0.0102743935
3404.3450134276	0.0103270337
3406.2738208006	0.0103574730
3408.2026281737	0.0104160625
3410.1314355467	0.0105194449
3412.0602429198	0.0105336569
3413.9890502928	0.0106405038
3415.9178576659	0.0106543759
3417.8466650389	0.0106273163
3419.7754724120	0.0106116878
3421.7042797850	0.0107327644
3423.6330871581	0.0108657237
3425.5618945311	0.0108877150
3427.4907019042	0.0109189898
3429.4195092772	0.0108935833
3431.3483166503	0.0109625570
3433.2771240233	0.0109422468
3435.2059313963	0.0109901829
3437.1347387694	0.0110976361
3439.0635461424	0.0111839417
3440.9923535155	0.0112439077
3442.9211608885	0.0112489937
3444.8499682616	0.0114152543
3446.7787756346	0.0112568513
3448.7075830077	0.0112421606
3450.6363903807	0.0115101673
3452.5651977538	0.0115128979
3454.4940051268	0.0115654580
3456.4228124999	0.0115991272
3458.3516198729	0.0116206910
3460.2804272460	0.0116749555
3462.2092346190	0.0117541309
3464.1380419921	0.0118618608
3466.0668493651	0.0119084148
3467.9956567381	0.0119342804
3469.9244641112	0.0119670220
3471.8532714842	0.0119356392
3473.7820788573	0.0119550684
3475.7108862303	0.0121491132
3477.6396936034	0.0122171082
3479.5685009764	0.0122475345
3481.4973083495	0.0122411754
3483.4261157225	0.0122946268
3485.3549230956	0.0124575356
3487.2837304686	0.0124167949
3489.2125378417	0.0124463066
3491.1413452147	0.0125391223
3493.0701525878	0.0125997663
3494.9989599608	0.0126994392
3496.9277673338	0.0127466358
3498.8565747069	0.0127918348
3500.7853820799	0.0128599368
3502.7141894530	0.0127924625
3504.6429968260	0.0129066743
3506.5718041991	0.0131526170
3508.5006115721	0.0130141769
3510.4294189452	0.0131094679
3512.3582263182	0.0132744890
3514.2870336913	0.0132271145
3516.2158410643	0.0133123863
3518.1446484374	0.0133665465
3520.0734558104	0.0134775992
3522.0022631835	0.0134149054
3523.9310705565	0.0133172963
3525.8598779295	0.0134747289
3527.7886853026	0.0136126354
3529.7174926756	0.0136035057
3531.6463000487	0.0138433967
3533.5751074217	0.0140420115
3535.5039147948	0.0138298748
3537.4327221678	0.0139682051
3539.3615295409	0.0140947755
3541.2903369139	0.0140989693
3543.2191442870	0.0141569432
3545.1479516600	0.0139295664
3547.0767590331	0.0138976155
3549.0055664061	0.0142438551
3550.9343737792	0.0144034028
3552.8631811522	0.0142115876
3554.7919885252	0.0144432597
3556.7207958983	0.0146473609
3558.6496032713	0.0145484321
3560.5784106444	0.0145167131
3562.5072180174	0.0145925023
3564.4360253905	0.0147901075
3566.3648327635	0.0140502974
3568.2936401366	0.0137634668
3570.2224475096	0.0147265727
3572.1512548827	0.0149810016
3574.0800622557	0.0149381990
3576.0088696288	0.0150848143
3577.9376770018	0.0150484284
3579.8664843749	0.0151522402
3581.7952917479	0.0151489060
3583.7240991210	0.0152102159
3585.6529064940	0.0150472196
3587.5817138670	0.0142321941
3589.5105212401	0.0146290138
3591.4393286131	0.0155848805
3593.3681359862	0.0153700588
3595.2969433592	0.0151329776
3597.2257507323	0.0153226685
3599.1545581053	0.0155691952
3601.0833654784	0.0154570863
3603.0121728514	0.0155504830
3604.9409802245	0.0159273464
3606.8697875975	0.0155402068
3608.7985949706	0.0147958007
3610.7274023436	0.0152545115
3612.6562097167	0.0155547084
3614.5850170897	0.0152638732
3616.5138244627	0.0162323862
3618.4426318358	0.0151783470
3620.3714392088	0.0149583463
3622.3002465819	0.0164243542
3624.2290539549	0.0160456914
3626.1578613280	0.0168014579
3628.0866687010	0.0146743953
3630.0154760741	0.0138838207
3631.9442834471	0.0166854952
3633.8730908202	0.0162290540
3635.8018981932	0.0166225694
3637.7307055663	0.0168802682
3639.6595129393	0.0166894607
3641.5883203124	0.0170497149
3643.5171276854	0.0169884413
3645.4459350584	0.0171382353
3647.3747424315	0.0157899819
3649.3035498045	0.0149076730
3651.2323571776	0.0151507435
3653.1611645506	0.0173348188
3655.0899719237	0.0172255132
3657.0187792967	0.0159443989
3658.9475866698	0.0178681035
3660.8763940428	0.0176533125
3662.8052014159	0.0179485027
3664.7340087889	0.0178702865
3666.6628161620	0.0178822409
3668.5916235350	0.0175327659
3670.5204309081	0.0150046414
3672.4492382811	0.0175923705
3674.3780456541	0.0168898646
3676.3068530272	0.0147752296
3678.2356604002	0.0177602954
3680.1644677733	0.0179758146
3682.0932751463	0.0180447809
3684.0220825194	0.0184691474
3685.9508898924	0.0182592161
3687.8796972655	0.0167341139
3689.8085046385	0.0156989116
3691.7373120116	0.0176255107
3693.6661193846	0.0179583263
3695.5949267577	0.0182633586
3697.5237341307	0.0182422269
3699.4525415038	0.0181122646
3701.3813488768	0.0177827217
3703.3101562499	0.0172719043
3705.2389636229	0.0185782928
3707.1677709959	0.0176629499
3709.0965783690	0.0173487142
3711.0253857420	0.0165061858
3712.9541931151	0.0157082397
3714.8830004881	0.0178546179
3716.8118078612	0.0175783280
3718.7406152342	0.0176235773
3720.6694226073	0.0171581209
3722.5982299803	0.0168001708
3724.5270373534	0.0173327662
3726.4558447264	0.0162918158
3728.3846520995	0.0172662064
3730.3134594725	0.0168945361
3732.2422668456	0.0158908218
3734.1710742186	0.0155687332
3736.0998815916	0.0148918703
3738.0286889647	0.0155686457
3739.9574963377	0.0166291725
3741.8863037108	0.0170880668
3743.8151110838	0.0137818418
3745.7439184569	0.0134044029
3747.6727258299	0.0163117088
3749.6015332030	0.0143358074
3751.5303405760	0.0134878661
3753.4591479491	0.0150449518
3755.3879553221	0.0159747452
3757.3167626952	0.0163077489
3759.2455700682	0.0153917028
3761.1743774413	0.0158234388
3763.1031848143	0.0164907593
3765.0319921873	0.0156059545
3766.9607995604	0.0157935712
3768.8896069334	0.0156396870
3770.8184143065	0.0150429774
3772.7472216795	0.0160556771
3774.6760290526	0.0159847457
3776.6048364256	0.0158492662
3778.5336437987	0.0156114437
3780.4624511717	0.0150553919
3782.3912585448	0.0157071911
3784.3200659178	0.0154329399
3786.2488732909	0.0153664183
3788.1776806639	0.0156482738
3790.1064880370	0.0154187679
3792.0352954100	0.0152573660
3793.9641027830	0.0155354952
3795.8929101561	0.0146942688
3797.8217175291	0.0145573243
3799.7505249022	0.0151071604
3801.6793322752	0.0126406755
3803.6081396483	0.0143327154
3805.5369470213	0.0150973238
3807.4657543944	0.0129837235
3809.3945617674	0.0149219763
3811.3233691405	0.0146488957
3813.2521765135	0.0150939338
3815.1809838866	0.0136825871
3817.1097912596	0.0125717167
3819.0385986327	0.0149482526
3820.9674060057	0.0125465263
3822.8962133787	0.0131727830
3824.8250207518	0.0146858972
3826.7538281248	0.0135742230
3828.6826354979	0.0143539868
3830.6114428709	0.0138957547
3832.5402502440	0.0135631002
3834.4690576170	0.0136999693
3836.3978649901	0.0130635956
3838.3266723631	0.0120910648
3840.2554797362	0.0130045945
3842.1842871092	0.0136356503
3844.1130944823	0.0130798072
3846.0419018553	0.0140236076
3847.9707092284	0.0137510728
3849.8995166014	0.0137958974
3851.8283239745	0.0126704276
3853.7571313475	0.0100306300
3855.6859387205	0.0114660412
3857.6147460936	0.0136992987
3859.5435534666	0.0133382389
3861.4723608397	0.0131915668
3863.4011682127	0.0129463291
3865.3299755858	0.0123159764
3867.2587829588	0.0133066373
3869.1875903319	0.0123652704
3871.1163977049	0.0117431078
3873.0452050780	0.0132711064
3874.9740124510	0.0123841502
3876.9028198241	0.0131406579
3878.8316271971	0.0132636484
3880.7604345702	0.0117550055
3882.6892419432	0.0132173486
3884.6180493162	0.0124277975
3886.5468566893	0.0115639456
3888.4756640623	0.0131025538
3890.4044714354	0.0123784337
3892.3332788084	0.0119343530
3894.2620861815	0.0127813695
3896.1908935545	0.0127926869
3898.1197009276	0.0124217458
3900.0485083006	0.0118782464
3901.9773156737	0.0117914546
3903.9061230467	0.0116478950
3905.8349304198	0.0117225964
3907.7637377928	0.0125355516
3909.6925451659	0.0124917664
3911.6213525389	0.0123879965
3913.5501599119	0.0124816783
3915.4789672850	0.0121377856
3917.4077746580	0.0119413268
3919.3365820311	0.0119442632
3921.2653894041	0.0122432346
3923.1941967772	0.0120788869
3925.1230041502	0.0118172187
3927.0518115233	0.0120618213
3928.9806188963	0.0121311639
3930.9094262694	0.0118542872
3932.8382336424	0.0115879606
3934.7670410155	0.0119253462
3936.6958483885	0.0120117888
3938.6246557616	0.0118998401
3940.5534631346	0.0120244948
3942.4822705076	0.0115951346
3944.4110778807	0.0116384383
3946.3398852537	0.0118783005
3948.2686926268	0.0114845186
3950.1974999998	0.0114965979
3952.1263073729	0.0116734225
3954.0551147459	0.0117238276
3955.9839221190	0.0116067547
3957.9127294920	0.0114462543
3959.8415368651	0.0115837995
3961.7703442381	0.0114320507
3963.6991516112	0.0113567654
3965.6279589842	0.0114644542
3967.5567663573	0.0114010992
3969.4855737303	0.0113577172
3971.4143811034	0.0113224881
3973.3431884764	0.0113399625
3975.2719958494	0.0111332778
3977.2008032225	0.0110914474
3979.1296105955	0.0112364339
3981.0584179686	0.0111815818
3982.9872253416	0.0111131901
3984.9160327147	0.0110179111
3986.8448400877	0.0110882036
3988.7736474608	0.0110011594
3990.7024548338	0.0108892638
3992.6312622069	0.0109748598
3994.5600695799	0.0109294653
3996.4888769530	0.0108585153
3998.4176843260	0.0108218137
4000.3464916991	0.0109129380
4002.2752990721	0.0108699519
4004.2041064451	0.0108152349
4006.1329138182	0.0108395647
4008.0617211912	0.0106853582
4009.9905285643	0.0106024025
4011.9193359373	0.0106164310
4013.8481433104	0.0106069753
4015.7769506834	0.0105336811
4017.7057580565	0.0106018819
4019.6345654295	0.0105970129
4021.5633728026	0.0104232673
4023.4921801756	0.0104272831
4025.4209875487	0.0104009463
4027.3497949217	0.0103799431
4029.2786022948	0.0104325833
4031.2074096678	0.0104072206
4033.1362170408	0.0103046950
4035.0650244139	0.0102942679
4036.9938317869	0.0103509324
4038.9226391600	0.0102599850
4040.8514465330	0.0102386344
4042.7802539061	0.0102753192
4044.7090612791	0.0101730358
4046.6378686522	0.0101007391
4048.5666760252	0.0101188784
4050.4954833983	0.0100798812
4052.4242907713	0.0100223273
4054.3530981444	0.0100256931
4056.2819055174	0.0099989660
4058.2107128905	0.0099409623
4060.1395202635	0.0099313352
4062.0683276365	0.0098972786
4063.9971350096	0.0099032763
4065.9259423826	0.0099586770
4067.8547497557	0.0097796712
4069.7835571287	0.0097139766
4071.7123645018	0.0098304711
4073.6411718748	0.0096836686
4075.5699792479	0.0096176825
4077.4987866209	0.0097169159
4079.4275939940	0.0096307714
4081.3564013670	0.0095111793
4083.2852087401	0.0095255449
4085.2140161131	0.0095256288
4087.1428234862	0.0095207030
4089.0716308592	0.0094897691
4091.0004382323	0.0094746482
4092.9292456053	0.0095122699
4094.8580529783	0.0094573861
4096.7868603514	0.0094402628
4098.7156677244	0.0093731824
4100.6444750975	0.0093889646
4102.5732824705	0.0094381254
4104.5020898436	0.0092931185
4106.4308972166	0.0093337866
4108.3597045897	0.0093640015
4110.2885119627	0.0092481533
4112.2173193358	0.0092180818
4114.1461267088	0.0092195431
4116.0749340819	0.0091692274
4118.0037414549	0.0091413576
4119.9325488280	0.0091523565
4121.8613562010	0.0090800384
4123.7901635740	0.0090297908
4125.7189709471	0.0090232491
4127.6477783201	0.0090535600
4129.5765856932	0.0089906259
4131.5053930662	0.0088761793
4133.4342004393	0.0088665169
4135.3630078123	0.0088820979
4137.2918151854	0.0089213476
4139.2206225584	0.0089137275
4141.1494299315	0.0089074410
4143.0782373045	0.0088169379
4145.0070446776	0.0087581296
4146.9358520506	0.0087460689
4148.8646594237	0.0086562531
4150.7934667967	0.0086646751
4152.7222741697	0.0086691231
4154.6510815428	0.0086853895
4156.5798889158	0.0086157788
4158.5086962889	0.0085559953
4160.4375036619	0.0085584726
4162.3663110350	0.0085419323
4164.2951184080	0.0085770208
4166.2239257811	0.0085119624
4168.1527331541	0.0085203592
4170.0815405272	0.0084491782
4172.0103479002	0.0083766636
4173.9391552733	0.0084310248
4175.8679626463	0.0083568003
4177.7967700194	0.0083357692
4179.7255773924	0.0083368588
4181.6543847654	0.0083181206
4183.5831921385	0.0083068777
4185.5119995115	0.0083098738
4187.4408068846	0.0082669705
4189.3696142576	0.0082122330
4191.2984216307	0.0081957653
4193.2272290037	0.0081653567
4195.1560363768	0.0081650838
4197.0848437498	0.0080816168
4199.0136511229	0.0080979858
4200.9424584959	0.0080972798
4202.8712658690	0.0080206059
4204.8000732420	0.0080627743
4206.7288806151	0.0080131721
4208.6576879881	0.0079598222
4210.5864953611	0.0079572517
4212.5153027342	0.0079546757
4214.4441101072	0.0079908492
4216.3729174803	0.0079968376
4218.3017248533	0.0079013482
4220.2305322264	0.0078209452
4222.1593395994	0.0077999667
4224.0881469725	0.0078048650
4226.0169543455	0.0078229448
4227.9457617186	0.0077631692
4229.8745690916	0.0077446625
4231.8033764647	0.0077182511
4233.7321838377	0.0077047711
4235.6609912108	0.0077150702
4237.5897985838	0.0077150078
4239.5186059569	0.0076990426
4241.4474133299	0.0076478077
4243.3762207029	0.0076918444
4245.3050280760	0.0076195933
4247.2338354490	0.0075505832
4249.1626428221	0.0075152195
4251.0914501951	0.0074949493
4253.0202575682	0.0075600911
4254.9490649412	0.0075402465
4256.8778723143	0.0075184181
4258.8066796873	0.0074313106
4260.7354870604	0.0074439179
4262.6642944334	0.0073802816
4264.5931018065	0.0072770137
4266.5219091795	0.0073240437
4268.4507165526	0.0073157866
4270.3795239256	0.0073743928
4272.3083312986	0.0073125791
4274.2371386717	0.0073055765
4276.1659460447	0.0072759567
4278.0947534178	0.0072017293
4280.0235607908	0.0072956793
4281.9523681639	0.0072594415
4283.8811755369	0.0072208042
4285.8099829100	0.0071792938
4287.7387902830	0.0070986487
4289.6675976561	0.0070598861
4291.5964050291	0.0071475161
4293.5252124022	0.0070841480
4295.4540197752	0.0069723343
4297.3828271483	0.0070616566
4299.3116345213	0.0070149694
4301.2404418943	0.0070370776
4303.1692492674	0.0069677364
4305.0980566404	0.0069139274
4307.0268640135	0.0069264467
4308.9556713865	0.0069024814
4310.8844787596	0.0069284299
4312.8132861326	0.0068080067
4314.7420935057	0.0069484753
4316.6709008787	0.0069505088
4318.5997082518	0.0068146540
4320.5285156248	0.0068298290
4322.4573229979	0.0068087904
4324.3861303709	0.0068319854
4326.3149377440	0.0067147943
4328.2437451170	0.0068011121
4330.1725524900	0.0067403931
4332.1013598631	0.0065910621
4334.0301672361	0.0067328252
4335.9589746092	0.0066705532
4337.8877819822	0.0066525554
4339.8165893553	0.0066691330
4341.7453967283	0.0065923994
4343.6742041014	0.0066042012
4345.6030114744	0.0065882546
4347.5318188475	0.0065574036
4349.4606262205	0.0066513214
4351.3894335936	0.0066084806
4353.3182409666	0.0065383455
4355.2470483397	0.0065520830
4357.1758557127	0.0063732071
4359.1046630858	0.0063770018
4361.0334704588	0.0063920631
4362.9622778318	0.0064476104
4364.8910852049	0.0065221838
4366.8198925779	0.0063249497
4368.7486999510	0.0063428562
4370.6775073240	0.0063624890
4372.6063146971	0.0063525969
4374.5351220701	0.0063048052
4376.4639294432	0.0062005930
4378.3927368162	0.0062623220
4380.3215441893	0.0062017739
4382.2503515623	0.0061469106
4384.1791589354	0.0061434354
4386.1079663084	0.0061432244
4388.0367736815	0.0061240951
4389.9655810545	0.0061346060
4391.8943884275	0.0061946809
4393.8231958006	0.0060933488
4395.7520031736	0.0060972706
4397.6808105467	0.0061769700
4399.6096179197	0.0061232103
4401.5384252928	0.0060787708
4403.4672326658	0.0060478188
4405.3960400389	0.0060408618
4407.3248474119	0.0060002347
4409.2536547850	0.0058860537
4411.1824621580	0.0058971127
4413.1112695311	0.0059340345
4415.0400769041	0.0059021250
4416.9688842772	0.0059156311
4418.8976916502	0.0059267213
4420.8264990232	0.0058928709
4422.7553063963	0.0058107935
4424.6841137693	0.0058659269
4426.6129211424	0.0058432519
4428.5417285154	0.0057777888
4430.4705358885	0.0059005450
4432.3993432615	0.0057766680
4434.3281506346	0.0056730006
4436.2569580076	0.0057247221
4438.1857653807	0.0057587051
4440.1145727537	0.0057602916
4442.0433801268	0.0056592287
4443.9721874998	0.0056859488
4445.9009948729	0.0056373170
4447.8298022459	0.0056237550
4449.7586096189	0.0056577306
4451.6874169920	0.0055998340
4453.6162243650	0.0056652250
4455.5450317381	0.0055811717
4457.4738391111	0.0055557420
4459.4026464842	0.0056468965
4461.3314538572	0.0055874097
4463.2602612303	0.0055641923
4465.1890686033	0.0054836334
4467.1178759764	0.0054721301
4469.0466833494	0.0055231825
4470.9754907225	0.0054207342
4472.9042980955	0.0054418887
4474.8331054686	0.0054785870
4476.7619128416	0.0054592509
4478.6907202147	0.0054956451
4480.6195275877	0.0054036202
4482.5483349607	0.0053690034
4484.4771423338	0.0054079695
4486.4059497068	0.0053708917
4488.3347570799	0.0053207465
4490.2635644529	0.0052590519
4492.1923718260	0.0052387351
4494.1211791990	0.0052675828
4496.0499865721	0.0052850526
4497.9787939451	0.0052068718
4499.9076013182	0.0052084802
4501.8364086912	0.0053003388
4503.7652160643	0.0052687870
4505.6940234373	0.0052074222
4507.6228308104	0.0051821666
4509.5516381834	0.0052132774
4511.4804455564	0.0052140672
4513.4092529295	0.0051098242
4515.3380603025	0.0050793919
4517.2668676756	0.0051067472
4519.1956750486	0.0050357701
4521.1244824217	0.0050944067
4523.0532897947	0.0051138252
4524.9820971678	0.0049917977
4526.9109045408	0.0050975368
4528.8397119139	0.0050480398
4530.7685192869	0.0049655046
4532.6973266600	0.0049660876
4534.6261340330	0.0048611937
4536.5549414061	0.0049392749
4538.4837487791	0.0049627349
4540.4125561521	0.0050190147
4542.3413635252	0.0050001191
4544.2701708982	0.0048870472
4546.1989782713	0.0049519958
4548.1277856443	0.0049073435
4550.0565930174	0.0048739929
4551.9854003904	0.0048516593
4553.9142077635	0.0048642363
4555.8430151365	0.0048746560
4557.7718225096	0.0047946861
4559.7006298826	0.0048132171
4561.6294372557	0.0047665955
4563.5582446287	0.0047238944
4565.4870520018	0.0047445158
4567.4158593748	0.0046998998
4569.3446667478	0.0046957200
4571.2734741209	0.0047556846
4573.2022814939	0.0047136187
4575.1310888670	0.0046710386
4577.0598962400	0.0046851472
4578.9887036131	0.0046781311
4580.9175109861	0.0047189677
4582.8463183592	0.0046241991
4584.7751257322	0.0045554526
4586.7039331053	0.0045896699
4588.6327404783	0.0045714518
4590.5615478514	0.0045768721
4592.4903552244	0.0045599490
4594.4191625975	0.0045603262
4596.3479699705	0.0045052795
4598.2767773435	0.0044993749
4600.2055847166	0.0045395982
4602.1343920896	0.0045084953
4604.0631994627	0.0044843191
4605.9920068357	0.0044013676
4607.9208142088	0.0043979799
4609.8496215818	0.0044460259
4611.7784289549	0.0044290368
4613.7072363279	0.0044084303
4615.6360437010	0.0044359155
4617.5648510740	0.0044103228
4619.4936584471	0.0043478189
4621.4224658201	0.0043976759
4623.3512731932	0.0043485770
4625.2800805662	0.0043228455
4627.2088879393	0.0043757679
4629.1376953123	0.0043328619
4631.0665026853	0.0043201661
4632.9953100584	0.0043275668
4634.9241174314	0.0042977836
4636.8529248045	0.0042181537
4638.7817321775	0.0042173583
4640.7105395506	0.0042570187
4642.6393469236	0.0042424928
4644.5681542967	0.0042212382
4646.4969616697	0.0041538067
4648.4257690428	0.0041807024
4650.3545764158	0.0042489781
4652.2833837889	0.0042163176
4654.2121911619	0.0041735098
4656.1409985350	0.0041699433
4658.0698059080	0.0041651484
4659.9986132810	0.0041152099
4661.9274206541	0.0041097654
4663.8562280271	0.0041715950
4665.7850354002	0.0041490165
4667.7138427732	0.0040492462
4669.6426501463	0.0040309066
4671.5714575193	0.0040739519
4673.5002648924	0.0041280845
4675.4290722654	0.0040927469
4677.3578796385	0.0040067728
4679.2866870115	0.0040655565
4681.2154943846	0.0040403884
4683.1443017576	0.0039728442
4685.0731091307	0.0040036282
4687.0019165037	0.0039844899
4688.9307238767	0.0040022023
4690.8595312498	0.0039652861
4692.7883386228	0.0039362009
4694.7171459959	0.0039467770
4696.6459533689	0.0038705575
4698.5747607420	0.0038917195
4700.5035681150	0.0038999144
4702.4323754881	0.0038535174
4704.3611828611	0.0038703182
4706.2899902342	0.0038684052
4708.2187976072	0.0038711906
4710.1476049803	0.0038965170
4712.0764123533	0.0038565095
4714.0052197264	0.0038401019
4715.9340270994	0.0038521891
4717.8628344724	0.0037421766
4719.7916418455	0.0038283388
4721.7204492185	0.0038779057
4723.6492565916	0.0036837873
4725.5780639646	0.0037274514
4727.5068713377	0.0037362836
4729.4356787107	0.0037149489
4731.3644860838	0.0037698504
4733.2932934568	0.0037479454
4735.2221008299	0.0037084427
4737.1509082029	0.0036262125
4739.0797155760	0.0036934935
4741.0085229490	0.0036904085
4742.9373303221	0.0036422345
4744.8661376951	0.0036519235
4746.7949450682	0.0035835397
4748.7237524412	0.0036056668
4750.6525598142	0.0036183656
4752.5813671873	0.0036050612
4754.5101745603	0.0035671196
4756.4389819334	0.0036082831
4758.3677893064	0.0035919533
4760.2965966795	0.0035043540
4762.2254040525	0.0035459087
4764.1542114256	0.0035186373
4766.0830187986	0.0036153579
4768.0118261717	0.0035968567
4769.9406335447	0.0034505301
4771.8694409178	0.0034560869
4773.7982482908	0.0034642536
4775.7270556639	0.0035043824
4777.6558630369	0.0034168223
4779.5846704099	0.0034013810
4781.5134777830	0.0034347784
4783.4422851560	0.0034596818
4785.3710925291	0.0035092384
4787.2998999021	0.0033802364
4789.2287072752	0.0033808176
4791.1575146482	0.0033921469
4793.0863220213	0.0033414853
4795.0151293943	0.0033458674
4796.9439367674	0.0033327613
4798.8727441404	0.0034057912
4800.8015515135	0.0034262254
4802.7303588865	0.0033749759
4804.6591662596	0.0033709505
4806.5879736326	0.0033589583
4808.5167810056	0.0033257469
4810.4455883787	0.0033509585
4812.3743957517	0.0033031357
4814.3032031248	0.0032327329
4816.2320104978	0.0032559212
4818.1608178709	0.0032275231
4820.0896252439	0.0032424983
4822.0184326170	0.0032465933
4823.9472399900	0.0031950965
4825.8760473631	0.0031976663
4827.8048547361	0.0032377914
4829.7336621092	0.0032109050
4831.6624694822	0.0031808747
4833.5912768553	0.0032487090
4835.5200842283	0.0031925885
4837.4488916013	0.0031836103
4839.3776989744	0.0032019289
4841.3065063474	0.0031060642
4843.2353137205	0.0031424514
4845.1641210935	0.0031506792
4847.0929284666	0.0030926894
4849.0217358396	0.0030820256
4850.9505432127	0.0031289388
4852.8793505857	0.0031645745
4854.8081579588	0.0030815888
4856.7369653318	0.0030460022
4858.6657727049	0.0030639744
4860.5945800779	0.0030234205
4862.5233874510	0.0030340827
4864.4521948240	0.0030662091
4866.3810021971	0.0030282298
4868.3098095701	0.0030799939
4870.2386169431	0.0030172737
4872.1674243162	0.0029070671
4874.0962316892	0.0030808856
4876.0250390623	0.0030379104
4877.9538464353	0.0028959664
4879.8826538084	0.0029596561
4881.8114611814	0.0029610826
4883.7402685545	0.0030046594
4885.6690759275	0.0029531806
4887.5978833006	0.0028775563
4889.5266906736	0.0029017963
4891.4554980467	0.0028670784
4893.3843054197	0.0028776184
4895.3131127928	0.0028673694
4897.2419201658	0.0028893223
4899.1707275388	0.0028769113
4901.0995349119	0.0028602206
4903.0283422849	0.0029216034
4904.9571496580	0.0028155048
4906.8859570310	0.0028447197
4908.8147644041	0.0029110415
4910.7435717771	0.0027754807
4912.6723791502	0.0027700078
4914.6011865232	0.0028468368
4916.5299938963	0.0028345794
4918.4588012693	0.0027609849
4920.3876086424	0.0027853963
4922.3164160154	0.0028121118
4924.2452233885	0.0027841441
4926.1740307615	0.0027719759
4928.1028381345	0.0027200526
4930.0316455076	0.0027266433
4931.9604528806	0.0027580783
4933.8892602537	0.0027795047
4935.8180676267	0.0027308045
4937.7468749998	0.0026941765
4939.6756823728	0.0027169199
4941.6044897459	0.0027348767
4943.5332971189	0.0027639526
4945.4621044920	0.0026621106
4947.3909118650	0.0026590468
4949.3197192381	0.0027009379
4951.2485266111	0.0026381239
4953.1773339842	0.0026354389
4955.1061413572	0.0026459987
4957.0349487302	0.0026394320
4958.9637561033	0.0025707823
4960.8925634763	0.0025822825
4962.8213708494	0.0025993129
4964.7501782224	0.0025977502
4966.6789855955	0.0026106667
4968.6077929685	0.0025724573
4970.5366003416	0.0025928696
4972.4654077146	0.0025652579
4974.3942150877	0.0025978198
4976.3230224607	0.0026061255
4978.2518298338	0.0025706338
4980.1806372068	0.0025632605
4982.1094445799	0.0025267554
4984.0382519529	0.0025363122
4985.9670593259	0.0024686167
4987.8958666990	0.0024866445
4989.8246740720	0.0024749623
4991.7534814451	0.0024761842
4993.6822888181	0.0025083732
4995.6110961912	0.0024171867
4997.5399035642	0.0024743490
4999.4687109373	0.0024667485
5001.3975183103	0.0024852613
5003.3263256834	0.0025193556
5005.2551330564	0.0024708207
5007.1839404295	0.0024045720
5009.1127478025	0.0023309276
5011.0415551756	0.0024514878
5012.9703625486	0.0024041000
5014.8991699217	0.0023460735
5016.8279772947	0.0023618513
5018.7567846677	0.0023630282
5020.6855920408	0.0024321401
5022.6143994138	0.0023243590
5024.5432067869	0.0023350874
5026.4720141599	0.0023231285
5028.4008215330	0.0022649572
5030.3296289060	0.0023203667
5032.2584362791	0.0023008166
5034.1872436521	0.0023530265
5036.1160510252	0.0023752593
5038.0448583982	0.0023545078
5039.9736657713	0.0023626033
5041.9024731443	0.0023322855
5043.8312805174	0.0022813319
5045.7600878904	0.0022814176
5047.6888952634	0.0022557459
5049.6177026365	0.0022219524
5051.5465100095	0.0022619909
5053.4753173826	0.0022532749
5055.4041247556	0.0022964012
5057.3329321287	0.0022836258
5059.2617395017	0.0022823112
5061.1905468748	0.0023136106
5063.1193542478	0.0022526369
5065.0481616209	0.0022851601
5066.9769689939	0.0022592228
5068.9057763670	0.0022376860
5070.8345837400	0.0021920484
5072.7633911131	0.0021112175
5074.6921984861	0.0021358558
5076.6210058591	0.0021484452
5078.5498132322	0.0021595499
5080.4786206052	0.0021563475
5082.4074279783	0.0022179764
5084.3362353513	0.0021621725
5086.2650427244	0.0021310365
5088.1938500974	0.0022104995
5090.1226574705	0.0021350652
5092.0514648435	0.0021927669
5093.9802722166	0.0021984046
5095.9090795896	0.0021075779
5097.8378869627	0.0021181563
5099.7666943357	0.0021200294
5101.6955017088	0.0021233552
5103.6243090818	0.0020686556
5105.5531164548	0.0020875568
5107.4819238279	0.0021022547
5109.4107312009	0.0020853872
5111.3395385740	0.0020915021
5113.2683459470	0.0020359410
5115.1971533201	0.0020541674
5117.1259606931	0.0020271810
5119.0547680662	0.0019884780
5120.9835754392	0.0020108181
5122.9123828123	0.0019699582
5124.8411901853	0.0019651176
5126.7699975584	0.0019510414
5128.6988049314	0.0019558417
5130.6276123045	0.0019739540
5132.5564196775	0.0019347565
5134.4852270506	0.0019718073
5136.4140344236	0.0019628722
5138.3428417966	0.0019833583
5140.2716491697	0.0020457585
5142.2004565427	0.0019694152
5144.1292639158	0.0019569576
5146.0580712888	0.0019309464
5147.9868786619	0.0019220314
5149.9156860349	0.0019650313
5151.8444934080	0.0019338557
5153.7733007810	0.0019530366
5155.7021081541	0.0019094939
5157.6309155271	0.0019090003
5159.5597229002	0.0019363898
5161.4885302732	0.0018660062
5163.4173376463	0.0018784127
5165.3461450193	0.0019082029
5167.2749523923	0.0019170472
5169.2037597654	0.0019395696
5171.1325671384	0.0019271600
5173.0613745115	0.0018139953
5174.9901818845	0.0017679792
5176.9189892576	0.0018206366
5178.8477966306	0.0018372542
5180.7766040037	0.0018794746
5182.7054113767	0.0018496062
5184.6342187498	0.0018482779
5186.5630261228	0.0018739644
5188.4918334959	0.0018215193
5190.4206408689	0.0018450647
5192.3494482420	0.0018812753
5194.2782556150	0.0018237005
5196.2070629880	0.0018026661
5198.1358703611	0.0018459638
5200.0646777341	0.0017808601
5201.9934851072	0.0017573935
5203.9222924802	0.0017560170
5205.8510998533	0.0017139281
5207.7799072263	0.0017406796
5209.7087145994	0.0017115208
5211.6375219724	0.0017490424
5213.5663293455	0.0017441432
5215.4951367185	0.0017086777
5217.4239440916	0.0017645847
5219.3527514646	0.0017032900
5221.2815588377	0.0017174992
5223.2103662107	0.0017412999
5225.1391735837	0.0016379645
5227.0679809568	0.0016628518
5228.9967883298	0.0017431085
5230.9255957029	0.0017763136
5232.8544030759	0.0017770468
5234.7832104490	0.0017160904
5236.7120178220	0.0017643655
5238.6408251951	0.0017610481
5240.5696325681	0.0016441371
5242.4984399412	0.0016869436
5244.4272473142	0.0017070030
5246.3560546873	0.0017039208
5248.2848620603	0.0016801086
5250.2136694334	0.0016427509
5252.1424768064	0.0016779383
5254.0712841795	0.0016642819
5256.0000915525	0.0016296906
5257.9288989255	0.0015663544
5259.8577062986	0.0016441040
5261.7865136716	0.0016680490
5263.7153210447	0.0016177199
5265.6441284177	0.0016233432
5267.5729357908	0.0015459631
5269.5017431638	0.0016097648
5271.4305505369	0.0015964429
5273.3593579099	0.0016342294
5275.2881652830	0.0016833725
5277.2169726560	0.0015678499
5279.1457800291	0.0015664592
5281.0745874021	0.0015303288
5283.0033947752	0.0016249123
5284.9322021482	0.0016301511
5286.8610095212	0.0016286348
5288.7898168943	0.0017077202
5290.7186242673	0.0015331088
5292.6474316404	0.0015756208
5294.5762390134	0.0016142935
5296.5050463865	0.0015115556
5298.4338537595	0.0015270538
5300.3626611326	0.0015434353
5302.2914685056	0.0015629225
5304.2202758787	0.0014986864
5306.1490832517	0.0015175352
5308.0778906248	0.0015620396
5310.0066979978	0.0014917088
5311.9355053709	0.0015584605
5313.8643127439	0.0015694473
5315.7931201169	0.0015101796
5317.7219274900	0.0016060603
5319.6507348630	0.0014825675
5321.5795422361	0.0014246941
5323.5083496091	0.0015876731
5325.4371569822	0.0014944089
5327.3659643552	0.0014705837
5329.2947717283	0.0015045565
5331.2235791013	0.0014812290
5333.1523864744	0.0015136043
5335.0811938474	0.0015314401
5337.0100012205	0.0015109153
5338.9388085935	0.0014066440
5340.8676159666	0.0014577903
5342.7964233396	0.0015024892
5344.7252307126	0.0014408462
5346.6540380857	0.0014315555
5348.5828454587	0.0014373907
5350.5116528318	0.0014675909
5352.4404602048	0.0014994959
5354.3692675779	0.0014602046
5356.2980749509	0.0013482666
5358.2268823240	0.0014478134
5360.1556896970	0.0014234569
5362.0844970701	0.0012965919
5364.0133044431	0.0014224859
5365.9421118162	0.0013864636
5367.8709191892	0.0013332617
5369.7997265623	0.0013976230
5371.7285339353	0.0014516048
5373.6573413083	0.0013688419
5375.5861486814	0.0012819809
5377.5149560544	0.0014112552
5379.4437634275	0.0014001151
5381.3725708005	0.0013364948
5383.3013781736	0.0013809175
5385.2301855466	0.0013894747
5387.1589929197	0.0012952101
5389.0878002927	0.0012874356
5391.0166076658	0.0013962479
5392.9454150388	0.0013461574
5394.8742224119	0.0012962427
5396.8030297849	0.0012893799
5398.7318371580	0.0012889339
5400.6606445310	0.0013411295
5402.5894519041	0.0013367804
5404.5182592771	0.0012996917
5406.4470666501	0.0013154543
5408.3758740232	0.0013222477
5410.3046813962	0.0013658211
5412.2334887693	0.0013838315
5414.1622961423	0.0012499294
5416.0911035154	0.0013128956
5418.0199108884	0.0013323745
5419.9487182615	0.0012467939
5421.8775256345	0.0013027941
5423.8063330076	0.0012424923
5425.7351403806	0.0012926668
5427.6639477537	0.0012808554
5429.5927551267	0.0012311866
5431.5215624998	0.0013415043
5433.4503698728	0.0012728199
5435.3791772458	0.0012148530
5437.3079846189	0.0012112877
5439.2367919919	0.0012121763
5441.1655993650	0.0012297549
5443.0944067380	0.0012571110
5445.0232141111	0.0013078877
5446.9520214841	0.0012735547
5448.8808288572	0.0012848235
5450.8096362302	0.0012525374
5452.7384436033	0.0011923333
5454.6672509763	0.0012570198
5456.5960583494	0.0012671079
5458.5248657224	0.0012017309
5460.4536730955	0.0011468650
5462.3824804685	0.0011483484
5464.3112878415	0.0012018095
5466.2400952146	0.0012138828
5468.1689025876	0.0011842872
5470.0977099607	0.0011627730
5472.0265173337	0.0011651965
5473.9553247068	0.0011710424
5475.8841320798	0.0011821897
5477.8129394529	0.0011764426
5479.7417468259	0.0011414199
5481.6705541990	0.0011847788
5483.5993615720	0.0011809199
5485.5281689451	0.0011117475
5487.4569763181	0.0011464339
5489.3857836912	0.0011730490
5491.3145910642	0.0011697093
5493.2433984372	0.0011271925
5495.1722058103	0.0011463251
5497.1010131833	0.0012059594
5499.0298205564	0.0011171603
5500.9586279294	0.0011205380
5502.8874353025	0.0011770495
5504.8162426755	0.0011167130
5506.7450500486	0.0010739560
5508.6738574216	0.0010884739
5510.6026647947	0.0010978188
5512.5314721677	0.0010791749
5514.4602795408	0.0011428504
5516.3890869138	0.0011674237
5518.3178942869	0.0010452816
5520.2467016599	0.0010290579
5522.1755090330	0.0010924846
5524.1043164060	0.0010706373
5526.0331237790	0.0010782529
5527.9619311521	0.0011381051
5529.8907385251	0.0011525536
5531.8195458982	0.0010878680
5533.7483532712	0.0011095789
5535.6771606443	0.0011453782
5537.6059680173	0.0010491093
5539.5347753904	0.0010911126
5541.4635827634	0.0010556704
5543.3923901365	0.0009910511
5545.3211975095	0.0011102048
5547.2500048826	0.0010881369
5549.1788122556	0.0010524902
5551.1076196287	0.0010024433
5553.0364270017	0.0009816496
5554.9652343747	0.0010083930
5556.8940417478	0.0010002030
5558.8228491208	0.0010827503
5560.7516564939	0.0010559792
5562.6804638669	0.0010435479
5564.6092712400	0.0010372363
5566.5380786130	0.0009834962
5568.4668859861	0.0010102168
5570.3956933591	0.0010267472
5572.3245007322	0.0010726131
5574.2533081052	0.0010710136
5576.1821154783	0.0010466813
5578.1109228513	0.0009866047
5580.0397302244	0.0009765072
5581.9685375974	0.0010646431
5583.8973449704	0.0010594829
5585.8261523435	0.0010421512
5587.7549597165	0.0010411835
5589.6837670896	0.0010205848
5591.6125744626	0.0009377417
5593.5413818357	0.0009691726
5595.4701892087	0.0010468630
5597.3989965818	0.0009504085
5599.3278039548	0.0009636853
5601.2566113279	0.0010274795
5603.1854187009	0.0010078026
5605.1142260740	0.0009577036
5607.0430334470	0.0009520113
5608.9718408201	0.0009833237
5610.9006481931	0.0008999291
5612.8294555661	0.0009470317
5614.7582629392	0.0010322093
5616.6870703122	0.0009147348
5618.6158776853	0.0009166687
5620.5446850583	0.0009506913
5622.4734924314	0.0008648001
5624.4022998044	0.0009100786
5626.3311071775	0.0009324048
5628.2599145505	0.0009083662
5630.1887219236	0.0009618533
5632.1175292966	0.0009570748
5634.0463366697	0.0009992188
5635.9751440427	0.0009794721
5637.9039514158	0.0009079631
5639.8327587888	0.0009385740
5641.7615661619	0.0009314583
5643.6903735349	0.0009251140
5645.6191809079	0.0008571468
5647.5479882810	0.0008435646
5649.4767956540	0.0009005766
5651.4056030271	0.0008768041
5653.3344104001	0.0009019290
5655.2632177732	0.0008593003
5657.1920251462	0.0008299153
5659.1208325193	0.0008700655
5661.0496398923	0.0008909467
5662.9784472654	0.0008835689
5664.9072546384	0.0008403233
5666.8360620115	0.0008754865
5668.7648693845	0.0008344497
5670.6936767576	0.0008703431
5672.6224841306	0.0008712393
5674.5512915036	0.0007687537
5676.4800988767	0.0009346450
5678.4089062497	0.0009257786
5680.3377136228	0.0008917071
5682.2665209958	0.0009596311
5684.1953283689	0.0008173472
5686.1241357419	0.0008075458
5688.0529431150	0.0008241012
5689.9817504880	0.0008233794
5691.9105578611	0.0008193540
5693.8393652341	0.0007883883
5695.7681726072	0.0008621445
5697.6969799802	0.0008151438
5699.6257873533	0.0007795830
5701.5545947263	0.0008213248
5703.4834020993	0.0007820518
5705.4122094724	0.0008286956
5707.3410168454	0.0008564882
5709.2698242185	0.0008099674
5711.1986315915	0.0008484954
5713.1274389646	0.0007685121
5715.0562463376	0.0007334383
5716.9850537107	0.0008178558
5718.9138610837	0.0007713299
5720.8426684568	0.0007954910
5722.7714758298	0.0008143698
5724.7002832029	0.0008241383
5726.6290905759	0.0008045235
5728.5578979490	0.0007672295
5730.4867053220	0.0008087148
5732.4155126950	0.0007261613
5734.3443200681	0.0007782797
5736.2731274411	0.0008110774
5738.2019348142	0.0007548341
5740.1307421872	0.0008007252
5742.0595495603	0.0007769418
5743.9883569333	0.0007352980
5745.9171643064	0.0007263197
5747.8459716794	0.0008048279
5749.7747790525	0.0007478471
5751.7035864255	0.0007498114
5753.6323937986	0.0007951557
5755.5612011716	0.0006927131
5757.4900085447	0.0007446804
5759.4188159177	0.0007073117
5761.3476232907	0.0007284688
5763.2764306638	0.0007718399
5765.2052380368	0.0007785856
5767.1340454099	0.0007938753
5769.0628527829	0.0006654008
5770.9916601560	0.0007370648
5772.9204675290	0.0007195493
5774.8492749021	0.0007113693
5776.7780822751	0.0007721331
5778.7068896482	0.0006634003
5780.6356970212	0.0007231170
5782.5645043943	0.0007432196
5784.4933117673	0.0007129685
5786.4221191404	0.0007164956
5788.3509265134	0.0006784422
5790.2797338865	0.0006879293
5792.2085412595	0.0006662661
5794.1373486325	0.0006501959
5796.0661560056	0.0006847201
5797.9949633786	0.0006896913
5799.9237707517	0.0006721272
5801.8525781247	0.0006793647
5803.7813854978	0.0006416886
5805.7101928708	0.0006423672
5807.6390002439	0.0007197682
5809.5678076169	0.0007279128
5811.4966149900	0.0006588323
5813.4254223630	0.0006536786
5815.3542297361	0.0006701687
5817.2830371091	0.0006618958
5819.2118444822	0.0007191793
5821.1406518552	0.0006684324
5823.0694592282	0.0006566417
5824.9982666013	0.0006371730
5826.9270739743	0.0005406812
5828.8558813474	0.0006485742
5830.7846887204	0.0006761433
5832.7134960935	0.0006629736
5834.6423034665	0.0006844964
5836.5711108396	0.0006175447
5838.4999182126	0.0005825670
5840.4287255857	0.0006514853
5842.3575329587	0.0007110110
5844.2863403318	0.0006051950
5846.2151477048	0.0006583527
5848.1439550779	0.0006925695
5850.0727624509	0.0005794676
5852.0015698239	0.0006230560
5853.9303771970	0.0005980160
5855.8591845700	0.0005627337
5857.7879919431	0.0006396676
5859.7167993161	0.0006592641
5861.6456066892	0.0005672958
5863.5744140622	0.0005460508
5865.5032214353	0.0006164919
5867.4320288083	0.0006447105
5869.3608361814	0.0006861615
5871.2896435544	0.0005917512
5873.2184509275	0.0005242787
5875.1472583005	0.0006169871
5877.0760656736	0.0005701275
5879.0048730466	0.0005730764
5880.9336804196	0.0006624961
5882.8624877927	0.0006029105
5884.7912951657	0.0005871201
5886.7201025388	0.0005909558
5888.6489099118	0.0005528881
5890.5777172849	0.0005720087
5892.5065246579	0.0005698473
5894.4353320310	0.0005721375
5896.3641394040	0.0005535134
5898.2929467771	0.0005909993
5900.2217541501	0.0006327400
5902.1505615232	0.0005718063
5904.0793688962	0.0005991075
5906.0081762693	0.0005601254
5907.9369836423	0.0005089969
5909.8657910154	0.0006021551
5911.7945983884	0.0005852270
5913.7234057614	0.0005410605
5915.6522131345	0.0006264583
5917.5810205075	0.0006513000
5919.5098278806	0.0005686902
5921.4386352536	0.0005406289
5923.3674426267	0.0005640958
5925.2962499997	0.0005417629
5927.2250573728	0.0005194010
5929.1538647458	0.0005733709
5931.0826721189	0.0005530722
5933.0114794919	0.0004971141
5934.9402868650	0.0005581852
5936.8690942380	0.0005926756
5938.7979016111	0.0005512984
5940.7267089841	0.0005041167
5942.6555163571	0.0005472436
5944.5843237302	0.0005569302
5946.5131311032	0.0005307475
5948.4419384763	0.0005752055
5950.3707458493	0.0005407126
5952.2995532224	0.0005167910
5954.2283605954	0.0004920318
5956.1571679685	0.0005264204
5958.0859753415	0.0006082003
5960.0147827146	0.0005195926
5961.9435900876	0.0004952290
5963.8723974607	0.0005407577
5965.8012048337	0.0004906283
5967.7300122068	0.0005006546
5969.6588195798	0.0006106774
5971.5876269528	0.0005975127
5973.5164343259	0.0004750056
5975.4452416989	0.0005024690
5977.3740490720	0.0005490752
5979.3028564450	0.0004863765
5981.2316638181	0.0004816248
5983.1604711911	0.0004512599
5985.0892785642	0.0004336441
5987.0180859372	0.0005303675
5988.9468933103	0.0004749242
5990.8757006833	0.0004316825
5992.8045080564	0.0005411996
5994.7333154294	0.0005781449
5996.6621228025	0.0004786960
5998.5909301755	0.0004039803
6000.5197375485	0.0005264028
