399.2631262207	0.0014370552
401.1919335938	0.0015466809
403.1207409668	0.0013100659
405.0495483398	0.0013009239
406.9783557129	0.0013355525
408.9071630859	0.0016615752
410.8359704590	0.0018521450
412.7647778320	0.0017400316
414.6935852051	0.0018910263
416.6223925781	0.0011520251
418.5511999512	0.0009973076
420.4800073242	0.0017196941
422.4088146973	0.0015905383
424.3376220703	0.0017970897
426.2664294434	0.0018984736
428.1952368164	0.0018107916
430.1240441895	0.0020059529
432.0528515625	0.0019206351
433.9816589355	0.0017117746
435.9104663086	0.0013713725
437.8392736816	0.0015050054
439.7680810547	0.0014561082
441.6968884277	0.0011719509
443.6256958008	0.0015622919
445.5545031738	0.0014168750
447.4833105469	0.0010324405
449.4121179199	0.0015271606
451.3409252930	0.0014879369
453.2697326660	0.0009957721
455.1985400391	0.0011720860
457.1273474121	0.0010075391
459.0561547852	0.0010432684
460.9849621582	0.0012685900
462.9137695313	0.0008525148
464.8425769043	0.0006647339
466.7713842773	0.0008074573
468.7001916504	0.0010268340
470.6289990234	0.0006518227
472.5578063965	0.0005713083
474.4866137695	0.0011564306
476.4154211426	0.0008163970
478.3442285156	0.0004020881
480.2730358887	0.0004201873
482.2018432617	0.0004604908
484.1306506348	0.0008310367
486.0594580078	0.0010028500
487.9882653809	0.0008765990
489.9170727539	0.0007840680
491.8458801270	0.0004957325
493.7746875000	0.0004201039
495.7034948730	0.0003995369
497.6323022461	0.0005771636
499.5611096191	0.0010808327
501.4899169922	0.0006534876
503.4187243652	0.0006042498
505.3475317383	0.0007983440
507.2763391113	0.0004050144
509.2051464844	0.0007363235
511.1339538574	0.0005869814
513.0627612305	0.0003260614
514.9915686035	0.0005422579
516.9203759766	0.0000702033
518.8491833496	0.0000079865
520.7779907227	0.0007054958
522.7067980957	0.0005846584
524.6356054688	0.0002155685
526.5644128418	0.0004519930
528.4932202148	0.0001759525
530.4220275879	0.0002504837
532.3508349609	0.0005920064
534.2796423340	0.0003564632
536.2084497070	0.0003650702
538.1372570801	0.0002503386
540.0660644531	0.0002159470
541.9948718262	0.0003929747
543.9236791992	0.0005519412
545.8524865723	0.0004258073
547.7812939453	0.0002810511
549.7101013184	0.0007017165
551.6389086914	0.0006761040
553.5677160645	0.0003986190
555.4965234375	0.0004063307
557.4253308105	0.0003139268
559.3541381836	0.0004446752
561.2829455566	0.0007213439
563.2117529297	0.0004611448
565.1405603027	0.0001229935
567.0693676758	0.0004135832
568.9981750488	0.0006440411
570.9269824219	0.0004962884
572.8557897949	0.0005999249
574.7845971680	0.0006246644
576.7134045410	0.0002763148
578.6422119141	0.0004361066
580.5710192871	0.0004472512
582.4998266602	0.0001972812
584.4286340332	0.0004688686
586.3574414063	0.0005251796
588.2862487793	0.0004743460
590.2150561523	0.0005205207
592.1438635254	0.0006308905
594.0726708984	0.0005588019
596.0014782715	0.0003359700
597.9302856445	0.0002529159
599.8590930176	0.0000679361
601.7879003906	0.0002795577
603.7167077637	0.0003170650
605.6455151367	0.0001673669
607.5743225098	0.0002938213
609.5031298828	0.0003006170
611.4319372559	0.0003356624
613.3607446289	0.0003197576
615.2895520020	0.0004626173
617.2183593750	0.0004531740
619.1471667480	0.0003930015
621.0759741211	0.0004798406
623.0047814941	0.0003556276
624.9335888672	0.0003590347
626.8623962402	0.0002938863
628.7912036133	0.0001882375
630.7200109863	0.0006454032
632.6488183594	0.0010432063
634.5776257324	0.0009158523
636.5064331055	0.0014200700
638.4352404785	0.0017899547
640.3640478516	0.0016119494
642.2928552246	0.0017114520
644.2216625977	0.0016226100
646.1504699707	0.0015984047
648.0792773438	0.0016521541
650.0080847168	0.0021434200
651.9368920898	0.0024477663
653.8656994629	0.0025019783
655.7945068359	0.0027841812
657.7233142090	0.0022428199
659.6521215820	0.0022923641
661.5809289551	0.0027440200
663.5097363281	0.0028486918
665.4385437012	0.0030099698
667.3673510742	0.0027216598
669.2961584473	0.0027835458
671.2249658203	0.0031499709
673.1537731934	0.0034423438
675.0825805664	0.0034051314
677.0113879395	0.0034033563
678.9401953125	0.0036652456
680.8690026855	0.0035496908
682.7978100586	0.0036475388
684.7266174316	0.0037453347
686.6554248047	0.0036406112
688.5842321777	0.0037394292
690.5130395508	0.0040573622
692.4418469238	0.0041569117
694.3706542969	0.0042549605
696.2994616699	0.0049888217
698.2282690430	0.0053996742
700.1570764160	0.0056456276
702.0858837891	0.0060514649
704.0146911621	0.0058014328
705.9434985352	0.0050291866
707.8723059082	0.0042972956
709.8011132813	0.0033471778
711.7299206543	0.0020577055
713.6587280273	0.0013180887
715.5875354004	0.0011158679
717.5163427734	0.0010266792
719.4451501465	0.0006954493
721.3739575195	0.0005739782
723.3027648926	0.0006714141
725.2315722656	0.0003527799
727.1603796387	0.0004277993
729.0891870117	0.0004320090
731.0179943848	0.0003221874
732.9468017578	0.0003640178
734.8756091309	0.0004094972
736.8044165039	0.0003498989
738.7332238770	0.0002209301
740.6620312500	0.0005485774
742.5908386230	0.0000957047
744.5196459961	0.0002410179
746.4484533691	0.0007211486
748.3772607422	0.0001703235
750.3060681152	0.0004007236
752.2348754883	0.0004134960
754.1636828613	0.0004606048
756.0924902344	0.0005452102
758.0212976074	0.0003339698
759.9501049805	0.0005083394
761.8789123535	0.0003135360
763.8077197266	0.0002849259
765.7365270996	0.0005036986
767.6653344727	0.0007937182
769.5941418457	0.0003627666
771.5229492188	0.0001979872
773.4517565918	0.0007131008
775.3805639648	0.0004510398
777.3093713379	0.0005213304
779.2381787109	0.0003793689
781.1669860840	0.0005401887
783.0957934570	0.0007758872
785.0246008301	0.0003564777
786.9534082031	0.0006127385
788.8822155762	0.0006152072
790.8110229492	0.0006517868
792.7398303223	0.0007739014
794.6686376953	0.0006322269
796.5974450684	0.0006972074
798.5262524414	0.0011285648
800.4550598145	0.0016107190
802.3838671875	0.0013856316
804.3126745605	0.0010280714
806.2414819336	0.0007263755
808.1702893066	0.0008456696
810.0990966797	0.0010019816
812.0279040527	0.0006689365
813.9567114258	0.0003947404
815.8855187988	0.0003487509
817.8143261719	0.0006243371
819.7431335449	0.0007590529
821.6719409180	0.0006862463
823.6007482910	0.0006430279
825.5295556641	0.0008851136
827.4583630371	0.0008876242
829.3871704102	0.0011495710
831.3159777832	0.0015854500
833.2447851563	0.0012809337
835.1735925293	0.0018722147
837.1023999023	0.0023136446
839.0312072754	0.0018291746
840.9600146484	0.0018015970
842.8888220215	0.0019608308
844.8176293945	0.0015763398
846.7464367676	0.0011105784
848.6752441406	0.0012546338
850.6040515137	0.0010249857
852.5328588867	0.0011502566
854.4616662598	0.0013534860
856.3904736328	0.0011735435
858.3192810059	0.0013156057
860.2480883789	0.0008683337
862.1768957520	0.0006461429
864.1057031250	0.0008114474
866.0345104980	0.0005556406
867.9633178711	0.0003278483
869.8921252441	0.0006624016
871.8209326172	0.0006002010
873.7497399902	0.0004140582
875.6785473633	0.0008261150
877.6073547363	0.0006111431
879.5361621094	0.0004932804
881.4649694824	0.0003352507
883.3937768555	0.0003873124
885.3225842285	0.0005935052
887.2513916016	0.0003386274
889.1801989746	0.0005473877
891.1090063477	0.0003326515
893.0378137207	0.0006083144
894.9666210938	0.0007458708
896.8954284668	0.0000814327
898.8242358398	0.0005644530
900.7530432129	0.0009305446
902.6818505859	0.0006649710
904.6106579590	0.0006232391
906.5394653320	0.0008328655
908.4682727051	0.0008953541
910.3970800781	0.0007406237
912.3258874512	0.0009302847
914.2546948242	0.0009891948
916.1835021973	0.0010388428
918.1123095703	0.0013019145
920.0411169434	0.0010925934
921.9699243164	0.0012423601
923.8987316895	0.0017031302
925.8275390625	0.0015798557
927.7563464355	0.0020631738
929.6851538086	0.0025006309
931.6139611816	0.0023228191
933.5427685547	0.0025341068
935.4715759277	0.0027490954
937.4003833008	0.0027644187
939.3291906738	0.0026499571
941.2579980469	0.0028485388
943.1868054199	0.0029590204
945.1156127930	0.0029253107
947.0444201660	0.0031772999
948.9732275391	0.0030689985
950.9020349121	0.0027079019
952.8308422852	0.0025530905
954.7596496582	0.0029803440
956.6884570313	0.0030496465
958.6172644043	0.0026654638
960.5460717773	0.0026810153
962.4748791504	0.0028900569
964.4036865234	0.0031338711
966.3324938965	0.0030921944
968.2613012695	0.0031448714
970.1901086426	0.0032004013
972.1189160156	0.0034620003
974.0477233887	0.0037810497
975.9765307617	0.0038893449
977.9053381348	0.0043176766
979.8341455078	0.0046754116
981.7629528809	0.0053623901
983.6917602539	0.0058945566
985.6205676270	0.0064163981
987.5493750000	0.0071805571
989.4781823730	0.0077563208
991.4069897461	0.0086862165
993.3357971191	0.0094482061
995.2646044922	0.0105123464
997.1934118652	0.0112591544
999.1222192383	0.0116617810
1001.0510266113	0.0128158797
1002.9798339844	0.0138804819
1004.9086413574	0.0149232931
1006.8374487305	0.0157311261
1008.7662561035	0.0165413879
1010.6950634766	0.0173913650
1012.6238708496	0.0183854513
1014.5526782227	0.0196971633
1016.4814855957	0.0203609969
1018.4102929688	0.0214789473
1020.3391003418	0.0227188207
1022.2679077148	0.0234050043
1024.1967150879	0.0244069695
1026.1255224609	0.0253157672
1028.0543298340	0.0261608660
1029.9831372070	0.0268901959
1031.9119445801	0.0275440961
1033.8407519531	0.0281606652
1035.7695593262	0.0285672862
1037.6983666992	0.0288156625
1039.6271740723	0.0288918372
1041.5559814453	0.0290309116
1043.4847888184	0.0287428387
1045.4135961914	0.0284958035
1047.3424035645	0.0282363687
1049.2712109375	0.0275217630
1051.2000183105	0.0272056647
1053.1288256836	0.0266026258
1055.0576330566	0.0261055566
1056.9864404297	0.0257976577
1058.9152478027	0.0249270592
1060.8440551758	0.0243248176
1062.7728625488	0.0235287957
1064.7016699219	0.0226426274
1066.6304772949	0.0219515301
1068.5592846680	0.0211005285
1070.4880920410	0.0202187560
1072.4168994141	0.0191447549
1074.3457067871	0.0182808954
1076.2745141602	0.0175987743
1078.2033215332	0.0167406313
1080.1321289062	0.0158683993
1082.0609362793	0.0150660817
1083.9897436523	0.0143149924
1085.9185510254	0.0137774386
1087.8473583984	0.0132567864
1089.7761657715	0.0127866715
1091.7049731445	0.0122470818
1093.6337805176	0.0113544026
1095.5625878906	0.0112251230
1097.4913952637	0.0109301824
1099.4202026367	0.0100742579
1101.3490100098	0.0100351991
1103.2778173828	0.0100421421
1105.2066247559	0.0099888481
1107.1354321289	0.0096161114
1109.0642395019	0.0092558675
1110.9930468750	0.0094186105
1112.9218542480	0.0090759471
1114.8506616211	0.0090790391
1116.7794689941	0.0092653800
1118.7082763672	0.0089245532
1120.6370837402	0.0090374853
1122.5658911133	0.0092076603
1124.4946984863	0.0091728996
1126.4235058594	0.0092734937
1128.3523132324	0.0095399674
1130.2811206055	0.0100324117
1132.2099279785	0.0100576859
1134.1387353516	0.0103263650
1136.0675427246	0.0110632144
1137.9963500977	0.0112741357
1139.9251574707	0.0120307989
1141.8539648437	0.0130319996
1143.7827722168	0.0136443172
1145.7115795898	0.0145634506
1147.6403869629	0.0153671438
1149.5691943359	0.0161862411
1151.4980017090	0.0172102973
1153.4268090820	0.0180056039
1155.3556164551	0.0187372603
1157.2844238281	0.0195948854
1159.2132312012	0.0203075297
1161.1420385742	0.0210069772
1163.0708459473	0.0218554065
1164.9996533203	0.0226504598
1166.9284606934	0.0235087499
1168.8572680664	0.0244612321
1170.7860754394	0.0251744539
1172.7148828125	0.0259289313
1174.6436901855	0.0271865949
1176.5724975586	0.0282673985
1178.5013049316	0.0291519724
1180.4301123047	0.0301503874
1182.3589196777	0.0315504074
1184.2877270508	0.0331718996
1186.2165344238	0.0343412682
1188.1453417969	0.0358846523
1190.0741491699	0.0375384316
1192.0029565430	0.0393868536
1193.9317639160	0.0414957851
1195.8605712891	0.0431946963
1197.7893786621	0.0449927934
1199.7181860351	0.0469254404
1201.6469934082	0.0490020365
1203.5758007812	0.0507757664
1205.5046081543	0.0527583621
1207.4334155273	0.0547096543
1209.3622229004	0.0565780401
1211.2910302734	0.0586947352
1213.2198376465	0.0599297397
1215.1486450195	0.0614574738
1217.0774523926	0.0628431290
1219.0062597656	0.0638258085
1220.9350671387	0.0647798479
1222.8638745117	0.0655081421
1224.7926818848	0.0665115565
1226.7214892578	0.0667238086
1228.6502966308	0.0670259893
1230.5791040039	0.0672472715
1232.5079113769	0.0673269406
1234.4367187500	0.0677098259
1236.3655261230	0.0673795119
1238.2943334961	0.0673470348
1240.2231408691	0.0673384666
1242.1519482422	0.0668814331
1244.0807556152	0.0665032417
1246.0095629883	0.0663081408
1247.9383703613	0.0658902302
1249.8671777344	0.0652414560
1251.7959851074	0.0648480356
1253.7247924805	0.0642846674
1255.6535998535	0.0634401292
1257.5824072266	0.0625635684
1259.5112145996	0.0617205650
1261.4400219726	0.0606455430
1263.3688293457	0.0598354861
1265.2976367187	0.0592049472
1267.2264440918	0.0584846660
1269.1552514648	0.0576611832
1271.0840588379	0.0566964559
1273.0128662109	0.0558580756
1274.9416735840	0.0546217151
1276.8704809570	0.0538150519
1278.7992883301	0.0527848899
1280.7280957031	0.0516740978
1282.6569030762	0.0510527156
1284.5857104492	0.0496701486
1286.5145178223	0.0485680401
1288.4433251953	0.0478043146
1290.3721325683	0.0473334640
1292.3009399414	0.0468255132
1294.2297473144	0.0464391708
1296.1585546875	0.0463388301
1298.0873620605	0.0460865572
1300.0161694336	0.0463673323
1301.9449768066	0.0463713929
1303.8737841797	0.0468207672
1305.8025915527	0.0473196134
1307.7313989258	0.0478558019
1309.6602062988	0.0489448681
1311.5890136719	0.0493548214
1313.5178210449	0.0503428653
1315.4466284180	0.0517232120
1317.3754357910	0.0526856706
1319.3042431640	0.0540049896
1321.2330505371	0.0559966341
1323.1618579101	0.0576319881
1325.0906652832	0.0591284446
1327.0194726562	0.0609055459
1328.9482800293	0.0623333529
1330.8770874023	0.0640435442
1332.8058947754	0.0654951110
1334.7347021484	0.0667930394
1336.6635095215	0.0675847828
1338.5923168945	0.0674302578
1340.5211242676	0.0683068037
1342.4499316406	0.0704872087
1344.3787390137	0.0711142495
1346.3075463867	0.0707098767
1348.2363537597	0.0709391907
1350.1651611328	0.0703058541
1352.0939685058	0.0702077523
1354.0227758789	0.0696227327
1355.9515832519	0.0687181801
1357.8803906250	0.0686246753
1359.8091979980	0.0673859864
1361.7380053711	0.0650131702
1363.6668127441	0.0640410334
1365.5956201172	0.0662715882
1367.5244274902	0.0651068836
1369.4532348633	0.0644919053
1371.3820422363	0.0656225905
1373.3108496094	0.0626129508
1375.2396569824	0.0629624352
1377.1684643555	0.0638297200
1379.0972717285	0.0638033301
1381.0260791015	0.0640473366
1382.9548864746	0.0635482445
1384.8836938476	0.0636475384
1386.8125012207	0.0613771640
1388.7413085937	0.0625928789
1390.6701159668	0.0663570911
1392.5989233398	0.0651236996
1394.5277307129	0.0621660277
1396.4565380859	0.0643773079
1398.3853454590	0.0645984784
1400.3141528320	0.0640074909
1402.2429602051	0.0681236461
1404.1717675781	0.0652270019
1406.1005749512	0.0655224770
1408.0293823242	0.0674115568
1409.9581896972	0.0651978180
1411.8869970703	0.0663545132
1413.8158044433	0.0642651916
1415.7446118164	0.0651686788
1417.6734191894	0.0601629317
1419.6022265625	0.0549023673
1421.5310339355	0.0606928915
1423.4598413086	0.0590906329
1425.3886486816	0.0572131500
1427.3174560547	0.0574301593
1429.2462634277	0.0538892522
1431.1750708008	0.0521610230
1433.1038781738	0.0525714606
1435.0326855469	0.0484663807
1436.9614929199	0.0423143804
1438.8903002929	0.0461101681
1440.8191076660	0.0468722284
1442.7479150390	0.0441594347
1444.6767224121	0.0454437882
1446.6055297851	0.0427711979
1448.5343371582	0.0431353375
1450.4631445312	0.0443170667
1452.3919519043	0.0451183617
1454.3207592773	0.0467683300
1456.2495666504	0.0407998040
1458.1783740234	0.0425093137
1460.1071813965	0.0537808128
1462.0359887695	0.0566603802
1463.9647961426	0.0572006032
1465.8936035156	0.0599153228
1467.8224108886	0.0668823346
1469.7512182617	0.0717648715
1471.6800256347	0.0664701611
1473.6088330078	0.0699701458
1475.5376403808	0.0782903656
1477.4664477539	0.0838514045
1479.3952551269	0.0908180699
1481.3240625000	0.0928069055
1483.2528698730	0.0979670733
1485.1816772461	0.1013975143
1487.1104846191	0.1012814417
1489.0392919922	0.1016026884
1490.9680993652	0.1029784977
1492.8969067383	0.1156798825
1494.8257141113	0.1143627614
1496.7545214843	0.1060775965
1498.6833288574	0.1170109957
1500.6121362304	0.1204156131
1502.5409436035	0.1272648871
1504.4697509765	0.1224561855
1506.3985583496	0.0968721434
1508.3273657226	0.1128410101
1510.2561730957	0.1275104582
1512.1849804687	0.1242153049
1514.1137878418	0.1326405257
1516.0425952148	0.1225779355
1517.9714025879	0.1270466149
1519.9002099609	0.1229909584
1521.8290173340	0.1107093692
1523.7578247070	0.1291818917
1525.6866320801	0.1271790862
1527.6154394531	0.1271008998
1529.5442468261	0.1368490458
1531.4730541992	0.1329953521
1533.4018615722	0.1245332360
1535.3306689453	0.1297871321
1537.2594763183	0.1364501566
1539.1882836914	0.1059173346
1541.1170910644	0.1095564663
1543.0458984375	0.1256084740
1544.9747058105	0.1215009466
1546.9035131836	0.1376828700
1548.8323205566	0.1306703240
1550.7611279297	0.1338963807
1552.6899353027	0.1328937113
1554.6187426758	0.1234015748
1556.5475500488	0.1300763488
1558.4763574218	0.1002831832
1560.4051647949	0.1053138077
1562.3339721679	0.1373223066
1564.2627795410	0.1315169334
1566.1915869140	0.1341603994
1568.1203942871	0.1327480078
1570.0492016601	0.1208690479
1571.9780090332	0.1341289729
1573.9068164062	0.1351014078
1575.8356237793	0.1127848178
1577.7644311523	0.1231135428
1579.6932385254	0.1357668340
1581.6220458984	0.1304146051
1583.5508532715	0.1323935986
1585.4796606445	0.1304088235
1587.4084680175	0.1306618750
1589.3372753906	0.1295676678
1591.2660827636	0.1288147867
1593.1948901367	0.1285959184
1595.1236975097	0.1266610324
1597.0525048828	0.1275235564
1598.9813122558	0.1262405515
1600.9101196289	0.1262024343
1602.8389270019	0.1238196045
1604.7677343750	0.1245829463
1606.6965417480	0.1224948317
1608.6253491211	0.1213215217
1610.5541564941	0.1206589267
1612.4829638672	0.1201826334
1614.4117712402	0.1207378954
1616.3405786132	0.1027033851
1618.2693859863	0.1081963032
1620.1981933593	0.1211941615
1622.1270007324	0.1099469885
1624.0558081054	0.1100755855
1625.9846154785	0.1129396036
1627.9134228515	0.1123141795
1629.8422302246	0.1113326550
1631.7710375976	0.1164786518
1633.6998449707	0.1093274429
1635.6286523437	0.0943820998
1637.5574597168	0.1060394570
1639.4862670898	0.1137875617
1641.4150744629	0.1118461937
1643.3438818359	0.1142692268
1645.2726892090	0.1058685184
1647.2014965820	0.0966287479
1649.1303039550	0.1144070253
1651.0591113281	0.1099942625
1652.9879187011	0.0792907476
1654.9167260742	0.1003427356
1656.8455334472	0.1200702935
1658.7743408203	0.1161833555
1660.7031481933	0.1198302358
1662.6319555664	0.1119894385
1664.5607629394	0.1172366738
1666.4895703125	0.1242858618
1668.4183776855	0.1132139564
1670.3471850586	0.1114112735
1672.2759924316	0.1230270863
1674.2047998047	0.1166558862
1676.1336071777	0.1134058684
1678.0624145507	0.1269965023
1679.9912219238	0.1240050048
1681.9200292968	0.1241464615
1683.8488366699	0.1066846102
1685.7776440429	0.1056775674
1687.7064514160	0.1357984543
1689.6352587890	0.1224199235
1691.5640661621	0.1319749504
1693.4928735351	0.1347226948
1695.4216809082	0.1060228348
1697.3504882812	0.1249623150
1699.2792956543	0.1147642434
1701.2081030273	0.1059427708
1703.1369104004	0.1343357563
1705.0657177734	0.1265657842
1706.9945251464	0.1274706721
1708.9233325195	0.1362137347
1710.8521398925	0.1320248246
1712.7809472656	0.1344662309
1714.7097546386	0.1274260879
1716.6385620117	0.1170201004
1718.5673693847	0.1158185452
1720.4961767578	0.1325294524
1722.4249841308	0.1364696026
1724.3537915039	0.1289638132
1726.2825988769	0.1374160796
1728.2114062500	0.1292468011
1730.1402136230	0.1307348311
1732.0690209961	0.1277884841
1733.9978283691	0.1042707711
1735.9266357421	0.1225936189
1737.8554431152	0.1329491585
1739.7842504882	0.1219725609
1741.7130578613	0.1302959174
1743.6418652343	0.1322966814
1745.5706726074	0.1324988008
1747.4994799804	0.1340594441
1749.4282873535	0.1300397217
1751.3570947265	0.1255392432
1753.2859020996	0.1358778179
1755.2147094726	0.1410977840
1757.1435168457	0.1318481565
1759.0723242187	0.1416309178
1761.0011315918	0.1352360100
1762.9299389648	0.1316345483
1764.8587463379	0.1460165232
1766.7875537109	0.1347431242
1768.7163610839	0.1358658075
1770.6451684570	0.1357519776
1772.5739758300	0.1248645484
1774.5027832031	0.1353645921
1776.4315905761	0.1415596753
1778.3603979492	0.1400638670
1780.2892053222	0.1386118233
1782.2180126953	0.1394672394
1784.1468200683	0.1394630373
1786.0756274414	0.1373543441
1788.0044348144	0.1428751796
1789.9332421875	0.1403461248
1791.8620495605	0.1302684546
1793.7908569336	0.1341992617
1795.7196643066	0.1416138709
1797.6484716796	0.1401248276
1799.5772790527	0.1386018544
1801.5060864257	0.1370055676
1803.4348937988	0.1399742067
1805.3637011718	0.1424455941
1807.2925085449	0.1409956664
1809.2213159179	0.1415255517
1811.1501232910	0.1387088746
1813.0789306640	0.1416309476
1815.0077380371	0.1422786415
1816.9365454101	0.1409734488
1818.8653527832	0.1419770122
1820.7941601562	0.1415277421
1822.7229675293	0.1431108415
1824.6517749023	0.1361031085
1826.5805822753	0.1396250725
1828.5093896484	0.1399302930
1830.4381970214	0.1333481967
1832.3670043945	0.1419101954
1834.2958117675	0.1413012892
1836.2246191406	0.1412195563
1838.1534265136	0.1405766606
1840.0822338867	0.1412813514
1842.0110412597	0.1414198726
1843.9398486328	0.1292460859
1845.8686560058	0.1356590092
1847.7974633789	0.1410384625
1849.7262707519	0.1386954337
1851.6550781250	0.1417669207
1853.5838854980	0.1395001560
1855.5126928710	0.1406159252
1857.4415002441	0.1397978216
1859.3703076171	0.1390512586
1861.2991149902	0.1398031712
1863.2279223632	0.1384292245
1865.1567297363	0.1395025849
1867.0855371093	0.1362029761
1869.0143444824	0.1319380850
1870.9431518554	0.1354848146
1872.8719592285	0.1392491609
1874.8007666015	0.1376868784
1876.7295739746	0.1380863190
1878.6583813476	0.1377579421
1880.5871887207	0.1372202486
1882.5159960937	0.1376759112
1884.4448034667	0.1360368133
1886.3736108398	0.1374947131
1888.3024182128	0.1350713074
1890.2312255859	0.1332497299
1892.1600329589	0.1367311180
1894.0888403320	0.1352659911
1896.0176477050	0.1348951608
1897.9464550781	0.1358555853
1899.8752624511	0.1352590621
1901.8040698242	0.1354356706
1903.7328771972	0.1346637011
1905.6616845703	0.1350505948
1907.5904919433	0.1339399368
1909.5192993164	0.1332973838
1911.4481066894	0.1338512003
1913.3769140625	0.1337229908
1915.3057214355	0.1347161829
1917.2345288085	0.1302295625
1919.1633361816	0.1302723885
1921.0921435546	0.1339110136
1923.0209509277	0.1306293309
1924.9497583007	0.1326478124
1926.8785656738	0.1334888041
1928.8073730468	0.1322702169
1930.7361804199	0.1333398968
1932.6649877929	0.1318983287
1934.5937951660	0.1329319328
1936.5226025390	0.1321106553
1938.4514099121	0.1324026883
1940.3802172851	0.1323646605
1942.3090246582	0.1291823685
1944.2378320312	0.1307951212
1946.1666394042	0.1317122579
1948.0954467773	0.1314514875
1950.0242541503	0.1318001002
1951.9530615234	0.1313631833
1953.8818688964	0.1313521862
1955.8106762695	0.1310555190
1957.7394836425	0.1311970800
1959.6682910156	0.1309609711
1961.5970983886	0.1305885464
1963.5259057617	0.1309048533
1965.4547131347	0.1304642409
1967.3835205078	0.1293943375
1969.3123278808	0.1300925910
1971.2411352539	0.1304647624
1973.1699426269	0.1298022866
1975.0987499999	0.1300913095
1977.0275573730	0.1295164526
1978.9563647460	0.1295385659
1980.8851721191	0.1295395792
1982.8139794921	0.1290462911
1984.7427868652	0.1291660368
1986.6715942382	0.1283836067
1988.6004016113	0.1283458471
1990.5292089843	0.1275551617
1992.4580163574	0.1264560223
1994.3868237304	0.1277372539
1996.3156311035	0.1277888119
1998.2444384765	0.1270928681
2000.1732458496	0.1272687465
2002.1020532226	0.1266534925
2004.0308605956	0.1264853477
2005.9596679687	0.1262843907
2007.8884753417	0.1257880628
2009.8172827148	0.1257379055
2011.7460900878	0.1253783405
2013.6748974609	0.1252722740
2015.6037048339	0.1245536804
2017.5325122070	0.1238401458
2019.4613195800	0.1240681708
2021.3901269531	0.1239434630
2023.3189343261	0.1235964447
2025.2477416992	0.1232357919
2027.1765490722	0.1230151951
2029.1053564453	0.1227290258
2031.0341638183	0.1225036830
2032.9629711914	0.1222941577
2034.8917785644	0.1218295842
2036.8205859374	0.1216278374
2038.7493933105	0.1213593408
2040.6782006835	0.1207860261
2042.6070080566	0.1204157546
2044.5358154296	0.1204687804
2046.4646228027	0.1203359216
2048.3934301757	0.1199561507
2050.3222375488	0.1196086183
2052.2510449218	0.1195262596
2054.1798522949	0.1193722263
2056.1086596679	0.1189134717
2058.0374670410	0.1187163740
2059.9662744140	0.1184173673
2061.8950817871	0.1181524917
2063.8238891601	0.1176810041
2065.7526965331	0.1173504516
2067.6815039062	0.1174690276
2069.6103112792	0.1171114892
2071.5391186523	0.1168522537
2073.4679260253	0.1166680604
2075.3967333984	0.1163270473
2077.3255407714	0.1161503643
2079.2543481445	0.1160635948
2081.1831555175	0.1157553345
2083.1119628906	0.1154264733
2085.0407702636	0.1152859181
2086.9695776367	0.1150117368
2088.8983850097	0.1147439927
2090.8271923828	0.1145205349
2092.7559997558	0.1144419163
2094.6848071288	0.1141108572
2096.6136145019	0.1138140559
2098.5424218749	0.1136578619
2100.4712292480	0.1134384423
2102.4000366210	0.1133824289
2104.3288439941	0.1131386310
2106.2576513671	0.1130207032
2108.1864587402	0.1125980243
2110.1152661132	0.1123574451
2112.0440734863	0.1123727560
2113.9728808593	0.1120951176
2115.9016882324	0.1119985431
2117.8304956054	0.1117222309
2119.7593029785	0.1116035879
2121.6881103515	0.1114297807
2123.6169177245	0.1112803966
2125.5457250976	0.1111649945
2127.4745324706	0.1109679192
2129.4033398437	0.1108760387
2131.3321472167	0.1106057018
2133.2609545898	0.1104538143
2135.1897619628	0.1101312935
2137.1185693359	0.1101226583
2139.0473767089	0.1101525500
2140.9761840820	0.1099097729
2142.9049914550	0.1097125113
2144.8337988281	0.1095944345
2146.7626062011	0.1095523685
2148.6914135742	0.1091443822
2150.6202209472	0.1091533229
2152.5490283203	0.1090493053
2154.4778356933	0.1089266762
2156.4066430663	0.1089117676
2158.3354504394	0.1085218191
2160.2642578124	0.1084713489
2162.1930651855	0.1084128022
2164.1218725585	0.1083050817
2166.0506799316	0.1080648974
2167.9794873046	0.1081011966
2169.9082946777	0.1079094410
2171.8371020507	0.1076989993
2173.7659094238	0.1079122424
2175.6947167968	0.1075719297
2177.6235241699	0.1073894948
2179.5523315429	0.1071686894
2181.4811389160	0.1072081923
2183.4099462890	0.1071532369
2185.3387536620	0.1069343388
2187.2675610351	0.1070266366
2189.1963684081	0.1066910177
2191.1251757812	0.1066684127
2193.0539831542	0.1064553410
2194.9827905273	0.1062861308
2196.9115979003	0.1063245982
2198.8404052734	0.1061417386
2200.7692126464	0.1060567200
2202.6980200195	0.1058473736
2204.6268273925	0.1057808697
2206.5556347656	0.1055888534
2208.4844421386	0.1054932177
2210.4132495117	0.1054883450
2212.3420568847	0.1054223925
2214.2708642577	0.1051898673
2216.1996716308	0.1049538702
2218.1284790038	0.1049953252
2220.0572863769	0.1048508286
2221.9860937499	0.1047172099
2223.9149011230	0.1045052260
2225.8437084960	0.1043595523
2227.7725158691	0.1041856185
2229.7013232421	0.1041482240
2231.6301306152	0.1040862650
2233.5589379882	0.1038514227
2235.4877453613	0.1037741080
2237.4165527343	0.1034777537
2239.3453601074	0.1034486964
2241.2741674804	0.1032408625
2243.2029748534	0.1031887159
2245.1317822265	0.1031141132
2247.0605895995	0.1027044654
2248.9893969726	0.1027368158
2250.9182043456	0.1024980247
2252.8470117187	0.1023854390
2254.7758190917	0.1021961868
2256.7046264648	0.1019982919
2258.6334338378	0.1019142419
2260.5622412109	0.1017877758
2262.4910485839	0.1017609537
2264.4198559570	0.1014740467
2266.3486633300	0.1015027538
2268.2774707031	0.1013267264
2270.2062780761	0.1011835039
2272.1350854491	0.1011335999
2274.0638928222	0.1009754613
2275.9927001952	0.1008881629
2277.9215075683	0.1007137597
2279.8503149413	0.1008415073
2281.7791223144	0.1007241458
2283.7079296874	0.1005593687
2285.6367370605	0.1002570242
2287.5655444335	0.1001252010
2289.4943518066	0.1000164896
2291.4231591796	0.0997197479
2293.3519665527	0.0996924266
2295.2807739257	0.0992018133
2297.2095812988	0.0990055650
2299.1383886718	0.0987332463
2301.0671960449	0.0983844399
2302.9960034179	0.0980682820
2304.9248107909	0.0974614322
2306.8536181640	0.0970698744
2308.7824255370	0.0963077471
2310.7112329101	0.0957728848
2312.6400402831	0.0949529558
2314.5688476562	0.0940857679
2316.4976550292	0.0935178548
2318.4264624023	0.0924303532
2320.3552697753	0.0914113820
2322.2840771484	0.0903019756
2324.2128845214	0.0894177258
2326.1416918945	0.0887088031
2328.0704992675	0.0879227519
2329.9993066406	0.0870633498
2331.9281140136	0.0864046067
2333.8569213866	0.0862482488
2335.7857287597	0.0859834775
2337.7145361327	0.0858470723
2339.6433435058	0.0856937543
2341.5721508788	0.0859644860
2343.5009582519	0.0870125070
2345.4297656249	0.0883051306
2347.3585729980	0.0910204202
2349.2873803710	0.0930933207
2351.2161877441	0.0907363221
2353.1449951171	0.0872239918
2355.0738024902	0.0848398507
2357.0026098632	0.0824092925
2358.9314172363	0.0812265649
2360.8602246093	0.0804742351
2362.7890319823	0.0801839083
2364.7178393554	0.0806502625
2366.6466467284	0.0813384727
2368.5754541015	0.0827132463
2370.5042614745	0.0840965807
2372.4330688476	0.0858929455
2374.3618762206	0.0876905322
2376.2906835937	0.0896514803
2378.2194909667	0.0913405046
2380.1482983398	0.0922219977
2382.0771057128	0.0932146460
2384.0059130859	0.0936241224
2385.9347204589	0.0939650834
2387.8635278320	0.0938740969
2389.7923352050	0.0937709510
2391.7211425780	0.0939817578
2393.6499499511	0.0936158746
2395.5787573241	0.0935693681
2397.5075646972	0.0934339315
2399.4363720702	0.0932541937
2401.3651794433	0.0931574255
2403.2939868163	0.0930695012
2405.2227941894	0.0930053443
2407.1516015624	0.0927873105
2409.0804089355	0.0925892964
2411.0092163085	0.0923686326
2412.9380236816	0.0924568549
2414.8668310546	0.0923042148
2416.7956384277	0.0921495035
2418.7244458007	0.0921002999
2420.6532531738	0.0919132829
2422.5820605468	0.0918588787
2424.5108679198	0.0917088315
2426.4396752929	0.0915747955
2428.3684826659	0.0913468972
2430.2972900390	0.0912922844
2432.2260974120	0.0912558585
2434.1549047851	0.0911425427
2436.0837121581	0.0908612683
2438.0125195312	0.0906556770
2439.9413269042	0.0908571854
2441.8701342773	0.0906322822
2443.7989416503	0.0905185789
2445.7277490234	0.0905182958
2447.6565563964	0.0903359652
2449.5853637695	0.0901279673
2451.5141711425	0.0899873227
2453.4429785155	0.0900179297
2455.3717858886	0.0897441134
2457.3005932616	0.0896854773
2459.2294006347	0.0895682126
2461.1582080077	0.0893933177
2463.0870153808	0.0894156918
2465.0158227538	0.0892205164
2466.9446301269	0.0891287178
2468.8734374999	0.0889536589
2470.8022448730	0.0888635665
2472.7310522460	0.0887721926
2474.6598596191	0.0885771289
2476.5886669921	0.0885678455
2478.5174743652	0.0884479880
2480.4462817382	0.0883834213
2482.3750891112	0.0882699713
2484.3038964843	0.0879643708
2486.2327038573	0.0879124776
2488.1615112304	0.0878810436
2490.0903186034	0.0876748413
2492.0191259765	0.0876047686
2493.9479333495	0.0874675363
2495.8767407226	0.0873451382
2497.8055480956	0.0873377025
2499.7343554687	0.0872311965
2501.6631628417	0.0870144814
2503.5919702148	0.0868277252
2505.5207775878	0.0868168920
2507.4495849609	0.0866695940
2509.3783923339	0.0865410864
2511.3071997069	0.0863768309
2513.2360070800	0.0862142146
2515.1648144530	0.0863014162
2517.0936218261	0.0860692710
2519.0224291991	0.0859219581
2520.9512365722	0.0860176235
2522.8800439452	0.0858316198
2524.8088513183	0.0856292397
2526.7376586913	0.0855908096
2528.6664660644	0.0854812562
2530.5952734374	0.0853109583
2532.5240808105	0.0853106380
2534.4528881835	0.0852124989
2536.3816955566	0.0850558728
2538.3105029296	0.0850077420
2540.2393103027	0.0848391876
2542.1681176757	0.0847056657
2544.0969250487	0.0845697075
2546.0257324218	0.0844136029
2547.9545397948	0.0843654871
2549.8833471679	0.0841842294
2551.8121545409	0.0841000974
2553.7409619140	0.0840303004
2555.6697692870	0.0837854892
2557.5985766601	0.0836756080
2559.5273840331	0.0835151076
2561.4561914062	0.0834547207
2563.3849987792	0.0834120512
2565.3138061523	0.0833270550
2567.2426135253	0.0831963271
2569.1714208984	0.0829477757
2571.1002282714	0.0829978585
2573.0290356444	0.0828568116
2574.9578430175	0.0826697871
2576.8866503905	0.0824847966
2578.8154577636	0.0823578835
2580.7442651366	0.0824408978
2582.6730725097	0.0821346417
2584.6018798827	0.0821485817
2586.5306872558	0.0820707455
2588.4594946288	0.0817665830
2590.3883020019	0.0817112252
2592.3171093749	0.0815510675
2594.2459167480	0.0815897584
2596.1747241210	0.0814535767
2598.1035314941	0.0812928230
2600.0323388671	0.0812106505
2601.9611462401	0.0809720606
2603.8899536132	0.0807976872
2605.8187609862	0.0807459950
2607.7475683593	0.0807431489
2609.6763757323	0.0805745870
2611.6051831054	0.0805041492
2613.5339904784	0.0804538578
2615.4627978515	0.0803686976
2617.3916052245	0.0802317709
2619.3204125976	0.0800989419
2621.2492199706	0.0799591988
2623.1780273437	0.0797361583
2625.1068347167	0.0796869844
2627.0356420898	0.0794964433
2628.9644494628	0.0794204846
2630.8932568358	0.0793606192
2632.8220642089	0.0792383999
2634.7508715819	0.0792243630
2636.6796789550	0.0789434165
2638.6084863280	0.0788110346
2640.5372937011	0.0787673891
2642.4661010741	0.0787212402
2644.3949084472	0.0786696896
2646.3237158202	0.0783962309
2648.2525231933	0.0782418102
2650.1813305663	0.0782217830
2652.1101379394	0.0780867785
2654.0389453124	0.0779506862
2655.9677526855	0.0778306574
2657.8965600585	0.0776446536
2659.8253674315	0.0775970817
2661.7541748046	0.0774973258
2663.6829821776	0.0774384588
2665.6117895507	0.0773114115
2667.5405969237	0.0770901293
2669.4694042968	0.0770865306
2671.3982116698	0.0769058019
2673.3270190429	0.0768101513
2675.2558264159	0.0766819865
2677.1846337890	0.0765062571
2679.1134411620	0.0764948055
2681.0422485351	0.0763029382
2682.9710559081	0.0761560202
2684.8998632812	0.0760031044
2686.8286706542	0.0758955553
2688.7574780273	0.0758048669
2690.6862854003	0.0757133663
2692.6150927733	0.0756848603
2694.5439001464	0.0755053759
2696.4727075194	0.0753414333
2698.4015148925	0.0752804205
2700.3303222655	0.0752251446
2702.2591296386	0.0750811994
2704.1879370116	0.0749613494
2706.1167443847	0.0748516619
2708.0455517577	0.0747543052
2709.9743591308	0.0745912045
2711.9031665038	0.0743973181
2713.8319738769	0.0743829012
2715.7607812499	0.0743123218
2717.6895886230	0.0741856620
2719.6183959960	0.0739020556
2721.5472033690	0.0737183988
2723.4760107421	0.0737197250
2725.4048181151	0.0735160857
2727.3336254882	0.0734445304
2729.2624328612	0.0734508783
2731.1912402343	0.0731786713
2733.1200476073	0.0728505477
2735.0488549804	0.0728928745
2736.9776623534	0.0729732215
2738.9064697265	0.0727294609
2740.8352770995	0.0726380274
2742.7640844726	0.0725513324
2744.6928918456	0.0722588301
2746.6216992187	0.0722156391
2748.5505065917	0.0721641332
2750.4793139647	0.0720000193
2752.4081213378	0.0718772709
2754.3369287108	0.0716448277
2756.2657360839	0.0716460198
2758.1945434569	0.0714988410
2760.1233508300	0.0713132024
2762.0521582030	0.0712668747
2763.9809655761	0.0709405541
2765.9097729491	0.0708709285
2767.8385803222	0.0708088130
2769.7673876952	0.0707128197
2771.6961950683	0.0705644339
2773.6250024413	0.0703406781
2775.5538098144	0.0702549666
2777.4826171874	0.0700945780
2779.4114245604	0.0701131225
2781.3402319335	0.0699081793
2783.2690393065	0.0697488189
2785.1978466796	0.0695855021
2787.1266540526	0.0693339929
2789.0554614257	0.0693326145
2790.9842687987	0.0691058263
2792.9130761718	0.0689888597
2794.8418835448	0.0687787905
2796.7706909179	0.0686752796
2798.6994982909	0.0686697364
2800.6283056640	0.0684476718
2802.5571130370	0.0683722645
2804.4859204101	0.0681743994
2806.4147277831	0.0679609329
2808.3435351562	0.0677565038
2810.2723425292	0.0676976815
2812.2011499022	0.0675371215
2814.1299572753	0.0673409253
2816.0587646483	0.0672555715
2817.9875720214	0.0669824481
2819.9163793944	0.0669165701
2821.8451867675	0.0667716712
2823.7739941405	0.0665609986
2825.7028015136	0.0663950518
2827.6316088866	0.0663155317
2829.5604162597	0.0662200749
2831.4892236327	0.0659906566
2833.4180310058	0.0659073591
2835.3468383788	0.0656624883
2837.2756457519	0.0654033571
2839.2044531249	0.0652235970
2841.1332604979	0.0650608018
2843.0620678710	0.0647451133
2844.9908752440	0.0644522905
2846.9196826171	0.0639704168
2848.8484899901	0.0633239299
2850.7772973632	0.0633524805
2852.7061047362	0.0632223785
2854.6349121093	0.0630986094
2856.5637194823	0.0630772561
2858.4925268554	0.0628627464
2860.4213342284	0.0629059672
2862.3501416015	0.0627810284
2864.2789489745	0.0626946092
2866.2077563476	0.0625344962
2868.1365637206	0.0623847619
2870.0653710936	0.0623659939
2871.9941784667	0.0621818081
2873.9229858397	0.0620100796
2875.8517932128	0.0619346723
2877.7806005858	0.0618997402
2879.7094079589	0.0617219806
2881.6382153319	0.0616489910
2883.5670227050	0.0615471192
2885.4958300780	0.0613463297
2887.4246374511	0.0611357614
2889.3534448241	0.0609800443
2891.2822521972	0.0608452745
2893.2110595702	0.0605958328
2895.1398669433	0.0605483279
2897.0686743163	0.0603527501
2898.9974816893	0.0600546636
2900.9262890624	0.0598762967
2902.8550964354	0.0596762560
2904.7839038085	0.0593467616
2906.7127111815	0.0591201186
2908.6415185546	0.0590042695
2910.5703259276	0.0586133301
2912.4991333007	0.0583304912
2914.4279406737	0.0578735285
2916.3567480468	0.0574915335
2918.2855554198	0.0573005304
2920.2143627929	0.0571083166
2922.1431701659	0.0570698455
2924.0719775390	0.0568851382
2926.0007849120	0.0568822138
2927.9295922851	0.0566230789
2929.8583996581	0.0565797910
2931.7872070311	0.0566896796
2933.7160144042	0.0564594567
2935.6448217772	0.0566377901
2937.5736291503	0.0566094816
2939.5024365233	0.0565540269
2941.4312438964	0.0565123335
2943.3600512694	0.0563000478
2945.2888586425	0.0562449843
2947.2176660155	0.0561247841
2949.1464733886	0.0559258610
2951.0752807616	0.0557826571
2953.0040881347	0.0556629449
2954.9328955077	0.0552573353
2956.8617028808	0.0550922453
2958.7905102538	0.0549466833
2960.7193176268	0.0546949580
2962.6481249999	0.0545914024
2964.5769323729	0.0543513000
2966.5057397460	0.0543441325
2968.4345471190	0.0542499125
2970.3633544921	0.0542077273
2972.2921618651	0.0542636141
2974.2209692382	0.0542411953
2976.1497766112	0.0542125925
2978.0785839843	0.0540594980
2980.0073913573	0.0540383458
2981.9361987304	0.0538784489
2983.8650061034	0.0537806377
2985.7938134765	0.0536960289
2987.7226208495	0.0535050854
2989.6514282225	0.0533460714
2991.5802355956	0.0532014109
2993.5090429686	0.0531510413
2995.4378503417	0.0529169589
2997.3666577147	0.0528175421
2999.2954650878	0.0526237302
3001.2242724608	0.0523384586
3003.1530798339	0.0522784889
3005.0818872069	0.0520576313
3007.0106945800	0.0518830046
3008.9395019530	0.0517327935
3010.8683093261	0.0514043607
3012.7971166991	0.0511388332
3014.7259240722	0.0510229059
3016.6547314452	0.0508465767
3018.5835388182	0.0507377237
3020.5123461913	0.0505318046
3022.4411535643	0.0502421446
3024.3699609374	0.0501354747
3026.2987683104	0.0499250330
3028.2275756835	0.0498107523
3030.1563830565	0.0494692922
3032.0851904296	0.0491354391
3034.0139978026	0.0491600335
3035.9428051757	0.0488115251
3037.8716125487	0.0485267341
3039.8004199218	0.0484455079
3041.7292272948	0.0482813045
3043.6580346679	0.0481385291
3045.5868420409	0.0478345901
3047.5156494139	0.0475915149
3049.4444567870	0.0474114977
3051.3732641600	0.0471211709
3053.3020715331	0.0469526276
3055.2308789061	0.0467422642
3057.1596862792	0.0464229845
3059.0884936522	0.0462404937
3061.0173010253	0.0460959002
3062.9461083983	0.0458798334
3064.8749157714	0.0455860682
3066.8037231444	0.0453563184
3068.7325305175	0.0451534316
3070.6613378905	0.0449912213
3072.5901452636	0.0448722616
3074.5189526366	0.0446008109
3076.4477600097	0.0442701951
3078.3765673827	0.0439294577
3080.3053747557	0.0437386185
3082.2341821288	0.0435590670
3084.1629895018	0.0434050933
3086.0917968749	0.0432538539
3088.0206042479	0.0428994671
3089.9494116210	0.0427080505
3091.8782189940	0.0425421074
3093.8070263671	0.0422617570
3095.7358337401	0.0418922454
3097.6646411132	0.0416998900
3099.5934484862	0.0415032208
3101.5222558593	0.0410885923
3103.4510632323	0.0409927219
3105.3798706054	0.0407588445
3107.3086779784	0.0405155048
3109.2374853514	0.0403084010
3111.1662927245	0.0399254113
3113.0951000975	0.0397722870
3115.0239074706	0.0394667983
3116.9527148436	0.0391843542
3118.8815222167	0.0390161276
3120.8103295897	0.0387106389
3122.7391369628	0.0384173505
3124.6679443358	0.0382300541
3126.5967517089	0.0380192995
3128.5255590819	0.0376410931
3130.4543664550	0.0373586267
3132.3831738280	0.0370633304
3134.3119812011	0.0367800221
3136.2407885741	0.0365465023
3138.1695959471	0.0362887941
3140.0984033202	0.0361754075
3142.0272106932	0.0359004438
3143.9560180663	0.0355630815
3145.8848254393	0.0353726521
3147.8136328124	0.0351621285
3149.7424401854	0.0349472910
3151.6712475585	0.0345363505
3153.6000549315	0.0342254266
3155.5288623046	0.0342096500
3157.4576696776	0.0339285359
3159.3864770507	0.0336019248
3161.3152844237	0.0333817750
3163.2440917968	0.0331051126
3165.1728991698	0.0329075158
3167.1017065428	0.0326900706
3169.0305139159	0.0324941352
3170.9593212889	0.0321922749
3172.8881286620	0.0318713859
3174.8169360350	0.0317419693
3176.7457434081	0.0315530263
3178.6745507811	0.0312242396
3180.6033581542	0.0310281776
3182.5321655272	0.0309867524
3184.4609729003	0.0307053626
3186.3897802733	0.0304058976
3188.3185876464	0.0303550474
3190.2473950194	0.0301450435
3192.1762023925	0.0297614504
3194.1050097655	0.0296858810
3196.0338171386	0.0295237787
3197.9626245116	0.0291798972
3199.8914318846	0.0291743353
3201.8202392577	0.0290048830
3203.7490466307	0.0287457481
3205.6778540038	0.0285566822
3207.6066613768	0.0284667984
3209.5354687499	0.0284257531
3211.4642761229	0.0280920975
3213.3930834960	0.0279141422
3215.3218908690	0.0278565399
3217.2506982421	0.0278426856
3219.1795056151	0.0276035108
3221.1083129882	0.0273508448
3223.0371203612	0.0273864232
3224.9659277343	0.0272640139
3226.8947351073	0.0271421298
3228.8235424803	0.0269625504
3230.7523498534	0.0269115381
3232.6811572264	0.0267593637
3234.6099645995	0.0266478900
3236.5387719725	0.0266605616
3238.4675793456	0.0264572054
3240.3963867186	0.0264854915
3242.3251940917	0.0263583716
3244.2540014647	0.0262293443
3246.1828088378	0.0261570979
3248.1116162108	0.0261879303
3250.0404235839	0.0261559337
3251.9692309569	0.0259005129
3253.8980383300	0.0260037314
3255.8268457030	0.0258671604
3257.7556530760	0.0258400664
3259.6844604491	0.0257834904
3261.6132678221	0.0255819447
3263.5420751952	0.0257076584
3265.4708825682	0.0256251134
3267.3996899413	0.0255644917
3269.3284973143	0.0254770853
3271.2573046874	0.0253934283
3273.1861120604	0.0253449157
3275.1149194335	0.0253344774
3277.0437268065	0.0252394676
3278.9725341796	0.0250872411
3280.9013415526	0.0251528770
3282.8301489257	0.0250941701
3284.7589562987	0.0250951126
3286.6877636717	0.0250087604
3288.6165710448	0.0250326023
3290.5453784178	0.0250487197
3292.4741857909	0.0248381868
3294.4029931639	0.0248353668
3296.3318005370	0.0248192698
3298.2606079100	0.0247566439
3300.1894152831	0.0246444270
3302.1182226561	0.0247312989
3304.0470300292	0.0247400999
3305.9758374022	0.0246698726
3307.9046447753	0.0246431995
3309.8334521483	0.0244710743
3311.7622595214	0.0244601145
3313.6910668944	0.0244466662
3315.6198742675	0.0245274641
3317.5486816405	0.0243799947
3319.4774890135	0.0242932439
3321.4062963866	0.0243141465
3323.3351037596	0.0241566561
3325.2639111327	0.0242479164
3327.1927185057	0.0241872035
3329.1215258788	0.0242083762
3331.0503332518	0.0241054595
3332.9791406249	0.0239083301
3334.9079479979	0.0239532534
3336.8367553710	0.0239078477
3338.7655627440	0.0238230787
3340.6943701171	0.0237973407
3342.6231774901	0.0239044838
3344.5519848632	0.0237770434
3346.4807922362	0.0237186924
3348.4095996092	0.0237102807
3350.3384069823	0.0236853920
3352.2672143553	0.0236776099
3354.1960217284	0.0235649962
3356.1248291014	0.0236356463
3358.0536364745	0.0235150661
3359.9824438475	0.0235598609
3361.9112512206	0.0234702192
3363.8400585936	0.0233950764
3365.7688659667	0.0235602260
3367.6976733397	0.0232669003
3369.6264807128	0.0232750177
3371.5552880858	0.0234038755
3373.4840954589	0.0233696923
3375.4129028319	0.0233132374
3377.3417102049	0.0232628174
3379.2705175780	0.0233186129
3381.1993249510	0.0233083107
3383.1281323241	0.0233726874
3385.0569396971	0.0233417749
3386.9857470702	0.0233051591
3388.9145544432	0.0233274177
3390.8433618163	0.0233245715
3392.7721691893	0.0233020335
3394.7009765624	0.0233788099
3396.6297839354	0.0233147219
3398.5585913085	0.0232017562
3400.4873986815	0.0233334601
3402.4162060546	0.0232552290
3404.3450134276	0.0233590938
3406.2738208006	0.0234651603
3408.2026281737	0.0234119631
3410.1314355467	0.0234919935
3412.0602429198	0.0235769507
3413.9890502928	0.0236495696
3415.9178576659	0.0235813670
3417.8466650389	0.0236167647
3419.7754724120	0.0235297605
3421.7042797850	0.0235053748
3423.6330871581	0.0236191340
3425.5618945311	0.0237006173
3427.4907019042	0.0237208381
3429.4195092772	0.0236753970
3431.3483166503	0.0238679964
3433.2771240233	0.0238134116
3435.2059313963	0.0238898769
3437.1347387694	0.0240035951
3439.0635461424	0.0239546355
3440.9923535155	0.0239764620
3442.9211608885	0.0239083916
3444.8499682616	0.0240521245
3446.7787756346	0.0239747539
3448.7075830077	0.0241291691
3450.6363903807	0.0243605599
3452.5651977538	0.0242425315
3454.4940051268	0.0243221670
3456.4228124999	0.0244307779
3458.3516198729	0.0245495737
3460.2804272460	0.0244993810
3462.2092346190	0.0245279707
3464.1380419921	0.0246404298
3466.0668493651	0.0246268325
3467.9956567381	0.0246366672
3469.9244641112	0.0247316435
3471.8532714842	0.0248260088
3473.7820788573	0.0247559864
3475.7108862303	0.0248416439
3477.6396936034	0.0250358209
3479.5685009764	0.0251098610
3481.4973083495	0.0249634050
3483.4261157225	0.0250879712
3485.3549230956	0.0252336413
3487.2837304686	0.0251293853
3489.2125378417	0.0253420956
3491.1413452147	0.0254369117
3493.0701525878	0.0255203024
3494.9989599608	0.0255240053
3496.9277673338	0.0255048480
3498.8565747069	0.0256712399
3500.7853820799	0.0256621409
3502.7141894530	0.0255481768
3504.6429968260	0.0256690681
3506.5718041991	0.0259972289
3508.5006115721	0.0258808471
3510.4294189452	0.0259415545
3512.3582263182	0.0261301659
3514.2870336913	0.0262980275
3516.2158410643	0.0264571849
3518.1446484374	0.0262671467
3520.0734558104	0.0265481211
3522.0022631835	0.0263850447
3523.9310705565	0.0261325836
3525.8598779295	0.0264694858
3527.7886853026	0.0264033526
3529.7174926756	0.0264328346
3531.6463000487	0.0267990008
3533.5751074217	0.0270807184
3535.5039147948	0.0268922858
3537.4327221678	0.0268715210
3539.3615295409	0.0272750929
3541.2903369139	0.0272722207
3543.2191442870	0.0271127857
3545.1479516600	0.0268283319
3547.0767590331	0.0266394131
3549.0055664061	0.0273381360
3550.9343737792	0.0275368169
3552.8631811522	0.0271690227
3554.7919885252	0.0276533440
3556.7207958983	0.0278562866
3558.6496032713	0.0278090015
3560.5784106444	0.0275652297
3562.5072180174	0.0275765210
3564.4360253905	0.0278665833
3566.3648327635	0.0265483782
3568.2936401366	0.0261421315
3570.2224475096	0.0277717393
3572.1512548827	0.0284878053
3574.0800622557	0.0281208232
3576.0088696288	0.0282695219
3577.9376770018	0.0284070894
3579.8664843749	0.0283330958
3581.7952917479	0.0285253581
3583.7240991210	0.0285733081
3585.6529064940	0.0281356387
3587.5817138670	0.0266102627
3589.5105212401	0.0271620490
3591.4393286131	0.0288742166
3593.3681359862	0.0283964742
3595.2969433592	0.0282122418
3597.2257507323	0.0285505485
3599.1545581053	0.0288676694
3601.0833654784	0.0287095420
3603.0121728514	0.0288468115
3604.9409802245	0.0294209365
3606.8697875975	0.0286448523
3608.7985949706	0.0274951626
3610.7274023436	0.0279509313
3612.6562097167	0.0284088515
3614.5850170897	0.0279812440
3616.5138244627	0.0295119882
3618.4426318358	0.0279587489
3620.3714392088	0.0272698794
3622.3002465819	0.0298196934
3624.2290539549	0.0292622261
3626.1578613280	0.0303388573
3628.0866687010	0.0268698968
3630.0154760741	0.0251167025
3631.9442834471	0.0298921764
3633.8730908202	0.0293490030
3635.8018981932	0.0297705792
3637.7307055663	0.0302962549
3639.6595129393	0.0299931262
3641.5883203124	0.0303638093
3643.5171276854	0.0300733931
3645.4459350584	0.0304364674
3647.3747424315	0.0281677097
3649.3035498045	0.0263945460
3651.2323571776	0.0267870314
3653.1611645506	0.0305077173
3655.0899719237	0.0302136540
3657.0187792967	0.0279347263
3658.9475866698	0.0311373547
3660.8763940428	0.0306090526
3662.8052014159	0.0309520513
3664.7340087889	0.0310103483
3666.6628161620	0.0308893956
3668.5916235350	0.0303096212
3670.5204309081	0.0260581113
3672.4492382811	0.0299945287
3674.3780456541	0.0291080233
3676.3068530272	0.0254143048
3678.2356604002	0.0301144123
3680.1644677733	0.0307288021
3682.0932751463	0.0307437517
3684.0220825194	0.0314935409
3685.9508898924	0.0310886763
3687.8796972655	0.0286523402
3689.8085046385	0.0269191880
3691.7373120116	0.0298349597
3693.6661193846	0.0304835681
3695.5949267577	0.0310779698
3697.5237341307	0.0311062001
3699.4525415038	0.0307688806
3701.3813488768	0.0303590223
3703.3101562499	0.0294437297
3705.2389636229	0.0315602534
3707.1677709959	0.0304711796
3709.0965783690	0.0299061574
3711.0253857420	0.0286458507
3712.9541931151	0.0272178706
3714.8830004881	0.0305741355
3716.8118078612	0.0302382857
3718.7406152342	0.0305353086
3720.6694226073	0.0300699957
3722.5982299803	0.0292516202
3724.5270373534	0.0301067494
3726.4558447264	0.0283914097
3728.3846520995	0.0301505495
3730.3134594725	0.0297756121
3732.2422668456	0.0281105824
3734.1710742186	0.0276519544
3736.0998815916	0.0264459029
3738.0286889647	0.0275883824
3739.9574963377	0.0292303674
3741.8863037108	0.0304695331
3743.8151110838	0.0250528045
3745.7439184569	0.0238737352
3747.6727258299	0.0291968025
3749.6015332030	0.0260013528
3751.5303405760	0.0244455673
3753.4591479491	0.0270208642
3755.3879553221	0.0286995787
3757.3167626952	0.0295682847
3759.2455700682	0.0278317425
3761.1743774413	0.0286323875
3763.1031848143	0.0298514105
3765.0319921873	0.0283901505
3766.9607995604	0.0287934691
3768.8896069334	0.0285228193
3770.8184143065	0.0274701249
3772.7472216795	0.0290735327
3774.6760290526	0.0291415658
3776.6048364256	0.0290301032
3778.5336437987	0.0285621770
3780.4624511717	0.0276646763
3782.3912585448	0.0289471857
3784.3200659178	0.0285691507
3786.2488732909	0.0283041634
3788.1776806639	0.0287144780
3790.1064880370	0.0286495481
3792.0352954100	0.0284723081
3793.9641027830	0.0288118906
3795.8929101561	0.0275912210
3797.8217175291	0.0273035634
3799.7505249022	0.0282206163
3801.6793322752	0.0238628462
3803.6081396483	0.0267760064
3805.5369470213	0.0283167437
3807.4657543944	0.0244226698
3809.3945617674	0.0280842967
3811.3233691405	0.0276466608
3813.2521765135	0.0284396224
3815.1809838866	0.0261905380
3817.1097912596	0.0238479041
3819.0385986327	0.0284366142
3820.9674060057	0.0243364833
3822.8962133787	0.0251675434
3824.8250207518	0.0281123649
3826.7538281248	0.0260982849
3828.6826354979	0.0275354926
3830.6114428709	0.0267300084
3832.5402502440	0.0260593779
3834.4690576170	0.0264886636
3836.3978649901	0.0254928656
3838.3266723631	0.0235138293
3840.2554797362	0.0249641407
3842.1842871092	0.0265427046
3844.1130944823	0.0255958177
3846.0419018553	0.0270573385
3847.9707092284	0.0267371200
3849.8995166014	0.0267651603
3851.8283239745	0.0247467961
3853.7571313475	0.0199289620
3855.6859387205	0.0224073585
3857.6147460936	0.0268564951
3859.5435534666	0.0262093246
3861.4723608397	0.0259279367
3863.4011682127	0.0255770143
3865.3299755858	0.0241137147
3867.2587829588	0.0261987820
3869.1875903319	0.0244615078
3871.1163977049	0.0230228305
3873.0452050780	0.0261536594
3874.9740124510	0.0246091746
3876.9028198241	0.0259673856
3878.8316271971	0.0262757000
3880.7604345702	0.0234656595
3882.6892419432	0.0260855947
3884.6180493162	0.0247139893
3886.5468566893	0.0231656618
3888.4756640623	0.0260627829
3890.4044714354	0.0249097198
3892.3332788084	0.0238431748
3894.2620861815	0.0254003927
3896.1908935545	0.0256456845
3898.1197009276	0.0248314552
3900.0485083006	0.0237946473
3901.9773156737	0.0235865042
3903.9061230467	0.0234254561
3905.8349304198	0.0237240940
3907.7637377928	0.0251602326
3909.6925451659	0.0251812376
3911.6213525389	0.0250396319
3913.5501599119	0.0252540205
3915.4789672850	0.0246966109
3917.4077746580	0.0241120625
3919.3365820311	0.0240551867
3921.2653894041	0.0246507451
3923.1941967772	0.0245427340
3925.1230041502	0.0242638309
3927.0518115233	0.0244120434
3928.9806188963	0.0246052630
3930.9094262694	0.0242304020
3932.8382336424	0.0236696303
3934.7670410155	0.0243549831
3936.6958483885	0.0244178921
3938.6246557616	0.0242546555
3940.5534631346	0.0244304128
3942.4822705076	0.0237541460
3944.4110778807	0.0238413680
3946.3398852537	0.0241461955
3948.2686926268	0.0237469058
3950.1974999998	0.0237360895
3952.1263073729	0.0238898359
3954.0551147459	0.0238733515
3955.9839221190	0.0238303021
3957.9127294920	0.0237455033
3959.8415368651	0.0237525851
3961.7703442381	0.0236266982
3963.6991516112	0.0235567540
3965.6279589842	0.0235953983
3967.5567663573	0.0235322975
3969.4855737303	0.0235870462
3971.4143811034	0.0234343857
3973.3431884764	0.0233342554
3975.2719958494	0.0232549272
3977.2008032225	0.0232032724
3979.1296105955	0.0233536717
3981.0584179686	0.0232176147
3982.9872253416	0.0231980365
3984.9160327147	0.0231422335
3986.8448400877	0.0230493806
3988.7736474608	0.0230426826
3990.7024548338	0.0228514671
3992.6312622069	0.0227709003
3994.5600695799	0.0227633379
3996.4888769530	0.0228145029
3998.4176843260	0.0227352008
4000.3464916991	0.0226484220
4002.2752990721	0.0226669386
4004.2041064451	0.0226790402
4006.1329138182	0.0226820689
4008.0617211912	0.0224439371
4009.9905285643	0.0224630237
4011.9193359373	0.0225837156
4013.8481433104	0.0223705694
4015.7769506834	0.0223187432
4017.7057580565	0.0223081876
4019.6345654295	0.0222524144
4021.5633728026	0.0222650021
4023.4921801756	0.0221683513
4025.4209875487	0.0221218131
4027.3497949217	0.0220297389
4029.2786022948	0.0219250172
4031.2074096678	0.0219862144
4033.1362170408	0.0219351184
4035.0650244139	0.0218089521
4036.9938317869	0.0217952915
4038.9226391600	0.0218010042
4040.8514465330	0.0217138324
4042.7802539061	0.0217057653
4044.7090612791	0.0216569193
4046.6378686522	0.0215559453
4048.5666760252	0.0215423908
4050.4954833983	0.0214320086
4052.4242907713	0.0214898773
4054.3530981444	0.0214603785
4056.2819055174	0.0213191807
4058.2107128905	0.0213175025
4060.1395202635	0.0211754367
4062.0683276365	0.0211314838
4063.9971350096	0.0211589839
4065.9259423826	0.0210924707
4067.8547497557	0.0210138746
4069.7835571287	0.0209863037
4071.7123645018	0.0209748838
4073.6411718748	0.0209636055
4075.5699792479	0.0208688453
4077.4987866209	0.0207747556
4079.4275939940	0.0208317675
4081.3564013670	0.0207411200
4083.2852087401	0.0207209401
4085.2140161131	0.0207129084
4087.1428234862	0.0205728337
4089.0716308592	0.0204988346
4091.0004382323	0.0205156989
4092.9292456053	0.0205046032
4094.8580529783	0.0204023831
4096.7868603514	0.0204912256
4098.7156677244	0.0203643925
4100.6444750975	0.0202569533
4102.5732824705	0.0203037634
4104.5020898436	0.0201764945
4106.4308972166	0.0201392788
4108.3597045897	0.0200528838
4110.2885119627	0.0200697668
4112.2173193358	0.0199989080
4114.1461267088	0.0199081786
4116.0749340819	0.0199342519
4118.0037414549	0.0199121349
4119.9325488280	0.0198670998
4121.8613562010	0.0197452512
4123.7901635740	0.0197689570
4125.7189709471	0.0196640659
4127.6477783201	0.0195924491
4129.5765856932	0.0195941590
4131.5053930662	0.0195919890
4133.4342004393	0.0195536893
4135.3630078123	0.0194140784
4137.2918151854	0.0194769893
4139.2206225584	0.0193665773
4141.1494299315	0.0193290263
4143.0782373045	0.0193156041
4145.0070446776	0.0192355551
4146.9358520506	0.0192283671
4148.8646594237	0.0191150587
4150.7934667967	0.0191401802
4152.7222741697	0.0191598609
4154.6510815428	0.0191301070
4156.5798889158	0.0190185644
4158.5086962889	0.0190221462
4160.4375036619	0.0189036690
4162.3663110350	0.0188415572
4164.2951184080	0.0189157352
4166.2239257811	0.0186456591
4168.1527331541	0.0186346360
4170.0815405272	0.0186415631
4172.0103479002	0.0186883565
4173.9391552733	0.0186320096
4175.8679626463	0.0184774473
4177.7967700194	0.0185220595
4179.7255773924	0.0184498318
4181.6543847654	0.0184848383
4183.5831921385	0.0183244087
4185.5119995115	0.0184286609
4187.4408068846	0.0184230953
4189.3696142576	0.0182178747
4191.2984216307	0.0182848070
4193.2272290037	0.0181108247
4195.1560363768	0.0181546528
4197.0848437498	0.0180381723
4199.0136511229	0.0180108733
4200.9424584959	0.0180904362
4202.8712658690	0.0179088898
4204.8000732420	0.0179292634
4206.7288806151	0.0179091915
4208.6576879881	0.0178902373
4210.5864953611	0.0177458376
4212.5153027342	0.0177240130
4214.4441101072	0.0177952368
4216.3729174803	0.0177202933
4218.3017248533	0.0176284947
4220.2305322264	0.0175881572
4222.1593395994	0.0176061634
4224.0881469725	0.0174825657
4226.0169543455	0.0174720138
4227.9457617186	0.0174258128
4229.8745690916	0.0173778348
4231.8033764647	0.0173065290
4233.7321838377	0.0172764622
4235.6609912108	0.0172880907
4237.5897985838	0.0171850435
4239.5186059569	0.0172206163
4241.4474133299	0.0170819927
4243.3762207029	0.0170873217
4245.3050280760	0.0170793291
4247.2338354490	0.0170553327
4249.1626428221	0.0171325877
4251.0914501951	0.0169645958
4253.0202575682	0.0169278719
4254.9490649412	0.0168153699
4256.8778723143	0.0168777108
4258.8066796873	0.0169367082
4260.7354870604	0.0167934094
4262.6642944334	0.0167471021
4264.5931018065	0.0166171920
4266.5219091795	0.0166065320
4268.4507165526	0.0166235678
4270.3795239256	0.0165754929
4272.3083312986	0.0165161267
4274.2371386717	0.0165475216
4276.1659460447	0.0164595544
4278.0947534178	0.0163519289
4280.0235607908	0.0163540915
4281.9523681639	0.0163066518
4283.8811755369	0.0163212121
4285.8099829100	0.0162037611
4287.7387902830	0.0162237957
4289.6675976561	0.0162209459
4291.5964050291	0.0161710363
4293.5252124022	0.0161524490
4295.4540197752	0.0160315260
4297.3828271483	0.0160770994
4299.3116345213	0.0161141120
4301.2404418943	0.0160602108
4303.1692492674	0.0158706643
4305.0980566404	0.0159525294
4307.0268640135	0.0159724243
4308.9556713865	0.0158032291
4310.8844787596	0.0158020314
4312.8132861326	0.0156646632
4314.7420935057	0.0157011449
4316.6709008787	0.0156385880
4318.5997082518	0.0156429615
4320.5285156248	0.0156695042
4322.4573229979	0.0155536793
4324.3861303709	0.0156083452
4326.3149377440	0.0154701825
4328.2437451170	0.0153814089
4330.1725524900	0.0153686628
4332.1013598631	0.0153438076
4334.0301672361	0.0152447615
4335.9589746092	0.0152710117
4337.8877819822	0.0153058143
4339.8165893553	0.0151823685
4341.7453967283	0.0152314324
4343.6742041014	0.0151167531
4345.6030114744	0.0151186101
4347.5318188475	0.0150763728
4349.4606262205	0.0149751985
4351.3894335936	0.0150450114
4353.3182409666	0.0149335852
4355.2470483397	0.0148841031
4357.1758557127	0.0149066290
4359.1046630858	0.0148494346
4361.0334704588	0.0147532159
4362.9622778318	0.0148337577
4364.8910852049	0.0147651844
4366.8198925779	0.0146779707
4368.7486999510	0.0146938749
4370.6775073240	0.0146095231
4372.6063146971	0.0147046857
4374.5351220701	0.0145838717
4376.4639294432	0.0144759212
4378.3927368162	0.0144435586
4380.3215441893	0.0144283334
4382.2503515623	0.0144194383
4384.1791589354	0.0143503901
4386.1079663084	0.0143791232
4388.0367736815	0.0142554622
4389.9655810545	0.0143541712
4391.8943884275	0.0142410342
4393.8231958006	0.0141509874
4395.7520031736	0.0142901670
4397.6808105467	0.0141501231
4399.6096179197	0.0141310208
4401.5384252928	0.0140443165
4403.4672326658	0.0141138015
4405.3960400389	0.0140555501
4407.3248474119	0.0139677301
4409.2536547850	0.0139845954
4411.1824621580	0.0137994010
4413.1112695311	0.0139104957
4415.0400769041	0.0138036795
4416.9688842772	0.0137548223
4418.8976916502	0.0137865935
4420.8264990232	0.0136318617
4422.7553063963	0.0137413274
4424.6841137693	0.0136790415
4426.6129211424	0.0135977762
4428.5417285154	0.0135868713
4430.4705358885	0.0135446629
4432.3993432615	0.0136699099
4434.3281506346	0.0136154834
4436.2569580076	0.0134358611
4438.1857653807	0.0134661794
4440.1145727537	0.0134385619
4442.0433801268	0.0133980047
4443.9721874998	0.0133569827
4445.9009948729	0.0132316193
4447.8298022459	0.0133091714
4449.7586096189	0.0132491197
4451.6874169920	0.0131981801
4453.6162243650	0.0132650677
4455.5450317381	0.0131481737
4457.4738391111	0.0131406514
4459.4026464842	0.0131739285
4461.3314538572	0.0131093413
4463.2602612303	0.0130157918
4465.1890686033	0.0129923923
4467.1178759764	0.0129842795
4469.0466833494	0.0129389483
4470.9754907225	0.0128733506
4472.9042980955	0.0128146093
4474.8331054686	0.0128097879
4476.7619128416	0.0127971806
4478.6907202147	0.0127894580
4480.6195275877	0.0126453843
4482.5483349607	0.0126322098
4484.4771423338	0.0126898848
4486.4059497068	0.0126239248
4488.3347570799	0.0126537429
4490.2635644529	0.0125388224
4492.1923718260	0.0125227803
4494.1211791990	0.0125914626
4496.0499865721	0.0124840327
4497.9787939451	0.0124852322
4499.9076013182	0.0124619249
4501.8364086912	0.0123903807
4503.7652160643	0.0124085862
4505.6940234373	0.0123480372
4507.6228308104	0.0122800842
4509.5516381834	0.0122807333
4511.4804455564	0.0122624524
4513.4092529295	0.0122604575
4515.3380603025	0.0121944370
4517.2668676756	0.0121253990
4519.1956750486	0.0120927980
4521.1244824217	0.0121094435
4523.0532897947	0.0120822536
4524.9820971678	0.0119615179
4526.9109045408	0.0120560741
4528.8397119139	0.0120253991
4530.7685192869	0.0118655916
4532.6973266600	0.0118770860
4534.6261340330	0.0118665490
4536.5549414061	0.0118653011
4538.4837487791	0.0118323173
4540.4125561521	0.0117513537
4542.3413635252	0.0116935261
4544.2701708982	0.0117392577
4546.1989782713	0.0117442990
4548.1277856443	0.0116533954
4550.0565930174	0.0115956813
4551.9854003904	0.0115946475
4553.9142077635	0.0116157588
4555.8430151365	0.0115096774
4557.7718225096	0.0114982575
4559.7006298826	0.0114818122
4561.6294372557	0.0114089670
4563.5582446287	0.0114485212
4565.4870520018	0.0114072599
4567.4158593748	0.0113465637
4569.3446667478	0.0113444831
4571.2734741209	0.0113594979
4573.2022814939	0.0112432279
4575.1310888670	0.0111816693
4577.0598962400	0.0112393554
4578.9887036131	0.0111917434
4580.9175109861	0.0111531280
4582.8463183592	0.0111043938
4584.7751257322	0.0110530220
4586.7039331053	0.0110148676
4588.6327404783	0.0109992316
4590.5615478514	0.0109935962
4592.4903552244	0.0109958602
4594.4191625975	0.0109894276
4596.3479699705	0.0109140612
4598.2767773435	0.0109017398
4600.2055847166	0.0109282248
4602.1343920896	0.0108942706
4604.0631994627	0.0108401347
4605.9920068357	0.0108279828
4607.9208142088	0.0107867159
4609.8496215818	0.0108010303
4611.7784289549	0.0107197985
4613.7072363279	0.0105798626
4615.6360437010	0.0106970137
4617.5648510740	0.0106731001
4619.4936584471	0.0106035788
4621.4224658201	0.0106233014
4623.3512731932	0.0105674341
4625.2800805662	0.0105242506
4627.2088879393	0.0104657700
4629.1376953123	0.0104951803
4631.0665026853	0.0105103329
4632.9953100584	0.0104623735
4634.9241174314	0.0104020899
4636.8529248045	0.0103622358
4638.7817321775	0.0103589129
4640.7105395506	0.0103616379
4642.6393469236	0.0103107849
4644.5681542967	0.0102595966
4646.4969616697	0.0102753937
4648.4257690428	0.0101865996
4650.3545764158	0.0101854503
4652.2833837889	0.0101332460
4654.2121911619	0.0100569911
4656.1409985350	0.0101255784
4658.0698059080	0.0100617083
4659.9986132810	0.0100316908
4661.9274206541	0.0100416187
4663.8562280271	0.0100405570
4665.7850354002	0.0099934936
4667.7138427732	0.0099659339
4669.6426501463	0.0099281557
4671.5714575193	0.0098414849
4673.5002648924	0.0098555759
4675.4290722654	0.0097859651
4677.3578796385	0.0098227393
4679.2866870115	0.0098720547
4681.2154943846	0.0097931288
4683.1443017576	0.0097572897
4685.0731091307	0.0097174384
4687.0019165037	0.0097195571
4688.9307238767	0.0097126011
4690.8595312498	0.0096757412
4692.7883386228	0.0096581476
4694.7171459959	0.0096285036
4696.6459533689	0.0095485058
4698.5747607420	0.0096049979
4700.5035681150	0.0096157007
4702.4323754881	0.0095594972
4704.3611828611	0.0095281871
4706.2899902342	0.0094200447
4708.2187976072	0.0094593810
4710.1476049803	0.0093708886
4712.0764123533	0.0093434192
4714.0052197264	0.0093393009
4715.9340270994	0.0093026115
4717.8628344724	0.0093859527
4719.7916418455	0.0092323571
4721.7204492185	0.0092717716
4723.6492565916	0.0092971334
4725.5780639646	0.0092789773
4727.5068713377	0.0092888288
4729.4356787107	0.0091506001
4731.3644860838	0.0091762356
4733.2932934568	0.0091344584
4735.2221008299	0.0091482569
4737.1509082029	0.0091071185
4739.0797155760	0.0090407990
4741.0085229490	0.0090286117
4742.9373303221	0.0089444518
4744.8661376951	0.0089628026
4746.7949450682	0.0089747962
4748.7237524412	0.0090186251
4750.6525598142	0.0089676529
4752.5813671873	0.0089285569
4754.5101745603	0.0088716373
4756.4389819334	0.0088746799
4758.3677893064	0.0089588212
4760.2965966795	0.0088374894
4762.2254040525	0.0088082496
4764.1542114256	0.0087530781
4766.0830187986	0.0087095350
4768.0118261717	0.0086995345
4769.9406335447	0.0086561572
4771.8694409178	0.0086641312
4773.7982482908	0.0086681396
4775.7270556639	0.0087066507
4777.6558630369	0.0086119119
4779.5846704099	0.0085825538
4781.5134777830	0.0085793529
4783.4422851560	0.0085413475
4785.3710925291	0.0085682878
4787.2998999021	0.0084875282
4789.2287072752	0.0084140114
4791.1575146482	0.0084375991
4793.0863220213	0.0084093288
4795.0151293943	0.0083589256
4796.9439367674	0.0083989594
4798.8727441404	0.0083310753
4800.8015515135	0.0083384477
4802.7303588865	0.0083163613
4804.6591662596	0.0082461061
4806.5879736326	0.0083401566
4808.5167810056	0.0082677435
4810.4455883787	0.0082547562
4812.3743957517	0.0082456823
4814.3032031248	0.0082141627
4816.2320104978	0.0082183219
4818.1608178709	0.0081664007
4820.0896252439	0.0081422180
4822.0184326170	0.0080507332
4823.9472399900	0.0081045963
4825.8760473631	0.0081225205
4827.8048547361	0.0080600139
4829.7336621092	0.0080017708
4831.6624694822	0.0079773292
4833.5912768553	0.0080193151
4835.5200842283	0.0080058947
4837.4488916013	0.0079668760
4839.3776989744	0.0078426907
4841.3065063474	0.0079351384
4843.2353137205	0.0079415943
4845.1641210935	0.0078414232
4847.0929284666	0.0078469077
4849.0217358396	0.0077523519
4850.9505432127	0.0078050070
4852.8793505857	0.0077349781
4854.8081579588	0.0076594753
4856.7369653318	0.0077329311
4858.6657727049	0.0077543836
4860.5945800779	0.0076944837
4862.5233874510	0.0076742778
4864.4521948240	0.0076923803
4866.3810021971	0.0075572100
4868.3098095701	0.0076386742
4870.2386169431	0.0075831632
4872.1674243162	0.0074594878
4874.0962316892	0.0075752977
4876.0250390623	0.0075144903
4877.9538464353	0.0074871099
4879.8826538084	0.0074772625
4881.8114611814	0.0074661309
4883.7402685545	0.0074572200
4885.6690759275	0.0074570337
4887.5978833006	0.0074376324
4889.5266906736	0.0073365876
4891.4554980467	0.0073893010
4893.3843054197	0.0073668659
4895.3131127928	0.0072846091
4897.2419201658	0.0073329331
4899.1707275388	0.0073450189
4901.0995349119	0.0073210811
4903.0283422849	0.0073187239
4904.9571496580	0.0072289193
4906.8859570310	0.0071423356
4908.8147644041	0.0071228184
4910.7435717771	0.0071865097
4912.6723791502	0.0072733192
4914.6011865232	0.0071219690
4916.5299938963	0.0071121734
4918.4588012693	0.0071538277
4920.3876086424	0.0070669400
4922.3164160154	0.0071021793
4924.2452233885	0.0070034219
4926.1740307615	0.0069919941
4928.1028381345	0.0070547364
4930.0316455076	0.0069600479
4931.9604528806	0.0069133993
4933.8892602537	0.0069075581
4935.8180676267	0.0068975575
4937.7468749998	0.0069311270
4939.6756823728	0.0069102617
4941.6044897459	0.0068108700
4943.5332971189	0.0068860603
4945.4621044920	0.0069322456
4947.3909118650	0.0068577463
4949.3197192381	0.0068331985
4951.2485266111	0.0067513892
4953.1773339842	0.0067217592
4955.1061413572	0.0067641092
4957.0349487302	0.0067964457
4958.9637561033	0.0067569609
4960.8925634763	0.0066390475
4962.8213708494	0.0066408394
4964.7501782224	0.0067107277
4966.6789855955	0.0066596149
4968.6077929685	0.0066361539
4970.5366003416	0.0065930481
4972.4654077146	0.0065330868
4974.3942150877	0.0066441502
4976.3230224607	0.0066344570
4978.2518298338	0.0065651769
4980.1806372068	0.0065452037
4982.1094445799	0.0065033389
4984.0382519529	0.0065337857
4985.9670593259	0.0065433662
4987.8958666990	0.0064899614
4989.8246740720	0.0063769771
4991.7534814451	0.0063955924
4993.6822888181	0.0063713319
4995.6110961912	0.0062937038
4997.5399035642	0.0064217718
4999.4687109373	0.0063590957
5001.3975183103	0.0062793680
5003.3263256834	0.0063685491
5005.2551330564	0.0062986091
5007.1839404295	0.0062517612
5009.1127478025	0.0062548514
5011.0415551756	0.0062006703
5012.9703625486	0.0062505417
5014.8991699217	0.0062501151
5016.8279772947	0.0061979843
5018.7567846677	0.0061927205
5020.6855920408	0.0061660428
5022.6143994138	0.0062477184
5024.5432067869	0.0062078875
5026.4720141599	0.0060919346
5028.4008215330	0.0060977261
5030.3296289060	0.0060498863
5032.2584362791	0.0060554566
5034.1872436521	0.0060587423
5036.1160510252	0.0060317460
5038.0448583982	0.0060537783
5039.9736657713	0.0060243080
5041.9024731443	0.0060024811
5043.8312805174	0.0060064122
5045.7600878904	0.0059097279
5047.6888952634	0.0059068468
5049.6177026365	0.0059608165
5051.5465100095	0.0058381897
5053.4753173826	0.0058396980
5055.4041247556	0.0058360295
5057.3329321287	0.0058030896
5059.2617395017	0.0058070840
5061.1905468748	0.0057171499
5063.1193542478	0.0058205947
5065.0481616209	0.0057808859
5066.9769689939	0.0056929160
5068.9057763670	0.0057921759
5070.8345837400	0.0056937644
5072.7633911131	0.0056935335
5074.6921984861	0.0057074139
5076.6210058591	0.0055972468
5078.5498132322	0.0056757173
5080.4786206052	0.0056495238
5082.4074279783	0.0055684629
5084.3362353513	0.0056429557
5086.2650427244	0.0056062466
5088.1938500974	0.0055899434
5090.1226574705	0.0055804681
5092.0514648435	0.0054703886
5093.9802722166	0.0054814741
5095.9090795896	0.0055489200
5097.8378869627	0.0055461107
5099.7666943357	0.0054805586
5101.6955017088	0.0054676374
5103.6243090818	0.0055029765
5105.5531164548	0.0054715779
5107.4819238279	0.0054113027
5109.4107312009	0.0054076537
5111.3395385740	0.0053781732
5113.2683459470	0.0053326627
5115.1971533201	0.0053756633
5117.1259606931	0.0053263586
5119.0547680662	0.0053038946
5120.9835754392	0.0052827848
5122.9123828123	0.0052460581
5124.8411901853	0.0053049326
5126.7699975584	0.0052408269
5128.6988049314	0.0052365018
5130.6276123045	0.0052129095
5132.5564196775	0.0051936558
5134.4852270506	0.0052564330
5136.4140344236	0.0051913224
5138.3428417966	0.0052154250
5140.2716491697	0.0051964754
5142.2004565427	0.0050871065
5144.1292639158	0.0051160017
5146.0580712888	0.0051535293
5147.9868786619	0.0051265648
5149.9156860349	0.0051186597
5151.8444934080	0.0050981715
5153.7733007810	0.0051368033
5155.7021081541	0.0051356517
5157.6309155271	0.0050280076
5159.5597229002	0.0050572082
5161.4885302732	0.0050295917
5163.4173376463	0.0050142016
5165.3461450193	0.0049966620
5167.2749523923	0.0049640755
5169.2037597654	0.0050287358
5171.1325671384	0.0049208333
5173.0613745115	0.0049917395
5174.9901818845	0.0050159264
5176.9189892576	0.0048571690
5178.8477966306	0.0049098213
5180.7766040037	0.0049276943
5182.7054113767	0.0049399249
5184.6342187498	0.0048982678
5186.5630261228	0.0048290929
5188.4918334959	0.0048428099
5190.4206408689	0.0048131542
5192.3494482420	0.0048192581
5194.2782556150	0.0048274407
5196.2070629880	0.0047784615
5198.1358703611	0.0047410941
5200.0646777341	0.0046995743
5201.9934851072	0.0047508869
5203.9222924802	0.0048201634
5205.8510998533	0.0046970565
5207.7799072263	0.0046415972
5209.7087145994	0.0046592564
5211.6375219724	0.0047081513
5213.5663293455	0.0047420347
5215.4951367185	0.0046561239
5217.4239440916	0.0046197413
5219.3527514646	0.0045708432
5221.2815588377	0.0046578967
5223.2103662107	0.0046685515
5225.1391735837	0.0045518312
5227.0679809568	0.0045379261
5228.9967883298	0.0045022760
5230.9255957029	0.0045593241
5232.8544030759	0.0045525082
5234.7832104490	0.0045399824
5236.7120178220	0.0045310445
5238.6408251951	0.0045027621
5240.5696325681	0.0045678345
5242.4984399412	0.0045400024
5244.4272473142	0.0044812341
5246.3560546873	0.0044139251
5248.2848620603	0.0043304591
5250.2136694334	0.0043775896
5252.1424768064	0.0045445291
5254.0712841795	0.0043871384
5256.0000915525	0.0042664073
5257.9288989255	0.0044579636
5259.8577062986	0.0044107074
5261.7865136716	0.0043940628
5263.7153210447	0.0043516634
5265.6441284177	0.0042696111
5267.5729357908	0.0043207062
5269.5017431638	0.0043164194
5271.4305505369	0.0042948257
5273.3593579099	0.0042724982
5275.2881652830	0.0043010223
5277.2169726560	0.0042991377
5279.1457800291	0.0043133702
5281.0745874021	0.0042605950
5283.0033947752	0.0042214105
5284.9322021482	0.0042284746
5286.8610095212	0.0042117005
5288.7898168943	0.0042549279
5290.7186242673	0.0041587595
5292.6474316404	0.0041635819
5294.5762390134	0.0042064972
5296.5050463865	0.0041470779
5298.4338537595	0.0040967506
5300.3626611326	0.0041263648
5302.2914685056	0.0041700397
5304.2202758787	0.0040799538
5306.1490832517	0.0041053984
5308.0778906248	0.0040855519
5310.0066979978	0.0040806830
5311.9355053709	0.0040530027
5313.8643127439	0.0040213233
5315.7931201169	0.0040925210
5317.7219274900	0.0039867908
5319.6507348630	0.0039893594
5321.5795422361	0.0040540779
5323.5083496091	0.0040862653
5325.4371569822	0.0040305704
5327.3659643552	0.0039726398
5329.2947717283	0.0039835102
5331.2235791013	0.0039136806
5333.1523864744	0.0038864794
5335.0811938474	0.0039010432
5337.0100012205	0.0039445655
5338.9388085935	0.0037835697
5340.8676159666	0.0039280020
5342.7964233396	0.0040164362
5344.7252307126	0.0036952186
5346.6540380857	0.0037969206
5348.5828454587	0.0038217136
5350.5116528318	0.0038843995
5352.4404602048	0.0039002374
5354.3692675779	0.0037180008
5356.2980749509	0.0038068378
5358.2268823240	0.0038338322
5360.1556896970	0.0038356218
5362.0844970701	0.0037778905
5364.0133044431	0.0037973237
5365.9421118162	0.0037777259
5367.8709191892	0.0036957196
5369.7997265623	0.0037508542
5371.7285339353	0.0036733174
5373.6573413083	0.0037097125
5375.5861486814	0.0037251068
5377.5149560544	0.0036345292
5379.4437634275	0.0037303113
5381.3725708005	0.0037647421
5383.3013781736	0.0036612465
5385.2301855466	0.0036536928
5387.1589929197	0.0035997978
5389.0878002927	0.0036470830
5391.0166076658	0.0037730308
5392.9454150388	0.0036068859
5394.8742224119	0.0035659275
5396.8030297849	0.0035620572
5398.7318371580	0.0035185409
5400.6606445310	0.0036229691
5402.5894519041	0.0036486029
5404.5182592771	0.0036110389
5406.4470666501	0.0036020903
5408.3758740232	0.0036018435
5410.3046813962	0.0034799380
5412.2334887693	0.0035324097
5414.1622961423	0.0034742402
5416.0911035154	0.0033334093
5418.0199108884	0.0035351920
5419.9487182615	0.0035111918
5421.8775256345	0.0034120698
5423.8063330076	0.0034456630
5425.7351403806	0.0035226708
5427.6639477537	0.0034699347
5429.5927551267	0.0033312719
5431.5215624998	0.0034293253
5433.4503698728	0.0034355838
5435.3791772458	0.0033721956
5437.3079846189	0.0033445940
5439.2367919919	0.0033828663
5441.1655993650	0.0033757247
5443.0944067380	0.0032970977
5445.0232141111	0.0033346219
5446.9520214841	0.0032916758
5448.8808288572	0.0032763854
5450.8096362302	0.0033330922
5452.7384436033	0.0033482420
5454.6672509763	0.0033249131
5456.5960583494	0.0033386010
5458.5248657224	0.0032806098
5460.4536730955	0.0031831893
5462.3824804685	0.0032410696
5464.3112878415	0.0032219752
5466.2400952146	0.0032409085
5468.1689025876	0.0032125651
5470.0977099607	0.0031661955
5472.0265173337	0.0032687495
5473.9553247068	0.0031808724
5475.8841320798	0.0031323750
5477.8129394529	0.0031867619
5479.7417468259	0.0032122417
5481.6705541990	0.0032538632
5483.5993615720	0.0032027340
5485.5281689451	0.0031755923
5487.4569763181	0.0031313247
5489.3857836912	0.0031137187
5491.3145910642	0.0031860834
5493.2433984372	0.0031590157
5495.1722058103	0.0031103925
5497.1010131833	0.0030601947
5499.0298205564	0.0031020418
5500.9586279294	0.0031775001
5502.8874353025	0.0030918461
5504.8162426755	0.0031146738
5506.7450500486	0.0031278534
5508.6738574216	0.0030826870
5510.6026647947	0.0030735452
5512.5314721677	0.0030209571
5514.4602795408	0.0030250777
5516.3890869138	0.0029718925
5518.3178942869	0.0030048015
5520.2467016599	0.0030199150
5522.1755090330	0.0029902393
5524.1043164060	0.0030683340
5526.0331237790	0.0029511605
5527.9619311521	0.0028962304
5529.8907385251	0.0029665125
5531.8195458982	0.0029393821
5533.7483532712	0.0029205005
5535.6771606443	0.0029416881
5537.6059680173	0.0029143838
5539.5347753904	0.0028217093
5541.4635827634	0.0028475570
5543.3923901365	0.0028580083
5545.3211975095	0.0028321492
5547.2500048826	0.0029201671
5549.1788122556	0.0028940812
5551.1076196287	0.0028042668
5553.0364270017	0.0028581726
5554.9652343747	0.0028268520
5556.8940417478	0.0027647093
5558.8228491208	0.0028424626
5560.7516564939	0.0028819249
5562.6804638669	0.0028433371
5564.6092712400	0.0027002275
5566.5380786130	0.0027171709
5568.4668859861	0.0028225479
5570.3956933591	0.0027418279
5572.3245007322	0.0027475045
5574.2533081052	0.0027621973
5576.1821154783	0.0027861816
5578.1109228513	0.0028362181
5580.0397302244	0.0027693841
5581.9685375974	0.0027338425
5583.8973449704	0.0027683601
5585.8261523435	0.0027541802
5587.7549597165	0.0027463550
5589.6837670896	0.0027832747
5591.6125744626	0.0027133641
5593.5413818357	0.0026848668
5595.4701892087	0.0026722667
5597.3989965818	0.0026792383
5599.3278039548	0.0026967137
5601.2566113279	0.0025911080
5603.1854187009	0.0026776409
5605.1142260740	0.0026925097
5607.0430334470	0.0025620083
5608.9718408201	0.0026099726
5610.9006481931	0.0026178686
5612.8294555661	0.0025885860
5614.7582629392	0.0026047381
5616.6870703122	0.0025393362
5618.6158776853	0.0025281222
5620.5446850583	0.0026489359
5622.4734924314	0.0026111845
5624.4022998044	0.0025831873
5626.3311071775	0.0026248335
5628.2599145505	0.0025572130
5630.1887219236	0.0025870008
5632.1175292966	0.0025932998
5634.0463366697	0.0025288444
5635.9751440427	0.0025445025
5637.9039514158	0.0025495596
5639.8327587888	0.0024898471
5641.7615661619	0.0025571147
5643.6903735349	0.0025870679
5645.6191809079	0.0024407087
5647.5479882810	0.0024772990
5649.4767956540	0.0025177111
5651.4056030271	0.0024917566
5653.3344104001	0.0025104168
5655.2632177732	0.0025030193
5657.1920251462	0.0024837430
5659.1208325193	0.0024297105
5661.0496398923	0.0024942253
5662.9784472654	0.0024791704
5664.9072546384	0.0024107732
5666.8360620115	0.0024607717
5668.7648693845	0.0024089734
5670.6936767576	0.0023961992
5672.6224841306	0.0023977072
5674.5512915036	0.0023474088
5676.4800988767	0.0023863087
5678.4089062497	0.0023675570
5680.3377136228	0.0023796444
5682.2665209958	0.0024129101
5684.1953283689	0.0023008839
5686.1241357419	0.0023173217
5688.0529431150	0.0023479173
5689.9817504880	0.0023430176
5691.9105578611	0.0024152570
5693.8393652341	0.0022870717
5695.7681726072	0.0022521804
5697.6969799802	0.0023434595
5699.6257873533	0.0023119031
5701.5545947263	0.0023650951
5703.4834020993	0.0023144525
5705.4122094724	0.0021609152
5707.3410168454	0.0022262512
5709.2698242185	0.0022960848
5711.1986315915	0.0022596703
5713.1274389646	0.0022656978
5715.0562463376	0.0022080527
5716.9850537107	0.0021679089
5718.9138610837	0.0021869685
5720.8426684568	0.0021765493
5722.7714758298	0.0021689297
5724.7002832029	0.0021662698
5726.6290905759	0.0021954891
5728.5578979490	0.0021390396
5730.4867053220	0.0021378156
5732.4155126950	0.0021782385
5734.3443200681	0.0021110196
5736.2731274411	0.0021715027
5738.2019348142	0.0021817894
5740.1307421872	0.0021388954
5742.0595495603	0.0022013844
5743.9883569333	0.0021291319
5745.9171643064	0.0020783348
5747.8459716794	0.0021462697
5749.7747790525	0.0020926562
5751.7035864255	0.0020470745
5753.6323937986	0.0020710770
5755.5612011716	0.0021228027
5757.4900085447	0.0021592882
5759.4188159177	0.0020400132
5761.3476232907	0.0020125513
5763.2764306638	0.0020581898
5765.2052380368	0.0020746761
5767.1340454099	0.0020824843
5769.0628527829	0.0020409729
5770.9916601560	0.0021236287
5772.9204675290	0.0020871779
5774.8492749021	0.0020243977
5776.7780822751	0.0020631589
5778.7068896482	0.0019754437
5780.6356970212	0.0019957181
5782.5645043943	0.0020263768
5784.4933117673	0.0020320944
5786.4221191404	0.0020760559
5788.3509265134	0.0019553895
5790.2797338865	0.0019090013
5792.2085412595	0.0019065856
5794.1373486325	0.0018848262
5796.0661560056	0.0020173565
5797.9949633786	0.0019511171
5799.9237707517	0.0018649059
5801.8525781247	0.0019334768
5803.7813854978	0.0019130826
5805.7101928708	0.0019658268
5807.6390002439	0.0019083831
5809.5678076169	0.0018586977
5811.4966149900	0.0018957343
5813.4254223630	0.0019028268
5815.3542297361	0.0019717803
5817.2830371091	0.0019384457
5819.2118444822	0.0019445022
5821.1406518552	0.0018512318
5823.0694592282	0.0018185482
5824.9982666013	0.0019148961
5826.9270739743	0.0018202988
5828.8558813474	0.0018264346
5830.7846887204	0.0018369933
5832.7134960935	0.0018275818
5834.6423034665	0.0018461519
5836.5711108396	0.0018291725
5838.4999182126	0.0018048558
5840.4287255857	0.0017592635
5842.3575329587	0.0017641328
5844.2863403318	0.0017665576
5846.2151477048	0.0017880765
5848.1439550779	0.0017600127
5850.0727624509	0.0018181322
5852.0015698239	0.0018029837
5853.9303771970	0.0017051799
5855.8591845700	0.0017909522
5857.7879919431	0.0017690426
5859.7167993161	0.0017748559
5861.6456066892	0.0017852280
5863.5744140622	0.0017312418
5865.5032214353	0.0017078015
5867.4320288083	0.0016760859
5869.3608361814	0.0017113248
5871.2896435544	0.0017576613
5873.2184509275	0.0017994221
5875.1472583005	0.0016954715
5877.0760656736	0.0016342017
5879.0048730466	0.0016602812
5880.9336804196	0.0016574779
5882.8624877927	0.0016396367
5884.7912951657	0.0015822705
5886.7201025388	0.0016908324
5888.6489099118	0.0016981889
5890.5777172849	0.0016547760
5892.5065246579	0.0017117604
5894.4353320310	0.0016825179
5896.3641394040	0.0016442316
5898.2929467771	0.0016021603
5900.2217541501	0.0016419595
5902.1505615232	0.0016689603
5904.0793688962	0.0016073266
5906.0081762693	0.0015582780
5907.9369836423	0.0015922455
5909.8657910154	0.0016495462
5911.7945983884	0.0016253558
5913.7234057614	0.0016230571
5915.6522131345	0.0016413244
5917.5810205075	0.0016320078
5919.5098278806	0.0015931081
5921.4386352536	0.0015947140
5923.3674426267	0.0015957819
5925.2962499997	0.0015907546
5927.2250573728	0.0015773107
5929.1538647458	0.0015136781
5931.0826721189	0.0015177606
5933.0114794919	0.0015253406
5934.9402868650	0.0015658808
5936.8690942380	0.0015520242
5938.7979016111	0.0015348641
5940.7267089841	0.0016127205
5942.6555163571	0.0015546277
5944.5843237302	0.0015419559
5946.5131311032	0.0015821331
5948.4419384763	0.0015174163
5950.3707458493	0.0014544153
5952.2995532224	0.0014820907
5954.2283605954	0.0015474297
5956.1571679685	0.0015044389
5958.0859753415	0.0014651290
5960.0147827146	0.0014895543
5961.9435900876	0.0014570988
5963.8723974607	0.0014324145
5965.8012048337	0.0014789520
5967.7300122068	0.0014770170
5969.6588195798	0.0014906726
5971.5876269528	0.0015007057
5973.5164343259	0.0014413930
5975.4452416989	0.0014341251
5977.3740490720	0.0014039355
5979.3028564450	0.0014307646
5981.2316638181	0.0014690101
5983.1604711911	0.0014114794
5985.0892785642	0.0014346314
5987.0180859372	0.0014652443
5988.9468933103	0.0014115334
5990.8757006833	0.0013930027
5992.8045080564	0.0014567657
5994.7333154294	0.0014738785
5996.6621228025	0.0014676856
5998.5909301755	0.0014154657
6000.5197375485	0.0013254759
