399.2631262207	0.0003830394
401.1919335938	0.0004714518
403.1207409668	0.0003470949
405.0495483398	0.0010071307
406.9783557129	-0.0000180932
408.9071630859	-0.0001155002
410.8359704590	0.0003247635
412.7647778320	0.0005276072
414.6935852051	0.0005523082
416.6223925781	0.0005927514
418.5511999512	0.0006244006
420.4800073242	0.0000544137
422.4088146973	0.0005334343
424.3376220703	0.0006126243
426.2664294434	0.0000861275
428.1952368164	-0.0001270207
430.1240441895	0.0001725147
432.0528515625	0.0006891518
433.9816589355	0.0005468543
435.9104663086	0.0004277843
437.8392736816	0.0002011284
439.7680810547	0.0002277625
441.6968884277	-0.0000413721
443.6256958008	-0.0000702280
445.5545031738	0.0002800959
447.4833105469	0.0002866113
449.4121179199	0.0007073080
451.3409252930	0.0005057429
453.2697326660	0.0003129456
455.1985400391	0.0002722960
457.1273474121	0.0001543664
459.0561547852	0.0003141366
460.9849621582	0.0003582147
462.9137695313	0.0003611142
464.8425769043	0.0000729450
466.7713842773	-0.0000090428
468.7001916504	-0.0002215123
470.6289990234	-0.0002437122
472.5578063965	0.0003230205
474.4866137695	0.0006086560
476.4154211426	0.0004921868
478.3442285156	0.0003477575
480.2730358887	0.0001464803
482.2018432617	-0.0000578749
484.1306506348	0.0001882792
486.0594580078	-0.0000675556
487.9882653809	0.0002258184
489.9170727539	0.0005247714
491.8458801270	0.0001704311
493.7746875000	0.0005293817
495.7034948730	-0.0001559827
497.6323022461	-0.0001734299
499.5611096191	0.0001464549
501.4899169922	-0.0000128786
503.4187243652	0.0002088973
505.3475317383	0.0000527278
507.2763391113	0.0003429962
509.2051464844	-0.0000847281
511.1339538574	0.0003406585
513.0627612305	0.0002157098
514.9915686035	0.0002370272
516.9203759766	0.0002186656
518.8491833496	-0.0003337623
520.7779907227	0.0003503655
522.7067980957	0.0000281353
524.6356054688	0.0000986697
526.5644128418	0.0001804415
528.4932202148	-0.0000501546
530.4220275879	0.0003420810
532.3508349609	0.0003735943
534.2796423340	0.0001909047
536.2084497070	-0.0002865043
538.1372570801	-0.0000992550
540.0660644531	0.0002538014
541.9948718262	0.0001475008
543.9236791992	0.0001525912
545.8524865723	-0.0002203609
547.7812939453	0.0001417542
549.7101013184	0.0000009484
551.6389086914	0.0000230584
553.5677160645	0.0000476112
555.4965234375	-0.0002745774
557.4253308105	0.0002841876
559.3541381836	0.0001467686
561.2829455566	0.0002335296
563.2117529297	0.0002485596
565.1405603027	0.0000066094
567.0693676758	0.0004257307
568.9981750488	0.0001226785
570.9269824219	0.0000912969
572.8557897949	0.0002738669
574.7845971680	0.0001104852
576.7134045410	0.0001885963
578.6422119141	-0.0000614310
580.5710192871	0.0001413322
582.4998266602	0.0002692606
584.4286340332	0.0000722008
586.3574414063	0.0004308473
588.2862487793	0.0003226911
590.2150561523	0.0001611267
592.1438635254	0.0002245071
594.0726708984	0.0001948684
596.0014782715	0.0001240873
597.9302856445	0.0001545366
599.8590930176	0.0004800860
601.7879003906	-0.0000193737
603.7167077637	0.0000419879
605.6455151367	0.0005520472
607.5743225098	0.0000207060
609.5031298828	0.0000962088
611.4319372559	0.0002034482
613.3607446289	0.0001676776
615.2895520020	0.0001780797
617.2183593750	-0.0000750502
619.1471667480	0.0003507027
621.0759741211	0.0003479793
623.0047814941	-0.0000364122
624.9335888672	-0.0001250177
626.8623962402	-0.0001074835
628.7912036133	0.0000140303
630.7200109863	0.0001049892
632.6488183594	0.0005184507
634.5776257324	0.0003377716
636.5064331055	0.0002590211
638.4352404785	0.0003740966
640.3640478516	0.0002081811
642.2928552246	0.0007174253
644.2216625977	0.0004937812
646.1504699707	0.0005480582
648.0792773438	0.0008992817
650.0080847168	0.0006939372
651.9368920898	0.0011374949
653.8656994629	0.0008766708
655.7945068359	0.0007698413
657.7233142090	0.0009933586
659.6521215820	0.0009073179
661.5809289551	0.0013130895
663.5097363281	0.0012314280
665.4385437012	0.0009903103
667.3673510742	0.0009360460
669.2961584473	0.0011138116
671.2249658203	0.0013485644
673.1537731934	0.0015455909
675.0825805664	0.0015236782
677.0113879395	0.0009849018
678.9401953125	0.0014418834
680.8690026855	0.0015934617
682.7978100586	0.0012547943
684.7266174316	0.0017996959
686.6554248047	0.0015709556
688.5842321777	0.0012662131
690.5130395508	0.0015007851
692.4418469238	0.0014108806
694.3706542969	0.0015185967
696.2994616699	0.0017999387
698.2282690430	0.0020300576
700.1570764160	0.0023281542
702.0858837891	0.0024680521
704.0146911621	0.0022897320
705.9434985352	0.0019255711
707.8723059082	0.0016401310
709.8011132813	0.0012997339
711.7299206543	0.0008358838
713.6587280273	0.0007020765
715.5875354004	0.0003256623
717.5163427734	0.0000925809
719.4451501465	0.0003018285
721.3739575195	-0.0000165856
723.3027648926	-0.0000271272
725.2315722656	0.0001222586
727.1603796387	0.0001229614
729.0891870117	0.0001733385
731.0179943848	-0.0001004564
732.9468017578	-0.0000048924
734.8756091309	0.0000180142
736.8044165039	-0.0002118040
738.7332238770	-0.0000190447
740.6620312500	0.0001889333
742.5908386230	0.0001375057
744.5196459961	0.0001839609
746.4484533691	0.0002045459
748.3772607422	0.0000990641
750.3060681152	-0.0000080591
752.2348754883	0.0001264173
754.1636828613	0.0004262546
756.0924902344	0.0001443958
758.0212976074	0.0000785908
759.9501049805	0.0003479390
761.8789123535	0.0002102491
763.8077197266	0.0001321878
765.7365270996	0.0003239882
767.6653344727	0.0005034380
769.5941418457	0.0001945668
771.5229492188	0.0002365258
773.4517565918	0.0004493853
775.3805639648	0.0001448000
777.3093713379	0.0002777880
779.2381787109	0.0003112087
781.1669860840	0.0003414481
783.0957934570	0.0004933109
785.0246008301	0.0005438786
786.9534082031	0.0006212586
788.8822155762	0.0002392024
790.8110229492	0.0004750695
792.7398303223	0.0006407106
794.6686376953	0.0001831322
796.5974450684	0.0003385138
798.5262524414	0.0003321759
800.4550598145	0.0004767568
802.3838671875	0.0007313355
804.3126745605	0.0003761862
806.2414819336	0.0002480902
808.1702893066	0.0002188220
810.0990966797	0.0004199196
812.0279040527	0.0005152462
813.9567114258	0.0002833343
815.8855187988	0.0002473976
817.8143261719	0.0001278359
819.7431335449	0.0004128863
821.6719409180	0.0003656837
823.6007482910	0.0001067034
825.5295556641	0.0003434404
827.4583630371	0.0001473875
829.3871704102	0.0002926054
831.3159777832	0.0005949609
833.2447851563	0.0005492450
835.1735925293	0.0005993504
837.1023999023	0.0006578381
839.0312072754	0.0008259269
840.9600146484	0.0006491047
842.8888220215	0.0006388065
844.8176293945	0.0008699905
846.7464367676	0.0004724247
848.6752441406	0.0004189935
850.6040515137	0.0006527344
852.5328588867	0.0002010404
854.4616662598	0.0001276615
856.3904736328	0.0004598336
858.3192810059	0.0006096251
860.2480883789	0.0006006866
862.1768957520	0.0000537174
864.1057031250	0.0001703061
866.0345104980	0.0004162518
867.9633178711	0.0002904106
869.8921252441	0.0005521644
871.8209326172	0.0005355761
873.7497399902	0.0004176614
875.6785473633	0.0002754401
877.6073547363	0.0003109113
879.5361621094	0.0001465917
881.4649694824	0.0001374448
883.3937768555	0.0004296416
885.3225842285	0.0000609648
887.2513916016	0.0001167807
889.1801989746	0.0003566704
891.1090063477	0.0003048719
893.0378137207	0.0003651056
894.9666210938	0.0003043722
896.8954284668	0.0004109973
898.8242358398	0.0006896037
900.7530432129	0.0005093754
902.6818505859	0.0003168629
904.6106579590	0.0004864144
906.5394653320	0.0003988797
908.4682727051	0.0003676298
910.3970800781	0.0002597749
912.3258874512	0.0004678654
914.2546948242	0.0006380520
916.1835021973	0.0003490332
918.1123095703	0.0005773877
920.0411169434	0.0005406460
921.9699243164	0.0007183179
923.8987316895	0.0005826780
925.8275390625	0.0003088979
927.7563464355	0.0009565309
929.6851538086	0.0007432475
931.6139611816	0.0006267577
933.5427685547	0.0009475593
935.4715759277	0.0008069065
937.4003833008	0.0008384871
939.3291906738	0.0010354618
941.2579980469	0.0010032188
943.1868054199	0.0009538761
945.1156127930	0.0010241803
947.0444201660	0.0008321679
948.9732275391	0.0010505897
950.9020349121	0.0009533654
952.8308422852	0.0008886504
954.7596496582	0.0010508031
956.6884570313	0.0005578735
958.6172644043	0.0008924458
960.5460717773	0.0010443871
962.4748791504	0.0007369709
964.4036865234	0.0008845129
966.3324938965	0.0008630156
968.2613012695	0.0008282464
970.1901086426	0.0009917236
972.1189160156	0.0011333968
974.0477233887	0.0010557387
975.9765307617	0.0011978497
977.9053381348	0.0011683179
979.8341455078	0.0013604761
981.7629528809	0.0016799743
983.6917602539	0.0017113821
985.6205676270	0.0018686589
987.5493750000	0.0017717078
989.4781823730	0.0020579332
991.4069897461	0.0021622588
993.3357971191	0.0024155437
995.2646044922	0.0027365386
997.1934118652	0.0027079973
999.1222192383	0.0032334728
1001.0510266113	0.0032624477
1002.9798339844	0.0034826836
1004.9086413574	0.0035846722
1006.8374487305	0.0037820730
1008.7662561035	0.0044764434
1010.6950634766	0.0042893887
1012.6238708496	0.0045186197
1014.5526782227	0.0048947139
1016.4814855957	0.0051203254
1018.4102929688	0.0052969609
1020.3391003418	0.0053290362
1022.2679077148	0.0057432391
1024.1967150879	0.0060218312
1026.1255224609	0.0062032016
1028.0543298340	0.0062067797
1029.9831372070	0.0064538475
1031.9119445801	0.0066895839
1033.8407519531	0.0067644697
1035.7695593262	0.0069908733
1037.6983666992	0.0070490614
1039.6271740723	0.0070518157
1041.5559814453	0.0069079231
1043.4847888184	0.0070888344
1045.4135961914	0.0069362577
1047.3424035645	0.0065073837
1049.2712109375	0.0066216798
1051.2000183105	0.0066503249
1053.1288256836	0.0065055708
1055.0576330566	0.0062018400
1056.9864404297	0.0061421013
1058.9152478027	0.0059855846
1060.8440551758	0.0056077098
1062.7728625488	0.0055337679
1064.7016699219	0.0053411843
1066.6304772949	0.0050860774
1068.5592846680	0.0049782200
1070.4880920410	0.0049454323
1072.4168994141	0.0045414050
1074.3457067871	0.0042303144
1076.2745141602	0.0042599831
1078.2033215332	0.0039564497
1080.1321289062	0.0036603760
1082.0609362793	0.0034282445
1083.9897436523	0.0034747287
1085.9185510254	0.0034645004
1087.8473583984	0.0030058553
1089.7761657715	0.0031082691
1091.7049731445	0.0032666516
1093.6337805176	0.0028206459
1095.5625878906	0.0026901900
1097.4913952637	0.0027699722
1099.4202026367	0.0024992269
1101.3490100098	0.0025565338
1103.2778173828	0.0027136414
1105.2066247559	0.0025682272
1107.1354321289	0.0025742967
1109.0642395019	0.0024051876
1110.9930468750	0.0023790952
1112.9218542480	0.0024309484
1114.8506616211	0.0024151145
1116.7794689941	0.0025011019
1118.7082763672	0.0023106586
1120.6370837402	0.0024928944
1122.5658911133	0.0025639203
1124.4946984863	0.0024778978
1126.4235058594	0.0025256167
1128.3523132324	0.0023933598
1130.2811206055	0.0026171580
1132.2099279785	0.0026128662
1134.1387353516	0.0027663107
1136.0675427246	0.0028865649
1137.9963500977	0.0028046556
1139.9251574707	0.0031592208
1141.8539648437	0.0030879502
1143.7827722168	0.0033203363
1145.7115795898	0.0036744208
1147.6403869629	0.0038121012
1149.5691943359	0.0041071475
1151.4980017090	0.0041275993
1153.4268090820	0.0043671746
1155.3556164551	0.0044410862
1157.2844238281	0.0045752083
1159.2132312012	0.0048921383
1161.1420385742	0.0049565490
1163.0708459473	0.0051342156
1164.9996533203	0.0052197780
1166.9284606934	0.0054508210
1168.8572680664	0.0056605996
1170.7860754394	0.0057201381
1172.7148828125	0.0059127924
1174.6436901855	0.0061395261
1176.5724975586	0.0066126669
1178.5013049316	0.0069394782
1180.4301123047	0.0069570420
1182.3589196777	0.0072199283
1184.2877270508	0.0074655693
1186.2165344238	0.0076702265
1188.1453417969	0.0082763834
1190.0741491699	0.0086100148
1192.0029565430	0.0087215761
1193.9317639160	0.0093218498
1195.8605712891	0.0098097241
1197.7893786621	0.0100775380
1199.7181860351	0.0105908066
1201.6469934082	0.0110141877
1203.5758007812	0.0114132538
1205.5046081543	0.0119141247
1207.4334155273	0.0122147575
1209.3622229004	0.0127068944
1211.2910302734	0.0130838137
1213.2198376465	0.0132214651
1215.1486450195	0.0135884620
1217.0774523926	0.0138461804
1219.0062597656	0.0141615784
1220.9350671387	0.0143461656
1222.8638745117	0.0144046247
1224.7926818848	0.0146066360
1226.7214892578	0.0146741914
1228.6502966308	0.0147244055
1230.5791040039	0.0147129018
1232.5079113769	0.0148304924
1234.4367187500	0.0150144901
1236.3655261230	0.0148571692
1238.2943334961	0.0146700377
1240.2231408691	0.0148377754
1242.1519482422	0.0148853157
1244.0807556152	0.0147050451
1246.0095629883	0.0145489536
1247.9383703613	0.0144031905
1249.8671777344	0.0145041915
1251.7959851074	0.0143430335
1253.7247924805	0.0142438877
1255.6535998535	0.0141954925
1257.5824072266	0.0137567632
1259.5112145996	0.0135964192
1261.4400219726	0.0134147238
1263.3688293457	0.0131976809
1265.2976367187	0.0130573036
1267.2264440918	0.0130263418
1269.1552514648	0.0127565432
1271.0840588379	0.0123641621
1273.0128662109	0.0124438405
1274.9416735840	0.0122824367
1276.8704809570	0.0120063350
1278.7992883301	0.0116351936
1280.7280957031	0.0114856139
1282.6569030762	0.0114552993
1284.5857104492	0.0111651402
1286.5145178223	0.0109143360
1288.4433251953	0.0104811378
1290.3721325683	0.0106565654
1292.3009399414	0.0105376281
1294.2297473144	0.0102716880
1296.1585546875	0.0106113171
1298.0873620605	0.0103326123
1300.0161694336	0.0103662889
1301.9449768066	0.0105158156
1303.8737841797	0.0104112010
1305.8025915527	0.0106853899
1307.7313989258	0.0108535830
1309.6602062988	0.0109466370
1311.5890136719	0.0109605668
1313.5178210449	0.0111656673
1315.4466284180	0.0115328487
1317.3754357910	0.0116449483
1319.3042431640	0.0119630620
1321.2330505371	0.0124955699
1323.1618579101	0.0127982888
1325.0906652832	0.0130644441
1327.0194726562	0.0134817222
1328.9482800293	0.0138565637
1330.8770874023	0.0140699465
1332.8058947754	0.0143932905
1334.7347021484	0.0146486238
1336.6635095215	0.0147088943
1338.5923168945	0.0147876693
1340.5211242676	0.0148438578
1342.4499316406	0.0153028741
1344.3787390137	0.0154762138
1346.3075463867	0.0153599698
1348.2363537597	0.0154030118
1350.1651611328	0.0152380215
1352.0939685058	0.0153047973
1354.0227758789	0.0150640765
1355.9515832519	0.0148799270
1357.8803906250	0.0148537531
1359.8091979980	0.0146874581
1361.7380053711	0.0143334484
1363.6668127441	0.0140919052
1365.5956201172	0.0145876464
1367.5244274902	0.0140904626
1369.4532348633	0.0140971467
1371.3820422363	0.0143207330
1373.3108496094	0.0135209393
1375.2396569824	0.0138188619
1377.1684643555	0.0139102768
1379.0972717285	0.0139119457
1381.0260791015	0.0138374120
1382.9548864746	0.0138056399
1384.8836938476	0.0139750130
1386.8125012207	0.0134554794
1388.7413085937	0.0138544533
1390.6701159668	0.0143923126
1392.5989233398	0.0141364411
1394.5277307129	0.0135490913
1396.4565380859	0.0139304157
1398.3853454590	0.0141059943
1400.3141528320	0.0138727501
1402.2429602051	0.0149157764
1404.1717675781	0.0143050607
1406.1005749512	0.0140093267
1408.0293823242	0.0145468190
1409.9581896972	0.0142511148
1411.8869970703	0.0143581703
1413.8158044433	0.0139859878
1415.7446118164	0.0142056420
1417.6734191894	0.0130034089
1419.6022265625	0.0120224925
1421.5310339355	0.0134365493
1423.4598413086	0.0131054092
1425.3886486816	0.0126087973
1427.3174560547	0.0125305541
1429.2462634277	0.0117846746
1431.1750708008	0.0116445329
1433.1038781738	0.0117756743
1435.0326855469	0.0106513277
1436.9614929199	0.0093978643
1438.8903002929	0.0103580467
1440.8191076660	0.0104345400
1442.7479150390	0.0098814331
1444.6767224121	0.0101304036
1446.6055297851	0.0094271488
1448.5343371582	0.0095760431
1450.4631445312	0.0099383863
1452.3919519043	0.0102070235
1454.3207592773	0.0103990976
1456.2495666504	0.0090110097
1458.1783740234	0.0094807316
1460.1071813965	0.0117370114
1462.0359887695	0.0124641564
1463.9647961426	0.0125091514
1465.8936035156	0.0130145755
1467.8224108886	0.0146754216
1469.7512182617	0.0153070334
1471.6800256347	0.0141004864
1473.6088330078	0.0150360987
1475.5376403808	0.0167076252
1477.4664477539	0.0178847220
1479.3952551269	0.0193113144
1481.3240625000	0.0196724273
1483.2528698730	0.0208395720
1485.1816772461	0.0213520676
1487.1104846191	0.0211163945
1489.0392919922	0.0213140231
1490.9680993652	0.0214005373
1492.8969067383	0.0241653137
1494.8257141113	0.0239503942
1496.7545214843	0.0219868496
1498.6833288574	0.0244490318
1500.6121362304	0.0250714161
1502.5409436035	0.0264883190
1504.4697509765	0.0252262875
1506.3985583496	0.0197173841
1508.3273657226	0.0233664550
1510.2561730957	0.0263114199
1512.1849804687	0.0255772918
1514.1137878418	0.0272911098
1516.0425952148	0.0251158737
1517.9714025879	0.0260930359
1519.9002099609	0.0253676064
1521.8290173340	0.0228582639
1523.7578247070	0.0266806334
1525.6866320801	0.0263019856
1527.6154394531	0.0260188803
1529.5442468261	0.0280598700
1531.4730541992	0.0272537358
1533.4018615722	0.0253829733
1535.3306689453	0.0266919527
1537.2594763183	0.0278621204
1539.1882836914	0.0212959982
1541.1170910644	0.0221977104
1543.0458984375	0.0255455263
1544.9747058105	0.0248168372
1546.9035131836	0.0283727590
1548.8323205566	0.0268818364
1550.7611279297	0.0275428742
1552.6899353027	0.0271563716
1554.6187426758	0.0252314173
1556.5475500488	0.0266544186
1558.4763574218	0.0200415812
1560.4051647949	0.0214486644
1562.3339721679	0.0284869820
1564.2627795410	0.0271394439
1566.1915869140	0.0277710631
1568.1203942871	0.0273975916
1570.0492016601	0.0248671472
1571.9780090332	0.0278232060
1573.9068164062	0.0279875882
1575.8356237793	0.0231516771
1577.7644311523	0.0255756229
1579.6932385254	0.0284236465
1581.6220458984	0.0272930078
1583.5508532715	0.0278067514
1585.4796606445	0.0274435207
1587.4084680175	0.0274829883
1589.3372753906	0.0272221286
1591.2660827636	0.0271821171
1593.1948901367	0.0272292141
1595.1236975097	0.0270711668
1597.0525048828	0.0273664910
1598.9813122558	0.0271285325
1600.9101196289	0.0272639915
1602.8389270019	0.0268221460
1604.7677343750	0.0272187218
1606.6965417480	0.0267793816
1608.6253491211	0.0268018618
1610.5541564941	0.0267382823
1612.4829638672	0.0267872512
1614.4117712402	0.0272144936
1616.3405786132	0.0228363611
1618.2693859863	0.0246130191
1620.1981933593	0.0281376131
1622.1270007324	0.0255202204
1624.0558081054	0.0257941559
1625.9846154785	0.0269056559
1627.9134228515	0.0269272719
1629.8422302246	0.0267391577
1631.7710375976	0.0284698494
1633.6998449707	0.0267211236
1635.6286523437	0.0230178013
1637.5574597168	0.0264341645
1639.4862670898	0.0288343672
1641.4150744629	0.0283454303
1643.3438818359	0.0290564112
1645.2726892090	0.0269586742
1647.2014965820	0.0243824199
1649.1303039550	0.0294200443
1651.0591113281	0.0279261675
1652.9879187011	0.0196808595
1654.9167260742	0.0256989002
1656.8455334472	0.0308538377
1658.7743408203	0.0300081149
1660.7031481933	0.0308274478
1662.6319555664	0.0286573824
1664.5607629394	0.0301264022
1666.4895703125	0.0318339989
1668.4183776855	0.0286561213
1670.3471850586	0.0279778522
1672.2759924316	0.0312341265
1674.2047998047	0.0292443279
1676.1336071777	0.0281776823
1678.0624145507	0.0317781791
1679.9912219238	0.0308611393
1681.9200292968	0.0307450369
1683.8488366699	0.0257734209
1685.7776440429	0.0256910250
1687.7064514160	0.0333875008
1689.6352587890	0.0295759402
1691.5640661621	0.0320037678
1693.4928735351	0.0322433934
1695.4216809082	0.0250427611
1697.3504882812	0.0297471657
1699.2792956543	0.0266472362
1701.2081030273	0.0246736035
1703.1369104004	0.0315165482
1705.0657177734	0.0292403512
1706.9945251464	0.0296048857
1708.9233325195	0.0314863957
1710.8521398925	0.0302348360
1712.7809472656	0.0306477919
1714.7097546386	0.0289289411
1716.6385620117	0.0265314467
1718.5673693847	0.0259047262
1720.4961767578	0.0298374332
1722.4249841308	0.0307132211
1724.3537915039	0.0287014358
1726.2825988769	0.0306167062
1728.2114062500	0.0285168998
1730.1402136230	0.0288764685
1732.0690209961	0.0279030949
1733.9978283691	0.0223807991
1735.9266357421	0.0267954171
1737.8554431152	0.0288392808
1739.7842504882	0.0264352616
1741.7130578613	0.0282530282
1743.6418652343	0.0284337550
1745.5706726074	0.0285539627
1747.4994799804	0.0286267158
1749.4282873535	0.0276377425
1751.3570947265	0.0267096460
1753.2859020996	0.0290626884
1755.2147094726	0.0300250817
1757.1435168457	0.0277961418
1759.0723242187	0.0302397162
1761.0011315918	0.0286602918
1762.9299389648	0.0277859531
1764.8587463379	0.0310482681
1766.7875537109	0.0283842497
1768.7163610839	0.0285742320
1770.6451684570	0.0283650067
1772.5739758300	0.0259425901
1774.5027832031	0.0284195878
1776.4315905761	0.0297198389
1778.3603979492	0.0292366743
1780.2892053222	0.0288950279
1782.2180126953	0.0289721005
1784.1468200683	0.0288177039
1786.0756274414	0.0284215007
1788.0044348144	0.0296782441
1789.9332421875	0.0291255154
1791.8620495605	0.0267914385
1793.7908569336	0.0276347473
1795.7196643066	0.0293664671
1797.6484716796	0.0290087089
1799.5772790527	0.0286002643
1801.5060864257	0.0280391481
1803.4348937988	0.0286274422
1805.3637011718	0.0291334577
1807.2925085449	0.0288924314
1809.2213159179	0.0290488377
1811.1501232910	0.0281533562
1813.0789306640	0.0289444812
1815.0077380371	0.0291173644
1816.9365454101	0.0286550298
1818.8653527832	0.0290127806
1820.7941601562	0.0288599413
1822.7229675293	0.0291007981
1824.6517749023	0.0275452323
1826.5805822753	0.0282005202
1828.5093896484	0.0281963702
1830.4381970214	0.0268356614
1832.3670043945	0.0287142359
1834.2958117675	0.0285850354
1836.2246191406	0.0285606980
1838.1534265136	0.0282441303
1840.0822338867	0.0284812339
1842.0110412597	0.0286248978
1843.9398486328	0.0258627310
1845.8686560058	0.0272063054
1847.7974633789	0.0283932611
1849.7262707519	0.0279056281
1851.6550781250	0.0284853932
1853.5838854980	0.0279976688
1855.5126928710	0.0282584075
1857.4415002441	0.0280661844
1859.3703076171	0.0279981904
1861.2991149902	0.0280932821
1863.2279223632	0.0278291553
1865.1567297363	0.0279345401
1867.0855371093	0.0269473605
1869.0143444824	0.0263387337
1870.9431518554	0.0271874499
1872.8719592285	0.0277623311
1874.8007666015	0.0274594873
1876.7295739746	0.0275611933
1878.6583813476	0.0274915099
1880.5871887207	0.0273550097
1882.5159960937	0.0275096931
1884.4448034667	0.0271107405
1886.3736108398	0.0273432359
1888.3024182128	0.0268143378
1890.2312255859	0.0263636876
1892.1600329589	0.0272557251
1894.0888403320	0.0267599802
1896.0176477050	0.0265118964
1897.9464550781	0.0269609466
1899.8752624511	0.0268674120
1901.8040698242	0.0268557630
1903.7328771972	0.0267011747
1905.6616845703	0.0267467201
1907.5904919433	0.0263704807
1909.5192993164	0.0263723098
1911.4481066894	0.0266200900
1913.3769140625	0.0264593251
1915.3057214355	0.0266372487
1917.2345288085	0.0256136451
1919.1633361816	0.0258037746
1921.0921435546	0.0264904201
1923.0209509277	0.0255841836
1924.9497583007	0.0262632482
1926.8785656738	0.0263768174
1928.8073730468	0.0259710178
1930.7361804199	0.0261970311
1932.6649877929	0.0259606354
1934.5937951660	0.0262820926
1936.5226025390	0.0259729158
1938.4514099121	0.0259290449
1940.3802172851	0.0259745810
1942.3090246582	0.0253658891
1944.2378320312	0.0257335119
1946.1666394042	0.0259099267
1948.0954467773	0.0257847086
1950.0242541503	0.0260287207
1951.9530615234	0.0260402560
1953.8818688964	0.0258373506
1955.8106762695	0.0257304087
1957.7394836425	0.0257715397
1959.6682910156	0.0257109180
1961.5970983886	0.0255072080
1963.5259057617	0.0255865138
1965.4547131347	0.0256044324
1967.3835205078	0.0252452511
1969.3123278808	0.0254714750
1971.2411352539	0.0255949032
1973.1699426269	0.0253826790
1975.0987499999	0.0255145282
1977.0275573730	0.0253581069
1978.9563647460	0.0252808668
1980.8851721191	0.0253170636
1982.8139794921	0.0252426844
1984.7427868652	0.0252447426
1986.6715942382	0.0252269376
1988.6004016113	0.0252034497
1990.5292089843	0.0249462500
1992.4580163574	0.0247778669
1994.3868237304	0.0249158777
1996.3156311035	0.0248978920
1998.2444384765	0.0247661956
2000.1732458496	0.0248107109
2002.1020532226	0.0247329529
2004.0308605956	0.0246296171
2005.9596679687	0.0246950891
2007.8884753417	0.0246074554
2009.8172827148	0.0245193690
2011.7460900878	0.0244730562
2013.6748974609	0.0244283639
2015.6037048339	0.0243745185
2017.5325122070	0.0242188480
2019.4613195800	0.0241484530
2021.3901269531	0.0241968706
2023.3189343261	0.0241565071
2025.2477416992	0.0239575692
2027.1765490722	0.0238578673
2029.1053564453	0.0238831025
2031.0341638183	0.0239100456
2032.9629711914	0.0238892175
2034.8917785644	0.0238452405
2036.8205859374	0.0238846838
2038.7493933105	0.0238100477
2040.6782006835	0.0235865936
2042.6070080566	0.0235001761
2044.5358154296	0.0235052481
2046.4646228027	0.0234152041
2048.3934301757	0.0233665854
2050.3222375488	0.0232848059
2052.2510449218	0.0231816210
2054.1798522949	0.0232537948
2056.1086596679	0.0232037995
2058.0374670410	0.0230017882
2059.9662744140	0.0230831839
2061.8950817871	0.0232567936
2063.8238891601	0.0229823906
2065.7526965331	0.0227547195
2067.6815039062	0.0228566509
2069.6103112792	0.0228578076
2071.5391186523	0.0228448361
2073.4679260253	0.0227655172
2075.3967333984	0.0226766989
2077.3255407714	0.0226657242
2079.2543481445	0.0225814115
2081.1831555175	0.0224893019
2083.1119628906	0.0224630665
2085.0407702636	0.0224883631
2086.9695776367	0.0223759413
2088.8983850097	0.0222935770
2090.8271923828	0.0223669745
2092.7559997558	0.0223265067
2094.6848071288	0.0222518891
2096.6136145019	0.0222244710
2098.5424218749	0.0221225470
2100.4712292480	0.0220586918
2102.4000366210	0.0220854208
2104.3288439941	0.0220474713
2106.2576513671	0.0220173560
2108.1864587402	0.0219910294
2110.1152661132	0.0219011866
2112.0440734863	0.0218729842
2113.9728808593	0.0218371227
2115.9016882324	0.0217261873
2117.8304956054	0.0217148792
2119.7593029785	0.0218315441
2121.6881103515	0.0217760839
2123.6169177245	0.0216024853
2125.5457250976	0.0216421299
2127.4745324706	0.0216589049
2129.4033398437	0.0216086321
2131.3321472167	0.0216188505
2133.2609545898	0.0215309113
2135.1897619628	0.0215255767
2137.1185693359	0.0214453153
2139.0473767089	0.0213978719
2140.9761840820	0.0214345623
2142.9049914550	0.0212449040
2144.8337988281	0.0213780776
2146.7626062011	0.0213391725
2148.6914135742	0.0211484693
2150.6202209472	0.0212780051
2152.5490283203	0.0211071279
2154.4778356933	0.0211674608
2156.4066430663	0.0211781450
2158.3354504394	0.0210036077
2160.2642578124	0.0210628565
2162.1930651855	0.0209478773
2164.1218725585	0.0210005492
2166.0506799316	0.0209495090
2167.9794873046	0.0208319072
2169.9082946777	0.0209364407
2171.8371020507	0.0208445732
2173.7659094238	0.0207538437
2175.6947167968	0.0207606480
2177.6235241699	0.0207526945
2179.5523315429	0.0207965765
2181.4811389160	0.0208331607
2183.4099462890	0.0206722394
2185.3387536620	0.0206230301
2187.2675610351	0.0207231268
2189.1963684081	0.0206656568
2191.1251757812	0.0205600373
2193.0539831542	0.0203823932
2194.9827905273	0.0203653015
2196.9115979003	0.0204325449
2198.8404052734	0.0204217415
2200.7692126464	0.0204834994
2202.6980200195	0.0204145759
2204.6268273925	0.0203366578
2206.5556347656	0.0203589983
2208.4844421386	0.0203921627
2210.4132495117	0.0203971379
2212.3420568847	0.0201724693
2214.2708642577	0.0201169718
2216.1996716308	0.0202987157
2218.1284790038	0.0201297812
2220.0572863769	0.0200609714
2221.9860937499	0.0201302879
2223.9149011230	0.0200778935
2225.8437084960	0.0200328007
2227.7725158691	0.0198771022
2229.7013232421	0.0200746730
2231.6301306152	0.0200451519
2233.5589379882	0.0198011622
2235.4877453613	0.0199815556
2237.4165527343	0.0198430624
2239.3453601074	0.0197769478
2241.2741674804	0.0198430493
2243.2029748534	0.0197296888
2245.1317822265	0.0196962617
2247.0605895995	0.0195889883
2248.9893969726	0.0196035616
2250.9182043456	0.0195696335
2252.8470117187	0.0194682889
2254.7758190917	0.0194730051
2256.7046264648	0.0194393173
2258.6334338378	0.0194775052
2260.5622412109	0.0194700304
2262.4910485839	0.0194270201
2264.4198559570	0.0194392540
2266.3486633300	0.0192815028
2268.2774707031	0.0191846080
2270.2062780761	0.0192580447
2272.1350854491	0.0192680191
2274.0638928222	0.0192588158
2275.9927001952	0.0191434249
2277.9215075683	0.0191458575
2279.8503149413	0.0192191154
2281.7791223144	0.0191826299
2283.7079296874	0.0191512667
2285.6367370605	0.0189545751
2287.5655444335	0.0189500041
2289.4943518066	0.0190125182
2291.4231591796	0.0189024881
2293.3519665527	0.0188398696
2295.2807739257	0.0187688768
2297.2095812988	0.0187130049
2299.1383886718	0.0185996946
2301.0671960449	0.0185629465
2302.9960034179	0.0184482057
2304.9248107909	0.0183815956
2306.8536181640	0.0183690935
2308.7824255370	0.0181108043
2310.7112329101	0.0180452317
2312.6400402831	0.0179098099
2314.5688476562	0.0176685601
2316.4976550292	0.0175887719
2318.4264624023	0.0174769759
2320.3552697753	0.0172492191
2322.2840771484	0.0169438552
2324.2128845214	0.0168474913
2326.1416918945	0.0167124718
2328.0704992675	0.0164698735
2329.9993066406	0.0162214283
2331.9281140136	0.0161093287
2333.8569213866	0.0162399784
2335.7857287597	0.0160727277
2337.7145361327	0.0160061903
2339.6433435058	0.0161070153
2341.5721508788	0.0161155034
2343.5009582519	0.0164994188
2345.4297656249	0.0166921411
2347.3585729980	0.0169689879
2349.2873803710	0.0173778422
2351.2161877441	0.0168453120
2353.1449951171	0.0162431151
2355.0738024902	0.0158524252
2357.0026098632	0.0153605305
2358.9314172363	0.0150943883
2360.8602246093	0.0149102136
2362.7890319823	0.0149522610
2364.7178393554	0.0149337612
2366.6466467284	0.0150495963
2368.5754541015	0.0153513933
2370.5042614745	0.0155886225
2372.4330688476	0.0160100088
2374.3618762206	0.0162474699
2376.2906835937	0.0165894609
2378.2194909667	0.0169709437
2380.1482983398	0.0171719380
2382.0771057128	0.0173954796
2384.0059130859	0.0174129829
2385.9347204589	0.0173335671
2387.8635278320	0.0172831714
2389.7923352050	0.0174062494
2391.7211425780	0.0173976738
2393.6499499511	0.0172927044
2395.5787573241	0.0173126683
2397.5075646972	0.0173303932
2399.4363720702	0.0173320379
2401.3651794433	0.0171552896
2403.2939868163	0.0171785448
2405.2227941894	0.0172211807
2407.1516015624	0.0170786735
2409.0804089355	0.0170130674
2411.0092163085	0.0170760155
2412.9380236816	0.0171351135
2414.8668310546	0.0169650577
2416.7956384277	0.0169626828
2418.7244458007	0.0170544386
2420.6532531738	0.0170537345
2422.5820605468	0.0169236623
2424.5108679198	0.0168335773
2426.4396752929	0.0168323759
2428.3684826659	0.0166968517
2430.2972900390	0.0167513043
2432.2260974120	0.0167447031
2434.1549047851	0.0167293213
2436.0837121581	0.0166328233
2438.0125195312	0.0165919214
2439.9413269042	0.0167814959
2441.8701342773	0.0166783147
2443.7989416503	0.0166710764
2445.7277490234	0.0165840294
2447.6565563964	0.0165738277
2449.5853637695	0.0166115258
2451.5141711425	0.0163749270
2453.4429785155	0.0164051875
2455.3717858886	0.0164784435
2457.3005932616	0.0164707899
2459.2294006347	0.0163520966
2461.1582080077	0.0163933225
2463.0870153808	0.0163621493
2465.0158227538	0.0162264649
2466.9446301269	0.0163648836
2468.8734374999	0.0162350796
2470.8022448730	0.0162166115
2472.7310522460	0.0161737576
2474.6598596191	0.0160758235
2476.5886669921	0.0161911845
2478.5174743652	0.0161192250
2480.4462817382	0.0161388442
2482.3750891112	0.0161620323
2484.3038964843	0.0160402544
2486.2327038573	0.0160193592
2488.1615112304	0.0162092187
2490.0903186034	0.0160562471
2492.0191259765	0.0158215780
2493.9479333495	0.0159345753
2495.8767407226	0.0158168264
2497.8055480956	0.0159037635
2499.7343554687	0.0159344170
2501.6631628417	0.0156668052
2503.5919702148	0.0156970154
2505.5207775878	0.0157974660
2507.4495849609	0.0157646891
2509.3783923339	0.0156745613
2511.3071997069	0.0156379975
2513.2360070800	0.0155826025
2515.1648144530	0.0155816898
2517.0936218261	0.0155419195
2519.0224291991	0.0154978959
2520.9512365722	0.0155420685
2522.8800439452	0.0155207943
2524.8088513183	0.0155045055
2526.7376586913	0.0154059436
2528.6664660644	0.0154009946
2530.5952734374	0.0153334131
2532.5240808105	0.0152764618
2534.4528881835	0.0153208449
2536.3816955566	0.0152395237
2538.3105029296	0.0153041277
2540.2393103027	0.0152494553
2542.1681176757	0.0151879685
2544.0969250487	0.0151711795
2546.0257324218	0.0151186138
2547.9545397948	0.0151697397
2549.8833471679	0.0150710279
2551.8121545409	0.0151357027
2553.7409619140	0.0152317174
2555.6697692870	0.0150103513
2557.5985766601	0.0149351135
2559.5273840331	0.0151168210
2561.4561914062	0.0150242262
2563.3849987792	0.0148947183
2565.3138061523	0.0148664135
2567.2426135253	0.0147582050
2569.1714208984	0.0149044804
2571.1002282714	0.0148871858
2573.0290356444	0.0148727484
2574.9578430175	0.0148641486
2576.8866503905	0.0147035010
2578.8154577636	0.0148261059
2580.7442651366	0.0147541976
2582.6730725097	0.0146898665
2584.6018798827	0.0146823823
2586.5306872558	0.0145875765
2588.4594946288	0.0145929400
2590.3883020019	0.0145897102
2592.3171093749	0.0146076567
2594.2459167480	0.0144836847
2596.1747241210	0.0144546442
2598.1035314941	0.0144341383
2600.0323388671	0.0143702906
2601.9611462401	0.0143972179
2603.8899536132	0.0143969767
2605.8187609862	0.0143207815
2607.7475683593	0.0142556131
2609.6763757323	0.0143797388
2611.6051831054	0.0142455194
2613.5339904784	0.0141487829
2615.4627978515	0.0141508300
2617.3916052245	0.0141178323
2619.3204125976	0.0142353568
2621.2492199706	0.0141076613
2623.1780273437	0.0140832774
2625.1068347167	0.0141143650
2627.0356420898	0.0141797122
2628.9644494628	0.0140955634
2630.8932568358	0.0139247356
2632.8220642089	0.0141183808
2634.7508715819	0.0140367988
2636.6796789550	0.0140077388
2638.6084863280	0.0139691271
2640.5372937011	0.0138618909
2642.4661010741	0.0138757247
2644.3949084472	0.0137081454
2646.3237158202	0.0138365254
2648.2525231933	0.0138259847
2650.1813305663	0.0137105286
2652.1101379394	0.0138098113
2654.0389453124	0.0137557313
2655.9677526855	0.0136587573
2657.8965600585	0.0136065893
2659.8253674315	0.0136344209
2661.7541748046	0.0136114769
2663.6829821776	0.0136365220
2665.6117895507	0.0135977324
2667.5405969237	0.0135415597
2669.4694042968	0.0136478040
2671.3982116698	0.0135819577
2673.3270190429	0.0134909954
2675.2558264159	0.0133850425
2677.1846337890	0.0133342231
2679.1134411620	0.0134389270
2681.0422485351	0.0133867860
2682.9710559081	0.0133190341
2684.8998632812	0.0132929059
2686.8286706542	0.0132219214
2688.7574780273	0.0132759213
2690.6862854003	0.0133297211
2692.6150927733	0.0132055059
2694.5439001464	0.0131182503
2696.4727075194	0.0131080113
2698.4015148925	0.0129932370
2700.3303222655	0.0130005488
2702.2591296386	0.0131046204
2704.1879370116	0.0130250659
2706.1167443847	0.0130066136
2708.0455517577	0.0129472967
2709.9743591308	0.0129309623
2711.9031665038	0.0130030271
2713.8319738769	0.0128434012
2715.7607812499	0.0129104909
2717.6895886230	0.0129184406
2719.6183959960	0.0128095169
2721.5472033690	0.0128471022
2723.4760107421	0.0127131771
2725.4048181151	0.0127746761
2727.3336254882	0.0128084440
2729.2624328612	0.0126891071
2731.1912402343	0.0125919655
2733.1200476073	0.0125425886
2735.0488549804	0.0126122329
2736.9776623534	0.0126057733
2738.9064697265	0.0126323756
2740.8352770995	0.0125545450
2742.7640844726	0.0125095621
2744.6928918456	0.0124617331
2746.6216992187	0.0124145225
2748.5505065917	0.0125204325
2750.4793139647	0.0124480184
2752.4081213378	0.0124347806
2754.3369287108	0.0124281794
2756.2657360839	0.0123705752
2758.1945434569	0.0123338029
2760.1233508300	0.0123528838
2762.0521582030	0.0123556349
2763.9809655761	0.0122171529
2765.9097729491	0.0122111384
2767.8385803222	0.0121298842
2769.7673876952	0.0121508874
2771.6961950683	0.0121566001
2773.6250024413	0.0120367641
2775.5538098144	0.0121003529
2777.4826171874	0.0120927170
2779.4114245604	0.0120493071
2781.3402319335	0.0119137494
2783.2690393065	0.0119024366
2785.1978466796	0.0119017418
2787.1266540526	0.0118451007
2789.0554614257	0.0119259879
2790.9842687987	0.0118036345
2792.9130761718	0.0117902625
2794.8418835448	0.0117858863
2796.7706909179	0.0117653199
2798.6994982909	0.0118494164
2800.6283056640	0.0116919875
2802.5571130370	0.0116158053
2804.4859204101	0.0116877276
2806.4147277831	0.0116137657
2808.3435351562	0.0114914794
2810.2723425292	0.0114827547
2812.2011499022	0.0114347748
2814.1299572753	0.0113953631
2816.0587646483	0.0114459284
2817.9875720214	0.0114538036
2819.9163793944	0.0114195496
2821.8451867675	0.0113514420
2823.7739941405	0.0113505479
2825.7028015136	0.0113392249
2827.6316088866	0.0113476031
2829.5604162597	0.0112867681
2831.4892236327	0.0111709060
2833.4180310058	0.0112595726
2835.3468383788	0.0111636044
2837.2756457519	0.0110329930
2839.2044531249	0.0111303385
2841.1332604979	0.0110764336
2843.0620678710	0.0110351304
2844.9908752440	0.0110014239
2846.9196826171	0.0108106779
2848.8484899901	0.0107769668
2850.7772973632	0.0107696168
2852.7061047362	0.0106854346
2854.6349121093	0.0106806792
2856.5637194823	0.0106989816
2858.4925268554	0.0107416287
2860.4213342284	0.0107048489
2862.3501416015	0.0106691457
2864.2789489745	0.0106411949
2866.2077563476	0.0106242839
2868.1365637206	0.0106522888
2870.0653710936	0.0106038256
2871.9941784667	0.0105341105
2873.9229858397	0.0103923799
2875.8517932128	0.0103784148
2877.7806005858	0.0103471149
2879.7094079589	0.0103631653
2881.6382153319	0.0104950946
2883.5670227050	0.0103360862
2885.4958300780	0.0103725381
2887.4246374511	0.0104108807
2889.3534448241	0.0102953352
2891.2822521972	0.0103054261
2893.2110595702	0.0102780703
2895.1398669433	0.0102837952
2897.0686743163	0.0101689734
2898.9974816893	0.0101502277
2900.9262890624	0.0100879334
2902.8550964354	0.0099298190
2904.7839038085	0.0099190250
2906.7127111815	0.0099107623
2908.6415185546	0.0100048129
2910.5703259276	0.0098413303
2912.4991333007	0.0096945856
2914.4279406737	0.0097576734
2916.3567480468	0.0096427295
2918.2855554198	0.0096398648
2920.2143627929	0.0096217655
2922.1431701659	0.0095627327
2924.0719775390	0.0095832963
2926.0007849120	0.0095154932
2927.9295922851	0.0095200837
2929.8583996581	0.0096647190
2931.7872070311	0.0096769258
2933.7160144042	0.0095149316
2935.6448217772	0.0095784403
2937.5736291503	0.0096184984
2939.5024365233	0.0094053708
2941.4312438964	0.0094564147
2943.3600512694	0.0095215281
2945.2888586425	0.0095034018
2947.2176660155	0.0095699262
2949.1464733886	0.0093940031
2951.0752807616	0.0093669882
2953.0040881347	0.0094450070
2954.9328955077	0.0093255434
2956.8617028808	0.0093019586
2958.7905102538	0.0093053356
2960.7193176268	0.0093148276
2962.6481249999	0.0092955548
2964.5769323729	0.0092233680
2966.5057397460	0.0091944011
2968.4345471190	0.0092331003
2970.3633544921	0.0092042442
2972.2921618651	0.0091598332
2974.2209692382	0.0091959815
2976.1497766112	0.0091535049
2978.0785839843	0.0092443740
2980.0073913573	0.0091342032
2981.9361987304	0.0089544728
2983.8650061034	0.0090852976
2985.7938134765	0.0090697315
2987.7226208495	0.0091022402
2989.6514282225	0.0091327708
2991.5802355956	0.0090877898
2993.5090429686	0.0090107815
2995.4378503417	0.0090031233
2997.3666577147	0.0090929642
2999.2954650878	0.0089137722
3001.2242724608	0.0089367293
3003.1530798339	0.0089709107
3005.0818872069	0.0088633280
3007.0106945800	0.0089008138
3008.9395019530	0.0087878015
3010.8683093261	0.0087246317
3012.7971166991	0.0087117888
3014.7259240722	0.0086950678
3016.6547314452	0.0086576175
3018.5835388182	0.0086029228
3020.5123461913	0.0086241532
3022.4411535643	0.0085905502
3024.3699609374	0.0085905734
3026.2987683104	0.0085823629
3028.2275756835	0.0085478742
3030.1563830565	0.0084898174
3032.0851904296	0.0084604938
3034.0139978026	0.0084536038
3035.9428051757	0.0084397029
3037.8716125487	0.0084628239
3039.8004199218	0.0082591102
3041.7292272948	0.0081619881
3043.6580346679	0.0082977870
3045.5868420409	0.0083049536
3047.5156494139	0.0082905721
3049.4444567870	0.0082028080
3051.3732641600	0.0081774052
3053.3020715331	0.0081882626
3055.2308789061	0.0080932733
3057.1596862792	0.0082063973
3059.0884936522	0.0082613956
3061.0173010253	0.0081007257
3062.9461083983	0.0080427378
3064.8749157714	0.0080847759
3066.8037231444	0.0080850031
3068.7325305175	0.0079700593
3070.6613378905	0.0079717245
3072.5901452636	0.0080463644
3074.5189526366	0.0080072265
3076.4477600097	0.0079477336
3078.3765673827	0.0078734551
3080.3053747557	0.0078868223
3082.2341821288	0.0078581655
3084.1629895018	0.0078239925
3086.0917968749	0.0078845536
3088.0206042479	0.0078420630
3089.9494116210	0.0078085414
3091.8782189940	0.0077495147
3093.8070263671	0.0077760848
3095.7358337401	0.0078363130
3097.6646411132	0.0076340167
3099.5934484862	0.0075823423
3101.5222558593	0.0076517696
3103.4510632323	0.0076042861
3105.3798706054	0.0076416936
3107.3086779784	0.0076129842
3109.2374853514	0.0075846473
3111.1662927245	0.0075692381
3113.0951000975	0.0074735587
3115.0239074706	0.0074844547
3116.9527148436	0.0074319020
3118.8815222167	0.0074409442
3120.8103295897	0.0074514472
3122.7391369628	0.0073045553
3124.6679443358	0.0073072920
3126.5967517089	0.0072862040
3128.5255590819	0.0073252502
3130.4543664550	0.0073249345
3132.3831738280	0.0072221290
3134.3119812011	0.0072521716
3136.2407885741	0.0071525052
3138.1695959471	0.0071762442
3140.0984033202	0.0072625885
3142.0272106932	0.0072397171
3143.9560180663	0.0071545993
3145.8848254393	0.0070785535
3147.8136328124	0.0072736777
3149.7424401854	0.0072170659
3151.6712475585	0.0070992047
3153.6000549315	0.0071220705
3155.5288623046	0.0070308847
3157.4576696776	0.0070777321
3159.3864770507	0.0070313234
3161.3152844237	0.0070882128
3163.2440917968	0.0070661483
3165.1728991698	0.0068299565
3167.1017065428	0.0068924129
3169.0305139159	0.0068909600
3170.9593212889	0.0069032665
3172.8881286620	0.0069157984
3174.8169360350	0.0068237414
3176.7457434081	0.0068659997
3178.6745507811	0.0067941467
3180.6033581542	0.0068199723
3182.5321655272	0.0068832850
3184.4609729003	0.0068239802
3186.3897802733	0.0067991577
3188.3185876464	0.0067474055
3190.2473950194	0.0067236945
3192.1762023925	0.0067683626
3194.1050097655	0.0068106074
3196.0338171386	0.0065861866
3197.9626245116	0.0065872823
3199.8914318846	0.0067792870
3201.8202392577	0.0066488320
3203.7490466307	0.0067242905
3205.6778540038	0.0067269048
3207.6066613768	0.0066629723
3209.5354687499	0.0067275651
3211.4642761229	0.0067225024
3213.3930834960	0.0068190703
3215.3218908690	0.0067168656
3217.2506982421	0.0066691213
3219.1795056151	0.0067234579
3221.1083129882	0.0066990233
3223.0371203612	0.0067344997
3224.9659277343	0.0067163385
3226.8947351073	0.0067264289
3228.8235424803	0.0066969944
3230.7523498534	0.0067024389
3232.6811572264	0.0067048753
3234.6099645995	0.0067250933
3236.5387719725	0.0067964997
3238.4675793456	0.0067211408
3240.3963867186	0.0066439128
3242.3251940917	0.0066896677
3244.2540014647	0.0067886026
3246.1828088378	0.0066933045
3248.1116162108	0.0066759139
3250.0404235839	0.0068204030
3251.9692309569	0.0068519805
3253.8980383300	0.0067844093
3255.8268457030	0.0067022759
3257.7556530760	0.0068156002
3259.6844604491	0.0067553623
3261.6132678221	0.0067107091
3263.5420751952	0.0068606534
3265.4708825682	0.0068145348
3267.3996899413	0.0067700823
3269.3284973143	0.0067510409
3271.2573046874	0.0068352614
3273.1861120604	0.0068309456
3275.1149194335	0.0067728749
3277.0437268065	0.0068388218
3278.9725341796	0.0067573036
3280.9013415526	0.0067895474
3282.8301489257	0.0068463348
3284.7589562987	0.0068216175
3286.6877636717	0.0068986476
3288.6165710448	0.0069068512
3290.5453784178	0.0068302322
3292.4741857909	0.0068130037
3294.4029931639	0.0068516294
3296.3318005370	0.0068400116
3298.2606079100	0.0068883235
3300.1894152831	0.0069234637
3302.1182226561	0.0068849726
3304.0470300292	0.0069411844
3305.9758374022	0.0069143339
3307.9046447753	0.0069213794
3309.8334521483	0.0070031397
3311.7622595214	0.0068863658
3313.6910668944	0.0069065820
3315.6198742675	0.0069467933
3317.5486816405	0.0068503832
3319.4774890135	0.0069411444
3321.4062963866	0.0069521884
3323.3351037596	0.0069204103
3325.2639111327	0.0069453064
3327.1927185057	0.0069734557
3329.1215258788	0.0070556235
3331.0503332518	0.0070483950
3332.9791406249	0.0070324191
3334.9079479979	0.0069525451
3336.8367553710	0.0069291736
3338.7655627440	0.0069967434
3340.6943701171	0.0070093181
3342.6231774901	0.0070610363
3344.5519848632	0.0070372205
3346.4807922362	0.0070429482
3348.4095996092	0.0071141459
3350.3384069823	0.0070327455
3352.2672143553	0.0070344629
3354.1960217284	0.0071478034
3356.1248291014	0.0070025013
3358.0536364745	0.0070587061
3359.9824438475	0.0072224233
3361.9112512206	0.0070779556
3363.8400585936	0.0071521197
3365.7688659667	0.0071403845
3367.6976733397	0.0071337102
3369.6264807128	0.0072340546
3371.5552880858	0.0071652373
3373.4840954589	0.0072851432
3375.4129028319	0.0072862231
3377.3417102049	0.0072732647
3379.2705175780	0.0072732158
3381.1993249510	0.0072123958
3383.1281323241	0.0073065711
3385.0569396971	0.0072710058
3386.9857470702	0.0072757541
3388.9145544432	0.0073281643
3390.8433618163	0.0073158816
3392.7721691893	0.0073309704
3394.7009765624	0.0073896893
3396.6297839354	0.0074557206
3398.5585913085	0.0074958624
3400.4873986815	0.0075685121
3402.4162060546	0.0075386288
3404.3450134276	0.0074546183
3406.2738208006	0.0074559506
3408.2026281737	0.0075797783
3410.1314355467	0.0076045301
3412.0602429198	0.0075096413
3413.9890502928	0.0075732823
3415.9178576659	0.0076217633
3417.8466650389	0.0075581325
3419.7754724120	0.0075561278
3421.7042797850	0.0076462720
3423.6330871581	0.0076721944
3425.5618945311	0.0076823710
3427.4907019042	0.0077099856
3429.4195092772	0.0076984856
3431.3483166503	0.0077046109
3433.2771240233	0.0076966360
3435.2059313963	0.0077394326
3437.1347387694	0.0078106485
3439.0635461424	0.0078234905
3440.9923535155	0.0077339578
3442.9211608885	0.0077243010
3444.8499682616	0.0077873124
3446.7787756346	0.0077564614
3448.7075830077	0.0078319907
3450.6363903807	0.0078964392
3452.5651977538	0.0078636939
3454.4940051268	0.0078741834
3456.4228124999	0.0079323538
3458.3516198729	0.0079201236
3460.2804272460	0.0078747403
3462.2092346190	0.0079454146
3464.1380419921	0.0079963561
3466.0668493651	0.0079716584
3467.9956567381	0.0079641715
3469.9244641112	0.0080298986
3471.8532714842	0.0080339750
3473.7820788573	0.0079959277
3475.7108862303	0.0080317687
3477.6396936034	0.0081102634
3479.5685009764	0.0079919258
3481.4973083495	0.0078464402
3483.4261157225	0.0080643995
3485.3549230956	0.0080827381
3487.2837304686	0.0080335326
3489.2125378417	0.0080395015
3491.1413452147	0.0079968004
3493.0701525878	0.0081635900
3494.9989599608	0.0080974028
3496.9277673338	0.0080759153
3498.8565747069	0.0081098862
3500.7853820799	0.0080473330
3502.7141894530	0.0080244904
3504.6429968260	0.0080827288
3506.5718041991	0.0082405778
3508.5006115721	0.0081071677
3510.4294189452	0.0081716385
3512.3582263182	0.0082201129
3514.2870336913	0.0080849342
3516.2158410643	0.0081978738
3518.1446484374	0.0082344636
3520.0734558104	0.0082494514
3522.0022631835	0.0081400825
3523.9310705565	0.0080988901
3525.8598779295	0.0082017118
3527.7886853026	0.0081150858
3529.7174926756	0.0080945622
3531.6463000487	0.0082215620
3533.5751074217	0.0081474911
3535.5039147948	0.0081180353
3537.4327221678	0.0082816612
3539.3615295409	0.0081674848
3541.2903369139	0.0081930785
3543.2191442870	0.0082832836
3545.1479516600	0.0080717895
3547.0767590331	0.0079621263
3549.0055664061	0.0081933988
3550.9343737792	0.0082944520
3552.8631811522	0.0079945438
3554.7919885252	0.0080722142
3556.7207958983	0.0081794765
3558.6496032713	0.0081847217
3560.5784106444	0.0081588104
3562.5072180174	0.0080738068
3564.4360253905	0.0081946719
3566.3648327635	0.0076742927
3568.2936401366	0.0075158761
3570.2224475096	0.0080375224
3572.1512548827	0.0081143593
3574.0800622557	0.0081853904
3576.0088696288	0.0081659984
3577.9376770018	0.0080183102
3579.8664843749	0.0080734277
3581.7952917479	0.0080913361
3583.7240991210	0.0080727190
3585.6529064940	0.0079274196
3587.5817138670	0.0073937727
3589.5105212401	0.0075050071
3591.4393286131	0.0080761872
3593.3681359862	0.0079219025
3595.2969433592	0.0077660033
3597.2257507323	0.0078438194
3599.1545581053	0.0078926645
3601.0833654784	0.0078846365
3603.0121728514	0.0078765517
3604.9409802245	0.0079366639
3606.8697875975	0.0077958126
3608.7985949706	0.0073597245
3610.7274023436	0.0074566901
3612.6562097167	0.0077536330
3614.5850170897	0.0074813999
3616.5138244627	0.0078351805
3618.4426318358	0.0073855845
3620.3714392088	0.0071068043
3622.3002465819	0.0078627151
3624.2290539549	0.0076490706
3626.1578613280	0.0079822950
3628.0866687010	0.0070373714
3630.0154760741	0.0065481998
3631.9442834471	0.0078479350
3633.8730908202	0.0075695934
3635.8018981932	0.0077747288
3637.7307055663	0.0078413524
3639.6595129393	0.0076892967
3641.5883203124	0.0079160770
3643.5171276854	0.0077379178
3645.4459350584	0.0077056894
3647.3747424315	0.0070753368
3649.3035498045	0.0066061430
3651.2323571776	0.0066725812
3653.1611645506	0.0076831980
3655.0899719237	0.0075608036
3657.0187792967	0.0069262576
3658.9475866698	0.0077596721
3660.8763940428	0.0075114896
3662.8052014159	0.0076443553
3664.7340087889	0.0076153781
3666.6628161620	0.0074882610
3668.5916235350	0.0072722454
3670.5204309081	0.0062190453
3672.4492382811	0.0071941367
3674.3780456541	0.0067437785
3676.3068530272	0.0059138928
3678.2356604002	0.0070595685
3680.1644677733	0.0071051256
3682.0932751463	0.0071504805
3684.0220825194	0.0072796266
3685.9508898924	0.0072029978
3687.8796972655	0.0065445206
3689.8085046385	0.0061249565
3691.7373120116	0.0068269949
3693.6661193846	0.0069623641
3695.5949267577	0.0070242574
3697.5237341307	0.0069408873
3699.4525415038	0.0069603343
3701.3813488768	0.0067622010
3703.3101562499	0.0065608746
3705.2389636229	0.0070643397
3707.1677709959	0.0067072213
3709.0965783690	0.0066781780
3711.0253857420	0.0063487953
3712.9541931151	0.0059564207
3714.8830004881	0.0067176963
3716.8118078612	0.0066237152
3718.7406152342	0.0066470061
3720.6694226073	0.0064649219
3722.5982299803	0.0063628843
3724.5270373534	0.0066190469
3726.4558447264	0.0061378991
3728.3846520995	0.0065429974
3730.3134594725	0.0064220456
3732.2422668456	0.0059325574
3734.1710742186	0.0059567830
3736.0998815916	0.0056427983
3738.0286889647	0.0058255247
3739.9574963377	0.0063024228
3741.8863037108	0.0064956788
3743.8151110838	0.0052281469
3745.7439184569	0.0049677193
3747.6727258299	0.0061965105
3749.6015332030	0.0054128831
3751.5303405760	0.0049758051
3753.4591479491	0.0056654606
3755.3879553221	0.0060214340
3757.3167626952	0.0061439304
3759.2455700682	0.0058289981
3761.1743774413	0.0060832817
3763.1031848143	0.0062518981
3765.0319921873	0.0059181191
3766.9607995604	0.0060617290
3768.8896069334	0.0059524430
3770.8184143065	0.0057405317
3772.7472216795	0.0060487846
3774.6760290526	0.0061218981
3776.6048364256	0.0060212761
3778.5336437987	0.0058365250
3780.4624511717	0.0057703275
3782.3912585448	0.0059553254
3784.3200659178	0.0059080427
3786.2488732909	0.0058833500
3788.1776806639	0.0058784038
3790.1064880370	0.0058900481
3792.0352954100	0.0058771241
3793.9641027830	0.0059752809
3795.8929101561	0.0056413924
3797.8217175291	0.0055847801
3799.7505249022	0.0058109015
3801.6793322752	0.0048185103
3803.6081396483	0.0054495051
3805.5369470213	0.0057911435
3807.4657543944	0.0050012767
3809.3945617674	0.0058325157
3811.3233691405	0.0057317475
3813.2521765135	0.0058359141
3815.1809838866	0.0053135026
3817.1097912596	0.0048191566
3819.0385986327	0.0057384837
3820.9674060057	0.0048155305
3822.8962133787	0.0050460356
3824.8250207518	0.0057179490
3826.7538281248	0.0052561276
3828.6826354979	0.0055456529
3830.6114428709	0.0054070400
3832.5402502440	0.0052847550
3834.4690576170	0.0053491793
3836.3978649901	0.0050829360
3838.3266723631	0.0046561426
3840.2554797362	0.0050623640
3842.1842871092	0.0053908629
3844.1130944823	0.0051138564
3846.0419018553	0.0054588476
3847.9707092284	0.0053475648
3849.8995166014	0.0054048724
3851.8283239745	0.0050230706
3853.7571313475	0.0039248262
3855.6859387205	0.0044562588
3857.6147460936	0.0053170538
3859.5435534666	0.0052555511
3861.4723608397	0.0052362829
3863.4011682127	0.0050297524
3865.3299755858	0.0047987085
3867.2587829588	0.0052214358
3869.1875903319	0.0048414962
3871.1163977049	0.0045856033
3873.0452050780	0.0051976200
3874.9740124510	0.0048788544
3876.9028198241	0.0051196059
3878.8316271971	0.0052218293
3880.7604345702	0.0046273749
3882.6892419432	0.0050356844
3884.6180493162	0.0048156148
3886.5468566893	0.0045604808
3888.4756640623	0.0050860564
3890.4044714354	0.0048346929
3892.3332788084	0.0046648765
3894.2620861815	0.0050206245
3896.1908935545	0.0050993958
3898.1197009276	0.0049168202
3900.0485083006	0.0046612192
3901.9773156737	0.0046503176
3903.9061230467	0.0046125026
3905.8349304198	0.0046880036
3907.7637377928	0.0049623074
3909.6925451659	0.0048782490
3911.6213525389	0.0049411771
3913.5501599119	0.0049962597
3915.4789672850	0.0048377262
3917.4077746580	0.0047071716
3919.3365820311	0.0046745366
3921.2653894041	0.0048718690
3923.1941967772	0.0047916435
3925.1230041502	0.0047509763
3927.0518115233	0.0047557652
3928.9806188963	0.0047249636
3930.9094262694	0.0048398171
3932.8382336424	0.0046821572
3934.7670410155	0.0047401786
3936.6958483885	0.0048541501
3938.6246557616	0.0047531612
3940.5534631346	0.0047701760
3942.4822705076	0.0047442317
3944.4110778807	0.0046938350
3946.3398852537	0.0046736505
3948.2686926268	0.0046608271
3950.1974999998	0.0046255281
3952.1263073729	0.0046245707
3954.0551147459	0.0046141609
3955.9839221190	0.0046014544
3957.9127294920	0.0045713736
3959.8415368651	0.0045465827
3961.7703442381	0.0046268776
3963.6991516112	0.0045496090
3965.6279589842	0.0045075528
3967.5567663573	0.0046295216
3969.4855737303	0.0045880247
3971.4143811034	0.0045030578
3973.3431884764	0.0045701414
3975.2719958494	0.0045334045
3977.2008032225	0.0044895536
3979.1296105955	0.0045751836
3981.0584179686	0.0044588475
3982.9872253416	0.0044326670
3984.9160327147	0.0044999430
3986.8448400877	0.0044279587
3988.7736474608	0.0044054855
3990.7024548338	0.0043594646
3992.6312622069	0.0043155449
3994.5600695799	0.0043878532
3996.4888769530	0.0044529596
3998.4176843260	0.0043295613
4000.3464916991	0.0044265827
4002.2752990721	0.0045043416
4004.2041064451	0.0042636069
4006.1329138182	0.0042879479
4008.0617211912	0.0042308476
4009.9905285643	0.0042025279
4011.9193359373	0.0043313699
4013.8481433104	0.0042570606
4015.7769506834	0.0042887777
4017.7057580565	0.0042872941
4019.6345654295	0.0042762253
4021.5633728026	0.0042963410
4023.4921801756	0.0042152260
4025.4209875487	0.0042013163
4027.3497949217	0.0041822670
4029.2786022948	0.0041805701
4031.2074096678	0.0042844666
4033.1362170408	0.0042490074
4035.0650244139	0.0041369284
4036.9938317869	0.0042549334
4038.9226391600	0.0041604224
4040.8514465330	0.0040566251
4042.7802539061	0.0042442502
4044.7090612791	0.0041474849
4046.6378686522	0.0041055242
4048.5666760252	0.0041364445
4050.4954833983	0.0040399227
4052.4242907713	0.0041042976
4054.3530981444	0.0041135494
4056.2819055174	0.0040875003
4058.2107128905	0.0041205999
4060.1395202635	0.0041010547
4062.0683276365	0.0040095579
4063.9971350096	0.0040386547
4065.9259423826	0.0041026310
4067.8547497557	0.0040006991
4069.7835571287	0.0039473893
4071.7123645018	0.0039134789
4073.6411718748	0.0039573461
4075.5699792479	0.0039990386
4077.4987866209	0.0039339671
4079.4275939940	0.0039447471
4081.3564013670	0.0038914715
4083.2852087401	0.0038462493
4085.2140161131	0.0039573614
4087.1428234862	0.0040178569
4089.0716308592	0.0038594720
4091.0004382323	0.0038244196
4092.9292456053	0.0038980749
4094.8580529783	0.0037971602
4096.7868603514	0.0038450072
4098.7156677244	0.0038489001
4100.6444750975	0.0037785731
4102.5732824705	0.0037859629
4104.5020898436	0.0037126071
4106.4308972166	0.0037912293
4108.3597045897	0.0037866523
4110.2885119627	0.0036938670
4112.2173193358	0.0037735335
4114.1461267088	0.0037662862
4116.0749340819	0.0037239871
4118.0037414549	0.0037367661
4119.9325488280	0.0037189617
4121.8613562010	0.0036792466
4123.7901635740	0.0036601461
4125.7189709471	0.0037350410
4127.6477783201	0.0037660243
4129.5765856932	0.0036796008
4131.5053930662	0.0036456815
4133.4342004393	0.0036535522
4135.3630078123	0.0037211017
4137.2918151854	0.0037369821
4139.2206225584	0.0036127686
4141.1494299315	0.0035608755
4143.0782373045	0.0035521369
4145.0070446776	0.0035657403
4146.9358520506	0.0035717112
4148.8646594237	0.0036386582
4150.7934667967	0.0036380040
4152.7222741697	0.0035034555
4154.6510815428	0.0035921936
4156.5798889158	0.0035792633
4158.5086962889	0.0035057431
4160.4375036619	0.0035394705
4162.3663110350	0.0035041368
4164.2951184080	0.0035204561
4166.2239257811	0.0034643142
4168.1527331541	0.0034584356
4170.0815405272	0.0034251085
4172.0103479002	0.0034174109
4173.9391552733	0.0035058269
4175.8679626463	0.0034392406
4177.7967700194	0.0034342739
4179.7255773924	0.0034047049
4181.6543847654	0.0033849231
4183.5831921385	0.0033631045
4185.5119995115	0.0032896474
4187.4408068846	0.0033225254
4189.3696142576	0.0033255769
4191.2984216307	0.0034557751
4193.2272290037	0.0034777201
4195.1560363768	0.0033451789
4197.0848437498	0.0033987812
4199.0136511229	0.0033634049
4200.9424584959	0.0033271881
4202.8712658690	0.0033934908
4204.8000732420	0.0033511207
4206.7288806151	0.0033207939
4208.6576879881	0.0032607545
4210.5864953611	0.0032603969
4212.5153027342	0.0034008545
4214.4441101072	0.0032991408
4216.3729174803	0.0031805537
4218.3017248533	0.0032737693
4220.2305322264	0.0033032871
4222.1593395994	0.0032686191
4224.0881469725	0.0032494985
4226.0169543455	0.0032523249
4227.9457617186	0.0031672032
4229.8745690916	0.0031284667
4231.8033764647	0.0031616949
4233.7321838377	0.0031131951
4235.6609912108	0.0030903742
4237.5897985838	0.0031175907
4239.5186059569	0.0031726868
4241.4474133299	0.0031273253
4243.3762207029	0.0031399587
4245.3050280760	0.0031964122
4247.2338354490	0.0031139324
4249.1626428221	0.0030887756
4251.0914501951	0.0030255266
4253.0202575682	0.0030289940
4254.9490649412	0.0031387189
4256.8778723143	0.0031132228
4258.8066796873	0.0030116162
4260.7354870604	0.0029887266
4262.6642944334	0.0030705356
4264.5931018065	0.0030980168
4266.5219091795	0.0030720197
4268.4507165526	0.0030031649
4270.3795239256	0.0029748827
4272.3083312986	0.0030136551
4274.2371386717	0.0030186423
4276.1659460447	0.0030497136
4278.0947534178	0.0030147806
4280.0235607908	0.0029600170
4281.9523681639	0.0029106813
4283.8811755369	0.0028604902
4285.8099829100	0.0029348684
4287.7387902830	0.0029631506
4289.6675976561	0.0029426976
4291.5964050291	0.0029677316
4293.5252124022	0.0028948835
4295.4540197752	0.0028535877
4297.3828271483	0.0029074629
4299.3116345213	0.0028959983
4301.2404418943	0.0029083681
4303.1692492674	0.0028875200
4305.0980566404	0.0028439183
4307.0268640135	0.0028877121
4308.9556713865	0.0028637515
4310.8844787596	0.0028372230
4312.8132861326	0.0028515365
4314.7420935057	0.0028454238
4316.6709008787	0.0028501702
4318.5997082518	0.0028261170
4320.5285156248	0.0027804943
4322.4573229979	0.0027680986
4324.3861303709	0.0027704267
4326.3149377440	0.0027856110
4328.2437451170	0.0028098691
4330.1725524900	0.0027704095
4332.1013598631	0.0027875165
4334.0301672361	0.0028174166
4335.9589746092	0.0027592145
4337.8877819822	0.0027506845
4339.8165893553	0.0027240152
4341.7453967283	0.0027053040
4343.6742041014	0.0027744756
4345.6030114744	0.0027930024
4347.5318188475	0.0027163452
4349.4606262205	0.0026870000
4351.3894335936	0.0026907970
4353.3182409666	0.0026656217
4355.2470483397	0.0026747533
4357.1758557127	0.0026685284
4359.1046630858	0.0026982494
4361.0334704588	0.0027042422
4362.9622778318	0.0026455931
4364.8910852049	0.0026314356
4366.8198925779	0.0026206309
4368.7486999510	0.0026668604
4370.6775073240	0.0026904889
4372.6063146971	0.0026133531
4374.5351220701	0.0026297541
4376.4639294432	0.0026455978
4378.3927368162	0.0025471365
4380.3215441893	0.0025879557
4382.2503515623	0.0025926046
4384.1791589354	0.0025415909
4386.1079663084	0.0025807666
4388.0367736815	0.0025119572
4389.9655810545	0.0026045833
4391.8943884275	0.0026028329
4393.8231958006	0.0025051287
4395.7520031736	0.0025969981
4397.6808105467	0.0025225417
4399.6096179197	0.0025807971
4401.5384252928	0.0025868060
4403.4672326658	0.0024373850
4405.3960400389	0.0024772007
4407.3248474119	0.0025109095
4409.2536547850	0.0024913508
4411.1824621580	0.0024346570
4413.1112695311	0.0025281578
4415.0400769041	0.0025346354
4416.9688842772	0.0024726992
4418.8976916502	0.0025540621
4420.8264990232	0.0024429052
4422.7553063963	0.0023698667
4424.6841137693	0.0024100549
4426.6129211424	0.0024298709
4428.5417285154	0.0024521367
4430.4705358885	0.0024339771
4432.3993432615	0.0023862398
4434.3281506346	0.0023490516
4436.2569580076	0.0023847958
4438.1857653807	0.0023612974
4440.1145727537	0.0023490712
4442.0433801268	0.0024306015
4443.9721874998	0.0024537556
4445.9009948729	0.0023288736
4447.8298022459	0.0022811610
4449.7586096189	0.0023833469
4451.6874169920	0.0023630825
4453.6162243650	0.0023189879
4455.5450317381	0.0023213658
4457.4738391111	0.0023734486
4459.4026464842	0.0024012474
4461.3314538572	0.0023375191
4463.2602612303	0.0023095724
4465.1890686033	0.0023102218
4467.1178759764	0.0023532212
4469.0466833494	0.0023479201
4470.9754907225	0.0023231511
4472.9042980955	0.0023005414
4474.8331054686	0.0023060264
4476.7619128416	0.0023119398
4478.6907202147	0.0022095335
4480.6195275877	0.0022048175
4482.5483349607	0.0022403155
4484.4771423338	0.0022538295
4486.4059497068	0.0022550980
4488.3347570799	0.0022628324
4490.2635644529	0.0022558947
4492.1923718260	0.0022121363
4494.1211791990	0.0022534132
4496.0499865721	0.0021719253
4497.9787939451	0.0021258772
4499.9076013182	0.0021638582
4501.8364086912	0.0021790101
4503.7652160643	0.0022042147
4505.6940234373	0.0021131514
4507.6228308104	0.0021424124
4509.5516381834	0.0021570008
4511.4804455564	0.0021170445
4513.4092529295	0.0020980053
4515.3380603025	0.0020682074
4517.2668676756	0.0021533517
4519.1956750486	0.0021040216
4521.1244824217	0.0020956264
4523.0532897947	0.0021813831
4524.9820971678	0.0021870076
4526.9109045408	0.0021779379
4528.8397119139	0.0021465009
4530.7685192869	0.0021571168
4532.6973266600	0.0020888422
4534.6261340330	0.0020698514
4536.5549414061	0.0020831167
4538.4837487791	0.0020445888
4540.4125561521	0.0020976583
4542.3413635252	0.0020647221
4544.2701708982	0.0020344616
4546.1989782713	0.0020412090
4548.1277856443	0.0019921169
4550.0565930174	0.0019948920
4551.9854003904	0.0020364423
4553.9142077635	0.0020593684
4555.8430151365	0.0020206296
4557.7718225096	0.0020198624
4559.7006298826	0.0020013503
4561.6294372557	0.0019552684
4563.5582446287	0.0020653126
4565.4870520018	0.0020767907
4567.4158593748	0.0019342676
4569.3446667478	0.0019237730
4571.2734741209	0.0019509650
4573.2022814939	0.0019417817
4575.1310888670	0.0019642303
4577.0598962400	0.0019661309
4578.9887036131	0.0019213102
4580.9175109861	0.0019021418
4582.8463183592	0.0019213755
4584.7751257322	0.0019335959
4586.7039331053	0.0019596694
4588.6327404783	0.0019413307
4590.5615478514	0.0019322394
4592.4903552244	0.0019817869
4594.4191625975	0.0019767431
4596.3479699705	0.0019586908
4598.2767773435	0.0019350424
4600.2055847166	0.0018904576
4602.1343920896	0.0018847010
4604.0631994627	0.0019044888
4605.9920068357	0.0018739314
4607.9208142088	0.0018272952
4609.8496215818	0.0018019145
4611.7784289549	0.0018236525
4613.7072363279	0.0018809657
4615.6360437010	0.0018091230
4617.5648510740	0.0018457120
4619.4936584471	0.0019112148
4621.4224658201	0.0018281341
4623.3512731932	0.0018261825
4625.2800805662	0.0017557989
4627.2088879393	0.0018227007
4629.1376953123	0.0018475708
4631.0665026853	0.0017436901
4632.9953100584	0.0018835029
4634.9241174314	0.0018421800
4636.8529248045	0.0018409914
4638.7817321775	0.0019125713
4640.7105395506	0.0017779586
4642.6393469236	0.0017862309
4644.5681542967	0.0017954917
4646.4969616697	0.0017699588
4648.4257690428	0.0017880716
4650.3545764158	0.0018112058
4652.2833837889	0.0018113668
4654.2121911619	0.0017523078
4656.1409985350	0.0017364266
4658.0698059080	0.0017283194
4659.9986132810	0.0017281093
4661.9274206541	0.0017312949
4663.8562280271	0.0017486970
4665.7850354002	0.0017237822
4667.7138427732	0.0017139766
4669.6426501463	0.0017876786
4671.5714575193	0.0017154724
4673.5002648924	0.0016817602
4675.4290722654	0.0017828383
4677.3578796385	0.0017748505
4679.2866870115	0.0017332768
4681.2154943846	0.0017108754
4683.1443017576	0.0016980742
4685.0731091307	0.0017196711
4687.0019165037	0.0017032763
4688.9307238767	0.0017256348
4690.8595312498	0.0017292263
4692.7883386228	0.0016543134
4694.7171459959	0.0016680576
4696.6459533689	0.0015955693
4698.5747607420	0.0015632054
4700.5035681150	0.0016528524
4702.4323754881	0.0016313847
4704.3611828611	0.0016444509
4706.2899902342	0.0015356364
4708.2187976072	0.0014979353
4710.1476049803	0.0016348131
4712.0764123533	0.0015789811
4714.0052197264	0.0015707746
4715.9340270994	0.0016035940
4717.8628344724	0.0015979218
4719.7916418455	0.0016318967
4721.7204492185	0.0016053645
4723.6492565916	0.0015871034
4725.5780639646	0.0016366815
4727.5068713377	0.0016247113
4729.4356787107	0.0015293381
4731.3644860838	0.0015324191
4733.2932934568	0.0015365648
4735.2221008299	0.0015693177
4737.1509082029	0.0016041949
4739.0797155760	0.0015581364
4741.0085229490	0.0015921018
4742.9373303221	0.0015513371
4744.8661376951	0.0015662429
4746.7949450682	0.0015570577
4748.7237524412	0.0014340807
4750.6525598142	0.0015152758
4752.5813671873	0.0015414117
4754.5101745603	0.0015129586
4756.4389819334	0.0015140951
4758.3677893064	0.0014320910
4760.2965966795	0.0014763756
4762.2254040525	0.0015417214
4764.1542114256	0.0014572202
4766.0830187986	0.0014456224
4768.0118261717	0.0014875510
4769.9406335447	0.0014235332
4771.8694409178	0.0014684818
4773.7982482908	0.0015203702
4775.7270556639	0.0014663248
4777.6558630369	0.0014784865
4779.5846704099	0.0014824662
4781.5134777830	0.0014888404
4783.4422851560	0.0015085167
4785.3710925291	0.0015002207
4787.2998999021	0.0014544022
4789.2287072752	0.0014428620
4791.1575146482	0.0014333876
4793.0863220213	0.0013832523
4795.0151293943	0.0014225498
4796.9439367674	0.0014546311
4798.8727441404	0.0014665213
4800.8015515135	0.0013695755
4802.7303588865	0.0013204099
4804.6591662596	0.0014200979
4806.5879736326	0.0013733667
4808.5167810056	0.0013844606
4810.4455883787	0.0013400662
4812.3743957517	0.0013386171
4814.3032031248	0.0014430593
4816.2320104978	0.0012908465
4818.1608178709	0.0013439893
4820.0896252439	0.0014519994
4822.0184326170	0.0013721718
4823.9472399900	0.0014205093
4825.8760473631	0.0014083777
4827.8048547361	0.0013710139
4829.7336621092	0.0013847582
4831.6624694822	0.0013638864
4833.5912768553	0.0013398663
4835.5200842283	0.0013284252
4837.4488916013	0.0013310527
4839.3776989744	0.0013425988
4841.3065063474	0.0013624211
4843.2353137205	0.0013580635
4845.1641210935	0.0012944815
4847.0929284666	0.0012399013
4849.0217358396	0.0013688058
4850.9505432127	0.0013622883
4852.8793505857	0.0012073378
4854.8081579588	0.0013165867
4856.7369653318	0.0013059399
4858.6657727049	0.0012451699
4860.5945800779	0.0013357869
4862.5233874510	0.0013142041
4864.4521948240	0.0013252371
4866.3810021971	0.0012681322
4868.3098095701	0.0012647231
4870.2386169431	0.0013813856
4872.1674243162	0.0013156291
4874.0962316892	0.0012390430
4876.0250390623	0.0012355712
4877.9538464353	0.0012965370
4879.8826538084	0.0012761349
4881.8114611814	0.0011992598
4883.7402685545	0.0012896953
4885.6690759275	0.0012933102
4887.5978833006	0.0012574231
4889.5266906736	0.0012949695
4891.4554980467	0.0012548133
4893.3843054197	0.0011920910
4895.3131127928	0.0011906466
4897.2419201658	0.0012459072
4899.1707275388	0.0012905422
4901.0995349119	0.0012540309
4903.0283422849	0.0011644467
4904.9571496580	0.0012041361
4906.8859570310	0.0011944992
4908.8147644041	0.0011601879
4910.7435717771	0.0012699836
4912.6723791502	0.0011979210
4914.6011865232	0.0011679425
4916.5299938963	0.0012108379
4918.4588012693	0.0012002450
4920.3876086424	0.0012180371
4922.3164160154	0.0011465149
4924.2452233885	0.0012350900
4926.1740307615	0.0012164153
4928.1028381345	0.0011029365
4930.0316455076	0.0011650710
4931.9604528806	0.0011252308
4933.8892602537	0.0011209000
4935.8180676267	0.0011223806
4937.7468749998	0.0011407168
4939.6756823728	0.0011497370
4941.6044897459	0.0010994488
4943.5332971189	0.0011478603
4945.4621044920	0.0011770081
4947.3909118650	0.0012146037
4949.3197192381	0.0011335602
4951.2485266111	0.0011040998
4953.1773339842	0.0011474744
4955.1061413572	0.0010522484
4957.0349487302	0.0011408594
4958.9637561033	0.0011491919
4960.8925634763	0.0010697396
4962.8213708494	0.0011324985
4964.7501782224	0.0010829523
4966.6789855955	0.0010602104
4968.6077929685	0.0010769437
4970.5366003416	0.0010703255
4972.4654077146	0.0011147470
4974.3942150877	0.0010874504
4976.3230224607	0.0010855549
4978.2518298338	0.0011314307
4980.1806372068	0.0010535630
4982.1094445799	0.0010629806
4984.0382519529	0.0011298747
4985.9670593259	0.0010509115
4987.8958666990	0.0009998283
4989.8246740720	0.0010238599
4991.7534814451	0.0011127769
4993.6822888181	0.0011114073
4995.6110961912	0.0010396098
4997.5399035642	0.0010257710
4999.4687109373	0.0010190906
5001.3975183103	0.0010829488
5003.3263256834	0.0010236078
5005.2551330564	0.0010091483
5007.1839404295	0.0010558111
5009.1127478025	0.0009729973
5011.0415551756	0.0010481017
5012.9703625486	0.0010637851
5014.8991699217	0.0010215912
5016.8279772947	0.0010550299
5018.7567846677	0.0009821418
5020.6855920408	0.0009530169
5022.6143994138	0.0009481817
5024.5432067869	0.0009272547
5026.4720141599	0.0010228225
5028.4008215330	0.0010602151
5030.3296289060	0.0009650127
5032.2584362791	0.0009795491
5034.1872436521	0.0010000833
5036.1160510252	0.0009842676
5038.0448583982	0.0009709056
5039.9736657713	0.0009694924
5041.9024731443	0.0010525152
5043.8312805174	0.0009857109
5045.7600878904	0.0009976199
5047.6888952634	0.0010210979
5049.6177026365	0.0008799746
5051.5465100095	0.0009345834
5053.4753173826	0.0009780403
5055.4041247556	0.0009595584
5057.3329321287	0.0009724536
5059.2617395017	0.0009599946
5061.1905468748	0.0009543302
5063.1193542478	0.0009239488
5065.0481616209	0.0008840904
5066.9769689939	0.0009054331
5068.9057763670	0.0009622209
5070.8345837400	0.0009077290
5072.7633911131	0.0009086861
5074.6921984861	0.0009291453
5076.6210058591	0.0009120668
5078.5498132322	0.0008789001
5080.4786206052	0.0008872331
5082.4074279783	0.0009776289
5084.3362353513	0.0008362003
5086.2650427244	0.0008586367
5088.1938500974	0.0009555260
5090.1226574705	0.0008970392
5092.0514648435	0.0009496058
5093.9802722166	0.0008678156
5095.9090795896	0.0009064811
5097.8378869627	0.0009557906
5099.7666943357	0.0008651424
5101.6955017088	0.0008619453
5103.6243090818	0.0008555206
5105.5531164548	0.0008855542
5107.4819238279	0.0008512059
5109.4107312009	0.0007921211
5111.3395385740	0.0008494433
5113.2683459470	0.0009771872
5115.1971533201	0.0008772254
5117.1259606931	0.0007750905
5119.0547680662	0.0008980150
5120.9835754392	0.0008381885
5122.9123828123	0.0007953099
5124.8411901853	0.0008341237
5126.7699975584	0.0008470144
5128.6988049314	0.0008735113
5130.6276123045	0.0008905095
5132.5564196775	0.0009074509
5134.4852270506	0.0008533859
5136.4140344236	0.0008437876
5138.3428417966	0.0008383179
5140.2716491697	0.0008408687
5142.2004565427	0.0008355262
5144.1292639158	0.0008364811
5146.0580712888	0.0008132134
5147.9868786619	0.0007454812
5149.9156860349	0.0008236946
5151.8444934080	0.0008456483
5153.7733007810	0.0008426950
5155.7021081541	0.0008268680
5157.6309155271	0.0008010676
5159.5597229002	0.0008413761
5161.4885302732	0.0008117987
5163.4173376463	0.0008292660
5165.3461450193	0.0008149603
5167.2749523923	0.0007979720
5169.2037597654	0.0007775973
5171.1325671384	0.0007675801
5173.0613745115	0.0008414940
5174.9901818845	0.0008040904
5176.9189892576	0.0007681709
5178.8477966306	0.0008010126
5180.7766040037	0.0008317679
5182.7054113767	0.0008235254
5184.6342187498	0.0007713879
5186.5630261228	0.0007072369
5188.4918334959	0.0007474302
5190.4206408689	0.0008171204
5192.3494482420	0.0007691708
5194.2782556150	0.0007550945
5196.2070629880	0.0006883313
5198.1358703611	0.0006948644
5200.0646777341	0.0007609287
5201.9934851072	0.0007435089
5203.9222924802	0.0007516698
5205.8510998533	0.0006676411
5207.7799072263	0.0007216383
5209.7087145994	0.0008173565
5211.6375219724	0.0007145191
5213.5663293455	0.0007113285
5215.4951367185	0.0007504120
5217.4239440916	0.0007155292
5219.3527514646	0.0007473684
5221.2815588377	0.0007567959
5223.2103662107	0.0007291260
5225.1391735837	0.0007803030
5227.0679809568	0.0007489955
5228.9967883298	0.0006643147
5230.9255957029	0.0006549365
5232.8544030759	0.0006914699
5234.7832104490	0.0007283591
5236.7120178220	0.0007344716
5238.6408251951	0.0007312990
5240.5696325681	0.0007240236
5242.4984399412	0.0007013261
5244.4272473142	0.0006856709
5246.3560546873	0.0007786815
5248.2848620603	0.0007047580
5250.2136694334	0.0006889572
5252.1424768064	0.0008361740
5254.0712841795	0.0006635069
5256.0000915525	0.0006763042
5257.9288989255	0.0007312637
5259.8577062986	0.0006368933
5261.7865136716	0.0006760805
5263.7153210447	0.0006146426
5265.6441284177	0.0006718701
5267.5729357908	0.0007062379
5269.5017431638	0.0006707292
5271.4305505369	0.0007139534
5273.3593579099	0.0006969257
5275.2881652830	0.0006819344
5277.2169726560	0.0006708060
5279.1457800291	0.0006306710
5281.0745874021	0.0006210763
5283.0033947752	0.0007116262
5284.9322021482	0.0006967656
5286.8610095212	0.0006845075
5288.7898168943	0.0006494344
5290.7186242673	0.0006223487
5292.6474316404	0.0007536559
5294.5762390134	0.0006824639
5296.5050463865	0.0006484441
5298.4338537595	0.0006682087
5300.3626611326	0.0006768276
5302.2914685056	0.0006892640
5304.2202758787	0.0006198827
5306.1490832517	0.0006833329
5308.0778906248	0.0006419674
5310.0066979978	0.0006162813
5311.9355053709	0.0006311902
5313.8643127439	0.0006070798
5315.7931201169	0.0006150841
5317.7219274900	0.0006038319
5319.6507348630	0.0006597630
5321.5795422361	0.0005753803
5323.5083496091	0.0005996547
5325.4371569822	0.0006973576
5327.3659643552	0.0006287948
5329.2947717283	0.0006195828
5331.2235791013	0.0006337703
5333.1523864744	0.0006344185
5335.0811938474	0.0005809011
5337.0100012205	0.0005570026
5338.9388085935	0.0005563173
5340.8676159666	0.0006101620
5342.7964233396	0.0006385678
5344.7252307126	0.0005608724
5346.6540380857	0.0005543335
5348.5828454587	0.0004951726
5350.5116528318	0.0005345196
5352.4404602048	0.0005890523
5354.3692675779	0.0005674346
5356.2980749509	0.0006144400
5358.2268823240	0.0005600011
5360.1556896970	0.0005613519
5362.0844970701	0.0006013039
5364.0133044431	0.0006068427
5365.9421118162	0.0005962760
5367.8709191892	0.0005425945
5369.7997265623	0.0006035961
5371.7285339353	0.0006664931
5373.6573413083	0.0006458547
5375.5861486814	0.0006075592
5377.5149560544	0.0005758731
5379.4437634275	0.0005441124
5381.3725708005	0.0005150918
5383.3013781736	0.0005570611
5385.2301855466	0.0005866235
5387.1589929197	0.0005317932
5389.0878002927	0.0005181918
5391.0166076658	0.0005671651
5392.9454150388	0.0005988443
5394.8742224119	0.0005835764
5396.8030297849	0.0004987749
5398.7318371580	0.0005100549
5400.6606445310	0.0005830410
5402.5894519041	0.0004816093
5404.5182592771	0.0004599897
5406.4470666501	0.0005484199
5408.3758740232	0.0004708204
5410.3046813962	0.0005049326
5412.2334887693	0.0005763023
5414.1622961423	0.0005168590
5416.0911035154	0.0005966358
5418.0199108884	0.0005396816
5419.9487182615	0.0004880323
5421.8775256345	0.0005372424
5423.8063330076	0.0004512837
5425.7351403806	0.0005484851
5427.6639477537	0.0004755191
5429.5927551267	0.0004188374
5431.5215624998	0.0006062379
5433.4503698728	0.0004941898
5435.3791772458	0.0005031038
5437.3079846189	0.0005602608
5439.2367919919	0.0004783989
5441.1655993650	0.0005378890
5443.0944067380	0.0005156859
5445.0232141111	0.0004772767
5446.9520214841	0.0004782338
5448.8808288572	0.0004952716
5450.8096362302	0.0005020078
5452.7384436033	0.0004564554
5454.6672509763	0.0004650569
5456.5960583494	0.0005160393
5458.5248657224	0.0005820072
5460.4536730955	0.0005177076
5462.3824804685	0.0004738400
5464.3112878415	0.0005488393
5466.2400952146	0.0005016368
5468.1689025876	0.0004497785
5470.0977099607	0.0005036670
5472.0265173337	0.0005618399
5473.9553247068	0.0004808734
5475.8841320798	0.0004326631
5477.8129394529	0.0005247316
5479.7417468259	0.0004789365
5481.6705541990	0.0004786059
5483.5993615720	0.0005280419
5485.5281689451	0.0004479674
5487.4569763181	0.0004552845
5489.3857836912	0.0004834082
5491.3145910642	0.0004815931
5493.2433984372	0.0004890035
5495.1722058103	0.0004734147
5497.1010131833	0.0004738138
5499.0298205564	0.0004007492
5500.9586279294	0.0004268598
5502.8874353025	0.0005246951
5504.8162426755	0.0004074124
5506.7450500486	0.0003918915
5508.6738574216	0.0004702676
5510.6026647947	0.0004424233
5512.5314721677	0.0004619077
5514.4602795408	0.0004122728
5516.3890869138	0.0003825917
5518.3178942869	0.0004420169
5520.2467016599	0.0004946703
5522.1755090330	0.0004861815
5524.1043164060	0.0004316931
5526.0331237790	0.0004797750
5527.9619311521	0.0004661829
5529.8907385251	0.0004589572
5531.8195458982	0.0004665653
5533.7483532712	0.0004071210
5535.6771606443	0.0003886015
5537.6059680173	0.0003684485
5539.5347753904	0.0004586918
5541.4635827634	0.0004450526
5543.3923901365	0.0003894203
5545.3211975095	0.0004398469
5547.2500048826	0.0004529724
5549.1788122556	0.0004767066
5551.1076196287	0.0004114299
5553.0364270017	0.0004635286
5554.9652343747	0.0004328177
5556.8940417478	0.0003461213
5558.8228491208	0.0004471112
5560.7516564939	0.0003992895
5562.6804638669	0.0004435338
5564.6092712400	0.0004644562
5566.5380786130	0.0004070833
5568.4668859861	0.0004332325
5570.3956933591	0.0004172809
5572.3245007322	0.0004519853
5574.2533081052	0.0003777462
5576.1821154783	0.0003638128
5578.1109228513	0.0004015787
5580.0397302244	0.0003754174
5581.9685375974	0.0004140648
5583.8973449704	0.0003961789
5585.8261523435	0.0003937965
5587.7549597165	0.0003815191
5589.6837670896	0.0003841864
5591.6125744626	0.0004272389
5593.5413818357	0.0004620806
5595.4701892087	0.0004263865
5597.3989965818	0.0003411037
5599.3278039548	0.0003981852
5601.2566113279	0.0003587917
5603.1854187009	0.0003066876
5605.1142260740	0.0004231284
5607.0430334470	0.0004482461
5608.9718408201	0.0004141940
5610.9006481931	0.0004083119
5612.8294555661	0.0003954073
5614.7582629392	0.0003678630
5616.6870703122	0.0004054265
5618.6158776853	0.0004452981
5620.5446850583	0.0003867362
5622.4734924314	0.0003679701
5624.4022998044	0.0003492101
5626.3311071775	0.0003090396
5628.2599145505	0.0003460071
5630.1887219236	0.0003748973
5632.1175292966	0.0004155383
5634.0463366697	0.0004503656
5635.9751440427	0.0003949647
5637.9039514158	0.0003566789
5639.8327587888	0.0003650253
5641.7615661619	0.0004153812
5643.6903735349	0.0003949919
5645.6191809079	0.0003408930
5647.5479882810	0.0003737830
5649.4767956540	0.0003356910
5651.4056030271	0.0003503298
5653.3344104001	0.0003423165
5655.2632177732	0.0003175396
5657.1920251462	0.0004164178
5659.1208325193	0.0003615302
5661.0496398923	0.0003588682
5662.9784472654	0.0004080090
5664.9072546384	0.0003960178
5666.8360620115	0.0004135054
5668.7648693845	0.0002981455
5670.6936767576	0.0003000574
5672.6224841306	0.0003525450
5674.5512915036	0.0003431005
5676.4800988767	0.0004063628
5678.4089062497	0.0003467558
5680.3377136228	0.0003390220
5682.2665209958	0.0003941862
5684.1953283689	0.0003285339
5686.1241357419	0.0003087586
5688.0529431150	0.0002948711
5689.9817504880	0.0003040503
5691.9105578611	0.0003329838
5693.8393652341	0.0002692754
5695.7681726072	0.0003186550
5697.6969799802	0.0003307394
5699.6257873533	0.0002979851
5701.5545947263	0.0004203784
5703.4834020993	0.0003533985
5705.4122094724	0.0002811713
5707.3410168454	0.0003159725
5709.2698242185	0.0003069697
5711.1986315915	0.0003848280
5713.1274389646	0.0003263879
5715.0562463376	0.0002822013
5716.9850537107	0.0003105423
5718.9138610837	0.0002946123
5720.8426684568	0.0003671356
5722.7714758298	0.0003249185
5724.7002832029	0.0003182584
5726.6290905759	0.0003871585
5728.5578979490	0.0003390886
5730.4867053220	0.0003388624
5732.4155126950	0.0003680389
5734.3443200681	0.0003687286
5736.2731274411	0.0002996885
5738.2019348142	0.0002657046
5740.1307421872	0.0003318595
5742.0595495603	0.0003069927
5743.9883569333	0.0003355224
5745.9171643064	0.0003426766
5747.8459716794	0.0002479826
5749.7747790525	0.0003133639
5751.7035864255	0.0003292026
5753.6323937986	0.0002638200
5755.5612011716	0.0002847923
5757.4900085447	0.0003455682
5759.4188159177	0.0003601845
5761.3476232907	0.0003268361
5763.2764306638	0.0003705357
5765.2052380368	0.0002776405
5767.1340454099	0.0002641652
5769.0628527829	0.0003674057
5770.9916601560	0.0002839794
5772.9204675290	0.0002911505
5774.8492749021	0.0002826083
5776.7780822751	0.0003116250
5778.7068896482	0.0003074316
5780.6356970212	0.0002534986
5782.5645043943	0.0003766805
5784.4933117673	0.0003149321
5786.4221191404	0.0002803914
5788.3509265134	0.0002600863
5790.2797338865	0.0002675011
5792.2085412595	0.0003624786
5794.1373486325	0.0002203148
5796.0661560056	0.0002933937
5797.9949633786	0.0003422499
5799.9237707517	0.0001934008
5801.8525781247	0.0002483847
5803.7813854978	0.0003006272
5805.7101928708	0.0003227587
5807.6390002439	0.0003250480
5809.5678076169	0.0002990023
5811.4966149900	0.0003162175
5813.4254223630	0.0003003589
5815.3542297361	0.0002615713
5817.2830371091	0.0003511297
5819.2118444822	0.0003490384
5821.1406518552	0.0002203414
5823.0694592282	0.0002491680
5824.9982666013	0.0002742816
5826.9270739743	0.0002764671
5828.8558813474	0.0002239051
5830.7846887204	0.0002689240
5832.7134960935	0.0003080777
5834.6423034665	0.0001976057
5836.5711108396	0.0003082085
5838.4999182126	0.0002670637
5840.4287255857	0.0002153722
5842.3575329587	0.0003087202
5844.2863403318	0.0002495827
5846.2151477048	0.0002949779
5848.1439550779	0.0002821352
5850.0727624509	0.0002680445
5852.0015698239	0.0002737858
5853.9303771970	0.0002062370
5855.8591845700	0.0002412843
5857.7879919431	0.0002311638
5859.7167993161	0.0002513073
5861.6456066892	0.0002902414
5863.5744140622	0.0002520385
5865.5032214353	0.0002405989
5867.4320288083	0.0002427695
5869.3608361814	0.0002698564
5871.2896435544	0.0002690720
5873.2184509275	0.0002436546
5875.1472583005	0.0002586246
5877.0760656736	0.0002366500
5879.0048730466	0.0002130363
5880.9336804196	0.0002495271
5882.8624877927	0.0002262880
5884.7912951657	0.0002029812
5886.7201025388	0.0002408928
5888.6489099118	0.0002304313
5890.5777172849	0.0002509610
5892.5065246579	0.0002508743
5894.4353320310	0.0002066973
5896.3641394040	0.0002470464
5898.2929467771	0.0002633695
5900.2217541501	0.0002348404
5902.1505615232	0.0002075547
5904.0793688962	0.0002207284
5906.0081762693	0.0002609965
5907.9369836423	0.0002697274
5909.8657910154	0.0002673601
5911.7945983884	0.0002177130
5913.7234057614	0.0002235075
5915.6522131345	0.0001763902
5917.5810205075	0.0001382948
5919.5098278806	0.0002638022
5921.4386352536	0.0002241585
5923.3674426267	0.0001839942
5925.2962499997	0.0002298026
5927.2250573728	0.0002121192
5929.1538647458	0.0002399767
5931.0826721189	0.0002110588
5933.0114794919	0.0001588826
5934.9402868650	0.0001605188
5936.8690942380	0.0002175713
5938.7979016111	0.0002529043
5940.7267089841	0.0002106734
5942.6555163571	0.0001856847
5944.5843237302	0.0002275341
5946.5131311032	0.0002685049
5948.4419384763	0.0002181604
5950.3707458493	0.0002037643
5952.2995532224	0.0002076025
5954.2283605954	0.0002018989
5956.1571679685	0.0001548736
5958.0859753415	0.0001511272
5960.0147827146	0.0002282757
5961.9435900876	0.0001762253
5963.8723974607	0.0002160977
5965.8012048337	0.0002445171
5967.7300122068	0.0002288761
5969.6588195798	0.0002234312
5971.5876269528	0.0001577360
5973.5164343259	0.0001941760
5975.4452416989	0.0001704886
5977.3740490720	0.0002176809
5979.3028564450	0.0002148378
5981.2316638181	0.0002035833
5983.1604711911	0.0002308936
5985.0892785642	0.0001218952
5987.0180859372	0.0002053893
5988.9468933103	0.0001937589
5990.8757006833	0.0001959148
5992.8045080564	0.0002068284
5994.7333154294	0.0000884151
5996.6621228025	0.0001569788
5998.5909301755	0.0002011786
6000.5197375485	0.0002781110
