399.2631262207	0.0008381063
401.1919335938	0.0009956873
403.1207409668	0.0007560149
405.0495483398	0.0012678632
406.9783557129	0.0013911065
408.9071630859	0.0010513009
410.8359704590	0.0015277138
412.7647778320	0.0012259937
414.6935852051	0.0008791204
416.6223925781	0.0008267298
418.5511999512	0.0004788278
420.4800073242	0.0007389380
422.4088146973	0.0009982176
424.3376220703	0.0008104988
426.2664294434	0.0010921169
428.1952368164	0.0013337517
430.1240441895	0.0012139771
432.0528515625	0.0010067536
433.9816589355	0.0009852154
435.9104663086	0.0014372075
437.8392736816	0.0009975070
439.7680810547	0.0009098701
441.6968884277	0.0013151367
443.6256958008	0.0011079824
445.5545031738	0.0011974182
447.4833105469	0.0010642025
449.4121179199	0.0013149460
451.3409252930	0.0010148915
453.2697326660	0.0008826287
455.1985400391	0.0012459448
457.1273474121	0.0005223124
459.0561547852	0.0009272604
460.9849621582	0.0010239733
462.9137695313	0.0006182377
464.8425769043	0.0007280011
466.7713842773	0.0001799799
468.7001916504	0.0002455419
470.6289990234	0.0006819526
472.5578063965	0.0007546035
474.4866137695	0.0003739365
476.4154211426	0.0003132423
478.3442285156	0.0007257846
480.2730358887	0.0006964898
482.2018432617	0.0002441108
484.1306506348	0.0004526045
486.0594580078	0.0010155891
487.9882653809	0.0001756015
489.9170727539	0.0003498890
491.8458801270	0.0007987960
493.7746875000	0.0001413129
495.7034948730	0.0003359616
497.6323022461	0.0002448579
499.5611096191	0.0003762330
501.4899169922	0.0003676931
503.4187243652	0.0002512388
505.3475317383	0.0007969907
507.2763391113	0.0005524393
509.2051464844	0.0002741276
511.1339538574	0.0004908667
513.0627612305	0.0005271921
514.9915686035	0.0003334603
516.9203759766	0.0004091546
518.8491833496	0.0005798938
520.7779907227	0.0005918817
522.7067980957	0.0005912029
524.6356054688	0.0005595631
526.5644128418	0.0005177181
528.4932202148	0.0005141833
530.4220275879	0.0005622588
532.3508349609	0.0002679803
534.2796423340	0.0000573794
536.2084497070	0.0000051940
538.1372570801	0.0005395415
540.0660644531	0.0010225538
541.9948718262	0.0004637552
543.9236791992	0.0003368323
545.8524865723	0.0004239664
547.7812939453	0.0004701818
549.7101013184	0.0003271048
551.6389086914	0.0002444843
553.5677160645	0.0004508348
555.4965234375	0.0000891334
557.4253308105	0.0004639770
559.3541381836	0.0007017211
561.2829455566	0.0004433732
563.2117529297	0.0005963318
565.1405603027	0.0003278777
567.0693676758	0.0003477046
568.9981750488	0.0004443549
570.9269824219	0.0005780216
572.8557897949	0.0008913823
574.7845971680	0.0004635450
576.7134045410	0.0002265373
578.6422119141	0.0005812607
580.5710192871	0.0004740311
582.4998266602	0.0003615171
584.4286340332	0.0001829619
586.3574414063	0.0000736861
588.2862487793	0.0007435674
590.2150561523	0.0006405084
592.1438635254	0.0003866406
594.0726708984	0.0004633918
596.0014782715	0.0004834897
597.9302856445	0.0006216620
599.8590930176	0.0002830213
601.7879003906	0.0004456621
603.7167077637	0.0003503089
605.6455151367	0.0002167711
607.5743225098	0.0004680733
609.5031298828	0.0004148469
611.4319372559	0.0004723524
613.3607446289	0.0001744612
615.2895520020	0.0001540297
617.2183593750	0.0006007686
619.1471667480	0.0006489594
621.0759741211	0.0003072270
623.0047814941	0.0000949474
624.9335888672	0.0001799187
626.8623962402	0.0001933645
628.7912036133	0.0000107637
630.7200109863	0.0004058336
632.6488183594	0.0008004119
634.5776257324	0.0006817875
636.5064331055	0.0010550013
638.4352404785	0.0014072978
640.3640478516	0.0011463409
642.2928552246	0.0011831820
644.2216625977	0.0015329006
646.1504699707	0.0012405340
648.0792773438	0.0018301895
650.0080847168	0.0021132128
651.9368920898	0.0014755992
653.8656994629	0.0016927903
655.7945068359	0.0018096301
657.7233142090	0.0023061642
659.6521215820	0.0023123685
661.5809289551	0.0018434979
663.5097363281	0.0023900536
665.4385437012	0.0024632467
667.3673510742	0.0021497314
669.2961584473	0.0023915961
671.2249658203	0.0026465289
673.1537731934	0.0029541226
675.0825805664	0.0032215780
677.0113879395	0.0029593157
678.9401953125	0.0031217360
680.8690026855	0.0030428052
682.7978100586	0.0029445421
684.7266174316	0.0033151782
686.6554248047	0.0032096759
688.5842321777	0.0032929429
690.5130395508	0.0032016262
692.4418469238	0.0036426506
694.3706542969	0.0038123070
696.2994616699	0.0041620499
698.2282690430	0.0052411929
700.1570764160	0.0050316136
702.0858837891	0.0052389568
704.0146911621	0.0049461182
705.9434985352	0.0043454631
707.8723059082	0.0040022861
709.8011132813	0.0031756917
711.7299206543	0.0025194606
713.6587280273	0.0010989727
715.5875354004	0.0006352128
717.5163427734	0.0007195614
719.4451501465	0.0005305884
721.3739575195	0.0001328681
723.3027648926	-0.0001046509
725.2315722656	0.0006043855
727.1603796387	0.0004179509
729.0891870117	0.0003148697
731.0179943848	0.0001381946
732.9468017578	0.0000327148
734.8756091309	0.0004669358
736.8044165039	0.0004396061
738.7332238770	0.0006262001
740.6620312500	0.0003124483
742.5908386230	0.0004075390
744.5196459961	0.0004132060
746.4484533691	0.0001319656
748.3772607422	0.0003628631
750.3060681152	0.0002974097
752.2348754883	0.0005988169
754.1636828613	0.0003678195
756.0924902344	0.0001734108
758.0212976074	0.0002847263
759.9501049805	0.0002082022
761.8789123535	0.0002951065
763.8077197266	0.0004754364
765.7365270996	0.0005558120
767.6653344727	0.0002238191
769.5941418457	0.0002935007
771.5229492188	0.0004217405
773.4517565918	0.0005149136
775.3805639648	0.0001556390
777.3093713379	0.0000370228
779.2381787109	0.0001881497
781.1669860840	0.0004001136
783.0957934570	0.0002987693
785.0246008301	0.0003029963
786.9534082031	0.0005272843
788.8822155762	0.0001676425
790.8110229492	0.0005072034
792.7398303223	0.0007097479
794.6686376953	0.0004064245
796.5974450684	0.0005665431
798.5262524414	0.0007757084
800.4550598145	0.0009950554
802.3838671875	0.0009231994
804.3126745605	0.0008799104
806.2414819336	0.0005709470
808.1702893066	0.0005973863
810.0990966797	0.0007842663
812.0279040527	0.0002690295
813.9567114258	0.0003443285
815.8855187988	0.0003255775
817.8143261719	0.0002920612
819.7431335449	0.0004876020
821.6719409180	0.0003401125
823.6007482910	0.0004761499
825.5295556641	0.0006658947
827.4583630371	0.0007973058
829.3871704102	0.0010522059
831.3159777832	0.0013387958
833.2447851563	0.0015808942
835.1735925293	0.0018254390
837.1023999023	0.0018610923
839.0312072754	0.0018401758
840.9600146484	0.0017251803
842.8888220215	0.0014676682
844.8176293945	0.0013503720
846.7464367676	0.0012510663
848.6752441406	0.0013621214
850.6040515137	0.0010556378
852.5328588867	0.0011027616
854.4616662598	0.0013146129
856.3904736328	0.0006517140
858.3192810059	0.0007006685
860.2480883789	0.0008198941
862.1768957520	0.0006674005
864.1057031250	0.0008226513
866.0345104980	0.0007703974
867.9633178711	0.0004962856
869.8921252441	0.0003229338
871.8209326172	0.0005941236
873.7497399902	0.0004685170
875.6785473633	0.0004651501
877.6073547363	0.0005782208
879.5361621094	0.0002871570
881.4649694824	0.0006032697
883.3937768555	0.0005957138
885.3225842285	0.0004002531
887.2513916016	0.0006665129
889.1801989746	0.0004709475
891.1090063477	0.0002835239
893.0378137207	0.0003159482
894.9666210938	0.0004588995
896.8954284668	0.0007400051
898.8242358398	0.0005636665
900.7530432129	0.0004313519
902.6818505859	0.0007205521
904.6106579590	0.0005981738
906.5394653320	0.0004902137
908.4682727051	0.0007591166
910.3970800781	0.0008168567
912.3258874512	0.0008297777
914.2546948242	0.0010004524
916.1835021973	0.0011631048
918.1123095703	0.0013088051
920.0411169434	0.0014452797
921.9699243164	0.0015554581
923.8987316895	0.0017924757
925.8275390625	0.0018858599
927.7563464355	0.0016691876
929.6851538086	0.0018893400
931.6139611816	0.0023302757
933.5427685547	0.0025391479
935.4715759277	0.0025748862
937.4003833008	0.0024698330
939.3291906738	0.0028787507
941.2579980469	0.0030413503
943.1868054199	0.0028813179
945.1156127930	0.0030611614
947.0444201660	0.0029883282
948.9732275391	0.0030297441
950.9020349121	0.0030883811
952.8308422852	0.0029772653
954.7596496582	0.0027473234
956.6884570313	0.0028478664
958.6172644043	0.0031323868
960.5460717773	0.0028094021
962.4748791504	0.0028905529
964.4036865234	0.0030906675
966.3324938965	0.0030878945
968.2613012695	0.0030666383
970.1901086426	0.0032703269
972.1189160156	0.0037157419
974.0477233887	0.0035987981
975.9765307617	0.0040703653
977.9053381348	0.0045392597
979.8341455078	0.0044912859
981.7629528809	0.0050515775
983.6917602539	0.0056987675
985.6205676270	0.0063245678
987.5493750000	0.0070312722
989.4781823730	0.0077213324
991.4069897461	0.0086631216
993.3357971191	0.0096561853
995.2646044922	0.0103383120
997.1934118652	0.0113322688
999.1222192383	0.0122687528
1001.0510266113	0.0131428447
1002.9798339844	0.0142403562
1004.9086413574	0.0149973016
1006.8374487305	0.0159789659
1008.7662561035	0.0167218838
1010.6950634766	0.0178537890
1012.6238708496	0.0189648867
1014.5526782227	0.0195313450
1016.4814855957	0.0208246782
1018.4102929688	0.0217976570
1020.3391003418	0.0228228066
1022.2679077148	0.0239389334
1024.1967150879	0.0248924736
1026.1255224609	0.0258586109
1028.0543298340	0.0265698954
1029.9831372070	0.0274335463
1031.9119445801	0.0280307904
1033.8407519531	0.0285703707
1035.7695593262	0.0290396772
1037.6983666992	0.0296848118
1039.6271740723	0.0296940804
1041.5559814453	0.0292635486
1043.4847888184	0.0293431859
1045.4135961914	0.0289014503
1047.3424035645	0.0285391659
1049.2712109375	0.0280944109
1051.2000183105	0.0276852846
1053.1288256836	0.0270406287
1055.0576330566	0.0262886658
1056.9864404297	0.0261039920
1058.9152478027	0.0252683982
1060.8440551758	0.0246036910
1062.7728625488	0.0239704736
1064.7016699219	0.0231257491
1066.6304772949	0.0223006643
1068.5592846680	0.0213313904
1070.4880920410	0.0204714015
1072.4168994141	0.0193889327
1074.3457067871	0.0186629891
1076.2745141602	0.0176743940
1078.2033215332	0.0167094879
1080.1321289062	0.0162302591
1082.0609362793	0.0153902601
1083.9897436523	0.0146750901
1085.9185510254	0.0140858777
1087.8473583984	0.0134906713
1089.7761657715	0.0128407776
1091.7049731445	0.0120932870
1093.6337805176	0.0116866287
1095.5625878906	0.0113032851
1097.4913952637	0.0107861888
1099.4202026367	0.0105919205
1101.3490100098	0.0103337374
1103.2778173828	0.0101639908
1105.2066247559	0.0099353716
1107.1354321289	0.0094512831
1109.0642395019	0.0094022723
1110.9930468750	0.0092502963
1112.9218542480	0.0092629455
1114.8506616211	0.0092885103
1116.7794689941	0.0094015235
1118.7082763672	0.0096643688
1120.6370837402	0.0092701698
1122.5658911133	0.0093552200
1124.4946984863	0.0094417296
1126.4235058594	0.0093477694
1128.3523132324	0.0097483695
1130.2811206055	0.0100402124
1132.2099279785	0.0102815228
1134.1387353516	0.0105858557
1136.0675427246	0.0110329315
1137.9963500977	0.0116286008
1139.9251574707	0.0122431507
1141.8539648437	0.0129593797
1143.7827722168	0.0140333548
1145.7115795898	0.0147055201
1147.6403869629	0.0155180506
1149.5691943359	0.0166076310
1151.4980017090	0.0171833560
1153.4268090820	0.0182964280
1155.3556164551	0.0190268196
1157.2844238281	0.0196527019
1159.2132312012	0.0207375214
1161.1420385742	0.0214275904
1163.0708459473	0.0220848732
1164.9996533203	0.0227651820
1166.9284606934	0.0235652626
1168.8572680664	0.0242997818
1170.7860754394	0.0254760738
1172.7148828125	0.0265182219
1174.6436901855	0.0273972359
1176.5724975586	0.0285852123
1178.5013049316	0.0294639599
1180.4301123047	0.0307291914
1182.3589196777	0.0320006907
1184.2877270508	0.0333896019
1186.2165344238	0.0347734466
1188.1453417969	0.0362022966
1190.0741491699	0.0382177122
1192.0029565430	0.0398739204
1193.9317639160	0.0416338071
1195.8605712891	0.0436177999
1197.7893786621	0.0454957299
1199.7181860351	0.0475713760
1201.6469934082	0.0496641919
1203.5758007812	0.0516337007
1205.5046081543	0.0536610335
1207.4334155273	0.0555677637
1209.3622229004	0.0574427396
1211.2910302734	0.0591723882
1213.2198376465	0.0607120655
1215.1486450195	0.0624077283
1217.0774523926	0.0634414032
1219.0062597656	0.0645890385
1220.9350671387	0.0656725243
1222.8638745117	0.0663149506
1224.7926818848	0.0671505779
1226.7214892578	0.0674877614
1228.6502966308	0.0679530501
1230.5791040039	0.0681117699
1232.5079113769	0.0682422593
1234.4367187500	0.0684187785
1236.3655261230	0.0682255030
1238.2943334961	0.0682759807
1240.2231408691	0.0678513646
1242.1519482422	0.0676869452
1244.0807556152	0.0674963593
1246.0095629883	0.0669949353
1247.9383703613	0.0668093264
1249.8671777344	0.0663012788
1251.7959851074	0.0656725466
1253.7247924805	0.0651403219
1255.6535998535	0.0642213747
1257.5824072266	0.0632451177
1259.5112145996	0.0624863729
1261.4400219726	0.0614219904
1263.3688293457	0.0607168823
1265.2976367187	0.0598360524
1267.2264440918	0.0590728968
1269.1552514648	0.0584872849
1271.0840588379	0.0571966767
1273.0128662109	0.0565311462
1274.9416735840	0.0554060042
1276.8704809570	0.0541477948
1278.7992883301	0.0533886217
1280.7280957031	0.0523308665
1282.6569030762	0.0513319336
1284.5857104492	0.0502214804
1286.5145178223	0.0492666513
1288.4433251953	0.0485088266
1290.3721325683	0.0482231975
1292.3009399414	0.0475402251
1294.2297473144	0.0470302254
1296.1585546875	0.0468764752
1298.0873620605	0.0464904308
1300.0161694336	0.0467522964
1301.9449768066	0.0469397679
1303.8737841797	0.0475741215
1305.8025915527	0.0479453430
1307.7313989258	0.0484199151
1309.6602062988	0.0494837984
1311.5890136719	0.0501388460
1313.5178210449	0.0510533974
1315.4466284180	0.0520783141
1317.3754357910	0.0535097457
1319.3042431640	0.0547532886
1321.2330505371	0.0565635338
1323.1618579101	0.0584259070
1325.0906652832	0.0598122813
1327.0194726562	0.0617424548
1328.9482800293	0.0630399585
1330.8770874023	0.0647933334
1332.8058947754	0.0663036704
1334.7347021484	0.0673816502
1336.6635095215	0.0683542117
1338.5923168945	0.0680512339
1340.5211242676	0.0689804927
1342.4499316406	0.0712092817
1344.3787390137	0.0717791766
1346.3075463867	0.0715598464
1348.2363537597	0.0716602206
1350.1651611328	0.0711660683
1352.0939685058	0.0708994418
1354.0227758789	0.0702607706
1355.9515832519	0.0695433244
1357.8803906250	0.0690824538
1359.8091979980	0.0680601448
1361.7380053711	0.0659158230
1363.6668127441	0.0647876114
1365.5956201172	0.0670251548
1367.5244274902	0.0660524145
1369.4532348633	0.0653154328
1371.3820422363	0.0660563111
1373.3108496094	0.0632504523
1375.2396569824	0.0635787249
1377.1684643555	0.0644929707
1379.0972717285	0.0644569620
1381.0260791015	0.0645367205
1382.9548864746	0.0643184334
1384.8836938476	0.0641820133
1386.8125012207	0.0619281828
1388.7413085937	0.0631714612
1390.6701159668	0.0666991919
1392.5989233398	0.0656537488
1394.5277307129	0.0629061759
1396.4565380859	0.0650976747
1398.3853454590	0.0650287569
1400.3141528320	0.0647134185
1402.2429602051	0.0688308626
1404.1717675781	0.0657327324
1406.1005749512	0.0662313849
1408.0293823242	0.0679801255
1409.9581896972	0.0658695698
1411.8869970703	0.0670128167
1413.8158044433	0.0648101717
1415.7446118164	0.0656141192
1417.6734191894	0.0605564490
1419.6022265625	0.0553961061
1421.5310339355	0.0610547662
1423.4598413086	0.0596708804
1425.3886486816	0.0579445809
1427.3174560547	0.0579950884
1429.2462634277	0.0542715527
1431.1750708008	0.0525151379
1433.1038781738	0.0528298765
1435.0326855469	0.0487031192
1436.9614929199	0.0428714529
1438.8903002929	0.0465233698
1440.8191076660	0.0472388715
1442.7479150390	0.0445178822
1444.6767224121	0.0456170365
1446.6055297851	0.0429556742
1448.5343371582	0.0432832539
1450.4631445312	0.0444334894
1452.3919519043	0.0452898964
1454.3207592773	0.0471483432
1456.2495666504	0.0409516096
1458.1783740234	0.0427954122
1460.1071813965	0.0542992204
1462.0359887695	0.0569317862
1463.9647961426	0.0576478019
1465.8936035156	0.0602405481
1467.8224108886	0.0672560036
1469.7512182617	0.0721590966
1471.6800256347	0.0668780878
1473.6088330078	0.0706042647
1475.5376403808	0.0785721689
1477.4664477539	0.0841675922
1479.3952551269	0.0912930146
1481.3240625000	0.0934805423
1483.2528698730	0.0984674096
1485.1816772461	0.1015401036
1487.1104846191	0.1016029343
1489.0392919922	0.1017409414
1490.9680993652	0.1033577621
1492.8969067383	0.1160331815
1494.8257141113	0.1143082827
1496.7545214843	0.1063036844
1498.6833288574	0.1172883287
1500.6121362304	0.1204928234
1502.5409436035	0.1271760464
1504.4697509765	0.1223158091
1506.3985583496	0.0966384858
1508.3273657226	0.1126824170
1510.2561730957	0.1274515688
1512.1849804687	0.1238392070
1514.1137878418	0.1321721673
1516.0425952148	0.1222440079
1517.9714025879	0.1267321557
1519.9002099609	0.1226713136
1521.8290173340	0.1104639769
1523.7578247070	0.1287277043
1525.6866320801	0.1265155375
1527.6154394531	0.1263625324
1529.5442468261	0.1359919310
1531.4730541992	0.1321846694
1533.4018615722	0.1236411929
1535.3306689453	0.1289342344
1537.2594763183	0.1353433430
1539.1882836914	0.1046998650
1541.1170910644	0.1085457653
1543.0458984375	0.1244446859
1544.9747058105	0.1204556972
1546.9035131836	0.1364647299
1548.8323205566	0.1292509437
1550.7611279297	0.1322654337
1552.6899353027	0.1310494393
1554.6187426758	0.1216707826
1556.5475500488	0.1280844063
1558.4763574218	0.0984082669
1560.4051647949	0.1034793556
1562.3339721679	0.1351939887
1564.2627795410	0.1291184574
1566.1915869140	0.1314027011
1568.1203942871	0.1300085634
1570.0492016601	0.1183103174
1571.9780090332	0.1313133389
1573.9068164062	0.1319116354
1575.8356237793	0.1099801809
1577.7644311523	0.1199278235
1579.6932385254	0.1316084862
1581.6220458984	0.1261935383
1583.5508532715	0.1284410655
1585.4796606445	0.1263719201
1587.4084680175	0.1260920465
1589.3372753906	0.1249316633
1591.2660827636	0.1237799525
1593.1948901367	0.1233259216
1595.1236975097	0.1212956458
1597.0525048828	0.1215078384
1598.9813122558	0.1201158613
1600.9101196289	0.1197062135
1602.8389270019	0.1171544343
1604.7677343750	0.1176231802
1606.6965417480	0.1153714955
1608.6253491211	0.1140823662
1610.5541564941	0.1127393320
1612.4829638672	0.1120855212
1614.4117712402	0.1123972088
1616.3405786132	0.0952450931
1618.2693859863	0.1005728692
1620.1981933593	0.1123068780
1622.1270007324	0.1013840362
1624.0558081054	0.1013720259
1625.9846154785	0.1041332558
1627.9134228515	0.1037243307
1629.8422302246	0.1027111486
1631.7710375976	0.1075693220
1633.6998449707	0.1011909246
1635.6286523437	0.0874110758
1637.5574597168	0.0983361602
1639.4862670898	0.1057985350
1641.4150744629	0.1041633412
1643.3438818359	0.1067155525
1645.2726892090	0.0990092009
1647.2014965820	0.0905972868
1649.1303039550	0.1076907218
1651.0591113281	0.1032777354
1652.9879187011	0.0745031163
1654.9167260742	0.0949532092
1656.8455334472	0.1140688360
1658.7743408203	0.1107181162
1660.7031481933	0.1142921150
1662.6319555664	0.1071135178
1664.5607629394	0.1124228090
1666.4895703125	0.1193896756
1668.4183776855	0.1088499278
1670.3471850586	0.1075970083
1672.2759924316	0.1191687733
1674.2047998047	0.1131327748
1676.1336071777	0.1104612052
1678.0624145507	0.1237554848
1679.9912219238	0.1211828664
1681.9200292968	0.1216481179
1683.8488366699	0.1042543724
1685.7776440429	0.1037477627
1687.7064514160	0.1340858489
1689.6352587890	0.1207549423
1691.5640661621	0.1306917369
1693.4928735351	0.1337461472
1695.4216809082	0.1050581783
1697.3504882812	0.1244313866
1699.2792956543	0.1142037734
1701.2081030273	0.1058053374
1703.1369104004	0.1346782744
1705.0657177734	0.1265958548
1706.9945251464	0.1277748048
1708.9233325195	0.1367081702
1710.8521398925	0.1328838468
1712.7809472656	0.1353801042
1714.7097546386	0.1284074187
1716.6385620117	0.1182260513
1718.5673693847	0.1169302166
1720.4961767578	0.1340914816
1722.4249841308	0.1376913190
1724.3537915039	0.1305050105
1726.2825988769	0.1397514343
1728.2114062500	0.1311736554
1730.1402136230	0.1328863502
1732.0690209961	0.1297621131
1733.9978283691	0.1058902070
1735.9266357421	0.1249225140
1737.8554431152	0.1352887154
1739.7842504882	0.1241393387
1741.7130578613	0.1328784227
1743.6418652343	0.1349084973
1745.5706726074	0.1352482587
1747.4994799804	0.1370365620
1749.4282873535	0.1327048689
1751.3570947265	0.1280527413
1753.2859020996	0.1388664097
1755.2147094726	0.1442793906
1757.1435168457	0.1348593533
1759.0723242187	0.1449712813
1761.0011315918	0.1385346800
1762.9299389648	0.1349429786
1764.8587463379	0.1496332586
1766.7875537109	0.1379683018
1768.7163610839	0.1390581727
1770.6451684570	0.1389286220
1772.5739758300	0.1279563904
1774.5027832031	0.1390159130
1776.4315905761	0.1452107728
1778.3603979492	0.1435311586
1780.2892053222	0.1424864829
1782.2180126953	0.1433571130
1784.1468200683	0.1431944370
1786.0756274414	0.1411760747
1788.0044348144	0.1465755701
1789.9332421875	0.1438379288
1791.8620495605	0.1336085051
1793.7908569336	0.1378217638
1795.7196643066	0.1455211043
1797.6484716796	0.1440589428
1799.5772790527	0.1423997134
1801.5060864257	0.1406192183
1803.4348937988	0.1439931989
1805.3637011718	0.1463843286
1807.2925085449	0.1448183060
1809.2213159179	0.1454544812
1811.1501232910	0.1425603330
1813.0789306640	0.1457739174
1815.0077380371	0.1461671889
1816.9365454101	0.1449390501
1818.8653527832	0.1460080743
1820.7941601562	0.1453098059
1822.7229675293	0.1471138149
1824.6517749023	0.1398808062
1826.5805822753	0.1434563696
1828.5093896484	0.1436793208
1830.4381970214	0.1370964497
1832.3670043945	0.1461367607
1834.2958117675	0.1452829093
1836.2246191406	0.1452455670
1838.1534265136	0.1447342038
1840.0822338867	0.1452169120
1842.0110412597	0.1453769654
1843.9398486328	0.1328786314
1845.8686560058	0.1393176019
1847.7974633789	0.1452139020
1849.7262707519	0.1427034736
1851.6550781250	0.1457330585
1853.5838854980	0.1435616314
1855.5126928710	0.1444122195
1857.4415002441	0.1437495649
1859.3703076171	0.1430492848
1861.2991149902	0.1437258422
1863.2279223632	0.1424572766
1865.1567297363	0.1434103847
1867.0855371093	0.1399102211
1869.0143444824	0.1355735660
1870.9431518554	0.1394489706
1872.8719592285	0.1432755142
1874.8007666015	0.1413967907
1876.7295739746	0.1419464797
1878.6583813476	0.1415744126
1880.5871887207	0.1408266127
1882.5159960937	0.1415935755
1884.4448034667	0.1400013268
1886.3736108398	0.1413458586
1888.3024182128	0.1388635635
1890.2312255859	0.1368075609
1892.1600329589	0.1405511498
1894.0888403320	0.1391585320
1896.0176477050	0.1384844482
1897.9464550781	0.1395148635
1899.8752624511	0.1389015168
1901.8040698242	0.1390567869
1903.7328771972	0.1382755041
1905.6616845703	0.1385321021
1907.5904919433	0.1375945807
1909.5192993164	0.1369955689
1911.4481066894	0.1372904629
1913.3769140625	0.1373164654
1915.3057214355	0.1383540034
1917.2345288085	0.1336043477
1919.1633361816	0.1337466985
1921.0921435546	0.1374132186
1923.0209509277	0.1341193020
1924.9497583007	0.1361996233
1926.8785656738	0.1369819343
1928.8073730468	0.1356915981
1930.7361804199	0.1367701590
1932.6649877929	0.1355272233
1934.5937951660	0.1364474297
1936.5226025390	0.1354401410
1938.4514099121	0.1358003318
1940.3802172851	0.1356845796
1942.3090246582	0.1324191242
1944.2378320312	0.1340333372
1946.1666394042	0.1350525022
1948.0954467773	0.1347633898
1950.0242541503	0.1349889636
1951.9530615234	0.1347701848
1953.8818688964	0.1348214746
1955.8106762695	0.1342639923
1957.7394836425	0.1342787445
1959.6682910156	0.1340919286
1961.5970983886	0.1338680685
1963.5259057617	0.1340175271
1965.4547131347	0.1333858669
1967.3835205078	0.1324881464
1969.3123278808	0.1331385374
1971.2411352539	0.1335020661
1973.1699426269	0.1329887807
1975.0987499999	0.1332786083
1977.0275573730	0.1327042133
1978.9563647460	0.1325523853
1980.8851721191	0.1324330121
1982.8139794921	0.1320478320
1984.7427868652	0.1320388913
1986.6715942382	0.1311550140
1988.6004016113	0.1312772632
1990.5292089843	0.1303607523
1992.4580163574	0.1291097850
1994.3868237304	0.1304320097
1996.3156311035	0.1305224299
1998.2444384765	0.1297946274
2000.1732458496	0.1298146248
2002.1020532226	0.1293165684
2004.0308605956	0.1291211843
2005.9596679687	0.1288114786
2007.8884753417	0.1284666657
2009.8172827148	0.1283220351
2011.7460900878	0.1278321445
2013.6748974609	0.1276983321
2015.6037048339	0.1269356906
2017.5325122070	0.1261626035
2019.4613195800	0.1265403032
2021.3901269531	0.1264050305
2023.3189343261	0.1259584576
2025.2477416992	0.1257669926
2027.1765490722	0.1253358275
2029.1053564453	0.1250561774
2031.0341638183	0.1248487085
2032.9629711914	0.1244289279
2034.8917785644	0.1241625398
2036.8205859374	0.1240265965
2038.7493933105	0.1235664412
2040.6782006835	0.1228267252
2042.6070080566	0.1226906776
2044.5358154296	0.1226101965
2046.4646228027	0.1221458912
2048.3934301757	0.1221174002
2050.3222375488	0.1217522547
2052.2510449218	0.1214116812
2054.1798522949	0.1212665290
2056.1086596679	0.1209830493
2058.0374670410	0.1207540631
2059.9662744140	0.1202616543
2061.8950817871	0.1201193631
2063.8238891601	0.1195488125
2065.7526965331	0.1190647408
2067.6815039062	0.1192160696
2069.6103112792	0.1189606339
2071.5391186523	0.1186670661
2073.4679260253	0.1184692979
2075.3967333984	0.1183479279
2077.3255407714	0.1179241762
2079.2543481445	0.1176589131
2081.1831555175	0.1174778938
2083.1119628906	0.1171545833
2085.0407702636	0.1169780642
2086.9695776367	0.1166227609
2088.8983850097	0.1164039373
2090.8271923828	0.1160805970
2092.7559997558	0.1160202324
2094.6848071288	0.1157502681
2096.6136145019	0.1154069826
2098.5424218749	0.1154537499
2100.4712292480	0.1150607020
2102.4000366210	0.1148182005
2104.3288439941	0.1145910025
2106.2576513671	0.1144453809
2108.1864587402	0.1142898872
2110.1152661132	0.1140379906
2112.0440734863	0.1138397455
2113.9728808593	0.1135676950
2115.9016882324	0.1134319603
2117.8304956054	0.1131848246
2119.7593029785	0.1131279171
2121.6881103515	0.1128915995
2123.6169177245	0.1127866209
2125.5457250976	0.1126240715
2127.4745324706	0.1122509614
2129.4033398437	0.1121633649
2131.3321472167	0.1118936017
2133.2609545898	0.1119309217
2135.1897619628	0.1116772145
2137.1185693359	0.1114769727
2139.0473767089	0.1114900112
2140.9761840820	0.1112763435
2142.9049914550	0.1112301201
2144.8337988281	0.1109390706
2146.7626062011	0.1109313369
2148.6914135742	0.1108293980
2150.6202209472	0.1104971021
2152.5490283203	0.1103688478
2154.4778356933	0.1104205698
2156.4066430663	0.1102523357
2158.3354504394	0.1098844558
2160.2642578124	0.1099903286
2162.1930651855	0.1098556817
2164.1218725585	0.1096938103
2166.0506799316	0.1096199825
2167.9794873046	0.1094736531
2169.9082946777	0.1092999205
2171.8371020507	0.1091850102
2173.7659094238	0.1092544049
2175.6947167968	0.1089980900
2177.6235241699	0.1088522002
2179.5523315429	0.1087222248
2181.4811389160	0.1086733937
2183.4099462890	0.1085764468
2185.3387536620	0.1084436178
2187.2675610351	0.1084321439
2189.1963684081	0.1081968695
2191.1251757812	0.1081471071
2193.0539831542	0.1079103276
2194.9827905273	0.1078710482
2196.9115979003	0.1078735143
2198.8404052734	0.1076468080
2200.7692126464	0.1076245606
2202.6980200195	0.1075244695
2204.6268273925	0.1073137075
2206.5556347656	0.1070756093
2208.4844421386	0.1071696728
2210.4132495117	0.1069406718
2212.3420568847	0.1068111509
2214.2708642577	0.1068609804
2216.1996716308	0.1066019461
2218.1284790038	0.1066378579
2220.0572863769	0.1064429879
2221.9860937499	0.1063438505
2223.9149011230	0.1062144637
2225.8437084960	0.1059920937
2227.7725158691	0.1059624031
2229.7013232421	0.1058624983
2231.6301306152	0.1057642624
2233.5589379882	0.1055338383
2235.4877453613	0.1054495722
2237.4165527343	0.1053098515
2239.3453601074	0.1051480174
2241.2741674804	0.1048693210
2243.2029748534	0.1046633646
2245.1317822265	0.1046386361
2247.0605895995	0.1045271009
2248.9893969726	0.1044780239
2250.9182043456	0.1042453647
2252.8470117187	0.1042569131
2254.7758190917	0.1039599329
2256.7046264648	0.1037205756
2258.6334338378	0.1039322466
2260.5622412109	0.1036399081
2262.4910485839	0.1034182534
2264.4198559570	0.1033058837
2266.3486633300	0.1031912267
2268.2774707031	0.1031016037
2270.2062780761	0.1029977202
2272.1350854491	0.1028549597
2274.0638928222	0.1027673408
2275.9927001952	0.1026229709
2277.9215075683	0.1024533436
2279.8503149413	0.1026016623
2281.7791223144	0.1023671776
2283.7079296874	0.1023065150
2285.6367370605	0.1021865755
2287.5655444335	0.1018690392
2289.4943518066	0.1018131971
2291.4231591796	0.1014613360
2293.3519665527	0.1014240384
2295.2807739257	0.1011134163
2297.2095812988	0.1006907225
2299.1383886718	0.1005360037
2301.0671960449	0.1000573263
2302.9960034179	0.0996398106
2304.9248107909	0.0992373228
2306.8536181640	0.0988252684
2308.7824255370	0.0982003063
2310.7112329101	0.0975625515
2312.6400402831	0.0967513993
2314.5688476562	0.0959041715
2316.4976550292	0.0951878577
2318.4264624023	0.0939504355
2320.3552697753	0.0929352045
2322.2840771484	0.0919819027
2324.2128845214	0.0909979269
2326.1416918945	0.0902971029
2328.0704992675	0.0893461406
2329.9993066406	0.0884993970
2331.9281140136	0.0880021602
2333.8569213866	0.0877619982
2335.7857287597	0.0874596164
2337.7145361327	0.0873206332
2339.6433435058	0.0874115825
2341.5721508788	0.0876740664
2343.5009582519	0.0886632577
2345.4297656249	0.0899874568
2347.3585729980	0.0928065777
2349.2873803710	0.0950360894
2351.2161877441	0.0925274640
2353.1449951171	0.0888549238
2355.0738024902	0.0863240659
2357.0026098632	0.0840098709
2358.9314172363	0.0827076286
2360.8602246093	0.0818845332
2362.7890319823	0.0817615241
2364.7178393554	0.0820474252
2366.6466467284	0.0827782080
2368.5754541015	0.0841770768
2370.5042614745	0.0856764615
2372.4330688476	0.0876813531
2374.3618762206	0.0895137042
2376.2906835937	0.0912533104
2378.2194909667	0.0928862691
2380.1482983398	0.0941398740
2382.0771057128	0.0951086581
2384.0059130859	0.0955203772
2385.9347204589	0.0957834572
2387.8635278320	0.0957452133
2389.7923352050	0.0957459658
2391.7211425780	0.0957328230
2393.6499499511	0.0956338495
2395.5787573241	0.0955560356
2397.5075646972	0.0952921137
2399.4363720702	0.0953205526
2401.3651794433	0.0951011032
2403.2939868163	0.0948326588
2405.2227941894	0.0948660374
2407.1516015624	0.0946926475
2409.0804089355	0.0945258737
2411.0092163085	0.0944619030
2412.9380236816	0.0942264795
2414.8668310546	0.0941503271
2416.7956384277	0.0942373127
2418.7244458007	0.0939717069
2420.6532531738	0.0938590765
2422.5820605468	0.0936098322
2424.5108679198	0.0934605896
2426.4396752929	0.0935411602
2428.3684826659	0.0932285339
2430.2972900390	0.0932734087
2432.2260974120	0.0932144225
2434.1549047851	0.0929562300
2436.0837121581	0.0928291976
2438.0125195312	0.0926856622
2439.9413269042	0.0925637037
2441.8701342773	0.0924960822
2443.7989416503	0.0926123708
2445.7277490234	0.0923450589
2447.6565563964	0.0922115743
2449.5853637695	0.0921428502
2451.5141711425	0.0918553770
2453.4429785155	0.0917745084
2455.3717858886	0.0916908234
2457.3005932616	0.0916609466
2459.2294006347	0.0914303809
2461.1582080077	0.0913506374
2463.0870153808	0.0912566632
2465.0158227538	0.0910041183
2466.9446301269	0.0910095870
2468.8734374999	0.0909114704
2470.8022448730	0.0908463746
2472.7310522460	0.0906242728
2474.6598596191	0.0904043019
2476.5886669921	0.0904638320
2478.5174743652	0.0903316662
2480.4462817382	0.0900796801
2482.3750891112	0.0900282860
2484.3038964843	0.0899733081
2486.2327038573	0.0897815004
2488.1615112304	0.0897406340
2490.0903186034	0.0896170735
2492.0191259765	0.0894309431
2493.9479333495	0.0893374085
2495.8767407226	0.0891816318
2497.8055480956	0.0890266672
2499.7343554687	0.0888982564
2501.6631628417	0.0888365582
2503.5919702148	0.0887580439
2505.5207775878	0.0886572152
2507.4495849609	0.0885177702
2509.3783923339	0.0884049982
2511.3071997069	0.0883239806
2513.2360070800	0.0881667882
2515.1648144530	0.0880859643
2517.0936218261	0.0880315304
2519.0224291991	0.0878810063
2520.9512365722	0.0876465663
2522.8800439452	0.0875394344
2524.8088513183	0.0875057131
2526.7376586913	0.0873769373
2528.6664660644	0.0873486102
2530.5952734374	0.0871293619
2532.5240808105	0.0868648440
2534.4528881835	0.0869515091
2536.3816955566	0.0868080109
2538.3105029296	0.0866056085
2540.2393103027	0.0865235254
2542.1681176757	0.0863679498
2544.0969250487	0.0863622427
2546.0257324218	0.0861609653
2547.9545397948	0.0860290229
2549.8833471679	0.0859576464
2551.8121545409	0.0858251154
2553.7409619140	0.0857981294
2555.6697692870	0.0856052712
2557.5985766601	0.0855866969
2559.5273840331	0.0853975862
2561.4561914062	0.0852349252
2563.3849987792	0.0852481425
2565.3138061523	0.0850847512
2567.2426135253	0.0849542171
2569.1714208984	0.0847705826
2571.1002282714	0.0847858638
2573.0290356444	0.0845133364
2574.9578430175	0.0844259635
2576.8866503905	0.0844784081
2578.8154577636	0.0841574818
2580.7442651366	0.0842100009
2582.6730725097	0.0839918405
2584.6018798827	0.0838659704
2586.5306872558	0.0837433040
2588.4594946288	0.0834796950
2590.3883020019	0.0835462958
2592.3171093749	0.0833412260
2594.2459167480	0.0833014101
2596.1747241210	0.0831776410
2598.1035314941	0.0829568580
2600.0323388671	0.0829515606
2601.9611462401	0.0828488469
2603.8899536132	0.0826741904
2605.8187609862	0.0825067982
2607.7475683593	0.0824288428
2609.6763757323	0.0822803080
2611.6051831054	0.0822166055
2613.5339904784	0.0820449665
2615.4627978515	0.0819035470
2617.3916052245	0.0818394870
2619.3204125976	0.0817147195
2621.2492199706	0.0816683024
2623.1780273437	0.0814091414
2625.1068347167	0.0812744200
2627.0356420898	0.0811907202
2628.9644494628	0.0810459107
2630.8932568358	0.0808944255
2632.8220642089	0.0808283687
2634.7508715819	0.0807559043
2636.6796789550	0.0805199891
2638.6084863280	0.0805376843
2640.5372937011	0.0802869275
2642.4661010741	0.0800978690
2644.3949084472	0.0800652727
2646.3237158202	0.0799147040
2648.2525231933	0.0799663067
2650.1813305663	0.0797204971
2652.1101379394	0.0796082169
2654.0389453124	0.0795246363
2655.9677526855	0.0793026239
2657.8965600585	0.0792517066
2659.8253674315	0.0790826604
2661.7541748046	0.0790423751
2663.6829821776	0.0789143741
2665.6117895507	0.0786098018
2667.5405969237	0.0785005391
2669.4694042968	0.0785314217
2671.3982116698	0.0783972815
2673.3270190429	0.0782248825
2675.2558264159	0.0781460926
2677.1846337890	0.0779183209
2679.1134411620	0.0777980685
2681.0422485351	0.0777198225
2682.9710559081	0.0775930882
2684.8998632812	0.0775112957
2686.8286706542	0.0774116516
2688.7574780273	0.0773508400
2690.6862854003	0.0770899206
2692.6150927733	0.0768918991
2694.5439001464	0.0769183412
2696.4727075194	0.0767625645
2698.4015148925	0.0765194520
2700.3303222655	0.0763557702
2702.2591296386	0.0762981027
2704.1879370116	0.0762064680
2706.1167443847	0.0760596693
2708.0455517577	0.0760066509
2709.9743591308	0.0758146122
2711.9031665038	0.0755992830
2713.8319738769	0.0755856484
2715.7607812499	0.0754997805
2717.6895886230	0.0752441138
2719.6183959960	0.0751290321
2721.5472033690	0.0751323700
2723.4760107421	0.0749611109
2725.4048181151	0.0748245120
2727.3336254882	0.0747223422
2729.2624328612	0.0744651183
2731.1912402343	0.0742188841
2733.1200476073	0.0742164552
2735.0488549804	0.0742482990
2736.9776623534	0.0739897490
2738.9064697265	0.0737666190
2740.8352770995	0.0737109035
2742.7640844726	0.0736559182
2744.6928918456	0.0734414309
2746.6216992187	0.0732656419
2748.5505065917	0.0731902272
2750.4793139647	0.0729846805
2752.4081213378	0.0728763491
2754.3369287108	0.0727178603
2756.2657360839	0.0726003051
2758.1945434569	0.0725249872
2760.1233508300	0.0723898560
2762.0521582030	0.0722422972
2763.9809655761	0.0719845444
2765.9097729491	0.0718719512
2767.8385803222	0.0717141405
2769.7673876952	0.0716105103
2771.6961950683	0.0714193210
2773.6250024413	0.0712510124
2775.5538098144	0.0712426454
2777.4826171874	0.0709577724
2779.4114245604	0.0708628148
2781.3402319335	0.0706285238
2783.2690393065	0.0704354942
2785.1978466796	0.0704371184
2787.1266540526	0.0701496452
2789.0554614257	0.0700462013
2790.9842687987	0.0699457601
2792.9130761718	0.0698237941
2794.8418835448	0.0696880743
2796.7706909179	0.0694759712
2798.6994982909	0.0693245083
2800.6283056640	0.0691090077
2802.5571130370	0.0689276606
2804.4859204101	0.0688453019
2806.4147277831	0.0686297864
2808.3435351562	0.0683078170
2810.2723425292	0.0683421716
2812.2011499022	0.0681748241
2814.1299572753	0.0678029805
2816.0587646483	0.0677974895
2817.9875720214	0.0676919222
2819.9163793944	0.0674849302
2821.8451867675	0.0673176050
2823.7739941405	0.0670426488
2825.7028015136	0.0668518245
2827.6316088866	0.0667851269
2829.5604162597	0.0665280521
2831.4892236327	0.0664386675
2833.4180310058	0.0662922561
2835.3468383788	0.0659419000
2837.2756457519	0.0658754632
2839.2044531249	0.0655603558
2841.1332604979	0.0652006418
2843.0620678710	0.0648647696
2844.9908752440	0.0644990951
2846.9196826171	0.0640973151
2848.8484899901	0.0635945946
2850.7772973632	0.0634256676
2852.7061047362	0.0631846339
2854.6349121093	0.0631008744
2856.5637194823	0.0631228089
2858.4925268554	0.0630233735
2860.4213342284	0.0629091710
2862.3501416015	0.0627824292
2864.2789489745	0.0627086312
2866.2077563476	0.0623870231
2868.1365637206	0.0622961447
2870.0653710936	0.0621486157
2871.9941784667	0.0619647950
2873.9229858397	0.0619509704
2875.8517932128	0.0617480762
2877.7806005858	0.0615808964
2879.7094079589	0.0612923428
2881.6382153319	0.0612284094
2883.5670227050	0.0611129478
2885.4958300780	0.0608013943
2887.4246374511	0.0606347322
2889.3534448241	0.0604773052
2891.2822521972	0.0603436902
2893.2110595702	0.0601106733
2895.1398669433	0.0598833486
2897.0686743163	0.0595500134
2898.9974816893	0.0593725815
2900.9262890624	0.0591910668
2902.8550964354	0.0588380285
2904.7839038085	0.0585722104
2906.7127111815	0.0582629889
2908.6415185546	0.0580206439
2910.5703259276	0.0576212220
2912.4991333007	0.0572744384
2914.4279406737	0.0569505170
2916.3567480468	0.0565082282
2918.2855554198	0.0561611727
2920.2143627929	0.0559728332
2922.1431701659	0.0557461083
2924.0719775390	0.0554915145
2926.0007849120	0.0556116253
2927.9295922851	0.0553762019
2929.8583996581	0.0551986061
2931.7872070311	0.0552816503
2933.7160144042	0.0551485717
2935.6448217772	0.0551540107
2937.5736291503	0.0549866334
2939.5024365233	0.0549181923
2941.4312438964	0.0547736958
2943.3600512694	0.0546832122
2945.2888586425	0.0545877069
2947.2176660155	0.0541816466
2949.1464733886	0.0541091114
2951.0752807616	0.0539402738
2953.0040881347	0.0536204055
2954.9328955077	0.0533222705
2956.8617028808	0.0530840158
2958.7905102538	0.0528800637
2960.7193176268	0.0526749417
2962.6481249999	0.0524565466
2964.5769323729	0.0520459488
2966.5057397460	0.0519044623
2968.4345471190	0.0518575870
2970.3633544921	0.0518075600
2972.2921618651	0.0517304204
2974.2209692382	0.0515938364
2976.1497766112	0.0515472554
2978.0785839843	0.0513922535
2980.0073913573	0.0511597991
2981.9361987304	0.0510235652
2983.8650061034	0.0510076433
2985.7938134765	0.0506882817
2987.7226208495	0.0504993759
2989.6514282225	0.0503398776
2991.5802355956	0.0500845686
2993.5090429686	0.0500234738
2995.4378503417	0.0496053584
2997.3666577147	0.0494271740
2999.2954650878	0.0492377877
3001.2242724608	0.0488801822
3003.1530798339	0.0487019792
3005.0818872069	0.0484171137
3007.0106945800	0.0482496060
3008.9395019530	0.0479176864
3010.8683093261	0.0476614758
3012.7971166991	0.0474227965
3014.7259240722	0.0471655428
3016.6547314452	0.0469789952
3018.5835388182	0.0465578772
3020.5123461913	0.0463440493
3022.4411535643	0.0461115614
3024.3699609374	0.0458167940
3026.2987683104	0.0455930606
3028.2275756835	0.0452709422
3030.1563830565	0.0449803621
3032.0851904296	0.0447504334
3034.0139978026	0.0445300564
3035.9428051757	0.0441866741
3037.8716125487	0.0439026617
3039.8004199218	0.0436426513
3041.7292272948	0.0433281027
3043.6580346679	0.0430849493
3045.5868420409	0.0428104997
3047.5156494139	0.0425716676
3049.4444567870	0.0423920602
3051.3732641600	0.0421054512
3053.3020715331	0.0417957976
3055.2308789061	0.0414961725
3057.1596862792	0.0411713794
3059.0884936522	0.0409300514
3061.0173010253	0.0406138524
3062.9461083983	0.0403497033
3064.8749157714	0.0400934070
3066.8037231444	0.0397376940
3068.7325305175	0.0395147353
3070.6613378905	0.0392440297
3072.5901452636	0.0390082002
3074.5189526366	0.0387856960
3076.4477600097	0.0385625884
3078.3765673827	0.0382766947
3080.3053747557	0.0378861390
3082.2341821288	0.0377184637
3084.1629895018	0.0373636112
3086.0917968749	0.0370425023
3088.0206042479	0.0369600132
3089.9494116210	0.0365854576
3091.8782189940	0.0362720191
3093.8070263671	0.0360074639
3095.7358337401	0.0356558934
3097.6646411132	0.0354803726
3099.5934484862	0.0351714119
3101.5222558593	0.0347742215
3103.4510632323	0.0345189348
3105.3798706054	0.0342723578
3107.3086779784	0.0340815820
3109.2374853514	0.0338311419
3111.1662927245	0.0335007645
3113.0951000975	0.0333313048
3115.0239074706	0.0330718011
3116.9527148436	0.0326048322
3118.8815222167	0.0324060805
3120.8103295897	0.0321962014
3122.7391369628	0.0317885317
3124.6679443358	0.0316007808
3126.5967517089	0.0313119963
3128.5255590819	0.0310075879
3130.4543664550	0.0308025833
3132.3831738280	0.0305111706
3134.3119812011	0.0301801190
3136.2407885741	0.0299540237
3138.1695959471	0.0298829507
3140.0984033202	0.0294847824
3142.0272106932	0.0292722266
3143.9560180663	0.0291478075
3145.8848254393	0.0287557095
3147.8136328124	0.0285372548
3149.7424401854	0.0281561911
3151.6712475585	0.0279189907
3153.6000549315	0.0277821291
3155.5288623046	0.0275857653
3157.4576696776	0.0273198597
3159.3864770507	0.0270482078
3161.3152844237	0.0269393213
3163.2440917968	0.0265834853
3165.1728991698	0.0264825486
3167.1017065428	0.0262886174
3169.0305139159	0.0259759594
3170.9593212889	0.0259018354
3172.8881286620	0.0256495830
3174.8169360350	0.0255086534
3176.7457434081	0.0252624750
3178.6745507811	0.0250880104
3180.6033581542	0.0249264836
3182.5321655272	0.0246717706
3184.4609729003	0.0245889910
3186.3897802733	0.0243725553
3188.3185876464	0.0241626687
3190.2473950194	0.0240109749
3192.1762023925	0.0238916501
3194.1050097655	0.0237062611
3196.0338171386	0.0235408656
3197.9626245116	0.0234186109
3199.8914318846	0.0232833084
3201.8202392577	0.0231520683
3203.7490466307	0.0229748413
3205.6778540038	0.0229391567
3207.6066613768	0.0228174962
3209.5354687499	0.0226818658
3211.4642761229	0.0224938430
3213.3930834960	0.0224157125
3215.3218908690	0.0224132612
3217.2506982421	0.0221424606
3219.1795056151	0.0221386924
3221.1083129882	0.0221238323
3223.0371203612	0.0220057741
3224.9659277343	0.0219311602
3226.8947351073	0.0218280200
3228.8235424803	0.0218567327
3230.7523498534	0.0217643268
3232.6811572264	0.0216263272
3234.6099645995	0.0215565786
3236.5387719725	0.0214957893
3238.4675793456	0.0214082003
3240.3963867186	0.0214050692
3242.3251940917	0.0213323794
3244.2540014647	0.0212609973
3246.1828088378	0.0213282146
3248.1116162108	0.0212146044
3250.0404235839	0.0212013051
3251.9692309569	0.0212160330
3253.8980383300	0.0211196616
3255.8268457030	0.0210839417
3257.7556530760	0.0211065598
3259.6844604491	0.0210921280
3261.6132678221	0.0210184883
3263.5420751952	0.0210146606
3265.4708825682	0.0209952444
3267.3996899413	0.0210276395
3269.3284973143	0.0208777376
3271.2573046874	0.0207973085
3273.1861120604	0.0209033154
3275.1149194335	0.0208217651
3277.0437268065	0.0208445638
3278.9725341796	0.0208110511
3280.9013415526	0.0207724161
3282.8301489257	0.0208057966
3284.7589562987	0.0207341723
3286.6877636717	0.0206835251
3288.6165710448	0.0206978768
3290.5453784178	0.0206774715
3292.4741857909	0.0205979291
3294.4029931639	0.0207118168
3296.3318005370	0.0206737686
3298.2606079100	0.0205052961
3300.1894152831	0.0205810275
3302.1182226561	0.0206129104
3304.0470300292	0.0205380097
3305.9758374022	0.0205104612
3307.9046447753	0.0205205809
3309.8334521483	0.0204840973
3311.7622595214	0.0204693805
3313.6910668944	0.0204413012
3315.6198742675	0.0203951225
3317.5486816405	0.0203504302
3319.4774890135	0.0202865731
3321.4062963866	0.0202722698
3323.3351037596	0.0203003101
3325.2639111327	0.0202868208
3327.1927185057	0.0202008132
3329.1215258788	0.0203041360
3331.0503332518	0.0203356482
3332.9791406249	0.0201992504
3334.9079479979	0.0201942734
3336.8367553710	0.0201514903
3338.7655627440	0.0201649182
3340.6943701171	0.0202109776
3342.6231774901	0.0201290362
3344.5519848632	0.0200801454
3346.4807922362	0.0200928468
3348.4095996092	0.0200348161
3350.3384069823	0.0200567059
3352.2672143553	0.0201174188
3354.1960217284	0.0200923141
3356.1248291014	0.0200843252
3358.0536364745	0.0200532489
3359.9824438475	0.0200786479
3361.9112512206	0.0199896842
3363.8400585936	0.0200054049
3365.7688659667	0.0200821832
3367.6976733397	0.0199218653
3369.6264807128	0.0200463720
3371.5552880858	0.0202019997
3373.4840954589	0.0200888738
3375.4129028319	0.0200525355
3377.3417102049	0.0201308634
3379.2705175780	0.0200886037
3381.1993249510	0.0201366730
3383.1281323241	0.0202804692
3385.0569396971	0.0201337859
3386.9857470702	0.0200734921
3388.9145544432	0.0202340409
3390.8433618163	0.0203354862
3392.7721691893	0.0202158578
3394.7009765624	0.0202046763
3396.6297839354	0.0202869605
3398.5585913085	0.0203036144
3400.4873986815	0.0204565004
3402.4162060546	0.0204135589
3404.3450134276	0.0205182172
3406.2738208006	0.0205877796
3408.2026281737	0.0205755625
3410.1314355467	0.0207292736
3412.0602429198	0.0205911584
3413.9890502928	0.0206989571
3415.9178576659	0.0208546668
3417.8466650389	0.0208315365
3419.7754724120	0.0208870117
3421.7042797850	0.0208763797
3423.6330871581	0.0209931713
3425.5618945311	0.0210897177
3427.4907019042	0.0211426895
3429.4195092772	0.0211884007
3431.3483166503	0.0211290698
3433.2771240233	0.0212243628
3435.2059313963	0.0213738270
3437.1347387694	0.0213121511
3439.0635461424	0.0214371849
3440.9923535155	0.0215535834
3442.9211608885	0.0215467997
3444.8499682616	0.0216475949
3446.7787756346	0.0215129368
3448.7075830077	0.0216074251
3450.6363903807	0.0218515731
3452.5651977538	0.0219440982
3454.4940051268	0.0220715031
3456.4228124999	0.0220919997
3458.3516198729	0.0221106634
3460.2804272460	0.0221514031
3462.2092346190	0.0222414546
3464.1380419921	0.0222963691
3466.0668493651	0.0224258788
3467.9956567381	0.0224760920
3469.9244641112	0.0224934891
3471.8532714842	0.0226806737
3473.7820788573	0.0227738284
3475.7108862303	0.0229153968
3477.6396936034	0.0229595378
3479.5685009764	0.0229210742
3481.4973083495	0.0228498727
3483.4261157225	0.0230488740
3485.3549230956	0.0233078673
3487.2837304686	0.0231536515
3489.2125378417	0.0232601985
3491.1413452147	0.0234436505
3493.0701525878	0.0235665739
3494.9989599608	0.0236834213
3496.9277673338	0.0237044953
3498.8565747069	0.0238374919
3500.7853820799	0.0238887314
3502.7141894530	0.0236511342
3504.6429968260	0.0237390697
3506.5718041991	0.0242787320
3508.5006115721	0.0241090506
3510.4294189452	0.0240111202
3512.3582263182	0.0243329164
3514.2870336913	0.0244955309
3516.2158410643	0.0246481635
3518.1446484374	0.0245684907
3520.0734558104	0.0247606244
3522.0022631835	0.0246819295
3523.9310705565	0.0245684348
3525.8598779295	0.0247891117
3527.7886853026	0.0247354172
3529.7174926756	0.0250221975
3531.6463000487	0.0253518261
3533.5751074217	0.0254643261
3535.5039147948	0.0253898315
3537.4327221678	0.0254052058
3539.3615295409	0.0257336684
3541.2903369139	0.0258325413
3543.2191442870	0.0258382633
3545.1479516600	0.0254232846
3547.0767590331	0.0251867101
3549.0055664061	0.0259463731
3550.9343737792	0.0260735210
3552.8631811522	0.0257810298
3554.7919885252	0.0261842050
3556.7207958983	0.0263717696
3558.6496032713	0.0264778808
3560.5784106444	0.0263559502
3562.5072180174	0.0264103226
3564.4360253905	0.0265873335
3566.3648327635	0.0253540855
3568.2936401366	0.0250457563
3570.2224475096	0.0265541710
3572.1512548827	0.0270739198
3574.0800622557	0.0268567838
3576.0088696288	0.0271551628
3577.9376770018	0.0272118580
3579.8664843749	0.0272440761
3581.7952917479	0.0273548476
3583.7240991210	0.0274136625
3585.6529064940	0.0270138551
3587.5817138670	0.0255581848
3589.5105212401	0.0262666270
3591.4393286131	0.0278037507
3593.3681359862	0.0273996517
3595.2969433592	0.0272931829
3597.2257507323	0.0275704861
3599.1545581053	0.0278829709
3601.0833654784	0.0277361721
3603.0121728514	0.0279620737
3604.9409802245	0.0285353437
3606.8697875975	0.0278869867
3608.7985949706	0.0267132744
3610.7274023436	0.0271198414
3612.6562097167	0.0276583992
3614.5850170897	0.0271203406
3616.5138244627	0.0286577381
3618.4426318358	0.0272354670
3620.3714392088	0.0265728477
3622.3002465819	0.0290668197
3624.2290539549	0.0285419077
3626.1578613280	0.0296704285
3628.0866687010	0.0263152868
3630.0154760741	0.0246106405
3631.9442834471	0.0292311348
3633.8730908202	0.0287436545
3635.8018981932	0.0292400625
3637.7307055663	0.0297972318
3639.6595129393	0.0295260791
3641.5883203124	0.0298113413
3643.5171276854	0.0295505486
3645.4459350584	0.0299721025
3647.3747424315	0.0277615599
3649.3035498045	0.0260717832
3651.2323571776	0.0265084635
3653.1611645506	0.0301341396
3655.0899719237	0.0297676437
3657.0187792967	0.0276206993
3658.9475866698	0.0307731777
3660.8763940428	0.0302909911
3662.8052014159	0.0308012590
3664.7340087889	0.0307109803
3666.6628161620	0.0305999760
3668.5916235350	0.0301066395
3670.5204309081	0.0259391218
3672.4492382811	0.0299515873
3674.3780456541	0.0288810693
3676.3068530272	0.0253207460
3678.2356604002	0.0300973989
3680.1644677733	0.0305552855
3682.0932751463	0.0306332074
3684.0220825194	0.0313797072
3685.9508898924	0.0310662240
3687.8796972655	0.0286753252
3689.8085046385	0.0270094909
3691.7373120116	0.0300536714
3693.6661193846	0.0305833556
3695.5949267577	0.0310875736
3697.5237341307	0.0310960077
3699.4525415038	0.0309177116
3701.3813488768	0.0305135455
3703.3101562499	0.0295275506
3705.2389636229	0.0317421928
3707.1677709959	0.0305858441
3709.0965783690	0.0301151052
3711.0253857420	0.0288168732
3712.9541931151	0.0273764729
3714.8830004881	0.0309049506
3716.8118078612	0.0303948168
3718.7406152342	0.0306613334
3720.6694226073	0.0302326344
3722.5982299803	0.0293846466
3724.5270373534	0.0302634686
3726.4558447264	0.0285175331
3728.3846520995	0.0304078646
3730.3134594725	0.0300146192
3732.2422668456	0.0281703565
3734.1710742186	0.0278079063
3736.0998815916	0.0267332084
3738.0286889647	0.0277750976
3739.9574963377	0.0294189900
3741.8863037108	0.0306718964
3743.8151110838	0.0251055919
3745.7439184569	0.0240328088
3747.6727258299	0.0294865202
3749.6015332030	0.0261892974
3751.5303405760	0.0246056616
3753.4591479491	0.0272120163
3755.3879553221	0.0288372580
3757.3167626952	0.0296968631
3759.2455700682	0.0280043222
3761.1743774413	0.0287982151
3763.1031848143	0.0300228745
3765.0319921873	0.0285057910
3766.9607995604	0.0289059766
3768.8896069334	0.0286834724
3770.8184143065	0.0276776366
3772.7472216795	0.0293727033
3774.6760290526	0.0294291414
3776.6048364256	0.0293083116
3778.5336437987	0.0287336856
3780.4624511717	0.0278758220
3782.3912585448	0.0292367265
3784.3200659178	0.0286628865
3786.2488732909	0.0285343453
3788.1776806639	0.0290347859
3790.1064880370	0.0288171563
3792.0352954100	0.0287102237
3793.9641027830	0.0290843286
3795.8929101561	0.0277459063
3797.8217175291	0.0275198519
3799.7505249022	0.0285378620
3801.6793322752	0.0239143856
3803.6081396483	0.0268554688
3805.5369470213	0.0285858810
3807.4657543944	0.0246698353
3809.3945617674	0.0284475442
3811.3233691405	0.0278464183
3813.2521765135	0.0285984259
3815.1809838866	0.0264412537
3817.1097912596	0.0239494294
3819.0385986327	0.0285846926
3820.9674060057	0.0244783517
3822.8962133787	0.0252891760
3824.8250207518	0.0283034444
3826.7538281248	0.0262596346
3828.6826354979	0.0277302414
3830.6114428709	0.0269573368
3832.5402502440	0.0262657218
3834.4690576170	0.0267086439
3836.3978649901	0.0256485306
3838.3266723631	0.0236615613
3840.2554797362	0.0252206195
3842.1842871092	0.0267099477
3844.1130944823	0.0257238448
3846.0419018553	0.0272158757
3847.9707092284	0.0268426295
3849.8995166014	0.0269472264
3851.8283239745	0.0248862300
3853.7571313475	0.0200281553
3855.6859387205	0.0226246845
3857.6147460936	0.0270243976
3859.5435534666	0.0262961984
3861.4723608397	0.0260582380
3863.4011682127	0.0257694982
3865.3299755858	0.0243437998
3867.2587829588	0.0263205692
3869.1875903319	0.0245354436
3871.1163977049	0.0232452378
3873.0452050780	0.0263390671
3874.9740124510	0.0246914625
3876.9028198241	0.0261029378
3878.8316271971	0.0265075322
3880.7604345702	0.0236324184
3882.6892419432	0.0261439886
3884.6180493162	0.0248650778
3886.5468566893	0.0232783221
3888.4756640623	0.0261768512
3890.4044714354	0.0250315480
3892.3332788084	0.0239266958
3894.2620861815	0.0256520212
3896.1908935545	0.0258449689
3898.1197009276	0.0250004604
3900.0485083006	0.0239792448
3901.9773156737	0.0237176158
3903.9061230467	0.0235433206
3905.8349304198	0.0237788707
3907.7637377928	0.0253745969
3909.6925451659	0.0253485925
3911.6213525389	0.0251191631
3913.5501599119	0.0254202932
3915.4789672850	0.0248270854
3917.4077746580	0.0243141539
3919.3365820311	0.0241974499
3921.2653894041	0.0247899089
3923.1941967772	0.0246830657
3925.1230041502	0.0243060570
3927.0518115233	0.0245585088
3928.9806188963	0.0247585475
3930.9094262694	0.0243808795
3932.8382336424	0.0237891432
3934.7670410155	0.0244374219
3936.6958483885	0.0245401300
3938.6246557616	0.0243636370
3940.5534631346	0.0245544761
3942.4822705076	0.0238567814
3944.4110778807	0.0239905156
3946.3398852537	0.0242776945
3948.2686926268	0.0238011200
3950.1974999998	0.0238059759
3952.1263073729	0.0240044296
3954.0551147459	0.0240779072
3955.9839221190	0.0239829682
3957.9127294920	0.0238709673
3959.8415368651	0.0238742121
3961.7703442381	0.0236533284
3963.6991516112	0.0236702375
3965.6279589842	0.0238239095
3967.5567663573	0.0236609951
3969.4855737303	0.0236369036
3971.4143811034	0.0235869009
3973.3431884764	0.0235334206
3975.2719958494	0.0234434456
3977.2008032225	0.0233381353
3979.1296105955	0.0234484263
3981.0584179686	0.0232890602
3982.9872253416	0.0231758524
3984.9160327147	0.0232277699
3986.8448400877	0.0231999420
3988.7736474608	0.0231144559
3990.7024548338	0.0229592435
3992.6312622069	0.0229786951
3994.5600695799	0.0229508653
3996.4888769530	0.0228958484
3998.4176843260	0.0228893869
4000.3464916991	0.0227855109
4002.2752990721	0.0227654111
4004.2041064451	0.0227120444
4006.1329138182	0.0226234011
4008.0617211912	0.0225607120
4009.9905285643	0.0224817283
4011.9193359373	0.0224808194
4013.8481433104	0.0224753562
4015.7769506834	0.0224733092
4017.7057580565	0.0223423596
4019.6345654295	0.0223065466
4021.5633728026	0.0224015284
4023.4921801756	0.0222457666
4025.4209875487	0.0222186055
4027.3497949217	0.0221115407
4029.2786022948	0.0220226794
4031.2074096678	0.0220927298
4033.1362170408	0.0219524857
4035.0650244139	0.0219272524
4036.9938317869	0.0218711663
4038.9226391600	0.0218861252
4040.8514465330	0.0218496807
4042.7802539061	0.0217295364
4044.7090612791	0.0217218287
4046.6378686522	0.0216176435
4048.5666760252	0.0216119885
4050.4954833983	0.0215171129
4052.4242907713	0.0215297695
4054.3530981444	0.0214889459
4056.2819055174	0.0213853382
4058.2107128905	0.0214252509
4060.1395202635	0.0212784261
4062.0683276365	0.0212918371
4063.9971350096	0.0212734919
4065.9259423826	0.0212370791
4067.8547497557	0.0212116577
4069.7835571287	0.0211062618
4071.7123645018	0.0210458655
4073.6411718748	0.0209365431
4075.5699792479	0.0209289920
4077.4987866209	0.0208023861
4079.4275939940	0.0208216123
4081.3564013670	0.0209174156
4083.2852087401	0.0207713693
4085.2140161131	0.0206886977
4087.1428234862	0.0206218399
4089.0716308592	0.0205880627
4091.0004382323	0.0206279531
4092.9292456053	0.0205808599
4094.8580529783	0.0204890929
4096.7868603514	0.0205051377
4098.7156677244	0.0204093512
4100.6444750975	0.0203109458
4102.5732824705	0.0202662013
4104.5020898436	0.0202113949
4106.4308972166	0.0202417485
4108.3597045897	0.0201313607
4110.2885119627	0.0200895909
4112.2173193358	0.0201341342
4114.1461267088	0.0200596955
4116.0749340819	0.0198940970
4118.0037414549	0.0198881924
4119.9325488280	0.0199171305
4121.8613562010	0.0197977833
4123.7901635740	0.0197381806
4125.7189709471	0.0196844861
4127.6477783201	0.0197442193
4129.5765856932	0.0196380410
4131.5053930662	0.0195538327
4133.4342004393	0.0195160583
4135.3630078123	0.0194680598
4137.2918151854	0.0195267219
4139.2206225584	0.0193247106
4141.1494299315	0.0193818398
4143.0782373045	0.0193297863
4145.0070446776	0.0192643851
4146.9358520506	0.0192946438
4148.8646594237	0.0190719776
4150.7934667967	0.0191393811
4152.7222741697	0.0190975461
4154.6510815428	0.0190812275
4156.5798889158	0.0190077648
4158.5086962889	0.0189177729
4160.4375036619	0.0189598370
4162.3663110350	0.0188422333
4164.2951184080	0.0188423116
4166.2239257811	0.0187906139
4168.1527331541	0.0187421367
4170.0815405272	0.0186728947
4172.0103479002	0.0187295377
4173.9391552733	0.0186764356
4175.8679626463	0.0185288005
4177.7967700194	0.0184962898
4179.7255773924	0.0184266213
4181.6543847654	0.0185397360
4183.5831921385	0.0183471423
4185.5119995115	0.0183661692
4187.4408068846	0.0183499008
4189.3696142576	0.0181383993
4191.2984216307	0.0183023550
4193.2272290037	0.0181999840
4195.1560363768	0.0181819536
4197.0848437498	0.0180921070
4199.0136511229	0.0179963596
4200.9424584959	0.0179880075
4202.8712658690	0.0179013722
4204.8000732420	0.0179946683
4206.7288806151	0.0179086886
4208.6576879881	0.0179106072
4210.5864953611	0.0178379118
4212.5153027342	0.0177240204
4214.4441101072	0.0177408792
4216.3729174803	0.0176472403
4218.3017248533	0.0175921060
4220.2305322264	0.0175807327
4222.1593395994	0.0175755303
4224.0881469725	0.0174881183
4226.0169543455	0.0175089799
4227.9457617186	0.0174781457
4229.8745690916	0.0173516087
4231.8033764647	0.0173011459
4233.7321838377	0.0172498859
4235.6609912108	0.0172659568
4237.5897985838	0.0172178987
4239.5186059569	0.0171243735
4241.4474133299	0.0170757249
4243.3762207029	0.0170872211
4245.3050280760	0.0170736983
4247.2338354490	0.0170299821
4249.1626428221	0.0169467032
4251.0914501951	0.0169434194
4253.0202575682	0.0169841815
4254.9490649412	0.0168724731
4256.8778723143	0.0168780684
4258.8066796873	0.0168250687
4260.7354870604	0.0167090334
4262.6642944334	0.0167251900
4264.5931018065	0.0167673621
4266.5219091795	0.0167147219
4268.4507165526	0.0165646635
4270.3795239256	0.0164659657
4272.3083312986	0.0164465681
4274.2371386717	0.0165713616
4276.1659460447	0.0165234804
4278.0947534178	0.0163797662
4280.0235607908	0.0163365286
4281.9523681639	0.0163254328
4283.8811755369	0.0162940994
4285.8099829100	0.0162409507
4287.7387902830	0.0163421370
4289.6675976561	0.0161729790
4291.5964050291	0.0160219707
4293.5252124022	0.0160745457
4295.4540197752	0.0160209499
4297.3828271483	0.0160298012
4299.3116345213	0.0159344375
4301.2404418943	0.0158623829
4303.1692492674	0.0158866197
4305.0980566404	0.0158637464
4307.0268640135	0.0158217810
4308.9556713865	0.0158045664
4310.8844787596	0.0157805830
4312.8132861326	0.0157949161
4314.7420935057	0.0156713221
4316.6709008787	0.0155352801
4318.5997082518	0.0156746339
4320.5285156248	0.0156108867
4322.4573229979	0.0155115351
4324.3861303709	0.0154142231
4326.3149377440	0.0153607652
4328.2437451170	0.0154170208
4330.1725524900	0.0153753255
4332.1013598631	0.0153457168
4334.0301672361	0.0151991490
4335.9589746092	0.0152809806
4337.8877819822	0.0152621809
4339.8165893553	0.0151716676
4341.7453967283	0.0151081728
4343.6742041014	0.0150240948
4345.6030114744	0.0151856765
4347.5318188475	0.0150056994
4349.4606262205	0.0150298588
4351.3894335936	0.0150259268
4353.3182409666	0.0148769710
4355.2470483397	0.0148907211
4357.1758557127	0.0147399381
4359.1046630858	0.0148339551
4361.0334704588	0.0148053467
4362.9622778318	0.0147798620
4364.8910852049	0.0146915186
4366.8198925779	0.0146363946
4368.7486999510	0.0147026740
4370.6775073240	0.0145610310
4372.6063146971	0.0145760654
4374.5351220701	0.0144802667
4376.4639294432	0.0145607200
4378.3927368162	0.0145199914
4380.3215441893	0.0143401213
4382.2503515623	0.0143736331
4384.1791589354	0.0142971966
4386.1079663084	0.0143706501
4388.0367736815	0.0142612737
4389.9655810545	0.0141821448
4391.8943884275	0.0142531078
4393.8231958006	0.0141548980
4395.7520031736	0.0140573215
4397.6808105467	0.0140960161
4399.6096179197	0.0141090835
4401.5384252928	0.0139665650
4403.4672326658	0.0139672849
4405.3960400389	0.0139249861
4407.3248474119	0.0139530301
4409.2536547850	0.0139492275
4411.1824621580	0.0138205197
4413.1112695311	0.0138322460
4415.0400769041	0.0138325561
4416.9688842772	0.0138321258
4418.8976916502	0.0137382047
4420.8264990232	0.0136981197
4422.7553063963	0.0136764459
4424.6841137693	0.0136678219
4426.6129211424	0.0136229033
4428.5417285154	0.0136062577
4430.4705358885	0.0136402827
4432.3993432615	0.0134130232
4434.3281506346	0.0134334601
4436.2569580076	0.0134714181
4438.1857653807	0.0133939143
4440.1145727537	0.0133979730
4442.0433801268	0.0133294892
4443.9721874998	0.0133406008
4445.9009948729	0.0132277450
4447.8298022459	0.0132057713
4449.7586096189	0.0132219186
4451.6874169920	0.0131350569
4453.6162243650	0.0131392572
4455.5450317381	0.0131525211
4457.4738391111	0.0131090516
4459.4026464842	0.0130113624
4461.3314538572	0.0130281327
4463.2602612303	0.0129837077
4465.1890686033	0.0128947515
4467.1178759764	0.0129329776
4469.0466833494	0.0129188057
4470.9754907225	0.0128556788
4472.9042980955	0.0128345191
4474.8331054686	0.0127635095
4476.7619128416	0.0126995072
4478.6907202147	0.0127095170
4480.6195275877	0.0127216941
4482.5483349607	0.0127081685
4484.4771423338	0.0125583000
4486.4059497068	0.0125832018
4488.3347570799	0.0125520211
4490.2635644529	0.0124178845
4492.1923718260	0.0125565957
4494.1211791990	0.0124654025
4496.0499865721	0.0124541270
4497.9787939451	0.0124907652
4499.9076013182	0.0123721138
4501.8364086912	0.0124245472
4503.7652160643	0.0123070721
4505.6940234373	0.0122579709
4507.6228308104	0.0122987023
4509.5516381834	0.0122039057
4511.4804455564	0.0121840648
4513.4092529295	0.0121427812
4515.3380603025	0.0120743467
4517.2668676756	0.0120535437
4519.1956750486	0.0120440042
4521.1244824217	0.0120748263
4523.0532897947	0.0120151229
4524.9820971678	0.0119289169
4526.9109045408	0.0119717959
4528.8397119139	0.0118741412
4530.7685192869	0.0118278032
4532.6973266600	0.0118688215
4534.6261340330	0.0117979906
4536.5549414061	0.0118082324
4538.4837487791	0.0117350779
4540.4125561521	0.0116724195
4542.3413635252	0.0117137758
4544.2701708982	0.0116545577
4546.1989782713	0.0116015729
4548.1277856443	0.0115923397
4550.0565930174	0.0115245376
4551.9854003904	0.0115421992
4553.9142077635	0.0115447640
4555.8430151365	0.0113983257
4557.7718225096	0.0114498492
4559.7006298826	0.0114780935
4561.6294372557	0.0114021096
4563.5582446287	0.0113911573
4565.4870520018	0.0112900948
4567.4158593748	0.0112725338
4569.3446667478	0.0112271477
4571.2734741209	0.0111963358
4573.2022814939	0.0112918764
4575.1310888670	0.0112357214
4577.0598962400	0.0111655705
4578.9887036131	0.0111486176
4580.9175109861	0.0110929403
4582.8463183592	0.0110904407
4584.7751257322	0.0110626444
4586.7039331053	0.0110103935
4588.6327404783	0.0109661501
4590.5615478514	0.0109648099
4592.4903552244	0.0109919179
4594.4191625975	0.0108734090
4596.3479699705	0.0108792502
4598.2767773435	0.0109206354
4600.2055847166	0.0107700936
4602.1343920896	0.0107030002
4604.0631994627	0.0107204989
4605.9920068357	0.0107417684
4607.9208142088	0.0107153561
4609.8496215818	0.0106987897
4611.7784289549	0.0106069045
4613.7072363279	0.0105515243
4615.6360437010	0.0106028318
4617.5648510740	0.0105360206
4619.4936584471	0.0105282031
4621.4224658201	0.0105024651
4623.3512731932	0.0104847997
4625.2800805662	0.0104838265
4627.2088879393	0.0104235411
4629.1376953123	0.0103841564
4631.0665026853	0.0103718489
4632.9953100584	0.0103943460
4634.9241174314	0.0103116781
4636.8529248045	0.0103220930
4638.7817321775	0.0102950819
4640.7105395506	0.0102072284
4642.6393469236	0.0102341985
4644.5681542967	0.0102026658
4646.4969616697	0.0101945698
4648.4257690428	0.0101594934
4650.3545764158	0.0100855846
4652.2833837889	0.0100224772
4654.2121911619	0.0100295506
4656.1409985350	0.0100166034
4658.0698059080	0.0099975830
4659.9986132810	0.0099918991
4661.9274206541	0.0099760871
4663.8562280271	0.0099929925
4665.7850354002	0.0098979790
4667.7138427732	0.0099525359
4669.6426501463	0.0099018272
4671.5714575193	0.0098199882
4673.5002648924	0.0098324306
4675.4290722654	0.0097331023
4677.3578796385	0.0097930524
4679.2866870115	0.0097182691
4681.2154943846	0.0097328182
4683.1443017576	0.0097602662
4685.0731091307	0.0096637756
4687.0019165037	0.0096240947
4688.9307238767	0.0095758755
4690.8595312498	0.0096154660
4692.7883386228	0.0095310975
4694.7171459959	0.0096030887
4696.6459533689	0.0095180608
4698.5747607420	0.0093997614
4700.5035681150	0.0094664907
4702.4323754881	0.0093452837
4704.3611828611	0.0094221253
4706.2899902342	0.0094243810
4708.2187976072	0.0093871746
4710.1476049803	0.0093320627
4712.0764123533	0.0092810709
4714.0052197264	0.0093149021
4715.9340270994	0.0092177531
4717.8628344724	0.0092507824
4719.7916418455	0.0092142699
4721.7204492185	0.0091789085
4723.6492565916	0.0092098191
4725.5780639646	0.0092004584
4727.5068713377	0.0091512725
4729.4356787107	0.0091423541
4731.3644860838	0.0090882238
4733.2932934568	0.0090096258
4735.2221008299	0.0091454843
4737.1509082029	0.0089495350
4739.0797155760	0.0089087477
4741.0085229490	0.0090674032
4742.9373303221	0.0089142006
4744.8661376951	0.0089173615
4746.7949450682	0.0089027118
4748.7237524412	0.0088731609
4750.6525598142	0.0088463426
4752.5813671873	0.0087998779
4754.5101745603	0.0087660048
4756.4389819334	0.0087353662
4758.3677893064	0.0087710228
4760.2965966795	0.0087217931
4762.2254040525	0.0086750276
4764.1542114256	0.0086769499
4766.0830187986	0.0087310150
4768.0118261717	0.0086659752
4769.9406335447	0.0086223092
4771.8694409178	0.0086729508
4773.7982482908	0.0085930284
4775.7270556639	0.0085323583
4777.6558630369	0.0085274400
4779.5846704099	0.0085226679
4781.5134777830	0.0084723346
4783.4422851560	0.0084592830
4785.3710925291	0.0084275557
4787.2998999021	0.0083732624
4789.2287072752	0.0083563458
4791.1575146482	0.0083785392
4793.0863220213	0.0083544515
4795.0151293943	0.0082869381
4796.9439367674	0.0083400235
4798.8727441404	0.0082679940
4800.8015515135	0.0083272886
4802.7303588865	0.0083281975
4804.6591662596	0.0081940088
4806.5879736326	0.0082937703
4808.5167810056	0.0081798863
4810.4455883787	0.0081000887
4812.3743957517	0.0081502125
4814.3032031248	0.0081752501
4816.2320104978	0.0081195859
4818.1608178709	0.0080291778
4820.0896252439	0.0081049995
4822.0184326170	0.0080157509
4823.9472399900	0.0079094861
4825.8760473631	0.0079532145
4827.8048547361	0.0080009028
4829.7336621092	0.0079674814
4831.6624694822	0.0079575740
4833.5912768553	0.0079036206
4835.5200842283	0.0078116935
4837.4488916013	0.0078196619
4839.3776989744	0.0078057349
4841.3065063474	0.0078874566
4843.2353137205	0.0077777207
4845.1641210935	0.0077519091
4847.0929284666	0.0077834940
4849.0217358396	0.0076551996
4850.9505432127	0.0077816579
4852.8793505857	0.0077188527
4854.8081579588	0.0076819821
4856.7369653318	0.0076904958
4858.6657727049	0.0076510534
4860.5945800779	0.0076987930
4862.5233874510	0.0075825797
4864.4521948240	0.0075732339
4866.3810021971	0.0074553713
4868.3098095701	0.0074679060
4870.2386169431	0.0075700032
4872.1674243162	0.0074433545
4874.0962316892	0.0074747712
4876.0250390623	0.0074051721
4877.9538464353	0.0074075181
4879.8826538084	0.0074768369
4881.8114611814	0.0073282653
4883.7402685545	0.0073494399
4885.6690759275	0.0073431544
4887.5978833006	0.0072597098
4889.5266906736	0.0073017790
4891.4554980467	0.0072337957
4893.3843054197	0.0072368123
4895.3131127928	0.0072719585
4897.2419201658	0.0071874317
4899.1707275388	0.0072149439
4901.0995349119	0.0072527276
4903.0283422849	0.0071926359
4904.9571496580	0.0070941471
4906.8859570310	0.0071389377
4908.8147644041	0.0071507492
4910.7435717771	0.0070297490
4912.6723791502	0.0070272265
4914.6011865232	0.0069713453
4916.5299938963	0.0069303853
4918.4588012693	0.0069717737
4920.3876086424	0.0069630183
4922.3164160154	0.0069803428
4924.2452233885	0.0070082052
4926.1740307615	0.0068612043
4928.1028381345	0.0067912573
4930.0316455076	0.0069037499
4931.9604528806	0.0068314523
4933.8892602537	0.0068731457
4935.8180676267	0.0068525323
4937.7468749998	0.0067183524
4939.6756823728	0.0068298541
4941.6044897459	0.0068186214
4943.5332971189	0.0067738639
4945.4621044920	0.0067860400
4947.3909118650	0.0067450479
4949.3197192381	0.0067046420
4951.2485266111	0.0067163617
4953.1773339842	0.0067215678
4955.1061413572	0.0066974768
4957.0349487302	0.0066763964
4958.9637561033	0.0065823589
4960.8925634763	0.0066067846
4962.8213708494	0.0065785944
4964.7501782224	0.0065334998
4966.6789855955	0.0065855845
4968.6077929685	0.0065804403
4970.5366003416	0.0065719462
4972.4654077146	0.0064782994
4974.3942150877	0.0064715464
4976.3230224607	0.0064546876
4978.2518298338	0.0064424612
4980.1806372068	0.0064745070
4982.1094445799	0.0064012688
4984.0382519529	0.0063839811
4985.9670593259	0.0063244663
4987.8958666990	0.0063675595
4989.8246740720	0.0064282003
4991.7534814451	0.0063389186
4993.6822888181	0.0062711230
4995.6110961912	0.0062873736
4997.5399035642	0.0063099447
4999.4687109373	0.0062057301
5001.3975183103	0.0062426208
5003.3263256834	0.0062345648
5005.2551330564	0.0061605973
5007.1839404295	0.0062265098
5009.1127478025	0.0061280592
5011.0415551756	0.0061229737
5012.9703625486	0.0061533344
5014.8991699217	0.0060297982
5016.8279772947	0.0060203667
5018.7567846677	0.0060329707
5020.6855920408	0.0060405405
5022.6143994138	0.0060356031
5024.5432067869	0.0059765270
5026.4720141599	0.0059669004
5028.4008215330	0.0060259793
5030.3296289060	0.0060315258
5032.2584362791	0.0059695570
5034.1872436521	0.0059684897
5036.1160510252	0.0059455545
5038.0448583982	0.0059339209
5039.9736657713	0.0059101926
5041.9024731443	0.0058684954
5043.8312805174	0.0059008645
5045.7600878904	0.0058167041
5047.6888952634	0.0057730488
5049.6177026365	0.0057954658
5051.5465100095	0.0057754898
5053.4753173826	0.0057511879
5055.4041247556	0.0057149222
5057.3329321287	0.0057107471
5059.2617395017	0.0056274403
5061.1905468748	0.0057270704
5063.1193542478	0.0057433937
5065.0481616209	0.0056114709
5066.9769689939	0.0057105101
5068.9057763670	0.0056238933
5070.8345837400	0.0056282352
5072.7633911131	0.0056572473
5074.6921984861	0.0055095083
5076.6210058591	0.0055919071
5078.5498132322	0.0056039132
5080.4786206052	0.0055135461
5082.4074279783	0.0054742903
5084.3362353513	0.0054636858
5086.2650427244	0.0054793432
5088.1938500974	0.0055115228
5090.1226574705	0.0055031115
5092.0514648435	0.0054061827
5093.9802722166	0.0054073492
5095.9090795896	0.0054157618
5097.8378869627	0.0054105707
5099.7666943357	0.0054525416
5101.6955017088	0.0053414153
5103.6243090818	0.0052605039
5105.5531164548	0.0053756381
5107.4819238279	0.0053464924
5109.4107312009	0.0052557224
5111.3395385740	0.0052553685
5113.2683459470	0.0052397735
5115.1971533201	0.0053009978
5117.1259606931	0.0052410723
5119.0547680662	0.0051625380
5120.9835754392	0.0052333884
5122.9123828123	0.0052243629
5124.8411901853	0.0051588807
5126.7699975584	0.0051808385
5128.6988049314	0.0051948400
5130.6276123045	0.0050573349
5132.5564196775	0.0050179278
5134.4852270506	0.0050556338
5136.4140344236	0.0050992528
5138.3428417966	0.0051343855
5140.2716491697	0.0050411765
5142.2004565427	0.0050005638
5144.1292639158	0.0049731322
5146.0580712888	0.0050267950
5147.9868786619	0.0050339405
5149.9156860349	0.0049446286
5151.8444934080	0.0050047934
5153.7733007810	0.0049575148
5155.7021081541	0.0048992047
5157.6309155271	0.0049895402
5159.5597229002	0.0049874093
5161.4885302732	0.0049162554
5163.4173376463	0.0049146730
5165.3461450193	0.0049059326
5167.2749523923	0.0048323739
5169.2037597654	0.0047995793
5171.1325671384	0.0048125573
5173.0613745115	0.0048245764
5174.9901818845	0.0048689218
5176.9189892576	0.0048612198
5178.8477966306	0.0047947410
5180.7766040037	0.0047757160
5182.7054113767	0.0047564437
5184.6342187498	0.0047715246
5186.5630261228	0.0047159707
5188.4918334959	0.0046889344
5190.4206408689	0.0047448906
5192.3494482420	0.0047093555
5194.2782556150	0.0047281599
5196.2070629880	0.0046916204
5198.1358703611	0.0047081653
5200.0646777341	0.0047121011
5201.9934851072	0.0046524359
5203.9222924802	0.0046322765
5205.8510998533	0.0045111207
5207.7799072263	0.0045227222
5209.7087145994	0.0045527080
5211.6375219724	0.0046939868
5213.5663293455	0.0046839453
5215.4951367185	0.0045218682
5217.4239440916	0.0046230434
5219.3527514646	0.0045419699
5221.2815588377	0.0045301830
5223.2103662107	0.0045346785
5225.1391735837	0.0044287043
5227.0679809568	0.0044608926
5228.9967883298	0.0044963164
5230.9255957029	0.0044213994
5232.8544030759	0.0043368880
5234.7832104490	0.0044655167
5236.7120178220	0.0044553308
5238.6408251951	0.0044120001
5240.5696325681	0.0044211438
5242.4984399412	0.0043982705
5244.4272473142	0.0043293294
5246.3560546873	0.0042667030
5248.2848620603	0.0043744128
5250.2136694334	0.0043115118
5252.1424768064	0.0043396093
5254.0712841795	0.0042921631
5256.0000915525	0.0042277547
5257.9288989255	0.0042988518
5259.8577062986	0.0042527113
5261.7865136716	0.0043444927
5263.7153210447	0.0042148419
5265.6441284177	0.0041307406
5267.5729357908	0.0042146789
5269.5017431638	0.0042238152
5271.4305505369	0.0042405548
5273.3593579099	0.0042843274
5275.2881652830	0.0042522699
5277.2169726560	0.0041481424
5279.1457800291	0.0042447834
5281.0745874021	0.0040888595
5283.0033947752	0.0040758154
5284.9322021482	0.0040958077
5286.8610095212	0.0040389765
5288.7898168943	0.0041746902
5290.7186242673	0.0039848639
5292.6474316404	0.0041195992
5294.5762390134	0.0041634496
5296.5050463865	0.0040594749
5298.4338537595	0.0040971506
5300.3626611326	0.0040226425
5302.2914685056	0.0040896395
5304.2202758787	0.0039607408
5306.1490832517	0.0040157679
5308.0778906248	0.0040206336
5310.0066979978	0.0039749481
5311.9355053709	0.0040166592
5313.8643127439	0.0039399341
5315.7931201169	0.0040227952
5317.7219274900	0.0039028921
5319.6507348630	0.0038929386
5321.5795422361	0.0039111841
5323.5083496091	0.0038464465
5325.4371569822	0.0039069173
5327.3659643552	0.0039064102
5329.2947717283	0.0038769422
5331.2235791013	0.0039001047
5333.1523864744	0.0039346684
5335.0811938474	0.0037884931
5337.0100012205	0.0038246792
5338.9388085935	0.0037951840
5340.8676159666	0.0038293109
5342.7964233396	0.0038676206
5344.7252307126	0.0036112284
5346.6540380857	0.0037299227
5348.5828454587	0.0037507298
5350.5116528318	0.0037697013
5352.4404602048	0.0037403973
5354.3692675779	0.0036066999
5356.2980749509	0.0037525510
5358.2268823240	0.0036677206
5360.1556896970	0.0037072254
5362.0844970701	0.0037331493
5364.0133044431	0.0036373092
5365.9421118162	0.0036931613
5367.8709191892	0.0036607194
5369.7997265623	0.0036661546
5371.7285339353	0.0036543645
5373.6573413083	0.0035809171
5375.5861486814	0.0035598171
5377.5149560544	0.0035656190
5379.4437634275	0.0035185898
5381.3725708005	0.0035537421
5383.3013781736	0.0035717790
5385.2301855466	0.0035464889
5387.1589929197	0.0036092203
5389.0878002927	0.0035425925
5391.0166076658	0.0035093366
5392.9454150388	0.0035165320
5394.8742224119	0.0034217169
5396.8030297849	0.0034410274
5398.7318371580	0.0035072560
5400.6606445310	0.0034635973
5402.5894519041	0.0034632448
5404.5182592771	0.0034143291
5406.4470666501	0.0033901474
5408.3758740232	0.0034645509
5410.3046813962	0.0033972436
5412.2334887693	0.0033817096
5414.1622961423	0.0033299145
5416.0911035154	0.0033648452
5418.0199108884	0.0033771633
5419.9487182615	0.0032741718
5421.8775256345	0.0034181883
5423.8063330076	0.0033079693
5425.7351403806	0.0033109263
5427.6639477537	0.0034101065
5429.5927551267	0.0032397467
5431.5215624998	0.0033841904
5433.4503698728	0.0033489750
5435.3791772458	0.0031867232
5437.3079846189	0.0033314694
5439.2367919919	0.0032980132
5441.1655993650	0.0031719431
5443.0944067380	0.0032217421
5445.0232141111	0.0032562255
5446.9520214841	0.0032047231
5448.8808288572	0.0031682535
5450.8096362302	0.0032047045
5452.7384436033	0.0032095737
5454.6672509763	0.0031834696
5456.5960583494	0.0032399285
5458.5248657224	0.0032241605
5460.4536730955	0.0031715306
5462.3824804685	0.0031360034
5464.3112878415	0.0031390702
5466.2400952146	0.0031398102
5468.1689025876	0.0031107995
5470.0977099607	0.0031450845
5472.0265173337	0.0030914266
5473.9553247068	0.0031168093
5475.8841320798	0.0030913283
5477.8129394529	0.0030171564
5479.7417468259	0.0030622412
5481.6705541990	0.0030445252
5483.5993615720	0.0030963132
5485.5281689451	0.0030839823
5487.4569763181	0.0030971868
5489.3857836912	0.0030767340
5491.3145910642	0.0029955923
5493.2433984372	0.0030397696
5495.1722058103	0.0030059842
5497.1010131833	0.0030084858
5499.0298205564	0.0029988263
5500.9586279294	0.0030019027
5502.8874353025	0.0030014408
5504.8162426755	0.0029909546
5506.7450500486	0.0030080476
5508.6738574216	0.0029518874
5510.6026647947	0.0029793703
5512.5314721677	0.0029357900
5514.4602795408	0.0029153945
5516.3890869138	0.0029895836
5518.3178942869	0.0029766173
5520.2467016599	0.0029245899
5522.1755090330	0.0029261743
5524.1043164060	0.0029035998
5526.0331237790	0.0028438079
5527.9619311521	0.0028973445
5529.8907385251	0.0028257205
5531.8195458982	0.0028414207
5533.7483532712	0.0029002754
5535.6771606443	0.0028086875
5537.6059680173	0.0028122168
5539.5347753904	0.0027565230
5541.4635827634	0.0027852640
5543.3923901365	0.0028068023
5545.3211975095	0.0027964490
5547.2500048826	0.0027862680
5549.1788122556	0.0027303947
5551.1076196287	0.0027824328
5553.0364270017	0.0027483758
5554.9652343747	0.0027725394
5556.8940417478	0.0027313381
5558.8228491208	0.0027417815
5560.7516564939	0.0028700791
5562.6804638669	0.0027503134
5564.6092712400	0.0026925835
5566.5380786130	0.0026707062
5568.4668859861	0.0026925830
5570.3956933591	0.0027025235
5572.3245007322	0.0026319523
5574.2533081052	0.0026961551
5576.1821154783	0.0027088963
5578.1109228513	0.0027344073
5580.0397302244	0.0027385370
5581.9685375974	0.0026771596
5583.8973449704	0.0026531690
5585.8261523435	0.0026585995
5587.7549597165	0.0026623989
5589.6837670896	0.0026327334
5591.6125744626	0.0026532640
5593.5413818357	0.0025703732
5595.4701892087	0.0025496813
5597.3989965818	0.0025815377
5599.3278039548	0.0025648912
5601.2566113279	0.0025996114
5603.1854187009	0.0024536527
5605.1142260740	0.0025370303
5607.0430334470	0.0026309674
5608.9718408201	0.0024625559
5610.9006481931	0.0025357036
5612.8294555661	0.0025716526
5614.7582629392	0.0025666086
5616.6870703122	0.0025412133
5618.6158776853	0.0025076249
5620.5446850583	0.0025387364
5622.4734924314	0.0024599598
5624.4022998044	0.0025002640
5626.3311071775	0.0024625035
5628.2599145505	0.0024093264
5630.1887219236	0.0025145058
5632.1175292966	0.0025015562
5634.0463366697	0.0024231020
5635.9751440427	0.0024008336
5637.9039514158	0.0024719234
5639.8327587888	0.0024427469
5641.7615661619	0.0023909300
5643.6903735349	0.0024450801
5645.6191809079	0.0024086789
5647.5479882810	0.0023889239
5649.4767956540	0.0024076425
5651.4056030271	0.0023793012
5653.3344104001	0.0023769215
5655.2632177732	0.0023135063
5657.1920251462	0.0022977581
5659.1208325193	0.0024189972
5661.0496398923	0.0023934310
5662.9784472654	0.0023688455
5664.9072546384	0.0023904582
5666.8360620115	0.0023384560
5668.7648693845	0.0023210077
5670.6936767576	0.0022659129
5672.6224841306	0.0022435870
5674.5512915036	0.0022522835
5676.4800988767	0.0023357021
5678.4089062497	0.0023333617
5680.3377136228	0.0022539373
5682.2665209958	0.0023081065
5684.1953283689	0.0022574631
5686.1241357419	0.0022860565
5688.0529431150	0.0022590675
5689.9817504880	0.0021644274
5691.9105578611	0.0022559110
5693.8393652341	0.0022217073
5695.7681726072	0.0022140015
5697.6969799802	0.0022393307
5699.6257873533	0.0021954640
5701.5545947263	0.0022590077
5703.4834020993	0.0022273625
5705.4122094724	0.0021686961
5707.3410168454	0.0021954449
5709.2698242185	0.0020797001
5711.1986315915	0.0021414552
5713.1274389646	0.0021895571
5715.0562463376	0.0020740114
5716.9850537107	0.0022203324
5718.9138610837	0.0021501130
5720.8426684568	0.0021169453
5722.7714758298	0.0021553030
5724.7002832029	0.0020609214
5726.6290905759	0.0021731677
5728.5578979490	0.0020759476
5730.4867053220	0.0020738943
5732.4155126950	0.0020893845
5734.3443200681	0.0020252147
5736.2731274411	0.0020902772
5738.2019348142	0.0020368081
5740.1307421872	0.0021059527
5742.0595495603	0.0020770142
5743.9883569333	0.0020453744
5745.9171643064	0.0020492498
5747.8459716794	0.0020301356
5749.7747790525	0.0020885959
5751.7035864255	0.0020195786
5753.6323937986	0.0020411797
5755.5612011716	0.0020518336
5757.4900085447	0.0020635938
5759.4188159177	0.0020138754
5761.3476232907	0.0019232199
5763.2764306638	0.0019959449
5765.2052380368	0.0019915432
5767.1340454099	0.0019841185
5769.0628527829	0.0019916729
5770.9916601560	0.0020153862
5772.9204675290	0.0019943654
5774.8492749021	0.0019387393
5776.7780822751	0.0019386238
5778.7068896482	0.0018833710
5780.6356970212	0.0018967313
5782.5645043943	0.0019359733
5784.4933117673	0.0018972825
5786.4221191404	0.0018640154
5788.3509265134	0.0018890459
5790.2797338865	0.0018976743
5792.2085412595	0.0018816994
5794.1373486325	0.0019001603
5796.0661560056	0.0019026874
5797.9949633786	0.0018755472
5799.9237707517	0.0018424517
5801.8525781247	0.0018366158
5803.7813854978	0.0018579033
5805.7101928708	0.0018151505
5807.6390002439	0.0017800024
5809.5678076169	0.0018745805
5811.4966149900	0.0018106081
5813.4254223630	0.0017725101
5815.3542297361	0.0018864346
5817.2830371091	0.0018548882
5819.2118444822	0.0018652037
5821.1406518552	0.0018266240
5823.0694592282	0.0017896942
5824.9982666013	0.0017996774
5826.9270739743	0.0018071935
5828.8558813474	0.0018257472
5830.7846887204	0.0017478091
5832.7134960935	0.0017588383
5834.6423034665	0.0017557245
5836.5711108396	0.0017795041
5838.4999182126	0.0017836279
5840.4287255857	0.0017892907
5842.3575329587	0.0018099020
5844.2863403318	0.0017579421
5846.2151477048	0.0017828279
5848.1439550779	0.0016883642
5850.0727624509	0.0016973714
5852.0015698239	0.0016927798
5853.9303771970	0.0017217882
5855.8591845700	0.0017704382
5857.7879919431	0.0016367531
5859.7167993161	0.0017223808
5861.6456066892	0.0016538661
5863.5744140622	0.0016673433
5865.5032214353	0.0017347953
5867.4320288083	0.0016356339
5869.3608361814	0.0016552639
5871.2896435544	0.0016138430
5873.2184509275	0.0016554147
5875.1472583005	0.0015794700
5877.0760656736	0.0016231753
5879.0048730466	0.0016760763
5880.9336804196	0.0015744754
5882.8624877927	0.0016808375
5884.7912951657	0.0016235521
5886.7201025388	0.0015723045
5888.6489099118	0.0015985203
5890.5777172849	0.0015986630
5892.5065246579	0.0016117368
5894.4353320310	0.0016556322
5896.3641394040	0.0016951116
5898.2929467771	0.0016075647
5900.2217541501	0.0015677011
5902.1505615232	0.0015597495
5904.0793688962	0.0015976415
5906.0081762693	0.0015602573
5907.9369836423	0.0016410163
5909.8657910154	0.0016683587
5911.7945983884	0.0014587288
5913.7234057614	0.0015339020
5915.6522131345	0.0015546887
5917.5810205075	0.0015248085
5919.5098278806	0.0015702646
5921.4386352536	0.0015427725
5923.3674426267	0.0015297640
5925.2962499997	0.0014587265
5927.2250573728	0.0014648350
5929.1538647458	0.0014627052
5931.0826721189	0.0014740801
5933.0114794919	0.0015084893
5934.9402868650	0.0014770303
5936.8690942380	0.0014965909
5938.7979016111	0.0015162906
5940.7267089841	0.0014745140
5942.6555163571	0.0014718601
5944.5843237302	0.0015092387
5946.5131311032	0.0014800532
5948.4419384763	0.0014943420
5950.3707458493	0.0014237525
5952.2995532224	0.0014243987
5954.2283605954	0.0015721135
5956.1571679685	0.0014575257
5958.0859753415	0.0013847700
5960.0147827146	0.0014375339
5961.9435900876	0.0014047837
5963.8723974607	0.0013985941
5965.8012048337	0.0014080470
5967.7300122068	0.0014185345
5969.6588195798	0.0014489053
5971.5876269528	0.0014413634
5973.5164343259	0.0013517779
5975.4452416989	0.0013641187
5977.3740490720	0.0014463710
5979.3028564450	0.0014200502
5981.2316638181	0.0013751385
5983.1604711911	0.0013830529
5985.0892785642	0.0013846452
5987.0180859372	0.0013639173
5988.9468933103	0.0013825903
5990.8757006833	0.0013493317
5992.8045080564	0.0013279356
5994.7333154294	0.0013735021
5996.6621228025	0.0013089847
5998.5909301755	0.0012598827
6000.5197375485	0.0012909297
