399.2631262207	0.0004942666
401.1919335938	0.0002643808
403.1207409668	0.0005284491
405.0495483398	0.0004023345
406.9783557129	-0.0000346700
408.9071630859	0.0003339510
410.8359704590	0.0004087477
412.7647778320	0.0001650446
414.6935852051	0.0006180311
416.6223925781	0.0004087656
418.5511999512	0.0001600668
420.4800073242	0.0004058032
422.4088146973	0.0006544279
424.3376220703	0.0006349105
426.2664294434	0.0003498475
428.1952368164	0.0005246720
430.1240441895	0.0004201114
432.0528515625	0.0006015979
433.9816589355	0.0007983911
435.9104663086	0.0006244573
437.8392736816	0.0004831821
439.7680810547	0.0004771844
441.6968884277	0.0007144840
443.6256958008	0.0003002003
445.5545031738	0.0002913781
447.4833105469	0.0002320839
449.4121179199	0.0004593815
451.3409252930	0.0007212558
453.2697326660	0.0000933280
455.1985400391	0.0005661962
457.1273474121	0.0004201581
459.0561547852	0.0001955402
460.9849621582	0.0004168386
462.9137695313	0.0001268532
464.8425769043	0.0002423316
466.7713842773	-0.0000750688
468.7001916504	0.0002837598
470.6289990234	0.0004625372
472.5578063965	0.0001229490
474.4866137695	0.0003299130
476.4154211426	0.0000211804
478.3442285156	-0.0001334451
480.2730358887	0.0000877257
482.2018432617	0.0001128875
484.1306506348	0.0001014948
486.0594580078	0.0002531702
487.9882653809	0.0001714298
489.9170727539	0.0002572246
491.8458801270	0.0003343974
493.7746875000	0.0002286139
495.7034948730	0.0003770348
497.6323022461	-0.0000072496
499.5611096191	0.0000052745
501.4899169922	0.0002726970
503.4187243652	-0.0000139965
505.3475317383	-0.0000083491
507.2763391113	0.0002538510
509.2051464844	0.0005047341
511.1339538574	0.0002811296
513.0627612305	0.0001846770
514.9915686035	0.0004578449
516.9203759766	0.0000748028
518.8491833496	-0.0000109796
520.7779907227	0.0001821783
522.7067980957	0.0001632200
524.6356054688	0.0001672829
526.5644128418	0.0000774495
528.4932202148	0.0003963511
530.4220275879	0.0004130163
532.3508349609	0.0005004048
534.2796423340	0.0001814612
536.2084497070	0.0001113465
538.1372570801	0.0006638643
540.0660644531	0.0002483496
541.9948718262	0.0001321089
543.9236791992	-0.0000678837
545.8524865723	0.0001201873
547.7812939453	0.0004546110
549.7101013184	0.0000591217
551.6389086914	-0.0000512614
553.5677160645	0.0001246587
555.4965234375	0.0003309949
557.4253308105	-0.0000833483
559.3541381836	0.0000064728
561.2829455566	0.0003249118
563.2117529297	0.0000879525
565.1405603027	0.0000964204
567.0693676758	-0.0000201111
568.9981750488	0.0004565240
570.9269824219	0.0003723943
572.8557897949	0.0000721064
574.7845971680	0.0002787711
576.7134045410	-0.0001611738
578.6422119141	0.0002404314
580.5710192871	0.0002250659
582.4998266602	-0.0000042734
584.4286340332	0.0004028836
586.3574414063	0.0001277666
588.2862487793	0.0000375403
590.2150561523	0.0002343548
592.1438635254	0.0001558587
594.0726708984	0.0001650445
596.0014782715	0.0002673140
597.9302856445	0.0002621599
599.8590930176	0.0002019773
601.7879003906	0.0003212031
603.7167077637	0.0004512444
605.6455151367	0.0001468651
607.5743225098	-0.0000770613
609.5031298828	0.0003535565
611.4319372559	0.0002982000
613.3607446289	0.0002774203
615.2895520020	0.0001668882
617.2183593750	-0.0002602977
619.1471667480	-0.0002278823
621.0759741211	0.0001038228
623.0047814941	0.0002256219
624.9335888672	0.0000432305
626.8623962402	0.0000776221
628.7912036133	0.0002240520
630.7200109863	0.0000529835
632.6488183594	0.0002746527
634.5776257324	0.0008242659
636.5064331055	0.0006253209
638.4352404785	0.0006630202
640.3640478516	0.0005753531
642.2928552246	0.0005542041
644.2216625977	0.0009976256
646.1504699707	0.0006987138
648.0792773438	0.0007312568
650.0080847168	0.0007351547
651.9368920898	0.0004835064
653.8656994629	0.0009124698
655.7945068359	0.0010623867
657.7233142090	0.0009911945
659.6521215820	0.0010350941
661.5809289551	0.0010283008
663.5097363281	0.0010665793
665.4385437012	0.0011991247
667.3673510742	0.0011648770
669.2961584473	0.0011380535
671.2249658203	0.0010894111
673.1537731934	0.0010786175
675.0825805664	0.0014311962
677.0113879395	0.0013309591
678.9401953125	0.0014155554
680.8690026855	0.0016151252
682.7978100586	0.0015703065
684.7266174316	0.0015196747
686.6554248047	0.0012906890
688.5842321777	0.0017426140
690.5130395508	0.0017242155
692.4418469238	0.0016062094
694.3706542969	0.0018724862
696.2994616699	0.0017965725
698.2282690430	0.0022240914
700.1570764160	0.0023866822
702.0858837891	0.0024203127
704.0146911621	0.0022604878
705.9434985352	0.0019137766
707.8723059082	0.0020284038
709.8011132813	0.0017619092
711.7299206543	0.0011343171
713.6587280273	0.0006358099
715.5875354004	0.0005094326
717.5163427734	0.0002099968
719.4451501465	0.0000425585
721.3739575195	0.0002798263
723.3027648926	0.0002062219
725.2315722656	-0.0000098992
727.1603796387	0.0000798669
729.0891870117	0.0003398668
731.0179943848	0.0001234444
732.9468017578	0.0000863749
734.8756091309	0.0001519180
736.8044165039	0.0000192791
738.7332238770	0.0002612659
740.6620312500	0.0002465475
742.5908386230	0.0001484226
744.5196459961	0.0003627380
746.4484533691	0.0003043424
748.3772607422	0.0000726603
750.3060681152	0.0002341781
752.2348754883	0.0000581510
754.1636828613	0.0000391974
756.0924902344	0.0006095917
758.0212976074	0.0003136917
759.9501049805	0.0003189243
761.8789123535	0.0003983873
763.8077197266	-0.0000138107
765.7365270996	0.0002168920
767.6653344727	0.0002731688
769.5941418457	0.0001941041
771.5229492188	0.0002631774
773.4517565918	0.0004018470
775.3805639648	0.0003422032
777.3093713379	0.0004670243
779.2381787109	0.0004632642
781.1669860840	0.0001014756
783.0957934570	0.0003989259
785.0246008301	0.0004247282
786.9534082031	0.0004538436
788.8822155762	0.0003360323
790.8110229492	0.0002683219
792.7398303223	0.0008068173
794.6686376953	0.0005808045
796.5974450684	0.0003491916
798.5262524414	0.0004758039
800.4550598145	0.0006152333
802.3838671875	0.0004617961
804.3126745605	0.0003248468
806.2414819336	0.0006471917
808.1702893066	0.0005024703
810.0990966797	0.0003343590
812.0279040527	0.0002993250
813.9567114258	0.0002482508
815.8855187988	0.0004136483
817.8143261719	0.0004851645
819.7431335449	0.0003958662
821.6719409180	0.0003613716
823.6007482910	0.0004589930
825.5295556641	0.0003732634
827.4583630371	0.0004714904
829.3871704102	0.0007018890
831.3159777832	0.0005502412
833.2447851563	0.0008047100
835.1735925293	0.0010443097
837.1023999023	0.0005658212
839.0312072754	0.0006370346
840.9600146484	0.0008848408
842.8888220215	0.0006979736
844.8176293945	0.0006949125
846.7464367676	0.0005039186
848.6752441406	0.0004331568
850.6040515137	0.0006724045
852.5328588867	0.0005710690
854.4616662598	0.0004057790
856.3904736328	0.0004858505
858.3192810059	0.0004075587
860.2480883789	0.0004301132
862.1768957520	0.0003670959
864.1057031250	0.0001508366
866.0345104980	0.0005150234
867.9633178711	0.0003876451
869.8921252441	0.0002309794
871.8209326172	0.0004510510
873.7497399902	0.0001951866
875.6785473633	0.0004755918
877.6073547363	0.0004664679
879.5361621094	0.0002411279
881.4649694824	0.0004099617
883.3937768555	0.0003427779
885.3225842285	0.0005032466
887.2513916016	0.0003431599
889.1801989746	0.0004365589
891.1090063477	0.0005465137
893.0378137207	0.0002358092
894.9666210938	0.0004408021
896.8954284668	0.0003152670
898.8242358398	0.0002811990
900.7530432129	0.0004639173
902.6818505859	0.0005293821
904.6106579590	0.0005788804
906.5394653320	0.0003598205
908.4682727051	0.0003720557
910.3970800781	0.0002615506
912.3258874512	0.0004754040
914.2546948242	0.0006964474
916.1835021973	0.0005058809
918.1123095703	0.0008162723
920.0411169434	0.0006703578
921.9699243164	0.0005292624
923.8987316895	0.0007213788
925.8275390625	0.0006087317
927.7563464355	0.0009401551
929.6851538086	0.0009248249
931.6139611816	0.0009100544
933.5427685547	0.0010913874
935.4715759277	0.0008982619
937.4003833008	0.0011405164
939.3291906738	0.0011412252
941.2579980469	0.0011507745
943.1868054199	0.0010613834
945.1156127930	0.0009041577
947.0444201660	0.0011854718
948.9732275391	0.0009815958
950.9020349121	0.0010361285
952.8308422852	0.0010073441
954.7596496582	0.0007935682
956.6884570313	0.0010620559
958.6172644043	0.0011439205
960.5460717773	0.0011148062
962.4748791504	0.0010170003
964.4036865234	0.0008020335
966.3324938965	0.0009007961
968.2613012695	0.0011575624
970.1901086426	0.0008475207
972.1189160156	0.0011008123
974.0477233887	0.0014067709
975.9765307617	0.0010245438
977.9053381348	0.0015035011
979.8341455078	0.0016433271
981.7629528809	0.0015772394
983.6917602539	0.0017296715
985.6205676270	0.0016425626
987.5493750000	0.0020950164
989.4781823730	0.0023029614
991.4069897461	0.0024298164
993.3357971191	0.0027050059
995.2646044922	0.0028310681
997.1934118652	0.0030075409
999.1222192383	0.0031350753
1001.0510266113	0.0034765108
1002.9798339844	0.0039733890
1004.9086413574	0.0040209591
1006.8374487305	0.0040115630
1008.7662561035	0.0043274378
1010.6950634766	0.0045396807
1012.6238708496	0.0050490773
1014.5526782227	0.0051758848
1016.4814855957	0.0053724209
1018.4102929688	0.0058803270
1020.3391003418	0.0057212953
1022.2679077148	0.0061928323
1024.1967150879	0.0065283719
1026.1255224609	0.0065661413
1028.0543298340	0.0068311971
1029.9831372070	0.0069016251
1031.9119445801	0.0072242767
1033.8407519531	0.0072424179
1035.7695593262	0.0073614018
1037.6983666992	0.0073378086
1039.6271740723	0.0072694374
1041.5559814453	0.0075989617
1043.4847888184	0.0074261287
1045.4135961914	0.0072375401
1047.3424035645	0.0073339045
1049.2712109375	0.0071560135
1051.2000183105	0.0067363596
1053.1288256836	0.0067555811
1055.0576330566	0.0066772923
1056.9864404297	0.0064266743
1058.9152478027	0.0065112803
1060.8440551758	0.0061669843
1062.7728625488	0.0058778590
1064.7016699219	0.0058554150
1066.6304772949	0.0054946337
1068.5592846680	0.0052571292
1070.4880920410	0.0053040748
1072.4168994141	0.0049195085
1074.3457067871	0.0044967760
1076.2745141602	0.0044194553
1078.2033215332	0.0042737215
1080.1321289062	0.0041067242
1082.0609362793	0.0037472486
1083.9897436523	0.0036854367
1085.9185510254	0.0036180592
1087.8473583984	0.0034396774
1089.7761657715	0.0034428637
1091.7049731445	0.0031331605
1093.6337805176	0.0030236579
1095.5625878906	0.0029018195
1097.4913952637	0.0028452836
1099.4202026367	0.0027501318
1101.3490100098	0.0027262047
1103.2778173828	0.0029437882
1105.2066247559	0.0026660180
1107.1354321289	0.0026953912
1109.0642395019	0.0025449398
1110.9930468750	0.0023937670
1112.9218542480	0.0026818779
1114.8506616211	0.0026042322
1116.7794689941	0.0027275505
1118.7082763672	0.0025451561
1120.6370837402	0.0022864076
1122.5658911133	0.0024930066
1124.4946984863	0.0025975392
1126.4235058594	0.0026117018
1128.3523132324	0.0026225972
1130.2811206055	0.0028249414
1132.2099279785	0.0028803945
1134.1387353516	0.0028876096
1136.0675427246	0.0030441617
1137.9963500977	0.0030092192
1139.9251574707	0.0031976460
1141.8539648437	0.0035337398
1143.7827722168	0.0036123958
1145.7115795898	0.0038194463
1147.6403869629	0.0040127053
1149.5691943359	0.0040677721
1151.4980017090	0.0043478850
1153.4268090820	0.0045939181
1155.3556164551	0.0047948947
1157.2844238281	0.0048386771
1159.2132312012	0.0048794039
1161.1420385742	0.0051902593
1163.0708459473	0.0053831600
1164.9996533203	0.0057467325
1166.9284606934	0.0059865462
1168.8572680664	0.0059355311
1170.7860754394	0.0060156505
1172.7148828125	0.0061872886
1174.6436901855	0.0066144317
1176.5724975586	0.0069147563
1178.5013049316	0.0069509288
1180.4301123047	0.0071532847
1182.3589196777	0.0076230969
1184.2877270508	0.0079839686
1186.2165344238	0.0082261655
1188.1453417969	0.0087431446
1190.0741491699	0.0090683177
1192.0029565430	0.0092425216
1193.9317639160	0.0097306566
1195.8605712891	0.0102821467
1197.7893786621	0.0107214740
1199.7181860351	0.0110638971
1201.6469934082	0.0113373157
1203.5758007812	0.0119565055
1205.5046081543	0.0127111990
1207.4334155273	0.0129505256
1209.3622229004	0.0133298375
1211.2910302734	0.0138089750
1213.2198376465	0.0141204540
1215.1486450195	0.0145155303
1217.0774523926	0.0146074630
1219.0062597656	0.0148406494
1220.9350671387	0.0151819577
1222.8638745117	0.0153924897
1224.7926818848	0.0154514015
1226.7214892578	0.0153779332
1228.6502966308	0.0157664381
1230.5791040039	0.0157892033
1232.5079113769	0.0155067742
1234.4367187500	0.0157136414
1236.3655261230	0.0157242790
1238.2943334961	0.0155948047
1240.2231408691	0.0155276200
1242.1519482422	0.0154623371
1244.0807556152	0.0154724047
1246.0095629883	0.0152451750
1247.9383703613	0.0151688792
1249.8671777344	0.0153554883
1251.7959851074	0.0151397735
1253.7247924805	0.0147850253
1255.6535998535	0.0147374459
1257.5824072266	0.0147848576
1259.5112145996	0.0144817904
1261.4400219726	0.0141802011
1263.3688293457	0.0141904298
1265.2976367187	0.0139192622
1267.2264440918	0.0136990566
1269.1552514648	0.0134695722
1271.0840588379	0.0131449942
1273.0128662109	0.0131299626
1274.9416735840	0.0128605738
1276.8704809570	0.0124632278
1278.7992883301	0.0122809438
1280.7280957031	0.0122103347
1282.6569030762	0.0119477306
1284.5857104492	0.0116085690
1286.5145178223	0.0114594391
1288.4433251953	0.0112959184
1290.3721325683	0.0113134719
1292.3009399414	0.0111252395
1294.2297473144	0.0108837718
1296.1585546875	0.0110113900
1298.0873620605	0.0110267093
1300.0161694336	0.0109787956
1301.9449768066	0.0110718794
1303.8737841797	0.0111741722
1305.8025915527	0.0111539485
1307.7313989258	0.0111962622
1309.6602062988	0.0113943946
1311.5890136719	0.0116719361
1313.5178210449	0.0118553471
1315.4466284180	0.0121252174
1317.3754357910	0.0124335475
1319.3042431640	0.0126779974
1321.2330505371	0.0131958611
1323.1618579101	0.0134942215
1325.0906652832	0.0139047503
1327.0194726562	0.0142725240
1328.9482800293	0.0143975420
1330.8770874023	0.0149088018
1332.8058947754	0.0151989255
1334.7347021484	0.0154517014
1336.6635095215	0.0156444311
1338.5923168945	0.0156678949
1340.5211242676	0.0158956796
1342.4499316406	0.0162590258
1344.3787390137	0.0164076276
1346.3075463867	0.0162752885
1348.2363537597	0.0162348375
1350.1651611328	0.0161385983
1352.0939685058	0.0163070560
1354.0227758789	0.0160232913
1355.9515832519	0.0157139394
1357.8803906250	0.0158918109
1359.8091979980	0.0155391051
1361.7380053711	0.0150582939
1363.6668127441	0.0147155095
1365.5956201172	0.0152159762
1367.5244274902	0.0150425620
1369.4532348633	0.0147251990
1371.3820422363	0.0152614247
1373.3108496094	0.0145486500
1375.2396569824	0.0145595782
1377.1684643555	0.0148003735
1379.0972717285	0.0145820277
1381.0260791015	0.0146904401
1382.9548864746	0.0144297900
1384.8836938476	0.0145471152
1386.8125012207	0.0143020619
1388.7413085937	0.0144696273
1390.6701159668	0.0151801780
1392.5989233398	0.0149664916
1394.5277307129	0.0143719912
1396.4565380859	0.0146721154
1398.3853454590	0.0148914056
1400.3141528320	0.0148369353
1402.2429602051	0.0155816730
1404.1717675781	0.0149217648
1406.1005749512	0.0149653843
1408.0293823242	0.0155475363
1409.9581896972	0.0148503240
1411.8869970703	0.0150784887
1413.8158044433	0.0149512347
1415.7446118164	0.0150082633
1417.6734191894	0.0137989968
1419.6022265625	0.0126444772
1421.5310339355	0.0139170978
1423.4598413086	0.0136351045
1425.3886486816	0.0132145379
1427.3174560547	0.0133118229
1429.2462634277	0.0124940816
1431.1750708008	0.0119885150
1433.1038781738	0.0122502940
1435.0326855469	0.0113404989
1436.9614929199	0.0099213263
1438.8903002929	0.0109913219
1440.8191076660	0.0110754305
1442.7479150390	0.0104588065
1444.6767224121	0.0107120825
1446.6055297851	0.0100284386
1448.5343371582	0.0101253036
1450.4631445312	0.0102455476
1452.3919519043	0.0106151225
1454.3207592773	0.0109877596
1456.2495666504	0.0096199084
1458.1783740234	0.0100783985
1460.1071813965	0.0123842107
1462.0359887695	0.0130723789
1463.9647961426	0.0131422374
1465.8936035156	0.0137494020
1467.8224108886	0.0153802522
1469.7512182617	0.0162761584
1471.6800256347	0.0152011411
1473.6088330078	0.0160825811
1475.5376403808	0.0176955797
1477.4664477539	0.0189711265
1479.3952551269	0.0206306186
1481.3240625000	0.0208637081
1483.2528698730	0.0219792947
1485.1816772461	0.0226169601
1487.1104846191	0.0224450231
1489.0392919922	0.0225307457
1490.9680993652	0.0227848217
1492.8969067383	0.0256806500
1494.8257141113	0.0252286792
1496.7545214843	0.0233878419
1498.6833288574	0.0258652773
1500.6121362304	0.0263973810
1502.5409436035	0.0279725641
1504.4697509765	0.0268804412
1506.3985583496	0.0211469978
1508.3273657226	0.0247314554
1510.2561730957	0.0279423185
1512.1849804687	0.0271626767
1514.1137878418	0.0289856400
1516.0425952148	0.0267449729
1517.9714025879	0.0278037805
1519.9002099609	0.0269015990
1521.8290173340	0.0239160415
1523.7578247070	0.0278971624
1525.6866320801	0.0275630336
1527.6154394531	0.0277024917
1529.5442468261	0.0298245214
1531.4730541992	0.0287467316
1533.4018615722	0.0269887596
1535.3306689453	0.0281470157
1537.2594763183	0.0293793175
1539.1882836914	0.0227415469
1541.1170910644	0.0236933567
1543.0458984375	0.0272125695
1544.9747058105	0.0263840482
1546.9035131836	0.0298650153
1548.8323205566	0.0283219106
1550.7611279297	0.0291595049
1552.6899353027	0.0287507977
1554.6187426758	0.0267178603
1556.5475500488	0.0282577984
1558.4763574218	0.0217676125
1560.4051647949	0.0228739195
1562.3339721679	0.0298232250
1564.2627795410	0.0288644917
1566.1915869140	0.0293449424
1568.1203942871	0.0288021453
1570.0492016601	0.0262270533
1571.9780090332	0.0293049701
1573.9068164062	0.0295542516
1575.8356237793	0.0245684385
1577.7644311523	0.0270183496
1579.6932385254	0.0296081100
1581.6220458984	0.0286322683
1583.5508532715	0.0292992070
1585.4796606445	0.0286856629
1587.4084680175	0.0289464854
1589.3372753906	0.0288035497
1591.2660827636	0.0287200343
1593.1948901367	0.0287132822
1595.1236975097	0.0284202807
1597.0525048828	0.0286288671
1598.9813122558	0.0285281576
1600.9101196289	0.0288569070
1602.8389270019	0.0282170027
1604.7677343750	0.0285398085
1606.6965417480	0.0281834379
1608.6253491211	0.0281651542
1610.5541564941	0.0281431098
1612.4829638672	0.0282886401
1614.4117712402	0.0287723113
1616.3405786132	0.0243598819
1618.2693859863	0.0261489842
1620.1981933593	0.0296296198
1622.1270007324	0.0270053633
1624.0558081054	0.0274003446
1625.9846154785	0.0284744557
1627.9134228515	0.0286323093
1629.8422302246	0.0284833629
1631.7710375976	0.0299664736
1633.6998449707	0.0283930749
1635.6286523437	0.0248598307
1637.5574597168	0.0280539468
1639.4862670898	0.0302957818
1641.4150744629	0.0299139079
1643.3438818359	0.0307375547
1645.2726892090	0.0286633633
1647.2014965820	0.0262976624
1649.1303039550	0.0313332267
1651.0591113281	0.0296825059
1652.9879187011	0.0215505213
1654.9167260742	0.0276764743
1656.8455334472	0.0328250453
1658.7743408203	0.0318950824
1660.7031481933	0.0327178724
1662.6319555664	0.0305960514
1664.5607629394	0.0321086943
1666.4895703125	0.0338476077
1668.4183776855	0.0306250826
1670.3471850586	0.0300341882
1672.2759924316	0.0332510918
1674.2047998047	0.0312838182
1676.1336071777	0.0304452199
1678.0624145507	0.0339442827
1679.9912219238	0.0329513922
1681.9200292968	0.0329229832
1683.8488366699	0.0278925207
1685.7776440429	0.0277771503
1687.7064514160	0.0355051458
1689.6352587890	0.0317804590
1691.5640661621	0.0342961438
1693.4928735351	0.0343904868
1695.4216809082	0.0270079523
1697.3504882812	0.0318631344
1699.2792956543	0.0288239382
1701.2081030273	0.0267760269
1703.1369104004	0.0338318683
1705.0657177734	0.0314940736
1706.9945251464	0.0316003114
1708.9233325195	0.0336055607
1710.8521398925	0.0324752480
1712.7809472656	0.0327524580
1714.7097546386	0.0307943411
1716.6385620117	0.0284041259
1718.5673693847	0.0280903410
1720.4961767578	0.0319702923
1722.4249841308	0.0325876549
1724.3537915039	0.0308020320
1726.2825988769	0.0327587612
1728.2114062500	0.0304821543
1730.1402136230	0.0309078544
1732.0690209961	0.0297521036
1733.9978283691	0.0242527686
1735.9266357421	0.0288669560
1737.8554431152	0.0307071004
1739.7842504882	0.0281765983
1741.7130578613	0.0302323960
1743.6418652343	0.0304089114
1745.5706726074	0.0303293951
1747.4994799804	0.0307655521
1749.4282873535	0.0297345184
1751.3570947265	0.0285265781
1753.2859020996	0.0309168249
1755.2147094726	0.0317445286
1757.1435168457	0.0298242941
1759.0723242187	0.0321021751
1761.0011315918	0.0303078629
1762.9299389648	0.0297642704
1764.8587463379	0.0328094736
1766.7875537109	0.0301877055
1768.7163610839	0.0304271858
1770.6451684570	0.0301177632
1772.5739758300	0.0278976038
1774.5027832031	0.0303328857
1776.4315905761	0.0314661041
1778.3603979492	0.0309395082
1780.2892053222	0.0307086334
1782.2180126953	0.0308803432
1784.1468200683	0.0307568051
1786.0756274414	0.0303106438
1788.0044348144	0.0314654782
1789.9332421875	0.0307311155
1791.8620495605	0.0284362566
1793.7908569336	0.0294976272
1795.7196643066	0.0309883561
1797.6484716796	0.0305900015
1799.5772790527	0.0303268731
1801.5060864257	0.0298197512
1803.4348937988	0.0306030195
1805.3637011718	0.0309985727
1807.2925085449	0.0305463783
1809.2213159179	0.0308427438
1811.1501232910	0.0301583428
1813.0789306640	0.0306350514
1815.0077380371	0.0307508372
1816.9365454101	0.0305417180
1818.8653527832	0.0306184161
1820.7941601562	0.0305420570
1822.7229675293	0.0309959836
1824.6517749023	0.0293153077
1826.5805822753	0.0300257411
1828.5093896484	0.0301127173
1830.4381970214	0.0286773182
1832.3670043945	0.0304748677
1834.2958117675	0.0303620696
1836.2246191406	0.0303490013
1838.1534265136	0.0301981084
1840.0822338867	0.0302827880
1842.0110412597	0.0301571228
1843.9398486328	0.0275353156
1845.8686560058	0.0289126039
1847.7974633789	0.0302648786
1849.7262707519	0.0296844691
1851.6550781250	0.0300974008
1853.5838854980	0.0297970362
1855.5126928710	0.0299264826
1857.4415002441	0.0298330076
1859.3703076171	0.0297592338
1861.2991149902	0.0295749307
1863.2279223632	0.0293433499
1865.1567297363	0.0295606107
1867.0855371093	0.0287569091
1869.0143444824	0.0279711448
1870.9431518554	0.0287281480
1872.8719592285	0.0293863937
1874.8007666015	0.0289656073
1876.7295739746	0.0292483773
1878.6583813476	0.0291548800
1880.5871887207	0.0289000049
1882.5159960937	0.0290806368
1884.4448034667	0.0286438242
1886.3736108398	0.0289801527
1888.3024182128	0.0285249297
1890.2312255859	0.0281129628
1892.1600329589	0.0288378447
1894.0888403320	0.0282910969
1896.0176477050	0.0282545052
1897.9464550781	0.0285357907
1899.8752624511	0.0282738525
1901.8040698242	0.0283635370
1903.7328771972	0.0281749777
1905.6616845703	0.0282284133
1907.5904919433	0.0280272197
1909.5192993164	0.0280070454
1911.4481066894	0.0280698091
1913.3769140625	0.0278220847
1915.3057214355	0.0281658731
1917.2345288085	0.0272385739
1919.1633361816	0.0271768291
1921.0921435546	0.0279630832
1923.0209509277	0.0273104273
1924.9497583007	0.0277569033
1926.8785656738	0.0277604945
1928.8073730468	0.0275598299
1930.7361804199	0.0278308745
1932.6649877929	0.0274959840
1934.5937951660	0.0276907720
1936.5226025390	0.0274884719
1938.4514099121	0.0277092941
1940.3802172851	0.0275685675
1942.3090246582	0.0268134922
1944.2378320312	0.0272514261
1946.1666394042	0.0274496414
1948.0954467773	0.0274060499
1950.0242541503	0.0274005923
1951.9530615234	0.0274077803
1953.8818688964	0.0273923017
1955.8106762695	0.0271624178
1957.7394836425	0.0272684433
1959.6682910156	0.0271917991
1961.5970983886	0.0270656459
1963.5259057617	0.0272558704
1965.4547131347	0.0270556249
1967.3835205078	0.0267177261
1969.3123278808	0.0269565992
1971.2411352539	0.0269796215
1973.1699426269	0.0268751197
1975.0987499999	0.0269934963
1977.0275573730	0.0268040746
1978.9563647460	0.0267626382
1980.8851721191	0.0266832858
1982.8139794921	0.0265945047
1984.7427868652	0.0266659986
1986.6715942382	0.0266261026
1988.6004016113	0.0266404599
1990.5292089843	0.0263881721
1992.4580163574	0.0261334293
1994.3868237304	0.0262740161
1996.3156311035	0.0262834243
1998.2444384765	0.0260632988
2000.1732458496	0.0261387937
2002.1020532226	0.0263046920
2004.0308605956	0.0261710640
2005.9596679687	0.0260008797
2007.8884753417	0.0260138772
2009.8172827148	0.0260197781
2011.7460900878	0.0258806832
2013.6748974609	0.0257311855
2015.6037048339	0.0255839005
2017.5325122070	0.0256389305
2019.4613195800	0.0256078374
2021.3901269531	0.0254854821
2023.3189343261	0.0255834237
2025.2477416992	0.0254636295
2027.1765490722	0.0253223106
2029.1053564453	0.0253088735
2031.0341638183	0.0252044126
2032.9629711914	0.0250005499
2034.8917785644	0.0250389185
2036.8205859374	0.0252175964
2038.7493933105	0.0250807125
2040.6782006835	0.0249589756
2042.6070080566	0.0248152595
2044.5358154296	0.0247122459
2046.4646228027	0.0247318186
2048.3934301757	0.0247708336
2050.3222375488	0.0247397814
2052.2510449218	0.0245578028
2054.1798522949	0.0245010965
2056.1086596679	0.0244624764
2058.0374670410	0.0245336555
2059.9662744140	0.0244257450
2061.8950817871	0.0242643468
2063.8238891601	0.0243979208
2065.7526965331	0.0242696963
2067.6815039062	0.0241612047
2069.6103112792	0.0241101757
2071.5391186523	0.0240095537
2073.4679260253	0.0240179207
2075.3967333984	0.0239312388
2077.3255407714	0.0238567516
2079.2543481445	0.0238561407
2081.1831555175	0.0238900073
2083.1119628906	0.0237437449
2085.0407702636	0.0235316996
2086.9695776367	0.0236384422
2088.8983850097	0.0237166770
2090.8271923828	0.0236147866
2092.7559997558	0.0236416720
2094.6848071288	0.0235341005
2096.6136145019	0.0234128945
2098.5424218749	0.0234495252
2100.4712292480	0.0232552774
2102.4000366210	0.0232720338
2104.3288439941	0.0233650431
2106.2576513671	0.0231696218
2108.1864587402	0.0232133567
2110.1152661132	0.0231963191
2112.0440734863	0.0229844097
2113.9728808593	0.0229975916
2115.9016882324	0.0230726767
2117.8304956054	0.0230163503
2119.7593029785	0.0228327420
2121.6881103515	0.0227396302
2123.6169177245	0.0228336565
2125.5457250976	0.0228150487
2127.4745324706	0.0227667466
2129.4033398437	0.0227477942
2131.3321472167	0.0225872397
2133.2609545898	0.0225089565
2135.1897619628	0.0226108897
2137.1185693359	0.0227140803
2139.0473767089	0.0226420909
2140.9761840820	0.0225198958
2142.9049914550	0.0225360468
2144.8337988281	0.0225586332
2146.7626062011	0.0224396773
2148.6914135742	0.0223306380
2150.6202209472	0.0224944316
2152.5490283203	0.0225242060
2154.4778356933	0.0222634897
2156.4066430663	0.0222079419
2158.3354504394	0.0222600698
2160.2642578124	0.0222497396
2162.1930651855	0.0221784674
2164.1218725585	0.0220917352
2166.0506799316	0.0222047605
2167.9794873046	0.0221448690
2169.9082946777	0.0220618602
2171.8371020507	0.0221403614
2173.7659094238	0.0218371749
2175.6947167968	0.0218773633
2177.6235241699	0.0219981596
2179.5523315429	0.0217280965
2181.4811389160	0.0218557045
2183.4099462890	0.0218098946
2185.3387536620	0.0217988305
2187.2675610351	0.0218927674
2189.1963684081	0.0216843896
2191.1251757812	0.0217259228
2193.0539831542	0.0216667093
2194.9827905273	0.0216021854
2196.9115979003	0.0216688327
2198.8404052734	0.0216129832
2200.7692126464	0.0216277577
2202.6980200195	0.0215909593
2204.6268273925	0.0215056427
2206.5556347656	0.0214908216
2208.4844421386	0.0214563739
2210.4132495117	0.0214407612
2212.3420568847	0.0214694161
2214.2708642577	0.0213834159
2216.1996716308	0.0212780982
2218.1284790038	0.0212142114
2220.0572863769	0.0212784857
2221.9860937499	0.0212582350
2223.9149011230	0.0211565886
2225.8437084960	0.0212713741
2227.7725158691	0.0211870782
2229.7013232421	0.0211837701
2231.6301306152	0.0211151987
2233.5589379882	0.0209123567
2235.4877453613	0.0210710093
2237.4165527343	0.0210433565
2239.3453601074	0.0208516698
2241.2741674804	0.0207739100
2243.2029748534	0.0208250862
2245.1317822265	0.0207334161
2247.0605895995	0.0205882173
2248.9893969726	0.0206505507
2250.9182043456	0.0206294842
2252.8470117187	0.0205542333
2254.7758190917	0.0204617940
2256.7046264648	0.0205263719
2258.6334338378	0.0204254910
2260.5622412109	0.0203942098
2262.4910485839	0.0205251947
2264.4198559570	0.0203537121
2266.3486633300	0.0203863159
2268.2774707031	0.0203231908
2270.2062780761	0.0202857442
2272.1350854491	0.0203338340
2274.0638928222	0.0202390850
2275.9927001952	0.0203036778
2277.9215075683	0.0202051252
2279.8503149413	0.0202111639
2281.7791223144	0.0202109590
2283.7079296874	0.0200312827
2285.6367370605	0.0200324133
2287.5655444335	0.0200228244
2289.4943518066	0.0199731737
2291.4231591796	0.0200105347
2293.3519665527	0.0200094637
2295.2807739257	0.0198951811
2297.2095812988	0.0197654907
2299.1383886718	0.0196244754
2301.0671960449	0.0195948649
2302.9960034179	0.0196142644
2304.9248107909	0.0194682460
2306.8536181640	0.0192415826
2308.7824255370	0.0191814639
2310.7112329101	0.0190539174
2312.6400402831	0.0187954120
2314.5688476562	0.0187395420
2316.4976550292	0.0185194984
2318.4264624023	0.0183458999
2320.3552697753	0.0182397924
2322.2840771484	0.0179648492
2324.2128845214	0.0177453365
2326.1416918945	0.0176152997
2328.0704992675	0.0175468549
2329.9993066406	0.0172281098
2331.9281140136	0.0171691105
2333.8569213866	0.0170864016
2335.7857287597	0.0169046465
2337.7145361327	0.0170631222
2339.6433435058	0.0169565976
2341.5721508788	0.0170515217
2343.5009582519	0.0172347054
2345.4297656249	0.0175478142
2347.3585729980	0.0181031507
2349.2873803710	0.0183261074
2351.2161877441	0.0180038735
2353.1449951171	0.0170981847
2355.0738024902	0.0166524760
2357.0026098632	0.0164369736
2358.9314172363	0.0160514861
2360.8602246093	0.0158557557
2362.7890319823	0.0158805978
2364.7178393554	0.0160732865
2366.6466467284	0.0160250831
2368.5754541015	0.0163015071
2370.5042614745	0.0167042241
2372.4330688476	0.0168548673
2374.3618762206	0.0172598995
2376.2906835937	0.0177808814
2378.2194909667	0.0180040784
2380.1482983398	0.0180413797
2382.0771057128	0.0181884523
2384.0059130859	0.0181407984
2385.9347204589	0.0182098020
2387.8635278320	0.0182571318
2389.7923352050	0.0182446912
2391.7211425780	0.0184009932
2393.6499499511	0.0182345118
2395.5787573241	0.0182550140
2397.5075646972	0.0182409827
2399.4363720702	0.0181487799
2401.3651794433	0.0182570182
2403.2939868163	0.0181743391
2405.2227941894	0.0182070471
2407.1516015624	0.0181097835
2409.0804089355	0.0179741569
2411.0092163085	0.0180371702
2412.9380236816	0.0179749876
2414.8668310546	0.0179106612
2416.7956384277	0.0178992637
2418.7244458007	0.0178806745
2420.6532531738	0.0178745203
2422.5820605468	0.0178691745
2424.5108679198	0.0177154653
2426.4396752929	0.0176316053
2428.3684826659	0.0176578853
2430.2972900390	0.0175960213
2432.2260974120	0.0176642798
2434.1549047851	0.0176256355
2436.0837121581	0.0175508242
2438.0125195312	0.0176670868
2439.9413269042	0.0176307634
2441.8701342773	0.0175016075
2443.7989416503	0.0174088031
2445.7277490234	0.0174935050
2447.6565563964	0.0175694861
2449.5853637695	0.0173869729
2451.5141711425	0.0174234826
2453.4429785155	0.0174842495
2455.3717858886	0.0172900967
2457.3005932616	0.0172738805
2459.2294006347	0.0173612274
2461.1582080077	0.0172656551
2463.0870153808	0.0171744041
2465.0158227538	0.0171857886
2466.9446301269	0.0171994604
2468.8734374999	0.0171881337
2470.8022448730	0.0170738399
2472.7310522460	0.0170793682
2474.6598596191	0.0171047691
2476.5886669921	0.0170809310
2478.5174743652	0.0170501899
2480.4462817382	0.0169097185
2482.3750891112	0.0170464329
2484.3038964843	0.0169817917
2486.2327038573	0.0168266185
2488.1615112304	0.0168412160
2490.0903186034	0.0167495869
2492.0191259765	0.0169111621
2493.9479333495	0.0167351291
2495.8767407226	0.0166433863
2497.8055480956	0.0167817548
2499.7343554687	0.0165910739
2501.6631628417	0.0166589580
2503.5919702148	0.0166621879
2505.5207775878	0.0165120885
2507.4495849609	0.0164758395
2509.3783923339	0.0165863559
2511.3071997069	0.0165520720
2513.2360070800	0.0164062697
2515.1648144530	0.0164682493
2517.0936218261	0.0163920317
2519.0224291991	0.0164695233
2520.9512365722	0.0164568052
2522.8800439452	0.0163096823
2524.8088513183	0.0163389817
2526.7376586913	0.0162966661
2528.6664660644	0.0163131021
2530.5952734374	0.0162183363
2532.5240808105	0.0162127987
2534.4528881835	0.0162584763
2536.3816955566	0.0161024258
2538.3105029296	0.0160851814
2540.2393103027	0.0161168426
2542.1681176757	0.0160262361
2544.0969250487	0.0160366856
2546.0257324218	0.0161405224
2547.9545397948	0.0160331242
2549.8833471679	0.0159266964
2551.8121545409	0.0159983821
2553.7409619140	0.0160365328
2555.6697692870	0.0159227140
2557.5985766601	0.0158720426
2559.5273840331	0.0158982426
2561.4561914062	0.0158416219
2563.3849987792	0.0158207007
2565.3138061523	0.0157051273
2567.2426135253	0.0157583468
2569.1714208984	0.0157575104
2571.1002282714	0.0155303273
2573.0290356444	0.0156449489
2574.9578430175	0.0157040004
2576.8866503905	0.0155901695
2578.8154577636	0.0156099238
2580.7442651366	0.0155740436
2582.6730725097	0.0153840929
2584.6018798827	0.0153977815
2586.5306872558	0.0154724233
2588.4594946288	0.0152953323
2590.3883020019	0.0152813811
2592.3171093749	0.0153187970
2594.2459167480	0.0153083298
2596.1747241210	0.0153393447
2598.1035314941	0.0153183537
2600.0323388671	0.0152180009
2601.9611462401	0.0151620787
2603.8899536132	0.0151808690
2605.8187609862	0.0151553750
2607.7475683593	0.0152873788
2609.6763757323	0.0151791405
2611.6051831054	0.0150206247
2613.5339904784	0.0150267137
2615.4627978515	0.0149065116
2617.3916052245	0.0150733646
2619.3204125976	0.0150571894
2621.2492199706	0.0148427766
2623.1780273437	0.0148639595
2625.1068347167	0.0148532698
2627.0356420898	0.0148369614
2628.9644494628	0.0148286596
2630.8932568358	0.0148049323
2632.8220642089	0.0147639653
2634.7508715819	0.0147387190
2636.6796789550	0.0147102252
2638.6084863280	0.0147247929
2640.5372937011	0.0146635817
2642.4661010741	0.0146180233
2644.3949084472	0.0146652609
2646.3237158202	0.0145058278
2648.2525231933	0.0145485438
2650.1813305663	0.0146442540
2652.1101379394	0.0145085594
2654.0389453124	0.0145384241
2655.9677526855	0.0145545192
2657.8965600585	0.0144555960
2659.8253674315	0.0144250309
2661.7541748046	0.0143823121
2663.6829821776	0.0143516399
2665.6117895507	0.0143991327
2667.5405969237	0.0143339373
2669.4694042968	0.0142858019
2671.3982116698	0.0142864976
2673.3270190429	0.0142199192
2675.2558264159	0.0141280675
2677.1846337890	0.0141106118
2679.1134411620	0.0142258052
2681.0422485351	0.0141026592
2682.9710559081	0.0140937995
2684.8998632812	0.0140869897
2686.8286706542	0.0138768069
2688.7574780273	0.0140195964
2690.6862854003	0.0139469337
2692.6150927733	0.0138401203
2694.5439001464	0.0139385145
2696.4727075194	0.0138065973
2698.4015148925	0.0137374308
2700.3303222655	0.0137604810
2702.2591296386	0.0138269830
2704.1879370116	0.0138483336
2706.1167443847	0.0137165133
2708.0455517577	0.0135888066
2709.9743591308	0.0136235049
2711.9031665038	0.0135864643
2713.8319738769	0.0135890953
2715.7607812499	0.0137138646
2717.6895886230	0.0135858264
2719.6183959960	0.0135645485
2721.5472033690	0.0135170752
2723.4760107421	0.0134637412
2725.4048181151	0.0135052148
2727.3336254882	0.0134358481
2729.2624328612	0.0134890322
2731.1912402343	0.0132811330
2733.1200476073	0.0132259969
2735.0488549804	0.0133935390
2736.9776623534	0.0133613767
2738.9064697265	0.0133491457
2740.8352770995	0.0131500652
2742.7640844726	0.0131805791
2744.6928918456	0.0132518411
2746.6216992187	0.0130467042
2748.5505065917	0.0130980760
2750.4793139647	0.0131194461
2752.4081213378	0.0130143445
2754.3369287108	0.0130451443
2756.2657360839	0.0129052140
2758.1945434569	0.0128526306
2760.1233508300	0.0130404793
2762.0521582030	0.0128826723
2763.9809655761	0.0129127596
2765.9097729491	0.0130174933
2767.8385803222	0.0127940904
2769.7673876952	0.0128159449
2771.6961950683	0.0127677489
2773.6250024413	0.0127279982
2775.5538098144	0.0126898047
2777.4826171874	0.0126446877
2779.4114245604	0.0127105415
2781.3402319335	0.0126023106
2783.2690393065	0.0126668401
2785.1978466796	0.0125900274
2787.1266540526	0.0124306306
2789.0554614257	0.0124690775
2790.9842687987	0.0124223791
2792.9130761718	0.0123843728
2794.8418835448	0.0123399962
2796.7706909179	0.0123291072
2798.6994982909	0.0123366956
2800.6283056640	0.0123291798
2802.5571130370	0.0122547504
2804.4859204101	0.0122793969
2806.4147277831	0.0122486018
2808.3435351562	0.0121334037
2810.2723425292	0.0122244721
2812.2011499022	0.0121298563
2814.1299572753	0.0120582040
2816.0587646483	0.0120698139
2817.9875720214	0.0120494850
2819.9163793944	0.0119061517
2821.8451867675	0.0117833894
2823.7739941405	0.0120344944
2825.7028015136	0.0119807795
2827.6316088866	0.0118623106
2829.5604162597	0.0117812715
2831.4892236327	0.0117010316
2833.4180310058	0.0118815601
2835.3468383788	0.0117419148
2837.2756457519	0.0115901958
2839.2044531249	0.0115747601
2841.1332604979	0.0115232533
2843.0620678710	0.0115298368
2844.9908752440	0.0115269301
2846.9196826171	0.0114151379
2848.8484899901	0.0112692872
2850.7772973632	0.0113015678
2852.7061047362	0.0113371350
2854.6349121093	0.0113408621
2856.5637194823	0.0112394132
2858.4925268554	0.0112335198
2860.4213342284	0.0112369992
2862.3501416015	0.0111794854
2864.2789489745	0.0112563530
2866.2077563476	0.0111945290
2868.1365637206	0.0112278312
2870.0653710936	0.0111067295
2871.9941784667	0.0110420557
2873.9229858397	0.0111110341
2875.8517932128	0.0109195197
2877.7806005858	0.0109864362
2879.7094079589	0.0109402016
2881.6382153319	0.0109033622
2883.5670227050	0.0109978151
2885.4958300780	0.0108803930
2887.4246374511	0.0108979698
2889.3534448241	0.0108707268
2891.2822521972	0.0107373195
2893.2110595702	0.0106923543
2895.1398669433	0.0107294563
2897.0686743163	0.0106709003
2898.9974816893	0.0106857494
2900.9262890624	0.0106641026
2902.8550964354	0.0104165804
2904.7839038085	0.0104598608
2906.7127111815	0.0104704611
2908.6415185546	0.0104094502
2910.5703259276	0.0104845278
2912.4991333007	0.0103158131
2914.4279406737	0.0102404393
2916.3567480468	0.0102154240
2918.2855554198	0.0100472849
2920.2143627929	0.0101723894
2922.1431701659	0.0102609154
2924.0719775390	0.0101004001
2926.0007849120	0.0100612827
2927.9295922851	0.0100438362
2929.8583996581	0.0100492686
2931.7872070311	0.0100447172
2933.7160144042	0.0100314375
2935.6448217772	0.0100768749
2937.5736291503	0.0100414790
2939.5024365233	0.0100200931
2941.4312438964	0.0100061875
2943.3600512694	0.0100140385
2945.2888586425	0.0100232232
2947.2176660155	0.0099583734
2949.1464733886	0.0099123903
2951.0752807616	0.0099430513
2953.0040881347	0.0098969359
2954.9328955077	0.0098279407
2956.8617028808	0.0098550720
2958.7905102538	0.0097515266
2960.7193176268	0.0097673545
2962.6481249999	0.0097121801
2964.5769323729	0.0096195936
2966.5057397460	0.0096996846
2968.4345471190	0.0095018484
2970.3633544921	0.0095644034
2972.2921618651	0.0097021665
2974.2209692382	0.0096139852
2976.1497766112	0.0096272901
2978.0785839843	0.0096354447
2980.0073913573	0.0097641144
2981.9361987304	0.0096623003
2983.8650061034	0.0095497388
2985.7938134765	0.0095993783
2987.7226208495	0.0094792275
2989.6514282225	0.0094692316
2991.5802355956	0.0094774347
2993.5090429686	0.0094094314
2995.4378503417	0.0093798377
2997.3666577147	0.0094338097
2999.2954650878	0.0094504990
3001.2242724608	0.0093172342
3003.1530798339	0.0092763919
3005.0818872069	0.0093061673
3007.0106945800	0.0092607625
3008.9395019530	0.0092569673
3010.8683093261	0.0092125824
3012.7971166991	0.0090930639
3014.7259240722	0.0091273431
3016.6547314452	0.0092330901
3018.5835388182	0.0092564998
3020.5123461913	0.0091450717
3022.4411535643	0.0090564825
3024.3699609374	0.0090564154
3026.2987683104	0.0089793103
3028.2275756835	0.0089322999
3030.1563830565	0.0089475447
3032.0851904296	0.0089598224
3034.0139978026	0.0088617159
3035.9428051757	0.0088533210
3037.8716125487	0.0089283772
3039.8004199218	0.0088532325
3041.7292272948	0.0087997150
3043.6580346679	0.0086666849
3045.5868420409	0.0086692479
3047.5156494139	0.0087913927
3049.4444567870	0.0086887535
3051.3732641600	0.0085865799
3053.3020715331	0.0086189443
3055.2308789061	0.0086534191
3057.1596862792	0.0085476916
3059.0884936522	0.0085239904
3061.0173010253	0.0085596582
3062.9461083983	0.0084601836
3064.8749157714	0.0084080771
3066.8037231444	0.0084537640
3068.7325305175	0.0083818045
3070.6613378905	0.0082997717
3072.5901452636	0.0083794175
3074.5189526366	0.0083523355
3076.4477600097	0.0083845435
3078.3765673827	0.0082547199
3080.3053747557	0.0080663264
3082.2341821288	0.0082712639
3084.1629895018	0.0082445852
3086.0917968749	0.0081957467
3088.0206042479	0.0082118083
3089.9494116210	0.0081468020
3091.8782189940	0.0081743039
3093.8070263671	0.0079899803
3095.7358337401	0.0079910336
3097.6646411132	0.0080836043
3099.5934484862	0.0080342647
3101.5222558593	0.0080913212
3103.4510632323	0.0080034724
3105.3798706054	0.0079074604
3107.3086779784	0.0079225199
3109.2374853514	0.0079322867
3111.1662927245	0.0078944312
3113.0951000975	0.0078072669
3115.0239074706	0.0078698583
3116.9527148436	0.0078812744
3118.8815222167	0.0077828597
3120.8103295897	0.0077582682
3122.7391369628	0.0076912390
3124.6679443358	0.0077003241
3126.5967517089	0.0076974379
3128.5255590819	0.0075935060
3130.4543664550	0.0075894995
3132.3831738280	0.0075835139
3134.3119812011	0.0075425128
3136.2407885741	0.0075908815
3138.1695959471	0.0076509523
3140.0984033202	0.0075358683
3142.0272106932	0.0074777827
3143.9560180663	0.0075364374
3145.8848254393	0.0075072479
3147.8136328124	0.0074861236
3149.7424401854	0.0074459347
3151.6712475585	0.0073921503
3153.6000549315	0.0073650116
3155.5288623046	0.0074267127
3157.4576696776	0.0073626144
3159.3864770507	0.0072837807
3161.3152844237	0.0073559806
3163.2440917968	0.0073077772
3165.1728991698	0.0073879194
3167.1017065428	0.0072367834
3169.0305139159	0.0071686450
3170.9593212889	0.0073819514
3172.8881286620	0.0071685957
3174.8169360350	0.0072611235
3176.7457434081	0.0073762643
3178.6745507811	0.0071706027
3180.6033581542	0.0071803201
3182.5321655272	0.0071341386
3184.4609729003	0.0071398695
3186.3897802733	0.0071765655
3188.3185876464	0.0071065268
3190.2473950194	0.0070553627
3192.1762023925	0.0070747957
3194.1050097655	0.0070823971
3196.0338171386	0.0070482846
3197.9626245116	0.0071007516
3199.8914318846	0.0071342965
3201.8202392577	0.0070765251
3203.7490466307	0.0070161293
3205.6778540038	0.0069949878
3207.6066613768	0.0069941105
3209.5354687499	0.0071080779
3211.4642761229	0.0070672259
3213.3930834960	0.0069689653
3215.3218908690	0.0071180654
3217.2506982421	0.0070942584
3219.1795056151	0.0070720091
3221.1083129882	0.0070408629
3223.0371203612	0.0069885617
3224.9659277343	0.0071422551
3226.8947351073	0.0070694769
3228.8235424803	0.0069923652
3230.7523498534	0.0070755011
3232.6811572264	0.0071589965
3234.6099645995	0.0071650781
3236.5387719725	0.0069422275
3238.4675793456	0.0069256108
3240.3963867186	0.0070744832
3242.3251940917	0.0070337881
3244.2540014647	0.0070662480
3246.1828088378	0.0070915418
3248.1116162108	0.0070500793
3250.0404235839	0.0071788495
3251.9692309569	0.0072034663
3253.8980383300	0.0070830216
3255.8268457030	0.0071004182
3257.7556530760	0.0071458425
3259.6844604491	0.0070859152
3261.6132678221	0.0070699840
3263.5420751952	0.0071507357
3265.4708825682	0.0071239220
3267.3996899413	0.0071365433
3269.3284973143	0.0072008194
3271.2573046874	0.0070963427
3273.1861120604	0.0071423794
3275.1149194335	0.0072756708
3277.0437268065	0.0072328262
3278.9725341796	0.0072281985
3280.9013415526	0.0072216569
3282.8301489257	0.0072774505
3284.7589562987	0.0073557636
3286.6877636717	0.0072855847
3288.6165710448	0.0073254928
3290.5453784178	0.0072158538
3292.4741857909	0.0071304408
3294.4029931639	0.0073394617
3296.3318005370	0.0072832722
3298.2606079100	0.0072425893
3300.1894152831	0.0072830343
3302.1182226561	0.0071859304
3304.0470300292	0.0071945204
3305.9758374022	0.0072401511
3307.9046447753	0.0072763953
3309.8334521483	0.0072685247
3311.7622595214	0.0073309648
3313.6910668944	0.0073798341
3315.6198742675	0.0073430268
3317.5486816405	0.0073513584
3319.4774890135	0.0073637422
3321.4062963866	0.0074107591
3323.3351037596	0.0073803077
3325.2639111327	0.0073847910
3327.1927185057	0.0073894961
3329.1215258788	0.0073686573
3331.0503332518	0.0074684196
3332.9791406249	0.0074567827
3334.9079479979	0.0074031651
3336.8367553710	0.0074164486
3338.7655627440	0.0074807447
3340.6943701171	0.0074811606
3342.6231774901	0.0074748369
3344.5519848632	0.0075217644
3346.4807922362	0.0074346606
3348.4095996092	0.0074941092
3350.3384069823	0.0075182561
3352.2672143553	0.0074728578
3354.1960217284	0.0075140214
3356.1248291014	0.0074516637
3358.0536364745	0.0075933863
3359.9824438475	0.0075339028
3361.9112512206	0.0074119400
3363.8400585936	0.0076415478
3365.7688659667	0.0076419571
3367.6976733397	0.0076613664
3369.6264807128	0.0077455658
3371.5552880858	0.0077756299
3373.4840954589	0.0077085085
3375.4129028319	0.0076073064
3377.3417102049	0.0078283185
3379.2705175780	0.0077951993
3381.1993249510	0.0076922071
3383.1281323241	0.0077632084
3385.0569396971	0.0077836965
3386.9857470702	0.0078434758
3388.9145544432	0.0077433535
3390.8433618163	0.0078078574
3392.7721691893	0.0078528300
3394.7009765624	0.0078753643
3396.6297839354	0.0079696998
3398.5585913085	0.0078147333
3400.4873986815	0.0079378840
3402.4162060546	0.0080641843
3404.3450134276	0.0079883449
3406.2738208006	0.0080774054
3408.2026281737	0.0081400657
3410.1314355467	0.0081011709
3412.0602429198	0.0080807032
3413.9890502928	0.0082163140
3415.9178576659	0.0082551036
3417.8466650389	0.0080914702
3419.7754724120	0.0080700032
3421.7042797850	0.0082452903
3423.6330871581	0.0082931872
3425.5618945311	0.0082259001
3427.4907019042	0.0082893195
3429.4195092772	0.0083713755
3431.3483166503	0.0083463769
3433.2771240233	0.0083119767
3435.2059313963	0.0084067043
3437.1347387694	0.0084074493
3439.0635461424	0.0084027033
3440.9923535155	0.0084787896
3442.9211608885	0.0084235966
3444.8499682616	0.0084465099
3446.7787756346	0.0084381588
3448.7075830077	0.0084453057
3450.6363903807	0.0085718129
3452.5651977538	0.0085497946
3454.4940051268	0.0085219368
3456.4228124999	0.0086113662
3458.3516198729	0.0086184302
3460.2804272460	0.0086250361
3462.2092346190	0.0086398600
3464.1380419921	0.0085350685
3466.0668493651	0.0086659798
3467.9956567381	0.0087470021
3469.9244641112	0.0087090805
3471.8532714842	0.0087933373
3473.7820788573	0.0086752251
3475.7108862303	0.0087004043
3477.6396936034	0.0087816278
3479.5685009764	0.0088197049
3481.4973083495	0.0088466443
3483.4261157225	0.0086782090
3485.3549230956	0.0087336330
3487.2837304686	0.0087976679
3489.2125378417	0.0088149710
3491.1413452147	0.0089823138
3493.0701525878	0.0089647137
3494.9989599608	0.0088682733
3496.9277673338	0.0089390017
3498.8565747069	0.0090397270
3500.7853820799	0.0089930613
3502.7141894530	0.0088654011
3504.6429968260	0.0089344643
3506.5718041991	0.0090709962
3508.5006115721	0.0090249032
3510.4294189452	0.0090412237
3512.3582263182	0.0089951269
3514.2870336913	0.0090435063
3516.2158410643	0.0091743954
3518.1446484374	0.0090820305
3520.0734558104	0.0091701364
3522.0022631835	0.0091200639
3523.9310705565	0.0089934049
3525.8598779295	0.0090312334
3527.7886853026	0.0090615908
3529.7174926756	0.0091881249
3531.6463000487	0.0092016868
3533.5751074217	0.0092354845
3535.5039147948	0.0091101574
3537.4327221678	0.0090792049
3539.3615295409	0.0093021607
3541.2903369139	0.0092018982
3543.2191442870	0.0091459649
3545.1479516600	0.0090222731
3547.0767590331	0.0089082727
3549.0055664061	0.0091285957
3550.9343737792	0.0091042938
3552.8631811522	0.0091175074
3554.7919885252	0.0092312470
3556.7207958983	0.0091597605
3558.6496032713	0.0093273763
3560.5784106444	0.0091782808
3562.5072180174	0.0089823334
3564.4360253905	0.0091654751
3566.3648327635	0.0086435527
3568.2936401366	0.0085038813
3570.2224475096	0.0091249980
3572.1512548827	0.0091857743
3574.0800622557	0.0092001082
3576.0088696288	0.0092209876
3577.9376770018	0.0091662053
3579.8664843749	0.0092207482
3581.7952917479	0.0090906266
3583.7240991210	0.0091874860
3585.6529064940	0.0090199076
3587.5817138670	0.0083844922
3589.5105212401	0.0086532850
3591.4393286131	0.0091660582
3593.3681359862	0.0089672199
3595.2969433592	0.0089301355
3597.2257507323	0.0090507912
3599.1545581053	0.0089776795
3601.0833654784	0.0089065274
3603.0121728514	0.0089918701
3604.9409802245	0.0090503264
3606.8697875975	0.0088777337
3608.7985949706	0.0085027255
3610.7274023436	0.0085241962
3612.6562097167	0.0087314509
3614.5850170897	0.0086745480
3616.5138244627	0.0090038292
3618.4426318358	0.0084805731
3620.3714392088	0.0082988022
3622.3002465819	0.0089886319
3624.2290539549	0.0088702235
3626.1578613280	0.0091957618
3628.0866687010	0.0081017138
3630.0154760741	0.0075660772
3631.9442834471	0.0089537697
3633.8730908202	0.0087054474
3635.8018981932	0.0087715443
3637.7307055663	0.0089538489
3639.6595129393	0.0088317748
3641.5883203124	0.0089496709
3643.5171276854	0.0088649336
3645.4459350584	0.0089004943
3647.3747424315	0.0081605604
3649.3035498045	0.0075962106
3651.2323571776	0.0077374354
3653.1611645506	0.0088669360
3655.0899719237	0.0086779231
3657.0187792967	0.0078983977
3658.9475866698	0.0088869408
3660.8763940428	0.0086810812
3662.8052014159	0.0088001452
3664.7340087889	0.0087289643
3666.6628161620	0.0084925639
3668.5916235350	0.0083944704
3670.5204309081	0.0071139513
3672.4492382811	0.0082207778
3674.3780456541	0.0079063158
3676.3068530272	0.0067630713
3678.2356604002	0.0081146713
3680.1644677733	0.0082207872
3682.0932751463	0.0082472479
3684.0220825194	0.0083568785
3685.9508898924	0.0082183098
3687.8796972655	0.0075683971
3689.8085046385	0.0070529925
3691.7373120116	0.0077874027
3693.6661193846	0.0077628689
3695.5949267577	0.0079719592
3697.5237341307	0.0079905512
3699.4525415038	0.0077677881
3701.3813488768	0.0076142214
3703.3101562499	0.0073640393
3705.2389636229	0.0078607649
3707.1677709959	0.0075063268
3709.0965783690	0.0074245878
3711.0253857420	0.0070659355
3712.9541931151	0.0066908994
3714.8830004881	0.0075597838
3716.8118078612	0.0074342908
3718.7406152342	0.0074635525
3720.6694226073	0.0073084095
3722.5982299803	0.0071412837
3724.5270373534	0.0072893547
3726.4558447264	0.0068746498
3728.3846520995	0.0073136413
3730.3134594725	0.0072022853
3732.2422668456	0.0067237229
3734.1710742186	0.0064725643
3736.0998815916	0.0062674219
3738.0286889647	0.0065360665
3739.9574963377	0.0068982188
3741.8863037108	0.0071645966
3743.8151110838	0.0058262106
3745.7439184569	0.0056660422
3747.6727258299	0.0069111404
3749.6015332030	0.0060362620
3751.5303405760	0.0056493068
3753.4591479491	0.0063280188
3755.3879553221	0.0066314964
3757.3167626952	0.0067342315
3759.2455700682	0.0064411564
3761.1743774413	0.0066742906
3763.1031848143	0.0069043338
3765.0319921873	0.0065647662
3766.9607995604	0.0066693174
3768.8896069334	0.0064247316
3770.8184143065	0.0062163407
3772.7472216795	0.0067136046
3774.6760290526	0.0066165561
3776.6048364256	0.0066454355
3778.5336437987	0.0065367119
3780.4624511717	0.0063401945
3782.3912585448	0.0066182539
3784.3200659178	0.0063801282
3786.2488732909	0.0063492646
3788.1776806639	0.0064341603
3790.1064880370	0.0064262571
3792.0352954100	0.0064595137
3793.9641027830	0.0065420377
3795.8929101561	0.0062175980
3797.8217175291	0.0061929366
3799.7505249022	0.0063774041
3801.6793322752	0.0052101430
3803.6081396483	0.0060087801
3805.5369470213	0.0064211870
3807.4657543944	0.0054477421
3809.3945617674	0.0063204831
3811.3233691405	0.0061346591
3813.2521765135	0.0063869501
3815.1809838866	0.0059341313
3817.1097912596	0.0052624028
3819.0385986327	0.0063139079
3820.9674060057	0.0054279934
3822.8962133787	0.0055969264
3824.8250207518	0.0062637874
3826.7538281248	0.0058335820
3828.6826354979	0.0060866605
3830.6114428709	0.0058448319
3832.5402502440	0.0058070160
3834.4690576170	0.0058853533
3836.3978649901	0.0056112777
3838.3266723631	0.0051789116
3840.2554797362	0.0053948676
3842.1842871092	0.0058092503
3844.1130944823	0.0056386334
3846.0419018553	0.0059015285
3847.9707092284	0.0059442110
3849.8995166014	0.0059107658
3851.8283239745	0.0053313710
3853.7571313475	0.0042876061
3855.6859387205	0.0048814490
3857.6147460936	0.0058705583
3859.5435534666	0.0057399906
3861.4723608397	0.0056889961
3863.4011682127	0.0055778380
3865.3299755858	0.0052345013
3867.2587829588	0.0055960007
3869.1875903319	0.0052436031
3871.1163977049	0.0050508729
3873.0452050780	0.0056462316
3874.9740124510	0.0053297919
3876.9028198241	0.0056520198
3878.8316271971	0.0056835022
3880.7604345702	0.0051161554
3882.6892419432	0.0055769002
3884.6180493162	0.0052850037
3886.5468566893	0.0050529847
3888.4756640623	0.0056165596
3890.4044714354	0.0053368835
3892.3332788084	0.0051435661
3894.2620861815	0.0054739779
3896.1908935545	0.0055124583
3898.1197009276	0.0053676832
3900.0485083006	0.0050734999
3901.9773156737	0.0049792239
3903.9061230467	0.0050732158
3905.8349304198	0.0051409053
3907.7637377928	0.0054225391
3909.6925451659	0.0054418971
3911.6213525389	0.0053321989
3913.5501599119	0.0054113138
3915.4789672850	0.0053092008
3917.4077746580	0.0051343478
3919.3365820311	0.0051588011
3921.2653894041	0.0052743526
3923.1941967772	0.0051944731
3925.1230041502	0.0051091718
3927.0518115233	0.0051607825
3928.9806188963	0.0051922821
3930.9094262694	0.0051222164
3932.8382336424	0.0050729131
3934.7670410155	0.0051865359
3936.6958483885	0.0051647690
3938.6246557616	0.0051161246
3940.5534631346	0.0051451162
3942.4822705076	0.0050309380
3944.4110778807	0.0050167982
3946.3398852537	0.0050832359
3948.2686926268	0.0050208047
3950.1974999998	0.0050316690
3952.1263073729	0.0051128282
3954.0551147459	0.0050948309
3955.9839221190	0.0050690984
3957.9127294920	0.0050514480
3959.8415368651	0.0050485032
3961.7703442381	0.0049964394
3963.6991516112	0.0049288403
3965.6279589842	0.0050364332
3967.5567663573	0.0050162622
3969.4855737303	0.0049087526
3971.4143811034	0.0049660634
3973.3431884764	0.0049514361
3975.2719958494	0.0049079638
3977.2008032225	0.0048631495
3979.1296105955	0.0048578475
3981.0584179686	0.0049124793
3982.9872253416	0.0048415111
3984.9160327147	0.0048062904
3986.8448400877	0.0048214179
3988.7736474608	0.0048671244
3990.7024548338	0.0048815031
3992.6312622069	0.0048152395
3994.5600695799	0.0047876062
3996.4888769530	0.0047060242
3998.4176843260	0.0047216071
4000.3464916991	0.0047396473
4002.2752990721	0.0047684154
4004.2041064451	0.0048054401
4006.1329138182	0.0047135698
4008.0617211912	0.0047867782
4009.9905285643	0.0047956672
4011.9193359373	0.0047730450
4013.8481433104	0.0047175498
4015.7769506834	0.0046300339
4017.7057580565	0.0047242967
4019.6345654295	0.0047261501
4021.5633728026	0.0047108354
4023.4921801756	0.0045831744
4025.4209875487	0.0045456849
4027.3497949217	0.0045904284
4029.2786022948	0.0045236973
4031.2074096678	0.0045527574
4033.1362170408	0.0045008659
4035.0650244139	0.0045108893
4036.9938317869	0.0044686617
4038.9226391600	0.0044772085
4040.8514465330	0.0045219976
4042.7802539061	0.0044751456
4044.7090612791	0.0045286873
4046.6378686522	0.0044532623
4048.5666760252	0.0045049894
4050.4954833983	0.0044721169
4052.4242907713	0.0044014091
4054.3530981444	0.0044196323
4056.2819055174	0.0043024700
4058.2107128905	0.0043991031
4060.1395202635	0.0044024186
4062.0683276365	0.0043961694
4063.9971350096	0.0044253701
4065.9259423826	0.0043423688
4067.8547497557	0.0043381033
4069.7835571287	0.0042504892
4071.7123645018	0.0042808643
4073.6411718748	0.0043655345
4075.5699792479	0.0043090349
4077.4987866209	0.0042989058
4079.4275939940	0.0043378081
4081.3564013670	0.0043100454
4083.2852087401	0.0042865360
4085.2140161131	0.0042418651
4087.1428234862	0.0041888962
4089.0716308592	0.0041832142
4091.0004382323	0.0041638529
4092.9292456053	0.0042568026
4094.8580529783	0.0042450745
4096.7868603514	0.0041719833
4098.7156677244	0.0041381242
4100.6444750975	0.0041291816
4102.5732824705	0.0041804388
4104.5020898436	0.0041099945
4106.4308972166	0.0041754162
4108.3597045897	0.0041240347
4110.2885119627	0.0040632184
4112.2173193358	0.0041589914
4114.1461267088	0.0040632673
4116.0749340819	0.0040992303
4118.0037414549	0.0040834723
4119.9325488280	0.0040643709
4121.8613562010	0.0040903203
4123.7901635740	0.0039722854
4125.7189709471	0.0040142434
4127.6477783201	0.0040176534
4129.5765856932	0.0039613624
4131.5053930662	0.0039587538
4133.4342004393	0.0038896264
4135.3630078123	0.0038951044
4137.2918151854	0.0040076659
4139.2206225584	0.0040044282
4141.1494299315	0.0039528026
4143.0782373045	0.0039669047
4145.0070446776	0.0039056079
4146.9358520506	0.0038814615
4148.8646594237	0.0039202897
4150.7934667967	0.0038898592
4152.7222741697	0.0038347330
4154.6510815428	0.0038308171
4156.5798889158	0.0038694851
4158.5086962889	0.0038684974
4160.4375036619	0.0037851101
4162.3663110350	0.0037578288
4164.2951184080	0.0038002860
4166.2239257811	0.0037827264
4168.1527331541	0.0037583010
4170.0815405272	0.0037032869
4172.0103479002	0.0037454884
4173.9391552733	0.0037661130
4175.8679626463	0.0037201508
4177.7967700194	0.0038295314
4179.7255773924	0.0037527103
4181.6543847654	0.0036540483
4183.5831921385	0.0037724429
4185.5119995115	0.0037972433
4187.4408068846	0.0036785826
4189.3696142576	0.0036924516
4191.2984216307	0.0037645865
4193.2272290037	0.0036435490
4195.1560363768	0.0036519049
4197.0848437498	0.0036345695
4199.0136511229	0.0035633803
4200.9424584959	0.0036294847
4202.8712658690	0.0036030225
4204.8000732420	0.0035839258
4206.7288806151	0.0035222191
4208.6576879881	0.0035008672
4210.5864953611	0.0035108416
4212.5153027342	0.0034847443
4214.4441101072	0.0035268709
4216.3729174803	0.0035147783
4218.3017248533	0.0035546573
4220.2305322264	0.0035939591
4222.1593395994	0.0035243896
4224.0881469725	0.0034246356
4226.0169543455	0.0034205820
4227.9457617186	0.0034479625
4229.8745690916	0.0034173739
4231.8033764647	0.0035189744
4233.7321838377	0.0035615996
4235.6609912108	0.0034550300
4237.5897985838	0.0034305491
4239.5186059569	0.0034355354
4241.4474133299	0.0034010578
4243.3762207029	0.0034167171
4245.3050280760	0.0034367191
4247.2338354490	0.0033824951
4249.1626428221	0.0033224849
4251.0914501951	0.0033370354
4253.0202575682	0.0033469985
4254.9490649412	0.0032665753
4256.8778723143	0.0033440883
4258.8066796873	0.0034071002
4260.7354870604	0.0033306098
4262.6642944334	0.0033293783
4264.5931018065	0.0032611187
4266.5219091795	0.0033226714
4268.4507165526	0.0033557294
4270.3795239256	0.0032812892
4272.3083312986	0.0033434504
4274.2371386717	0.0032239461
4276.1659460447	0.0031484687
4278.0947534178	0.0032309105
4280.0235607908	0.0032458061
4281.9523681639	0.0032494543
4283.8811755369	0.0032318146
4285.8099829100	0.0032360994
4287.7387902830	0.0031960970
4289.6675976561	0.0031843293
4291.5964050291	0.0032233060
4293.5252124022	0.0031971158
4295.4540197752	0.0031752947
4297.3828271483	0.0031724547
4299.3116345213	0.0031477134
4301.2404418943	0.0031358178
4303.1692492674	0.0031881169
4305.0980566404	0.0031410530
4307.0268640135	0.0030797413
4308.9556713865	0.0031055661
4310.8844787596	0.0031090048
4312.8132861326	0.0031719354
4314.7420935057	0.0031191548
4316.6709008787	0.0030609472
4318.5997082518	0.0030710644
4320.5285156248	0.0029967509
4322.4573229979	0.0030470276
4324.3861303709	0.0030710152
4326.3149377440	0.0030459692
4328.2437451170	0.0030463291
4330.1725524900	0.0029981728
4332.1013598631	0.0029697767
4334.0301672361	0.0029742764
4335.9589746092	0.0029941946
4337.8877819822	0.0029230781
4339.8165893553	0.0029137731
4341.7453967283	0.0029396634
4343.6742041014	0.0029819408
4345.6030114744	0.0029886325
4347.5318188475	0.0028812771
4349.4606262205	0.0029737824
4351.3894335936	0.0029473638
4353.3182409666	0.0028803053
4355.2470483397	0.0029474888
4357.1758557127	0.0029101921
4359.1046630858	0.0029143956
4361.0334704588	0.0028933154
4362.9622778318	0.0029247962
4364.8910852049	0.0028953687
4366.8198925779	0.0028547179
4368.7486999510	0.0028650947
4370.6775073240	0.0028613447
4372.6063146971	0.0029198593
4374.5351220701	0.0027815122
4376.4639294432	0.0027893530
4378.3927368162	0.0027912203
4380.3215441893	0.0027341163
4382.2503515623	0.0029040449
4384.1791589354	0.0028499924
4386.1079663084	0.0028182180
4388.0367736815	0.0028316849
4389.9655810545	0.0027791180
4391.8943884275	0.0027713054
4393.8231958006	0.0027720807
4395.7520031736	0.0028178561
4397.6808105467	0.0027192761
4399.6096179197	0.0027505867
4401.5384252928	0.0028444142
4403.4672326658	0.0027686297
4405.3960400389	0.0027303221
4407.3248474119	0.0026939793
4409.2536547850	0.0027009316
4411.1824621580	0.0026889732
4413.1112695311	0.0026430185
4415.0400769041	0.0026859860
4416.9688842772	0.0026482595
4418.8976916502	0.0025658417
4420.8264990232	0.0026320159
4422.7553063963	0.0026299686
4424.6841137693	0.0026290335
4426.6129211424	0.0027355356
4428.5417285154	0.0026949020
4430.4705358885	0.0026446409
4432.3993432615	0.0025950957
4434.3281506346	0.0026126776
4436.2569580076	0.0026814651
4438.1857653807	0.0025443307
4440.1145727537	0.0025640028
4442.0433801268	0.0026511685
4443.9721874998	0.0024992917
4445.9009948729	0.0024737683
4447.8298022459	0.0025558167
4449.7586096189	0.0025472771
4451.6874169920	0.0025648838
4453.6162243650	0.0025466883
4455.5450317381	0.0025733425
4457.4738391111	0.0026227990
4459.4026464842	0.0025101556
4461.3314538572	0.0025128606
4463.2602612303	0.0025475672
4465.1890686033	0.0025132298
4467.1178759764	0.0025475137
4469.0466833494	0.0024745055
4470.9754907225	0.0024411166
4472.9042980955	0.0024920041
4474.8331054686	0.0024611361
4476.7619128416	0.0024133194
4478.6907202147	0.0024193865
4480.6195275877	0.0024339864
4482.5483349607	0.0024346195
4484.4771423338	0.0024742861
4486.4059497068	0.0024443511
4488.3347570799	0.0024505234
4490.2635644529	0.0024982463
4492.1923718260	0.0024294294
4494.1211791990	0.0023987985
4496.0499865721	0.0023945756
4497.9787939451	0.0023962511
4499.9076013182	0.0024039736
4501.8364086912	0.0024275258
4503.7652160643	0.0024232005
4505.6940234373	0.0022889774
4507.6228308104	0.0022885490
4509.5516381834	0.0023419959
4511.4804455564	0.0023316354
4513.4092529295	0.0023439224
4515.3380603025	0.0022746015
4517.2668676756	0.0023297267
4519.1956750486	0.0023645270
4521.1244824217	0.0022598493
4523.0532897947	0.0022949176
4524.9820971678	0.0022979970
4526.9109045408	0.0022943369
4528.8397119139	0.0023214766
4530.7685192869	0.0022593627
4532.6973266600	0.0022702105
4534.6261340330	0.0023029260
4536.5549414061	0.0023212726
4538.4837487791	0.0023270957
4540.4125561521	0.0022555445
4542.3413635252	0.0022263657
4544.2701708982	0.0022396755
4546.1989782713	0.0022227061
4548.1277856443	0.0021855866
4550.0565930174	0.0021800515
4551.9854003904	0.0022307127
4553.9142077635	0.0022392478
4555.8430151365	0.0022001399
4557.7718225096	0.0022007660
4559.7006298826	0.0021989243
4561.6294372557	0.0021475716
4563.5582446287	0.0021332316
4565.4870520018	0.0021679201
4567.4158593748	0.0021631070
4569.3446667478	0.0021336745
4571.2734741209	0.0021581061
4573.2022814939	0.0021733278
4575.1310888670	0.0021341154
4577.0598962400	0.0021698531
4578.9887036131	0.0021588709
4580.9175109861	0.0021408130
4582.8463183592	0.0021541473
4584.7751257322	0.0019964897
4586.7039331053	0.0020913430
4588.6327404783	0.0021671043
4590.5615478514	0.0019688846
4592.4903552244	0.0020687168
4594.4191625975	0.0020881100
4596.3479699705	0.0020457634
4598.2767773435	0.0020955042
4600.2055847166	0.0020368462
4602.1343920896	0.0020476161
4604.0631994627	0.0019832044
4605.9920068357	0.0020241742
4607.9208142088	0.0020709438
4609.8496215818	0.0020014369
4611.7784289549	0.0020635522
4613.7072363279	0.0020821197
4615.6360437010	0.0020275190
4617.5648510740	0.0019666087
4619.4936584471	0.0020151767
4621.4224658201	0.0020281114
4623.3512731932	0.0019814060
4625.2800805662	0.0019936154
4627.2088879393	0.0019643549
4629.1376953123	0.0019826652
4631.0665026853	0.0019562368
4632.9953100584	0.0019230000
4634.9241174314	0.0018615914
4636.8529248045	0.0018933064
4638.7817321775	0.0019879460
4640.7105395506	0.0018944332
4642.6393469236	0.0019362669
4644.5681542967	0.0019121161
4646.4969616697	0.0018633710
4648.4257690428	0.0019918429
4650.3545764158	0.0019678050
4652.2833837889	0.0018665812
4654.2121911619	0.0018781184
4656.1409985350	0.0019776025
4658.0698059080	0.0019280878
4659.9986132810	0.0018939605
4661.9274206541	0.0019084888
4663.8562280271	0.0018863240
4665.7850354002	0.0019224322
4667.7138427732	0.0018204275
4669.6426501463	0.0017959781
4671.5714575193	0.0018362296
4673.5002648924	0.0018856921
4675.4290722654	0.0019627055
4677.3578796385	0.0018701933
4679.2866870115	0.0018132840
4681.2154943846	0.0017652918
4683.1443017576	0.0017594813
4685.0731091307	0.0018804844
4687.0019165037	0.0018773612
4688.9307238767	0.0017993980
4690.8595312498	0.0018354275
4692.7883386228	0.0017736921
4694.7171459959	0.0017553153
4696.6459533689	0.0019283040
4698.5747607420	0.0018115987
4700.5035681150	0.0017275084
4702.4323754881	0.0017592055
4704.3611828611	0.0017440259
4706.2899902342	0.0018864196
4708.2187976072	0.0018016092
4710.1476049803	0.0017170911
4712.0764123533	0.0017349815
4714.0052197264	0.0017396205
4715.9340270994	0.0018041185
4717.8628344724	0.0017380398
4719.7916418455	0.0017548092
4721.7204492185	0.0017545077
4723.6492565916	0.0017339913
4725.5780639646	0.0017177686
4727.5068713377	0.0016330553
4729.4356787107	0.0017081319
4731.3644860838	0.0017442976
4733.2932934568	0.0016745105
4735.2221008299	0.0016305111
4737.1509082029	0.0016821442
4739.0797155760	0.0017128672
4741.0085229490	0.0016689876
4742.9373303221	0.0016671931
4744.8661376951	0.0016838100
4746.7949450682	0.0017366228
4748.7237524412	0.0016522264
4750.6525598142	0.0016275118
4752.5813671873	0.0016870373
4754.5101745603	0.0016309188
4756.4389819334	0.0016755601
4758.3677893064	0.0016695731
4760.2965966795	0.0016472223
4762.2254040525	0.0016412984
4764.1542114256	0.0015654619
4766.0830187986	0.0016131580
4768.0118261717	0.0017098360
4769.9406335447	0.0016764314
4771.8694409178	0.0015889942
4773.7982482908	0.0016040003
4775.7270556639	0.0015911967
4777.6558630369	0.0015894846
4779.5846704099	0.0015808861
4781.5134777830	0.0015381910
4783.4422851560	0.0015750604
4785.3710925291	0.0014938025
4787.2998999021	0.0015191291
4789.2287072752	0.0016333091
4791.1575146482	0.0016092632
4793.0863220213	0.0015702876
4795.0151293943	0.0015194931
4796.9439367674	0.0015551960
4798.8727441404	0.0015214601
4800.8015515135	0.0015108178
4802.7303588865	0.0015706226
4804.6591662596	0.0014611607
4806.5879736326	0.0014600885
4808.5167810056	0.0015429037
4810.4455883787	0.0015366573
4812.3743957517	0.0014879003
4814.3032031248	0.0014617159
4816.2320104978	0.0014989397
4818.1608178709	0.0015224026
4820.0896252439	0.0015192991
4822.0184326170	0.0014180907
4823.9472399900	0.0014381004
4825.8760473631	0.0015439830
4827.8048547361	0.0014812205
4829.7336621092	0.0015029529
4831.6624694822	0.0014815633
4833.5912768553	0.0014034976
4835.5200842283	0.0014385113
4837.4488916013	0.0014476597
4839.3776989744	0.0015253285
4841.3065063474	0.0015320086
4843.2353137205	0.0014281827
4845.1641210935	0.0014168515
4847.0929284666	0.0014523435
4849.0217358396	0.0014586325
4850.9505432127	0.0014409487
4852.8793505857	0.0014379093
4854.8081579588	0.0013790905
4856.7369653318	0.0013868879
4858.6657727049	0.0014234451
4860.5945800779	0.0014029740
4862.5233874510	0.0014552046
4864.4521948240	0.0014336440
4866.3810021971	0.0014168224
4868.3098095701	0.0014513072
4870.2386169431	0.0014347008
4872.1674243162	0.0013303384
4874.0962316892	0.0012876521
4876.0250390623	0.0014655362
4877.9538464353	0.0014481863
4879.8826538084	0.0013037962
4881.8114611814	0.0012920231
4883.7402685545	0.0013421983
4885.6690759275	0.0013996069
4887.5978833006	0.0013363233
4889.5266906736	0.0013726680
4891.4554980467	0.0014437163
4893.3843054197	0.0013389114
4895.3131127928	0.0012668940
4897.2419201658	0.0013352613
4899.1707275388	0.0013522712
4901.0995349119	0.0013071568
4903.0283422849	0.0013411085
4904.9571496580	0.0013515493
4906.8859570310	0.0013817047
4908.8147644041	0.0013438696
4910.7435717771	0.0013040476
4912.6723791502	0.0013031275
4914.6011865232	0.0012566806
4916.5299938963	0.0013454442
4918.4588012693	0.0012736053
4920.3876086424	0.0012410134
4922.3164160154	0.0013484248
4924.2452233885	0.0013104999
4926.1740307615	0.0013505078
4928.1028381345	0.0012595626
4930.0316455076	0.0011866598
4931.9604528806	0.0012703200
4933.8892602537	0.0012582869
4935.8180676267	0.0012511173
4937.7468749998	0.0012262907
4939.6756823728	0.0012177045
4941.6044897459	0.0011892584
4943.5332971189	0.0011646261
4945.4621044920	0.0012193688
4947.3909118650	0.0012181294
4949.3197192381	0.0012120833
4951.2485266111	0.0012464847
4953.1773339842	0.0012630324
4955.1061413572	0.0012184989
4957.0349487302	0.0011479530
4958.9637561033	0.0011747864
4960.8925634763	0.0011907425
4962.8213708494	0.0011302144
4964.7501782224	0.0011727964
4966.6789855955	0.0011686410
4968.6077929685	0.0011301715
4970.5366003416	0.0012522845
4972.4654077146	0.0012625945
4974.3942150877	0.0011767927
4976.3230224607	0.0011668293
4978.2518298338	0.0011462308
4980.1806372068	0.0011471591
4982.1094445799	0.0011799231
4984.0382519529	0.0011582442
4985.9670593259	0.0011592768
4987.8958666990	0.0012172135
4989.8246740720	0.0011597045
4991.7534814451	0.0011426221
4993.6822888181	0.0011522011
4995.6110961912	0.0010376024
4997.5399035642	0.0010808317
4999.4687109373	0.0011607329
5001.3975183103	0.0011314347
5003.3263256834	0.0011563040
5005.2551330564	0.0011781215
5007.1839404295	0.0011830293
5009.1127478025	0.0011679288
5011.0415551756	0.0011327136
5012.9703625486	0.0010976659
5014.8991699217	0.0010809681
5016.8279772947	0.0011617916
5018.7567846677	0.0011203708
5020.6855920408	0.0010396615
5022.6143994138	0.0011832255
5024.5432067869	0.0011527295
5026.4720141599	0.0010605636
5028.4008215330	0.0011183841
5030.3296289060	0.0010725643
5032.2584362791	0.0010963354
5034.1872436521	0.0011496437
5036.1160510252	0.0011452178
5038.0448583982	0.0010901302
5039.9736657713	0.0010690661
5041.9024731443	0.0011670566
5043.8312805174	0.0010997485
5045.7600878904	0.0010640065
5047.6888952634	0.0011498723
5049.6177026365	0.0011427167
5051.5465100095	0.0010841914
5053.4753173826	0.0010461514
5055.4041247556	0.0010275377
5057.3329321287	0.0009799601
5059.2617395017	0.0010446480
5061.1905468748	0.0010606099
5063.1193542478	0.0010362940
5065.0481616209	0.0010627292
5066.9769689939	0.0010393139
5068.9057763670	0.0010694321
5070.8345837400	0.0009804876
5072.7633911131	0.0009902760
5074.6921984861	0.0010956697
5076.6210058591	0.0010758783
5078.5498132322	0.0010849847
5080.4786206052	0.0010306686
5082.4074279783	0.0010326535
5084.3362353513	0.0010204811
5086.2650427244	0.0009501935
5088.1938500974	0.0009233652
5090.1226574705	0.0009782850
5092.0514648435	0.0010462285
5093.9802722166	0.0009584193
5095.9090795896	0.0009117636
5097.8378869627	0.0009048169
5099.7666943357	0.0010693099
5101.6955017088	0.0010651115
5103.6243090818	0.0008671588
5105.5531164548	0.0010190710
5107.4819238279	0.0009928066
5109.4107312009	0.0009081844
5111.3395385740	0.0009340236
5113.2683459470	0.0009417773
5115.1971533201	0.0009777646
5117.1259606931	0.0008928363
5119.0547680662	0.0009765518
5120.9835754392	0.0009809250
5122.9123828123	0.0009271605
5124.8411901853	0.0009428188
5126.7699975584	0.0009155063
5128.6988049314	0.0009281313
5130.6276123045	0.0008742564
5132.5564196775	0.0009886142
5134.4852270506	0.0009536272
5136.4140344236	0.0008234727
5138.3428417966	0.0009374369
5140.2716491697	0.0009314201
5142.2004565427	0.0008760134
5144.1292639158	0.0008845108
5146.0580712888	0.0009379379
5147.9868786619	0.0009310431
5149.9156860349	0.0009112456
5151.8444934080	0.0009261674
5153.7733007810	0.0009415010
5155.7021081541	0.0009441808
5157.6309155271	0.0008469049
5159.5597229002	0.0008971277
5161.4885302732	0.0008895361
5163.4173376463	0.0008359526
5165.3461450193	0.0008925082
5167.2749523923	0.0008475127
5169.2037597654	0.0008685328
5171.1325671384	0.0008586200
5173.0613745115	0.0008723190
5174.9901818845	0.0008995844
5176.9189892576	0.0008332638
5178.8477966306	0.0008864829
5180.7766040037	0.0009039093
5182.7054113767	0.0008544034
5184.6342187498	0.0008461467
5186.5630261228	0.0008552521
5188.4918334959	0.0008065021
5190.4206408689	0.0008186745
5192.3494482420	0.0008870867
5194.2782556150	0.0007853527
5196.2070629880	0.0008462337
5198.1358703611	0.0009560195
5200.0646777341	0.0008338717
5201.9934851072	0.0008111785
5203.9222924802	0.0008356558
5205.8510998533	0.0008397966
5207.7799072263	0.0008541610
5209.7087145994	0.0007924415
5211.6375219724	0.0007635399
5213.5663293455	0.0008102029
5215.4951367185	0.0008272269
5217.4239440916	0.0007899487
5219.3527514646	0.0007958435
5221.2815588377	0.0008081192
5223.2103662107	0.0008154463
5225.1391735837	0.0007988406
5227.0679809568	0.0008008312
5228.9967883298	0.0008817323
5230.9255957029	0.0008128665
5232.8544030759	0.0007856824
5234.7832104490	0.0008094086
5236.7120178220	0.0007573358
5238.6408251951	0.0008402326
5240.5696325681	0.0007994696
5242.4984399412	0.0007284294
5244.4272473142	0.0007691771
5246.3560546873	0.0007966084
5248.2848620603	0.0007924447
5250.2136694334	0.0007137678
5252.1424768064	0.0007976664
5254.0712841795	0.0008204798
5256.0000915525	0.0007198191
5257.9288989255	0.0007662377
5259.8577062986	0.0007788185
5261.7865136716	0.0007057745
5263.7153210447	0.0006698539
5265.6441284177	0.0007350920
5267.5729357908	0.0007533457
5269.5017431638	0.0007549452
5271.4305505369	0.0007795399
5273.3593579099	0.0007446732
5275.2881652830	0.0007316630
5277.2169726560	0.0007308638
5279.1457800291	0.0007717899
5281.0745874021	0.0007544406
5283.0033947752	0.0007184059
5284.9322021482	0.0007066506
5286.8610095212	0.0006870743
5288.7898168943	0.0007342197
5290.7186242673	0.0007070678
5292.6474316404	0.0007017093
5294.5762390134	0.0007442177
5296.5050463865	0.0007697734
5298.4338537595	0.0007853825
5300.3626611326	0.0007036129
5302.2914685056	0.0006818970
5304.2202758787	0.0007662370
5306.1490832517	0.0007396644
5308.0778906248	0.0006482939
5310.0066979978	0.0007061627
5311.9355053709	0.0006976617
5313.8643127439	0.0006548028
5315.7931201169	0.0007027324
5317.7219274900	0.0006559286
5319.6507348630	0.0006959224
5321.5795422361	0.0007508757
5323.5083496091	0.0007316181
5325.4371569822	0.0006803059
5327.3659643552	0.0006163043
5329.2947717283	0.0006532550
5331.2235791013	0.0006352944
5333.1523864744	0.0006548125
5335.0811938474	0.0006944755
5337.0100012205	0.0006757664
5338.9388085935	0.0006775520
5340.8676159666	0.0006816674
5342.7964233396	0.0007335170
5344.7252307126	0.0006661016
5346.6540380857	0.0006004936
5348.5828454587	0.0006167043
5350.5116528318	0.0006125743
5352.4404602048	0.0006945843
5354.3692675779	0.0006471274
5356.2980749509	0.0005548950
5358.2268823240	0.0006510768
5360.1556896970	0.0006444742
5362.0844970701	0.0005774692
5364.0133044431	0.0006551491
5365.9421118162	0.0006244465
5367.8709191892	0.0006101613
5369.7997265623	0.0006917579
5371.7285339353	0.0006585983
5373.6573413083	0.0006661311
5375.5861486814	0.0006151758
5377.5149560544	0.0006244786
5379.4437634275	0.0006693603
5381.3725708005	0.0006122421
5383.3013781736	0.0006811537
5385.2301855466	0.0006130977
5387.1589929197	0.0005998492
5389.0878002927	0.0006280959
5391.0166076658	0.0005738577
5392.9454150388	0.0006287682
5394.8742224119	0.0005757792
5396.8030297849	0.0006563385
5398.7318371580	0.0006280282
5400.6606445310	0.0005382086
5402.5894519041	0.0006238436
5404.5182592771	0.0005535887
5406.4470666501	0.0005915872
5408.3758740232	0.0006094730
5410.3046813962	0.0006196005
5412.2334887693	0.0006082850
5414.1622961423	0.0005108528
5416.0911035154	0.0005875235
5418.0199108884	0.0005881095
5419.9487182615	0.0005637013
5421.8775256345	0.0005381395
5423.8063330076	0.0005394015
5425.7351403806	0.0005816654
5427.6639477537	0.0005950023
5429.5927551267	0.0005893108
5431.5215624998	0.0004860431
5433.4503698728	0.0005106950
5435.3791772458	0.0005449899
5437.3079846189	0.0005733031
5439.2367919919	0.0005609130
5441.1655993650	0.0005226758
5443.0944067380	0.0006078142
5445.0232141111	0.0005395784
5446.9520214841	0.0005593157
5448.8808288572	0.0005996697
5450.8096362302	0.0005507931
5452.7384436033	0.0005783925
5454.6672509763	0.0005505993
5456.5960583494	0.0005709255
5458.5248657224	0.0005391816
5460.4536730955	0.0005296819
5462.3824804685	0.0005991115
5464.3112878415	0.0005649758
5466.2400952146	0.0005082341
5468.1689025876	0.0005227663
5470.0977099607	0.0005590440
5472.0265173337	0.0005367169
5473.9553247068	0.0005624838
5475.8841320798	0.0005551022
5477.8129394529	0.0005188938
5479.7417468259	0.0005796653
5481.6705541990	0.0005747933
5483.5993615720	0.0005400154
5485.5281689451	0.0005633392
5487.4569763181	0.0005491594
5489.3857836912	0.0005652329
5491.3145910642	0.0005564294
5493.2433984372	0.0004722653
5495.1722058103	0.0005250685
5497.1010131833	0.0004859823
5499.0298205564	0.0004233197
5500.9586279294	0.0005277643
5502.8874353025	0.0005288662
5504.8162426755	0.0005686439
5506.7450500486	0.0005641211
5508.6738574216	0.0005423871
5510.6026647947	0.0005935658
5512.5314721677	0.0005432929
5514.4602795408	0.0005589948
5516.3890869138	0.0004908257
5518.3178942869	0.0004700873
5520.2467016599	0.0005718225
5522.1755090330	0.0004815804
5524.1043164060	0.0004387844
5526.0331237790	0.0004459933
5527.9619311521	0.0004914491
5529.8907385251	0.0005701100
5531.8195458982	0.0005376066
5533.7483532712	0.0005578100
5535.6771606443	0.0004411807
5537.6059680173	0.0003951080
5539.5347753904	0.0005558440
5541.4635827634	0.0005682198
5543.3923901365	0.0005820629
5545.3211975095	0.0004637170
5547.2500048826	0.0004543904
5549.1788122556	0.0005806840
5551.1076196287	0.0004593272
5553.0364270017	0.0004788174
5554.9652343747	0.0004601958
5556.8940417478	0.0003924521
5558.8228491208	0.0004535918
5560.7516564939	0.0004805377
5562.6804638669	0.0004831778
5564.6092712400	0.0004028967
5566.5380786130	0.0004776205
5568.4668859861	0.0005250731
5570.3956933591	0.0004433747
5572.3245007322	0.0004694923
5574.2533081052	0.0004827961
5576.1821154783	0.0004766585
5578.1109228513	0.0004598937
5580.0397302244	0.0004249038
5581.9685375974	0.0004426067
5583.8973449704	0.0004686697
5585.8261523435	0.0003972822
5587.7549597165	0.0004808236
5589.6837670896	0.0005096538
5591.6125744626	0.0003975918
5593.5413818357	0.0005158149
5595.4701892087	0.0004682499
5597.3989965818	0.0004831761
5599.3278039548	0.0005780204
5601.2566113279	0.0004401332
5603.1854187009	0.0004656201
5605.1142260740	0.0004471888
5607.0430334470	0.0003806594
5608.9718408201	0.0004320894
5610.9006481931	0.0004280687
5612.8294555661	0.0004278709
5614.7582629392	0.0004573311
5616.6870703122	0.0004639468
5618.6158776853	0.0004389430
5620.5446850583	0.0003450706
5622.4734924314	0.0003661460
5624.4022998044	0.0004852758
5626.3311071775	0.0004111114
5628.2599145505	0.0004204488
5630.1887219236	0.0004477700
5632.1175292966	0.0003990030
5634.0463366697	0.0004466913
5635.9751440427	0.0004498552
5637.9039514158	0.0004930699
5639.8327587888	0.0004868312
5641.7615661619	0.0004617558
5643.6903735349	0.0004033275
5645.6191809079	0.0003741123
5647.5479882810	0.0004528242
5649.4767956540	0.0003739290
5651.4056030271	0.0003806683
5653.3344104001	0.0004503757
5655.2632177732	0.0004285574
5657.1920251462	0.0004264748
5659.1208325193	0.0004346878
5661.0496398923	0.0004148657
5662.9784472654	0.0003920420
5664.9072546384	0.0003951511
5666.8360620115	0.0003461787
5668.7648693845	0.0003887519
5670.6936767576	0.0003995640
5672.6224841306	0.0003723793
5674.5512915036	0.0004258862
5676.4800988767	0.0004010961
5678.4089062497	0.0003856670
5680.3377136228	0.0003854791
5682.2665209958	0.0003797909
5684.1953283689	0.0004000606
5686.1241357419	0.0004289635
5688.0529431150	0.0003800396
5689.9817504880	0.0003653393
5691.9105578611	0.0004277598
5693.8393652341	0.0004366408
5695.7681726072	0.0004286756
5697.6969799802	0.0003365506
5699.6257873533	0.0003420042
5701.5545947263	0.0003587308
5703.4834020993	0.0003442468
5705.4122094724	0.0003884732
5707.3410168454	0.0003211415
5709.2698242185	0.0003582313
5711.1986315915	0.0004097552
5713.1274389646	0.0003983592
5715.0562463376	0.0003793813
5716.9850537107	0.0003423148
5718.9138610837	0.0003431352
5720.8426684568	0.0002743816
5722.7714758298	0.0002851837
5724.7002832029	0.0003500750
5726.6290905759	0.0003322642
5728.5578979490	0.0003065039
5730.4867053220	0.0002901917
5732.4155126950	0.0002771578
5734.3443200681	0.0003220181
5736.2731274411	0.0003626985
5738.2019348142	0.0003652311
5740.1307421872	0.0003742442
5742.0595495603	0.0003246697
5743.9883569333	0.0003714618
5745.9171643064	0.0003852434
5747.8459716794	0.0003202056
5749.7747790525	0.0003722155
5751.7035864255	0.0003709338
5753.6323937986	0.0002992642
5755.5612011716	0.0003014402
5757.4900085447	0.0003861070
5759.4188159177	0.0003365082
5761.3476232907	0.0003151310
5763.2764306638	0.0003659188
5765.2052380368	0.0003033296
5767.1340454099	0.0002831130
5769.0628527829	0.0003026040
5770.9916601560	0.0003914164
5772.9204675290	0.0003340382
5774.8492749021	0.0002734416
5776.7780822751	0.0003280833
5778.7068896482	0.0002831263
5780.6356970212	0.0003401063
5782.5645043943	0.0003236585
5784.4933117673	0.0003062907
5786.4221191404	0.0003423654
5788.3509265134	0.0003188881
5790.2797338865	0.0003630499
5792.2085412595	0.0003437875
5794.1373486325	0.0002830976
5796.0661560056	0.0002439215
5797.9949633786	0.0002810574
5799.9237707517	0.0003308666
5801.8525781247	0.0003471482
5803.7813854978	0.0003742424
5805.7101928708	0.0003819775
5807.6390002439	0.0003524703
5809.5678076169	0.0002860511
5811.4966149900	0.0003112060
5813.4254223630	0.0003370398
5815.3542297361	0.0003151131
5817.2830371091	0.0002873301
5819.2118444822	0.0003440764
5821.1406518552	0.0003772325
5823.0694592282	0.0002713737
5824.9982666013	0.0002795386
5826.9270739743	0.0002599588
5828.8558813474	0.0002745702
5830.7846887204	0.0002924330
5832.7134960935	0.0003089614
5834.6423034665	0.0003898894
5836.5711108396	0.0002343887
5838.4999182126	0.0002692465
5840.4287255857	0.0003158714
5842.3575329587	0.0002367916
5844.2863403318	0.0003235863
5846.2151477048	0.0002454639
5848.1439550779	0.0002391899
5850.0727624509	0.0002519460
5852.0015698239	0.0002521836
5853.9303771970	0.0002978673
5855.8591845700	0.0002488372
5857.7879919431	0.0003464854
5859.7167993161	0.0002868819
5861.6456066892	0.0002374390
5863.5744140622	0.0003130868
5865.5032214353	0.0002526452
5867.4320288083	0.0003251904
5869.3608361814	0.0003294287
5871.2896435544	0.0002728919
5873.2184509275	0.0002505860
5875.1472583005	0.0001957333
5877.0760656736	0.0002501416
5879.0048730466	0.0003053165
5880.9336804196	0.0002877163
5882.8624877927	0.0002493677
5884.7912951657	0.0002972514
5886.7201025388	0.0002858049
5888.6489099118	0.0002633679
5890.5777172849	0.0003104944
5892.5065246579	0.0002438042
5894.4353320310	0.0002329397
5896.3641394040	0.0002607860
5898.2929467771	0.0002630516
5900.2217541501	0.0002466309
5902.1505615232	0.0002222833
5904.0793688962	0.0002463992
5906.0081762693	0.0002975915
5907.9369836423	0.0002941461
5909.8657910154	0.0001740523
5911.7945983884	0.0002295172
5913.7234057614	0.0003073170
5915.6522131345	0.0002697700
5917.5810205075	0.0002339590
5919.5098278806	0.0002220821
5921.4386352536	0.0003419592
5923.3674426267	0.0002872483
5925.2962499997	0.0002480006
5927.2250573728	0.0002698491
5929.1538647458	0.0002062648
5931.0826721189	0.0002760596
5933.0114794919	0.0002781200
5934.9402868650	0.0002894420
5936.8690942380	0.0002546640
5938.7979016111	0.0002128574
5940.7267089841	0.0002782561
5942.6555163571	0.0002583699
5944.5843237302	0.0002685062
5946.5131311032	0.0002609495
5948.4419384763	0.0002558677
5950.3707458493	0.0002554275
5952.2995532224	0.0002280024
5954.2283605954	0.0002334079
5956.1571679685	0.0002313098
5958.0859753415	0.0002348102
5960.0147827146	0.0001996490
5961.9435900876	0.0002028680
5963.8723974607	0.0002427260
5965.8012048337	0.0002446113
5967.7300122068	0.0002502098
5969.6588195798	0.0002619523
5971.5876269528	0.0002279747
5973.5164343259	0.0002343219
5975.4452416989	0.0002867026
5977.3740490720	0.0002373549
5979.3028564450	0.0002327955
5981.2316638181	0.0002304138
5983.1604711911	0.0001918144
5985.0892785642	0.0002440151
5987.0180859372	0.0002151909
5988.9468933103	0.0001716240
5990.8757006833	0.0002498383
5992.8045080564	0.0002622657
5994.7333154294	0.0001889093
5996.6621228025	0.0001962435
5998.5909301755	0.0001913839
6000.5197375485	0.0001882497
