399.2631262207	0.8258763552
401.1919335938	0.5084791183
403.1207409668	0.4307805896
405.0495483398	0.7918158770
406.9783557129	0.2714515328
408.9071630859	0.1425952911
410.8359704590	0.5014214516
412.7647778320	0.6307951212
414.6935852051	0.4275347292
416.6223925781	0.1634821445
418.5511999512	0.3041886985
420.4800073242	0.1285218298
422.4088146973	0.1223752499
424.3376220703	0.1198084801
426.2664294434	0.2405816168
428.1952368164	0.2525240183
430.1240441895	0.2761899829
432.0528515625	0.3873039186
433.9816589355	0.4259482324
435.9104663086	0.6831269264
437.8392736816	0.3603401482
439.7680810547	-0.0030085631
441.6968884277	0.0242268089
443.6256958008	0.5664091110
445.5545031738	0.2251858711
447.4833105469	0.5222405195
449.4121179199	0.6436321735
451.3409252930	0.3149564564
453.2697326660	0.3839749098
455.1985400391	0.3053547144
457.1273474121	0.6691591144
459.0561547852	0.2477165014
460.9849621582	0.2002997547
462.9137695313	0.6142175794
464.8425769043	0.4218004942
466.7713842773	0.3663260043
468.7001916504	-0.1219504029
470.6289990234	0.2360178828
472.5578063965	0.5080898404
474.4866137695	0.3702283204
476.4154211426	-0.0860449001
478.3442285156	0.1057986096
480.2730358887	1.1918474436
482.2018432617	-0.9115653038
484.1306506348	-0.6722641587
486.0594580078	-0.2664378285
487.9882653809	1.0641721487
489.9170727539	1.0929179192
491.8458801270	-0.4138614535
493.7746875000	0.3164162636
495.7034948730	0.6742437482
497.6323022461	1.4573128223
499.5611096191	-28.5587635040
501.4899169922	-0.9088251591
503.4187243652	-0.5961081982
505.3475317383	0.8176786304
507.2763391113	-0.2999854088
509.2051464844	0.1636649519
511.1339538574	-0.9410465360
513.0627612305	-2.0342943668
514.9915686035	0.4678912461
516.9203759766	2.1785600185
518.8491833496	1.2686579227
520.7779907227	0.2204952687
522.7067980957	-0.0260672867
524.6356054688	0.8373364210
526.5644128418	0.6551422477
528.4932202148	-0.3987560868
530.4220275879	0.2704166174
532.3508349609	1.9988371134
534.2796423340	1.4840881824
536.2084497070	-0.0257865340
538.1372570801	1.8353345394
540.0660644531	-10.2479286194
541.9948718262	-1.0257014036
543.9236791992	1.3752747774
545.8524865723	0.4324481487
547.7812939453	-0.8757275343
549.7101013184	-2.6057069302
551.6389086914	3.9505269527
553.5677160645	-1.4654929638
555.4965234375	0.3527791202
557.4253308105	-0.3493107259
559.3541381836	-0.2912154794
561.2829455566	0.0784624517
563.2117529297	0.0622940175
565.1405603027	1.7841408253
567.0693676758	1.9785522223
568.9981750488	-0.1286675781
570.9269824219	1.0059295893
572.8557897949	-0.0319878273
574.7845971680	1.6156758070
576.7134045410	2.9239120483
578.6422119141	0.2501876354
580.5710192871	-23.4772834778
582.4998266602	2.6854085922
584.4286340332	1.2420983315
586.3574414063	-0.0691812560
588.2862487793	-0.6555004716
590.2150561523	-0.6873084307
592.1438635254	-1.0186742544
594.0726708984	0.3086991608
596.0014782715	3.3780808449
597.9302856445	-1.0203831196
599.8590930176	1.3484694958
601.7879003906	101.0982055664
603.7167077637	-0.0114915073
605.6455151367	-0.0953862891
607.5743225098	-0.6348038912
609.5031298828	0.5039433837
611.4319372559	-1.3773661852
613.3607446289	-0.7065380812
615.2895520020	60.2167510986
617.2183593750	-3.7049612999
619.1471667480	0.6051294804
621.0759741211	4.4100947380
623.0047814941	0.3732093275
624.9335888672	-0.1056978852
626.8623962402	-0.7703260779
628.7912036133	-0.3696978092
630.7200109863	-0.0192139391
632.6488183594	0.5477283001
634.5776257324	0.6907348037
636.5064331055	0.8798564076
638.4352404785	0.4234565198
640.3640478516	0.6777920723
642.2928552246	0.7311959863
644.2216625977	0.3408501446
646.1504699707	0.5162982345
648.0792773438	0.3814180195
650.0080847168	0.4364086092
651.9368920898	0.5318822265
653.8656994629	0.3353201151
655.7945068359	0.5259409547
657.7233142090	0.5161358714
659.6521215820	0.3896693289
661.5809289551	0.4709855914
663.5097363281	0.4272514582
665.4385437012	0.4960942268
667.3673510742	0.5508069396
669.2961584473	0.4706685543
671.2249658203	0.5195242167
673.1537731934	0.5960893035
675.0825805664	0.5905660391
677.0113879395	0.4280175269
678.9401953125	0.4150686264
680.8690026855	0.5476570725
682.7978100586	0.4676519334
684.7266174316	0.4998123348
686.6554248047	0.5925805569
688.5842321777	0.5370400548
690.5130395508	0.4900267422
692.4418469238	0.6013342142
694.3706542969	0.6653183103
696.2994616699	0.4550561905
698.2282690430	0.4801127315
700.1570764160	0.5439839959
702.0858837891	0.4748873115
704.0146911621	0.5350640416
705.9434985352	0.5806437731
707.8723059082	0.5706343055
709.8011132813	0.5914155245
711.7299206543	0.5253694057
713.6587280273	0.3494904041
715.5875354004	0.5642431974
717.5163427734	0.7863465548
719.4451501465	0.0629878864
721.3739575195	0.5229077339
723.3027648926	0.7187290788
725.2315722656	-1.6432207823
727.1603796387	-0.4939174056
729.0891870117	-2.9931321144
731.0179943848	0.1651425809
732.9468017578	0.6845095158
734.8756091309	-1.8589922190
736.8044165039	0.8063881397
738.7332238770	-4.6447572708
740.6620312500	-5.4377789497
742.5908386230	-1.1098122597
744.5196459961	0.4524926543
746.4484533691	2.3548662663
748.3772607422	86.7107925415
750.3060681152	2.5806593895
752.2348754883	11.2704629898
754.1636828613	6.6649560928
756.0924902344	0.3740738928
758.0212976074	0.3048257530
759.9501049805	0.5203897953
761.8789123535	0.7683677673
763.8077197266	4.1551303864
765.7365270996	0.3624242246
767.6653344727	-0.0140902717
769.5941418457	-3.8882486820
771.5229492188	0.9262755513
773.4517565918	0.5986007452
775.3805639648	0.9404176474
777.3093713379	1.4296326637
779.2381787109	0.0958738551
781.1669860840	0.2313953936
783.0957934570	3.2600102425
785.0246008301	0.5021017790
786.9534082031	1.0419756174
788.8822155762	0.9094564915
790.8110229492	0.6485849023
792.7398303223	2.5738356113
794.6686376953	2.2211050987
796.5974450684	0.8170747757
798.5262524414	0.7102486491
800.4550598145	0.4484984577
802.3838671875	0.7929034233
804.3126745605	0.6102917194
806.2414819336	0.4832684994
808.1702893066	0.5089725852
810.0990966797	-0.1683412790
812.0279040527	2.7103698254
813.9567114258	0.6919647455
815.8855187988	1.1157993078
817.8143261719	1.0028313398
819.7431335449	0.4853855371
821.6719409180	4.3660717010
823.6007482910	0.8474116325
825.5295556641	0.6051525474
827.4583630371	0.7388748527
829.3871704102	0.3341814876
831.3159777832	0.7185664177
833.2447851563	0.8258980513
835.1735925293	0.8214145899
837.1023999023	0.9024255872
839.0312072754	0.7109019756
840.9600146484	0.7305971384
842.8888220215	0.7713158131
844.8176293945	0.9381287694
846.7464367676	0.6849878430
848.6752441406	0.5581364632
850.6040515137	0.9619717598
852.5328588867	0.9403796196
854.4616662598	0.6242455244
856.3904736328	0.4332965016
858.3192810059	1.0635641813
860.2480883789	2.9620912075
862.1768957520	0.7802132964
864.1057031250	0.7016043663
866.0345104980	1.7826691866
867.9633178711	0.7962229252
869.8921252441	1.0330454111
871.8209326172	0.7642044425
873.7497399902	0.4289005399
875.6785473633	1.1114351749
877.6073547363	0.3442872167
879.5361621094	0.5607153177
881.4649694824	1.5053387880
883.3937768555	0.2964100540
885.3225842285	0.5418323278
887.2513916016	0.8454101682
889.1801989746	0.7845466137
891.1090063477	0.5334579945
893.0378137207	0.8015567064
894.9666210938	2.3143048286
896.8954284668	3.7870280743
898.8242358398	0.5662655234
900.7530432129	0.5013914704
902.6818505859	1.1750746965
904.6106579590	0.3776832223
906.5394653320	0.7013815045
908.4682727051	0.9047812223
910.3970800781	0.4810183942
912.3258874512	0.5038727522
914.2546948242	0.5177709460
916.1835021973	0.9361203909
918.1123095703	0.8379493952
920.0411169434	0.6066820621
921.9699243164	0.7556244731
923.8987316895	0.6445876956
925.8275390625	0.5336524248
927.7563464355	0.7882333994
929.6851538086	0.6313995719
931.6139611816	0.5303485990
933.5427685547	0.7959381938
935.4715759277	0.4278342426
937.4003833008	0.3950928450
939.3291906738	0.6293829083
941.2579980469	0.5600808859
943.1868054199	0.5193240643
945.1156127930	0.5609984398
947.0444201660	0.5203517675
948.9732275391	0.5211663246
950.9020349121	0.6596715450
952.8308422852	0.5958170295
954.7596496582	0.5842595100
956.6884570313	0.7288448215
958.6172644043	0.6445478797
960.5460717773	0.7570967674
962.4748791504	0.6548581719
964.4036865234	0.4914650321
966.3324938965	0.6486477852
968.2613012695	0.5818628073
970.1901086426	0.5903882384
972.1189160156	0.7790532112
974.0477233887	0.6714288592
975.9765307617	0.6185882688
977.9053381348	0.5091962814
979.8341455078	0.5778049827
981.7629528809	0.6968623996
983.6917602539	0.5036042929
985.6205676270	0.5295370817
987.5493750000	0.5549243689
989.4781823730	0.5442928672
991.4069897461	0.5556656718
993.3357971191	0.5091187954
995.2646044922	0.5334909558
997.1934118652	0.5293162465
999.1222192383	0.5286455750
1001.0510266113	0.5194916129
1002.9798339844	0.5292307138
1004.9086413574	0.5149244070
1006.8374487305	0.4768944085
1008.7662561035	0.5192170739
1010.6950634766	0.5169470906
1012.6238708496	0.5141846538
1014.5526782227	0.5257216692
1016.4814855957	0.5132887363
1018.4102929688	0.5062903762
1020.3391003418	0.4930189848
1022.2679077148	0.5101952553
1024.1967150879	0.5162120461
1026.1255224609	0.5072999597
1028.0543298340	0.5007886291
1029.9831372070	0.5008507967
1031.9119445801	0.5018056035
1033.8407519531	0.4877730310
1035.7695593262	0.4851536751
1037.6983666992	0.4938090444
1039.6271740723	0.4972753525
1041.5559814453	0.4875988066
1043.4847888184	0.4947525859
1045.4135961914	0.4859861732
1047.3424035645	0.4816079736
1049.2712109375	0.5129687190
1051.2000183105	0.4968934357
1053.1288256836	0.4884070456
1055.0576330566	0.4975833297
1056.9864404297	0.4863938987
1058.9152478027	0.5003593564
1060.8440551758	0.5058549047
1062.7728625488	0.4939687550
1064.7016699219	0.5009608865
1066.6304772949	0.5110527277
1068.5592846680	0.5002517104
1070.4880920410	0.4956084192
1072.4168994141	0.4907419682
1074.3457067871	0.4747155607
1076.2745141602	0.4845081270
1078.2033215332	0.5010854602
1080.1321289062	0.4951038957
1082.0609362793	0.4891179204
1083.9897436523	0.5085187554
1085.9185510254	0.5169411302
1087.8473583984	0.4822864830
1089.7761657715	0.4940215051
1091.7049731445	0.5449327826
1093.6337805176	0.5265361071
1095.5625878906	0.5290180445
1097.4913952637	0.5450340509
1099.4202026367	0.4926517010
1101.3490100098	0.4839476645
1103.2778173828	0.5078028440
1105.2066247559	0.5125340223
1107.1354321289	0.5190909505
1109.0642395019	0.4849124551
1110.9930468750	0.4698514640
1112.9218542480	0.4989116788
1114.8506616211	0.4972427487
1116.7794689941	0.5171331167
1118.7082763672	0.5029395819
1120.6370837402	0.4594650865
1122.5658911133	0.4951642156
1124.4946984863	0.4928407669
1126.4235058594	0.5446457267
1128.3523132324	0.5389824510
1130.2811206055	0.4618738294
1132.2099279785	0.5370346904
1134.1387353516	0.5265399218
1136.0675427246	0.5129404664
1137.9963500977	0.5161723495
1139.9251574707	0.4959510863
1141.8539648437	0.5388350487
1143.7827722168	0.5028935075
1145.7115795898	0.4940873981
1147.6403869629	0.4902392030
1149.5691943359	0.4895762503
1151.4980017090	0.5033081770
1153.4268090820	0.4760074914
1155.3556164551	0.4983187318
1157.2844238281	0.4909653664
1159.2132312012	0.4698745310
1161.1420385742	0.4874818623
1163.0708459473	0.4643509090
1164.9996533203	0.4447414577
1166.9284606934	0.4687520862
1168.8572680664	0.4770027697
1170.7860754394	0.4784747362
1172.7148828125	0.4838955104
1174.6436901855	0.4745265543
1176.5724975586	0.4793121815
1178.5013049316	0.4679894447
1180.4301123047	0.4690082669
1182.3589196777	0.4796313643
1184.2877270508	0.4684116542
1186.2165344238	0.4757306874
1188.1453417969	0.4663862288
1190.0741491699	0.4713988602
1192.0029565430	0.4748009443
1193.9317639160	0.4564660192
1195.8605712891	0.4657457173
1197.7893786621	0.4628769755
1199.7181860351	0.4635188580
1201.6469934082	0.4700964391
1203.5758007812	0.4607538879
1205.5046081543	0.4645192921
1207.4334155273	0.4677753448
1209.3622229004	0.4632676840
1211.2910302734	0.4641690850
1213.2198376465	0.4687680006
1215.1486450195	0.4668473303
1217.0774523926	0.4599100351
1219.0062597656	0.4646263123
1220.9350671387	0.4645119905
1222.8638745117	0.4566410780
1224.7926818848	0.4634261131
1226.7214892578	0.4637342393
1228.6502966308	0.4582179189
1230.5791040039	0.4584539235
1232.5079113769	0.4574801922
1234.4367187500	0.4589217305
1236.3655261230	0.4530404806
1238.2943334961	0.4573368132
1240.2231408691	0.4635409713
1242.1519482422	0.4583306015
1244.0807556152	0.4616230130
1246.0095629883	0.4577445686
1247.9383703613	0.4537275136
1249.8671777344	0.4577780366
1251.7959851074	0.4631147981
1253.7247924805	0.4647247791
1255.6535998535	0.4624452293
1257.5824072266	0.4652274847
1259.5112145996	0.4608556926
1261.4400219726	0.4627647102
1263.3688293457	0.4611638188
1265.2976367187	0.4555868506
1267.2264440918	0.4646819532
1269.1552514648	0.4569258392
1271.0840588379	0.4579353034
1273.0128662109	0.4648036361
1274.9416735840	0.4560158849
1276.8704809570	0.4670045972
1278.7992883301	0.4687597454
1280.7280957031	0.4642660916
1282.6569030762	0.4627286792
1284.5857104492	0.4551854730
1286.5145178223	0.4704215825
1288.4433251953	0.4636767507
1290.3721325683	0.4491240382
1292.3009399414	0.4595065415
1294.2297473144	0.4588876963
1296.1585546875	0.4559863508
1298.0873620605	0.4605826437
1300.0161694336	0.4654854536
1301.9449768066	0.4544871449
1303.8737841797	0.4600853026
1305.8025915527	0.4660187364
1307.7313989258	0.4540493190
1309.6602062988	0.4672440588
1311.5890136719	0.4577850997
1313.5178210449	0.4552284479
1315.4466284180	0.4640177488
1317.3754357910	0.4525391459
1319.3042431640	0.4606561363
1321.2330505371	0.4595950842
1323.1618579101	0.4613479674
1325.0906652832	0.4632349610
1327.0194726562	0.4573253691
1328.9482800293	0.4637909830
1330.8770874023	0.4593874514
1332.8058947754	0.4572400749
1334.7347021484	0.4556505680
1336.6635095215	0.4481552839
1338.5923168945	0.4484202564
1340.5211242676	0.4519321918
1342.4499316406	0.4525015950
1344.3787390137	0.4512219131
1346.3075463867	0.4553606808
1348.2363537597	0.4589186609
1350.1651611328	0.4558426142
1352.0939685058	0.4557450712
1354.0227758789	0.4553782642
1355.9515832519	0.4486867487
1357.8803906250	0.4527551830
1359.8091979980	0.4553158283
1361.7380053711	0.4515043199
1363.6668127441	0.4561178088
1365.5956201172	0.4565456510
1367.5244274902	0.4573474228
1369.4532348633	0.4548117220
1371.3820422363	0.4544596374
1373.3108496094	0.4534713328
1375.2396569824	0.4485923946
1377.1684643555	0.4538045228
1379.0972717285	0.4498715103
1381.0260791015	0.4509067535
1382.9548864746	0.4542190731
1384.8836938476	0.4501322508
1386.8125012207	0.4508982897
1388.7413085937	0.4497070611
1390.6701159668	0.4532946050
1392.5989233398	0.4518043101
1394.5277307129	0.4522401690
1396.4565380859	0.4548949599
1398.3853454590	0.4494886100
1400.3141528320	0.4525098503
1402.2429602051	0.4543941617
1404.1717675781	0.4528552294
1406.1005749512	0.4520789981
1408.0293823242	0.4521909654
1409.9581896972	0.4539502263
1411.8869970703	0.4505904317
1413.8158044433	0.4515306056
1415.7446118164	0.4545949399
1417.6734191894	0.4498524964
1419.6022265625	0.4494433701
1421.5310339355	0.4542466104
1423.4598413086	0.4524871707
1425.3886486816	0.4490326643
1427.3174560547	0.4547144175
1429.2462634277	0.4586273730
1431.1750708008	0.4544972777
1433.1038781738	0.4593309760
1435.0326855469	0.4593967199
1436.9614929199	0.4614568353
1438.8903002929	0.4606321752
1440.8191076660	0.4493101835
1442.7479150390	0.4584045112
1444.6767224121	0.4576543868
1446.6055297851	0.4585939944
1448.5343371582	0.4626434445
1450.4631445312	0.4541935027
1452.3919519043	0.4645715952
1454.3207592773	0.4585087895
1456.2495666504	0.4559516013
1458.1783740234	0.4601433873
1460.1071813965	0.4525384307
1462.0359887695	0.4547631145
1463.9647961426	0.4534274042
1465.8936035156	0.4462094009
1467.8224108886	0.4401781559
1469.7512182617	0.4496805966
1471.6800256347	0.4479623139
1473.6088330078	0.4365388751
1475.5376403808	0.4436487854
1477.4664477539	0.4423443675
1479.3952551269	0.4412854314
1481.3240625000	0.4412714839
1483.2528698730	0.4416022599
1485.1816772461	0.4414817989
1487.1104846191	0.4359246492
1489.0392919922	0.4380865097
1490.9680993652	0.4361164570
1492.8969067383	0.4350566864
1494.8257141113	0.4387940764
1496.7545214843	0.4360945821
1498.6833288574	0.4350604415
1500.6121362304	0.4346587956
1502.5409436035	0.4339863360
1504.4697509765	0.4331490397
1506.3985583496	0.4280309379
1508.3273657226	0.4319962859
1510.2561730957	0.4321926534
1512.1849804687	0.4284529686
1514.1137878418	0.4340639710
1516.0425952148	0.4315510690
1517.9714025879	0.4289453328
1519.9002099609	0.4310559034
1521.8290173340	0.4248890281
1523.7578247070	0.4270919263
1525.6866320801	0.4286709130
1527.6154394531	0.4301353693
1529.5442468261	0.4321947694
1531.4730541992	0.4296816587
1533.4018615722	0.4274731576
1535.3306689453	0.4247147143
1537.2594763183	0.4269627333
1539.1882836914	0.4235037565
1541.1170910644	0.4195063114
1543.0458984375	0.4241882563
1544.9747058105	0.4257175624
1546.9035131836	0.4268540442
1548.8323205566	0.4242537320
1550.7611279297	0.4249593318
1552.6899353027	0.4256666005
1554.6187426758	0.4232842028
1556.5475500488	0.4230247140
1558.4763574218	0.4150137603
1560.4051647949	0.4171276987
1562.3339721679	0.4234851301
1564.2627795410	0.4213062227
1566.1915869140	0.4222885370
1568.1203942871	0.4233044684
1570.0492016601	0.4196975827
1571.9780090332	0.4212514758
1573.9068164062	0.4236075878
1575.8356237793	0.4208841026
1577.7644311523	0.4205166996
1579.6932385254	0.4169819057
1581.6220458984	0.4150943458
1583.5508532715	0.4198389947
1585.4796606445	0.4168381989
1587.4084680175	0.4167015553
1589.3372753906	0.4193913937
1591.2660827636	0.4166810215
1593.1948901367	0.4170274734
1595.1236975097	0.4171153009
1597.0525048828	0.4160380363
1598.9813122558	0.4164465368
1600.9101196289	0.4171801805
1602.8389270019	0.4162553251
1604.7677343750	0.4138906598
1606.6965417480	0.4156300724
1608.6253491211	0.4156667292
1610.5541564941	0.4137146175
1612.4829638672	0.4173754156
1614.4117712402	0.4180361629
1616.3405786132	0.4154936075
1618.2693859863	0.4174206257
1620.1981933593	0.4213891923
1622.1270007324	0.4229339063
1624.0558081054	0.4201185107
1625.9846154785	0.4232780039
1627.9134228515	0.4272068441
1629.8422302246	0.4302570820
1631.7710375976	0.4350989163
1633.6998449707	0.4347466826
1635.6286523437	0.4348673522
1637.5574597168	0.4379757941
1639.4862670898	0.4428967237
1641.4150744629	0.4461764395
1643.3438818359	0.4477238357
1645.2726892090	0.4504911602
1647.2014965820	0.4510027468
1649.1303039550	0.4570377171
1651.0591113281	0.4606266022
1652.9879187011	0.4542934299
1654.9167260742	0.4599259198
1656.8455334472	0.4696946740
1658.7743408203	0.4702009559
1660.7031481933	0.4739093781
1662.6319555664	0.4771976173
1664.5607629394	0.4753233492
1666.4895703125	0.4816410840
1668.4183776855	0.4788507521
1670.3471850586	0.4805720448
1672.2759924316	0.4878566265
1674.2047998047	0.4814401865
1676.1336071777	0.4834462404
1678.0624145507	0.4895512760
1679.9912219238	0.4899553955
1681.9200292968	0.4895020723
1683.8488366699	0.4847126007
1685.7776440429	0.4830881655
1687.7064514160	0.4914287627
1689.6352587890	0.4909811318
1691.5640661621	0.4882394671
1693.4928735351	0.4919186532
1695.4216809082	0.4835443497
1697.3504882812	0.4855102599
1699.2792956543	0.4850206077
1701.2081030273	0.4792722762
1703.1369104004	0.4904910624
1705.0657177734	0.4868908525
1706.9945251464	0.4834733605
1708.9233325195	0.4852771163
1710.8521398925	0.4815818369
1712.7809472656	0.4839982986
1714.7097546386	0.4843246937
1716.6385620117	0.4830568135
1718.5673693847	0.4789277315
1720.4961767578	0.4781637788
1722.4249841308	0.4789715707
1724.3537915039	0.4785245359
1726.2825988769	0.4797051847
1728.2114062500	0.4765348434
1730.1402136230	0.4782007039
1732.0690209961	0.4756347835
1733.9978283691	0.4683786929
1735.9266357421	0.4748169184
1737.8554431152	0.4743836224
1739.7842504882	0.4693756104
1741.7130578613	0.4726068079
1743.6418652343	0.4749491215
1745.5706726074	0.4696918726
1747.4994799804	0.4672150612
1749.4282873535	0.4687314630
1751.3570947265	0.4675641656
1753.2859020996	0.4688550234
1755.2147094726	0.4682685137
1757.1435168457	0.4660160542
1759.0723242187	0.4680457413
1761.0011315918	0.4674875736
1762.9299389648	0.4653796256
1764.8587463379	0.4663461745
1766.7875537109	0.4639340341
1768.7163610839	0.4624852836
1770.6451684570	0.4629100561
1772.5739758300	0.4589949548
1774.5027832031	0.4620551169
1776.4315905761	0.4638237059
1778.3603979492	0.4618768990
1780.2892053222	0.4629583657
1782.2180126953	0.4604591429
1784.1468200683	0.4606766999
1786.0756274414	0.4581686258
1788.0044348144	0.4568862617
1789.9332421875	0.4612000287
1791.8620495605	0.4556071758
1793.7908569336	0.4542949796
1795.7196643066	0.4588871300
1797.6484716796	0.4596147537
1799.5772790527	0.4579474628
1801.5060864257	0.4545134902
1803.4348937988	0.4561523497
1805.3637011718	0.4553451836
1807.2925085449	0.4541628659
1809.2213159179	0.4546041191
1811.1501232910	0.4537395537
1813.0789306640	0.4565131366
1815.0077380371	0.4547686279
1816.9365454101	0.4528386295
1818.8653527832	0.4538286030
1820.7941601562	0.4530341029
1822.7229675293	0.4518998563
1824.6517749023	0.4515094757
1826.5805822753	0.4544576406
1828.5093896484	0.4521375299
1830.4381970214	0.4504922926
1832.3670043945	0.4538494349
1834.2958117675	0.4519774020
1836.2246191406	0.4525032938
1838.1534265136	0.4525055885
1840.0822338867	0.4492790401
1842.0110412597	0.4502624273
1843.9398486328	0.4493679106
1845.8686560058	0.4493385553
1847.7974633789	0.4505910277
1849.7262707519	0.4500705302
1851.6550781250	0.4514813125
1853.5838854980	0.4475204647
1855.5126928710	0.4466916621
1857.4415002441	0.4505453706
1859.3703076171	0.4478212893
1861.2991149902	0.4488600791
1863.2279223632	0.4485433698
1865.1567297363	0.4482989013
1867.0855371093	0.4483822584
1869.0143444824	0.4450001717
1870.9431518554	0.4496252835
1872.8719592285	0.4478273392
1874.8007666015	0.4463520944
1876.7295739746	0.4473567307
1878.6583813476	0.4440353811
1880.5871887207	0.4460559189
1882.5159960937	0.4434463680
1884.4448034667	0.4440341592
1886.3736108398	0.4455312192
1888.3024182128	0.4429897368
1890.2312255859	0.4436129332
1892.1600329589	0.4440681934
1894.0888403320	0.4472319186
1896.0176477050	0.4450231493
1897.9464550781	0.4435990453
1899.8752624511	0.4439123273
1901.8040698242	0.4417266250
1903.7328771972	0.4437604249
1905.6616845703	0.4438022375
1907.5904919433	0.4418840408
1909.5192993164	0.4418895841
1911.4481066894	0.4464944005
1913.3769140625	0.4450597167
1915.3057214355	0.4415419996
1917.2345288085	0.4423553348
1919.1633361816	0.4404366016
1921.0921435546	0.4421162605
1923.0209509277	0.4397984445
1924.9497583007	0.4401521087
1926.8785656738	0.4430657029
1928.8073730468	0.4409215152
1930.7361804199	0.4420836270
1932.6649877929	0.4408784509
1934.5937951660	0.4417883754
1936.5226025390	0.4438884854
1938.4514099121	0.4427769780
1940.3802172851	0.4403721690
1942.3090246582	0.4381664395
1944.2378320312	0.4391361773
1946.1666394042	0.4399422705
1948.0954467773	0.4416383505
1950.0242541503	0.4416957498
1951.9530615234	0.4409849346
1953.8818688964	0.4391735792
1955.8106762695	0.4391106367
1957.7394836425	0.4387446046
1959.6682910156	0.4345709682
1961.5970983886	0.4374426007
1963.5259057617	0.4388788044
1965.4547131347	0.4375704527
1967.3835205078	0.4386063814
1969.3123278808	0.4377948046
1971.2411352539	0.4377663434
1973.1699426269	0.4381247759
1975.0987499999	0.4368569553
1977.0275573730	0.4353770018
1978.9563647460	0.4383534193
1980.8851721191	0.4382427931
1982.8139794921	0.4361730218
1984.7427868652	0.4370875955
1986.6715942382	0.4376833439
1988.6004016113	0.4393017590
1990.5292089843	0.4360942245
1992.4580163574	0.4347593784
1994.3868237304	0.4375283420
1996.3156311035	0.4369465113
1998.2444384765	0.4352976978
2000.1732458496	0.4347143769
2002.1020532226	0.4361324012
2004.0308605956	0.4365454912
2005.9596679687	0.4351859987
2007.8884753417	0.4351068735
2009.8172827148	0.4360577464
2011.7460900878	0.4330921471
2013.6748974609	0.4342120290
2015.6037048339	0.4365922213
2017.5325122070	0.4330488741
2019.4613195800	0.4341462255
2021.3901269531	0.4342102706
2023.3189343261	0.4347012341
2025.2477416992	0.4354968965
2027.1765490722	0.4344202578
2029.1053564453	0.4342035353
2031.0341638183	0.4333675206
2032.9629711914	0.4368399084
2034.8917785644	0.4343597591
2036.8205859374	0.4336922765
2038.7493933105	0.4369021654
2040.6782006835	0.4343233109
2042.6070080566	0.4357731342
2044.5358154296	0.4358696043
2046.4646228027	0.4329775572
2048.3934301757	0.4335882068
2050.3222375488	0.4354351461
2052.2510449218	0.4322126508
2054.1798522949	0.4331181645
2056.1086596679	0.4358007312
2058.0374670410	0.4335766733
2059.9662744140	0.4357340336
2061.8950817871	0.4327293634
2063.8238891601	0.4342053235
2065.7526965331	0.4366891682
2067.6815039062	0.4326349497
2069.6103112792	0.4345867038
2071.5391186523	0.4348032176
2073.4679260253	0.4353495538
2075.3967333984	0.4323976338
2077.3255407714	0.4327588379
2079.2543481445	0.4346656799
2081.1831555175	0.4316868782
2083.1119628906	0.4344550967
2085.0407702636	0.4300985336
2086.9695776367	0.4310610592
2088.8983850097	0.4361523688
2090.8271923828	0.4320602417
2092.7559997558	0.4335723817
2094.6848071288	0.4354553521
2096.6136145019	0.4333265424
2098.5424218749	0.4310521781
2100.4712292480	0.4332881272
2102.4000366210	0.4358538389
2104.3288439941	0.4333258569
2106.2576513671	0.4318608642
2108.1864587402	0.4312366843
2110.1152661132	0.4319648147
2112.0440734863	0.4343425035
2113.9728808593	0.4357692301
2115.9016882324	0.4343575239
2117.8304956054	0.4341940284
2119.7593029785	0.4363486767
2121.6881103515	0.4336393178
2123.6169177245	0.4308690429
2125.5457250976	0.4337372780
2127.4745324706	0.4331163168
2129.4033398437	0.4317602217
2131.3321472167	0.4333635867
2133.2609545898	0.4307869375
2135.1897619628	0.4343993962
2137.1185693359	0.4361075163
2139.0473767089	0.4312431514
2140.9761840820	0.4339230657
2142.9049914550	0.4327739179
2144.8337988281	0.4307740629
2146.7626062011	0.4337402284
2148.6914135742	0.4353793263
2150.6202209472	0.4339513481
2152.5490283203	0.4335739315
2154.4778356933	0.4346140623
2156.4066430663	0.4299688339
2158.3354504394	0.4312860668
2160.2642578124	0.4314297140
2162.1930651855	0.4298974276
2164.1218725585	0.4341143668
2166.0506799316	0.4290882945
2167.9794873046	0.4291067123
2169.9082946777	0.4330520332
2171.8371020507	0.4311373532
2173.7659094238	0.4329482913
2175.6947167968	0.4324010909
2177.6235241699	0.4313058853
2179.5523315429	0.4327902198
2181.4811389160	0.4325451255
2183.4099462890	0.4310784638
2185.3387536620	0.4310966730
2187.2675610351	0.4334792197
2189.1963684081	0.4339670539
2191.1251757812	0.4321582317
2193.0539831542	0.4319092035
2194.9827905273	0.4320842922
2196.9115979003	0.4309855998
2198.8404052734	0.4312317967
2200.7692126464	0.4338749349
2202.6980200195	0.4328769445
2204.6268273925	0.4288195372
2206.5556347656	0.4311854839
2208.4844421386	0.4318390787
2210.4132495117	0.4321607053
2212.3420568847	0.4323936701
2214.2708642577	0.4262320101
2216.1996716308	0.4321603477
2218.1284790038	0.4343273044
2220.0572863769	0.4299438298
2221.9860937499	0.4327015281
2223.9149011230	0.4268814325
2225.8437084960	0.4280226529
2227.7725158691	0.4313715398
2229.7013232421	0.4275257289
2231.6301306152	0.4304987490
2233.5589379882	0.4318726063
2235.4877453613	0.4306460917
2237.4165527343	0.4313997328
2239.3453601074	0.4311130047
2241.2741674804	0.4292154908
2243.2029748534	0.4313506782
2245.1317822265	0.4278432429
2247.0605895995	0.4246076047
2248.9893969726	0.4323537648
2250.9182043456	0.4297701716
2252.8470117187	0.4278750122
2254.7758190917	0.4314139187
2256.7046264648	0.4303014874
2258.6334338378	0.4315381944
2260.5622412109	0.4308588505
2262.4910485839	0.4305198491
2264.4198559570	0.4291459024
2266.3486633300	0.4280743301
2268.2774707031	0.4293249846
2270.2062780761	0.4287176728
2272.1350854491	0.4280483127
2274.0638928222	0.4268538058
2275.9927001952	0.4280553460
2277.9215075683	0.4292942286
2279.8503149413	0.4279630482
2281.7791223144	0.4277026057
2283.7079296874	0.4303554893
2285.6367370605	0.4295843840
2287.5655444335	0.4271379709
2289.4943518066	0.4282134473
2291.4231591796	0.4253484011
2293.3519665527	0.4271476269
2295.2807739257	0.4312976897
2297.2095812988	0.4300239384
2299.1383886718	0.4297898114
2301.0671960449	0.4275316596
2302.9960034179	0.4287180603
2304.9248107909	0.4284248352
2306.8536181640	0.4261758924
2308.7824255370	0.4301705360
2310.7112329101	0.4270997345
2312.6400402831	0.4250549972
2314.5688476562	0.4286743402
2316.4976550292	0.4257667959
2318.4264624023	0.4254333973
2320.3552697753	0.4280362129
2322.2840771484	0.4278922081
2324.2128845214	0.4263736606
2326.1416918945	0.4272550344
2328.0704992675	0.4300276637
2329.9993066406	0.4249209464
2331.9281140136	0.4246268570
2333.8569213866	0.4319882989
2335.7857287597	0.4293729961
2337.7145361327	0.4264444411
2339.6433435058	0.4294292331
2341.5721508788	0.4261318445
2343.5009582519	0.4237504005
2345.4297656249	0.4278463721
2347.3585729980	0.4254039228
2349.2873803710	0.4247384071
2351.2161877441	0.4270151556
2353.1449951171	0.4257748425
2355.0738024902	0.4287659824
2357.0026098632	0.4284341931
2358.9314172363	0.4286247194
2360.8602246093	0.4277992249
2362.7890319823	0.4253370464
2364.7178393554	0.4285893142
2366.6466467284	0.4270260036
2368.5754541015	0.4256097078
2370.5042614745	0.4254617393
2372.4330688476	0.4295485020
2374.3618762206	0.4269873798
2376.2906835937	0.4186666012
2378.2194909667	0.4242338538
2380.1482983398	0.4240608513
2382.0771057128	0.4197315276
2384.0059130859	0.4224189818
2385.9347204589	0.4241379499
2387.8635278320	0.4228364229
2389.7923352050	0.4204283953
2391.7211425780	0.4221320152
2393.6499499511	0.4250474572
2395.5787573241	0.4244680703
2397.5075646972	0.4201195538
2399.4363720702	0.4233046174
2401.3651794433	0.4254209697
2403.2939868163	0.4207431972
2405.2227941894	0.4231656790
2407.1516015624	0.4229215682
2409.0804089355	0.4196748435
2411.0092163085	0.4207058549
2412.9380236816	0.4248781502
2414.8668310546	0.4210553765
2416.7956384277	0.4179849327
2418.7244458007	0.4229669869
2420.6532531738	0.4207538962
2422.5820605468	0.4237111509
2424.5108679198	0.4206743538
2426.4396752929	0.4175167382
2428.3684826659	0.4232005179
2430.2972900390	0.4165000618
2432.2260974120	0.4185672402
2434.1549047851	0.4217873514
2436.0837121581	0.4163153768
2438.0125195312	0.4168975055
2439.9413269042	0.4178756475
2441.8701342773	0.4178367853
2443.7989416503	0.4194348454
2445.7277490234	0.4218988419
2447.6565563964	0.4170606136
2449.5853637695	0.4188343883
2451.5141711425	0.4226403534
2453.4429785155	0.4169014394
2455.3717858886	0.4211378396
2457.3005932616	0.4209286273
2459.2294006347	0.4161910713
2461.1582080077	0.4191776812
2463.0870153808	0.4180771708
2465.0158227538	0.4163327813
2466.9446301269	0.4144807458
2468.8734374999	0.4153024256
2470.8022448730	0.4196892083
2472.7310522460	0.4186307192
2474.6598596191	0.4160328209
2476.5886669921	0.4179280400
2478.5174743652	0.4197819531
2480.4462817382	0.4148153067
2482.3750891112	0.4154930413
2484.3038964843	0.4195730686
2486.2327038573	0.4152498245
2488.1615112304	0.4193706214
2490.0903186034	0.4188544750
2492.0191259765	0.4121502042
2493.9479333495	0.4196768999
2495.8767407226	0.4196057916
2497.8055480956	0.4130225778
2499.7343554687	0.4135108888
2501.6631628417	0.4178356826
2503.5919702148	0.4189605117
2505.5207775878	0.4158910513
2507.4495849609	0.4192968607
2509.3783923339	0.4169858098
2511.3071997069	0.4150863290
2513.2360070800	0.4185856879
2515.1648144530	0.4161847532
2517.0936218261	0.4170009792
2519.0224291991	0.4160406291
2520.9512365722	0.4133381248
2522.8800439452	0.4135484397
2524.8088513183	0.4129670560
2526.7376586913	0.4123527706
2528.6664660644	0.4142475724
2530.5952734374	0.4140171707
2532.5240808105	0.4100958407
2534.4528881835	0.4153333902
2536.3816955566	0.4158581495
2538.3105029296	0.4130188823
2540.2393103027	0.4180609584
2542.1681176757	0.4136426449
2544.0969250487	0.4117216468
2546.0257324218	0.4162398875
2547.9545397948	0.4156103134
2549.8833471679	0.4145925641
2551.8121545409	0.4141083360
2553.7409619140	0.4143763185
2555.6697692870	0.4126159251
2557.5985766601	0.4123405516
2559.5273840331	0.4135631025
2561.4561914062	0.4103198349
2563.3849987792	0.4105023146
2565.3138061523	0.4126903415
2567.2426135253	0.4109221399
2569.1714208984	0.4119127989
2571.1002282714	0.4137448668
2573.0290356444	0.4124446511
2574.9578430175	0.4115668535
2576.8866503905	0.4118340611
2578.8154577636	0.4101668000
2580.7442651366	0.4070774615
2582.6730725097	0.4085818231
2584.6018798827	0.4095994830
2586.5306872558	0.4092483521
2588.4594946288	0.4117713273
2590.3883020019	0.4140368402
2592.3171093749	0.4132891893
2594.2459167480	0.4062204957
2596.1747241210	0.4068969488
2598.1035314941	0.4122308493
2600.0323388671	0.4104585946
2601.9611462401	0.4107855260
2603.8899536132	0.4088380337
2605.8187609862	0.4081725776
2607.7475683593	0.4091312885
2609.6763757323	0.4086040258
2611.6051831054	0.4095175564
2613.5339904784	0.4094836116
2615.4627978515	0.4117947519
2617.3916052245	0.4094980061
2619.3204125976	0.4092253447
2621.2492199706	0.4105473161
2623.1780273437	0.4065639377
2625.1068347167	0.4080956280
2627.0356420898	0.4073018432
2628.9644494628	0.4047321975
2630.8932568358	0.4065320790
2632.8220642089	0.4059264660
2634.7508715819	0.4033846855
2636.6796789550	0.4080969691
2638.6084863280	0.4102000594
2640.5372937011	0.4030129313
2642.4661010741	0.4050328434
2644.3949084472	0.4057183564
2646.3237158202	0.4056107998
2648.2525231933	0.4097824097
2650.1813305663	0.4060928226
2652.1101379394	0.4056278169
2654.0389453124	0.4080487490
2655.9677526855	0.4112417400
2657.8965600585	0.4111818075
2659.8253674315	0.4071379900
2661.7541748046	0.4050600827
2663.6829821776	0.4030241966
2665.6117895507	0.4050522149
2667.5405969237	0.4053371251
2669.4694042968	0.4055598378
2671.3982116698	0.4036623538
2673.3270190429	0.4011340141
2675.2558264159	0.4035384953
2677.1846337890	0.4033859968
2679.1134411620	0.4054971635
2681.0422485351	0.4042428732
2682.9710559081	0.4021375775
2684.8998632812	0.4039354026
2686.8286706542	0.4053712189
2688.7574780273	0.4044198692
2690.6862854003	0.3998932540
2692.6150927733	0.4024266005
2694.5439001464	0.4015803933
2696.4727075194	0.4016914964
2698.4015148925	0.4054624736
2700.3303222655	0.4002629519
2702.2591296386	0.4025812745
2704.1879370116	0.4047154486
2706.1167443847	0.4000722170
2708.0455517577	0.4015583098
2709.9743591308	0.4023929536
2711.9031665038	0.3979884386
2713.8319738769	0.4003296494
2715.7607812499	0.4060420692
2717.6895886230	0.3998613954
2719.6183959960	0.3965299129
2721.5472033690	0.4015897810
2723.4760107421	0.4019944966
2725.4048181151	0.3986468315
2727.3336254882	0.4003519118
2729.2624328612	0.4019436240
2731.1912402343	0.3971866965
2733.1200476073	0.3998823464
2735.0488549804	0.4004859626
2736.9776623534	0.3983329535
2738.9064697265	0.4020057917
2740.8352770995	0.3985635638
2742.7640844726	0.3969026208
2744.6928918456	0.3983773291
2746.6216992187	0.3969202340
2748.5505065917	0.3970039785
2750.4793139647	0.3976793885
2752.4081213378	0.3985516131
2754.3369287108	0.4006287158
2756.2657360839	0.4005652070
2758.1945434569	0.3970944881
2760.1233508300	0.3994878829
2762.0521582030	0.3984583914
2763.9809655761	0.3922229409
2765.9097729491	0.3925302029
2767.8385803222	0.3948929608
2769.7673876952	0.3985324502
2771.6961950683	0.3981758654
2773.6250024413	0.3954392970
2775.5538098144	0.3947460949
2777.4826171874	0.3956551552
2779.4114245604	0.3968440890
2781.3402319335	0.3953540325
2783.2690393065	0.3975850344
2785.1978466796	0.3971281946
2787.1266540526	0.3956747353
2789.0554614257	0.3950313032
2790.9842687987	0.3904893994
2792.9130761718	0.3913788199
2794.8418835448	0.3924809098
2796.7706909179	0.3928203881
2798.6994982909	0.3933895528
2800.6283056640	0.3900526166
2802.5571130370	0.3902483582
2804.4859204101	0.3946315944
2806.4147277831	0.3936647773
2808.3435351562	0.3919970691
2810.2723425292	0.3944737911
2812.2011499022	0.3890173137
2814.1299572753	0.3886640072
2816.0587646483	0.3922944963
2817.9875720214	0.3885829151
2819.9163793944	0.3904179931
2821.8451867675	0.3866513371
2823.7739941405	0.3862758875
2825.7028015136	0.3919985592
2827.6316088866	0.3857474327
2829.5604162597	0.3862948418
2831.4892236327	0.3902538717
2833.4180310058	0.3873151243
2835.3468383788	0.3891392350
2837.2756457519	0.3888546228
2839.2044531249	0.3860505819
2841.1332604979	0.3875128329
2843.0620678710	0.3873585165
2844.9908752440	0.3867746890
2846.9196826171	0.3865580559
2848.8484899901	0.3868223429
2850.7772973632	0.3856454492
2852.7061047362	0.3829388022
2854.6349121093	0.3859970570
2856.5637194823	0.3858024776
2858.4925268554	0.3873601854
2860.4213342284	0.3886228502
2862.3501416015	0.3827237487
2864.2789489745	0.3849025965
2866.2077563476	0.3848842382
2868.1365637206	0.3839133084
2870.0653710936	0.3853971958
2871.9941784667	0.3842574656
2873.9229858397	0.3840408027
2875.8517932128	0.3780596554
2877.7806005858	0.3770684302
2879.7094079589	0.3793057799
2881.6382153319	0.3773267269
2883.5670227050	0.3792957366
2885.4958300780	0.3820439875
2887.4246374511	0.3816085160
2889.3534448241	0.3812968135
2891.2822521972	0.3812831640
2893.2110595702	0.3822130561
2895.1398669433	0.3839150071
2897.0686743163	0.3771790266
2898.9974816893	0.3776624799
2900.9262890624	0.3791303635
2902.8550964354	0.3716244698
2904.7839038085	0.3787153959
2906.7127111815	0.3784861565
2908.6415185546	0.3728867173
2910.5703259276	0.3762484491
2912.4991333007	0.3747220635
2914.4279406737	0.3796001971
2916.3567480468	0.3822709024
2918.2855554198	0.3773956895
2920.2143627929	0.3748059571
2922.1431701659	0.3711189926
2924.0719775390	0.3716705441
2926.0007849120	0.3755409122
2927.9295922851	0.3744636178
2929.8583996581	0.3765994906
2931.7872070311	0.3782054484
2933.7160144042	0.3727755249
2935.6448217772	0.3719793558
2937.5736291503	0.3724611700
2939.5024365233	0.3754496872
2941.4312438964	0.3747151494
2943.3600512694	0.3701672554
2945.2888586425	0.3718887269
2947.2176660155	0.3696252108
2949.1464733886	0.3714730740
2951.0752807616	0.3714240491
2953.0040881347	0.3701183796
2954.9328955077	0.3746312857
2956.8617028808	0.3695912957
2958.7905102538	0.3686825931
2960.7193176268	0.3698975742
2962.6481249999	0.3675489128
2964.5769323729	0.3700262904
2966.5057397460	0.3683318496
2968.4345471190	0.3702813387
2970.3633544921	0.3710076809
2972.2921618651	0.3633947074
2974.2209692382	0.3666595519
2976.1497766112	0.3679372072
2978.0785839843	0.3639200330
2980.0073913573	0.3665612042
2981.9361987304	0.3646156192
2983.8650061034	0.3672235012
2985.7938134765	0.3680529594
2987.7226208495	0.3665472269
2989.6514282225	0.3697717488
2991.5802355956	0.3653244376
2993.5090429686	0.3636454344
2995.4378503417	0.3632471263
2997.3666577147	0.3644348979
2999.2954650878	0.3627757728
3001.2242724608	0.3610904515
3003.1530798339	0.3662497103
3005.0818872069	0.3616733849
3007.0106945800	0.3626275063
3008.9395019530	0.3631570935
3010.8683093261	0.3591553569
3012.7971166991	0.3619962633
3014.7259240722	0.3622141480
3016.6547314452	0.3654141426
3018.5835388182	0.3647593260
3020.5123461913	0.3606526852
3022.4411535643	0.3602459431
3024.3699609374	0.3598345518
3026.2987683104	0.3575548530
3028.2275756835	0.3567793369
3030.1563830565	0.3587411344
3032.0851904296	0.3590278924
3034.0139978026	0.3607978523
3035.9428051757	0.3582019508
3037.8716125487	0.3568479121
3039.8004199218	0.3584648967
3041.7292272948	0.3550678194
3043.6580346679	0.3534874022
3045.5868420409	0.3547601700
3047.5156494139	0.3547247052
3049.4444567870	0.3557496369
3051.3732641600	0.3627748489
3053.3020715331	0.3612801433
3055.2308789061	0.3528096080
3057.1596862792	0.3510275781
3059.0884936522	0.3541184962
3061.0173010253	0.3566893041
3062.9461083983	0.3539021313
3064.8749157714	0.3531066775
3066.8037231444	0.3524446189
3068.7325305175	0.3561547995
3070.6613378905	0.3588719368
3072.5901452636	0.3555205762
3074.5189526366	0.3539481163
3076.4477600097	0.3499601185
3078.3765673827	0.3526414931
3080.3053747557	0.3543316126
3082.2341821288	0.3514925838
3084.1629895018	0.3496502936
3086.0917968749	0.3510619700
3088.0206042479	0.3498963416
3089.9494116210	0.3425928056
3091.8782189940	0.3484864831
3093.8070263671	0.3505446017
3095.7358337401	0.3489170372
3097.6646411132	0.3469867408
3099.5934484862	0.3459816873
3101.5222558593	0.3517841995
3103.4510632323	0.3443632424
3105.3798706054	0.3468737900
3107.3086779784	0.3483835459
3109.2374853514	0.3432910144
3111.1662927245	0.3427608907
3113.0951000975	0.3390677869
3115.0239074706	0.3498508334
3116.9527148436	0.3508406579
3118.8815222167	0.3493542075
3120.8103295897	0.3496766090
3122.7391369628	0.3433101177
3124.6679443358	0.3478157818
3126.5967517089	0.3429574072
3128.5255590819	0.3443553746
3130.4543664550	0.3479704857
3132.3831738280	0.3424367607
3134.3119812011	0.3470194340
3136.2407885741	0.3437391520
3138.1695959471	0.3402506113
3140.0984033202	0.3452148139
3142.0272106932	0.3441863060
3143.9560180663	0.3430483043
3145.8848254393	0.3435992599
3147.8136328124	0.3408284485
3149.7424401854	0.3409512341
3151.6712475585	0.3447796106
3153.6000549315	0.3447888196
3155.5288623046	0.3423635066
3157.4576696776	0.3456889689
3159.3864770507	0.3478563726
3161.3152844237	0.3405181468
3163.2440917968	0.3419072926
3165.1728991698	0.3469046652
3167.1017065428	0.3457287252
3169.0305139159	0.3478787839
3170.9593212889	0.3479954898
3172.8881286620	0.3485837281
3174.8169360350	0.3456630409
3176.7457434081	0.3461540341
3178.6745507811	0.3501148820
3180.6033581542	0.3445344865
3182.5321655272	0.3474607170
3184.4609729003	0.3485976160
3186.3897802733	0.3482715786
3188.3185876464	0.3547278941
3190.2473950194	0.3488032818
3192.1762023925	0.3459701240
3194.1050097655	0.3472018540
3196.0338171386	0.3479386568
3197.9626245116	0.3524451852
3199.8914318846	0.3513297439
3201.8202392577	0.3562225997
3203.7490466307	0.3557436168
3205.6778540038	0.3473888934
3207.6066613768	0.3519253433
3209.5354687499	0.3556711674
3211.4642761229	0.3568205535
3213.3930834960	0.3558725715
3215.3218908690	0.3539808989
3217.2506982421	0.3565900922
3219.1795056151	0.3529976308
3221.1083129882	0.3576624393
3223.0371203612	0.3623883426
3224.9659277343	0.3575215340
3226.8947351073	0.3622306883
3228.8235424803	0.3632413745
3230.7523498534	0.3643881977
3232.6811572264	0.3647608459
3234.6099645995	0.3593518436
3236.5387719725	0.3651944995
3238.4675793456	0.3634965122
3240.3963867186	0.3630804121
3242.3251940917	0.3758242726
3244.2540014647	0.3742076755
3246.1828088378	0.3692049384
3248.1116162108	0.3722880781
3250.0404235839	0.3706004024
3251.9692309569	0.3715638816
3253.8980383300	0.3731085062
3255.8268457030	0.3671945035
3257.7556530760	0.3715955317
3259.6844604491	0.3787914813
3261.6132678221	0.3801650107
3263.5420751952	0.3790167868
3265.4708825682	0.3736200631
3267.3996899413	0.3818005919
3269.3284973143	0.3805205226
3271.2573046874	0.3753884435
3273.1861120604	0.3845941126
3275.1149194335	0.3786777258
3277.0437268065	0.3814834654
3278.9725341796	0.3862159550
3280.9013415526	0.3827438354
3282.8301489257	0.3900941908
3284.7589562987	0.3891488314
3286.6877636717	0.3892196119
3288.6165710448	0.3918006122
3290.5453784178	0.3906508982
3292.4741857909	0.3883565068
3294.4029931639	0.3895344138
3296.3318005370	0.3941759169
3298.2606079100	0.3891465366
3300.1894152831	0.3929737806
3302.1182226561	0.3989183605
3304.0470300292	0.3986390829
3305.9758374022	0.3977720737
3307.9046447753	0.3908984363
3309.8334521483	0.3954274058
3311.7622595214	0.4014542699
3313.6910668944	0.4005627930
3315.6198742675	0.3981502056
3317.5486816405	0.3988236189
3319.4774890135	0.4063708782
3321.4062963866	0.4037663937
3323.3351037596	0.4067709148
3325.2639111327	0.4123461545
3327.1927185057	0.4035323560
3329.1215258788	0.4036881030
3331.0503332518	0.4064472616
3332.9791406249	0.4100075662
3334.9079479979	0.4181545079
3336.8367553710	0.4125254452
3338.7655627440	0.4130458534
3340.6943701171	0.4251663387
3342.6231774901	0.4209479690
3344.5519848632	0.4160984755
3346.4807922362	0.4225753844
3348.4095996092	0.4198523760
3350.3384069823	0.4189606309
3352.2672143553	0.4269517362
3354.1960217284	0.4302333891
3356.1248291014	0.4314585924
3358.0536364745	0.4303903282
3359.9824438475	0.4322515726
3361.9112512206	0.4315368533
3363.8400585936	0.4294064045
3365.7688659667	0.4364435971
3367.6976733397	0.4387847185
3369.6264807128	0.4423133433
3371.5552880858	0.4427635074
3373.4840954589	0.4405371249
3375.4129028319	0.4468532801
3377.3417102049	0.4468416572
3379.2705175780	0.4486938715
3381.1993249510	0.4525350928
3383.1281323241	0.4542516470
3385.0569396971	0.4562807083
3386.9857470702	0.4564939141
3388.9145544432	0.4590843022
3390.8433618163	0.4608047307
3392.7721691893	0.4648658037
3394.7009765624	0.4684815407
3396.6297839354	0.4711656570
3398.5585913085	0.4689603448
3400.4873986815	0.4693798423
3402.4162060546	0.4786229134
3404.3450134276	0.4804584086
3406.2738208006	0.4778704047
3408.2026281737	0.4748016000
3410.1314355467	0.4817525446
3412.0602429198	0.4861328304
3413.9890502928	0.4862836897
3415.9178576659	0.4905155599
3417.8466650389	0.4889549315
3419.7754724120	0.5016704202
3421.7042797850	0.5002755523
3423.6330871581	0.4924617112
3425.5618945311	0.5006839633
3427.4907019042	0.4998071492
3429.4195092772	0.5078804493
3431.3483166503	0.5115989447
3433.2771240233	0.5084575415
3435.2059313963	0.5101590753
3437.1347387694	0.5128262639
3439.0635461424	0.5190033317
3440.9923535155	0.5208172202
3442.9211608885	0.5240160823
3444.8499682616	0.5225645900
3446.7787756346	0.5246837139
3448.7075830077	0.5288296342
3450.6363903807	0.5289552212
3452.5651977538	0.5329125524
3454.4940051268	0.5335999727
3456.4228124999	0.5340885520
3458.3516198729	0.5329947472
3460.2804272460	0.5375847220
3462.2092346190	0.5399556756
3464.1380419921	0.5432697535
3466.0668493651	0.5482810140
3467.9956567381	0.5433024764
3469.9244641112	0.5507531762
3471.8532714842	0.5489922166
3473.7820788573	0.5456058979
3475.7108862303	0.5568069816
3477.6396936034	0.5551427007
3479.5685009764	0.5546351671
3481.4973083495	0.5633885860
3483.4261157225	0.5651408434
3485.3549230956	0.5554160476
3487.2837304686	0.5619765520
3489.2125378417	0.5660659075
3491.1413452147	0.5593692660
3493.0701525878	0.5763875842
3494.9989599608	0.5761182904
3496.9277673338	0.5631554723
3498.8565747069	0.5653139353
3500.7853820799	0.5729270577
3502.7141894530	0.5763874054
3504.6429968260	0.5718435049
3506.5718041991	0.5790621042
3508.5006115721	0.5760129690
3510.4294189452	0.5733969808
3512.3582263182	0.5792106986
3514.2870336913	0.5808750391
3516.2158410643	0.5858048797
3518.1446484374	0.5770211816
3520.0734558104	0.5853909254
3522.0022631835	0.5912984610
3523.9310705565	0.5838621855
3525.8598779295	0.5892974138
3527.7886853026	0.5848348737
3529.7174926756	0.5912241936
3531.6463000487	0.5879608393
3533.5751074217	0.5853470564
3535.5039147948	0.5986212492
3537.4327221678	0.5890598893
3539.3615295409	0.5883221030
3541.2903369139	0.5947299004
3543.2191442870	0.5957376361
3545.1479516600	0.5975854993
3547.0767590331	0.5944957733
3549.0055664061	0.5923479199
3550.9343737792	0.5915433168
3552.8631811522	0.5959953666
3554.7919885252	0.5950564146
3556.7207958983	0.5969612598
3558.6496032713	0.5981062651
3560.5784106444	0.5918822885
3562.5072180174	0.5943768024
3564.4360253905	0.5918692946
3566.3648327635	0.5919764638
3568.2936401366	0.5996184349
3570.2224475096	0.5986656547
3572.1512548827	0.5997705460
3574.0800622557	0.6014019847
3576.0088696288	0.5966845751
3577.9376770018	0.5954315066
3579.8664843749	0.5991222262
3581.7952917479	0.6000813246
3583.7240991210	0.5981560946
3585.6529064940	0.5962740183
3587.5817138670	0.6009361744
3589.5105212401	0.6037787795
3591.4393286131	0.5984318256
3593.3681359862	0.6005254388
3595.2969433592	0.6001300812
3597.2257507323	0.5888770819
3599.1545581053	0.5873090029
3601.0833654784	0.5939617753
3603.0121728514	0.5951771736
3604.9409802245	0.5924268961
3606.8697875975	0.5903650522
3608.7985949706	0.5891825557
3610.7274023436	0.5907831192
3612.6562097167	0.5951567888
3614.5850170897	0.5876805186
3616.5138244627	0.5879184604
3618.4426318358	0.6004342437
3620.3714392088	0.5920687914
3622.3002465819	0.5888852477
3624.2290539549	0.5920629501
3626.1578613280	0.5871984363
3628.0866687010	0.5870983005
3630.0154760741	0.5840421915
3631.9442834471	0.5805799961
3633.8730908202	0.5790185332
3635.8018981932	0.5918273926
3637.7307055663	0.5956546068
3639.6595129393	0.5853822231
3641.5883203124	0.5937908888
3643.5171276854	0.5927358866
3645.4459350584	0.5793992877
3647.3747424315	0.5798975229
3649.3035498045	0.5858824253
3651.2323571776	0.5804402232
3653.1611645506	0.5752420425
3655.0899719237	0.5757241845
3657.0187792967	0.5709981322
3658.9475866698	0.5773740411
3660.8763940428	0.5834872127
3662.8052014159	0.5775612593
3664.7340087889	0.5714446902
3666.6628161620	0.5714072585
3668.5916235350	0.5694338083
3670.5204309081	0.5591624975
3672.4492382811	0.5695337653
3674.3780456541	0.5682598948
3676.3068530272	0.5530436635
3678.2356604002	0.5607375503
3680.1644677733	0.5600588322
3682.0932751463	0.5594916344
3684.0220825194	0.5572087169
3685.9508898924	0.5521726608
3687.8796972655	0.5538924932
3689.8085046385	0.5472685695
3691.7373120116	0.5468133092
3693.6661193846	0.5491752625
3695.5949267577	0.5441966057
3697.5237341307	0.5378093123
3699.4525415038	0.5460029244
3701.3813488768	0.5529611111
3703.3101562499	0.5371915102
3705.2389636229	0.5365456939
3707.1677709959	0.5375060439
3709.0965783690	0.5295444131
3711.0253857420	0.5301754475
3712.9541931151	0.5299420357
3714.8830004881	0.5347915888
3716.8118078612	0.5311254263
3718.7406152342	0.5261533856
3720.6694226073	0.5250733495
3722.5982299803	0.5209366679
3724.5270373534	0.5223887563
3726.4558447264	0.5197119713
3728.3846520995	0.5252432227
3730.3134594725	0.5265114903
3732.2422668456	0.5206521749
3734.1710742186	0.5149169564
3736.0998815916	0.5032665730
3738.0286889647	0.5115768313
3739.9574963377	0.5192489624
3741.8863037108	0.5154438019
3743.8151110838	0.5086774230
3745.7439184569	0.5034964085
3747.6727258299	0.5046296716
3749.6015332030	0.4970938265
3751.5303405760	0.5014150143
3753.4591479491	0.5073466897
3755.3879553221	0.5085217953
3757.3167626952	0.5127465725
3759.2455700682	0.5079833269
3761.1743774413	0.5078250170
3763.1031848143	0.5053193569
3765.0319921873	0.4982258677
3766.9607995604	0.5021316409
3768.8896069334	0.5028398037
3770.8184143065	0.5017339587
3772.7472216795	0.5008299351
3774.6760290526	0.5037073493
3776.6048364256	0.5083004236
3778.5336437987	0.4984522760
3780.4624511717	0.5006090403
3782.3912585448	0.5018984079
3784.3200659178	0.4909943044
3786.2488732909	0.4946692586
3788.1776806639	0.4977909327
3790.1064880370	0.5041859746
3792.0352954100	0.5008853078
3793.9641027830	0.4939748943
3795.8929101561	0.5019093156
3797.8217175291	0.4991357327
3799.7505249022	0.4914326072
3801.6793322752	0.4840869009
3803.6081396483	0.4952063560
3805.5369470213	0.4979897141
3807.4657543944	0.4885734618
3809.3945617674	0.4923745394
3811.3233691405	0.4908929765
3813.2521765135	0.4949697852
3815.1809838866	0.4914700687
3817.1097912596	0.4827543199
3819.0385986327	0.4905709028
3820.9674060057	0.4901801050
3822.8962133787	0.4793376029
3824.8250207518	0.4875837564
3826.7538281248	0.5000627041
3828.6826354979	0.4853869081
3830.6114428709	0.4894798994
3832.5402502440	0.4879147410
3834.4690576170	0.4770292640
3836.3978649901	0.4854680598
3838.3266723631	0.4707752466
3840.2554797362	0.4740090370
3842.1842871092	0.4824113548
3844.1130944823	0.4792355895
3846.0419018553	0.4847273827
3847.9707092284	0.4848237038
3849.8995166014	0.4864165783
3851.8283239745	0.4779632986
3853.7571313475	0.4732878208
3855.6859387205	0.4823738039
3857.6147460936	0.4881932139
3859.5435534666	0.4891874492
3861.4723608397	0.4816423655
3863.4011682127	0.4790210128
3865.3299755858	0.4751380980
3867.2587829588	0.4788392186
3869.1875903319	0.4822444618
3871.1163977049	0.4748754203
3873.0452050780	0.4710966349
3874.9740124510	0.4777009189
3876.9028198241	0.4847378135
3878.8316271971	0.4810838699
3880.7604345702	0.4834394455
3882.6892419432	0.4792262912
3884.6180493162	0.4701590836
3886.5468566893	0.4741334319
3888.4756640623	0.4770678580
3890.4044714354	0.4756375849
3892.3332788084	0.4766646922
3894.2620861815	0.4721075594
3896.1908935545	0.4735457301
3898.1197009276	0.4784013927
3900.0485083006	0.4703413248
3901.9773156737	0.4709063768
3903.9061230467	0.4776262641
3905.8349304198	0.4807574153
3907.7637377928	0.4773333371
3909.6925451659	0.4729840755
3911.6213525389	0.4753364325
3913.5501599119	0.4734268188
3915.4789672850	0.4751304090
3917.4077746580	0.4699944556
3919.3365820311	0.4740041196
3921.2653894041	0.4778540134
3923.1941967772	0.4649336040
3925.1230041502	0.4748373032
3927.0518115233	0.4764622152
3928.9806188963	0.4681783617
3930.9094262694	0.4682535529
3932.8382336424	0.4616091251
3934.7670410155	0.4676785767
3936.6958483885	0.4786129892
3938.6246557616	0.4768226445
3940.5534631346	0.4646624029
3942.4822705076	0.4609644413
3944.4110778807	0.4678083658
3946.3398852537	0.4689840078
3948.2686926268	0.4650636017
3950.1974999998	0.4681169689
3952.1263073729	0.4787845016
3954.0551147459	0.4731616974
3955.9839221190	0.4591242075
3957.9127294920	0.4669668376
3959.8415368651	0.4705512226
3961.7703442381	0.4594974816
3963.6991516112	0.4709148407
3965.6279589842	0.4700623751
3967.5567663573	0.4630943239
3969.4855737303	0.4744898975
3971.4143811034	0.4655568600
3973.3431884764	0.4661083519
3975.2719958494	0.4699090123
3977.2008032225	0.4687034488
3979.1296105955	0.4692792296
3981.0584179686	0.4574847519
3982.9872253416	0.4659446776
3984.9160327147	0.4658166170
3986.8448400877	0.4552727640
3988.7736474608	0.4571060240
3990.7024548338	0.4615820646
3992.6312622069	0.4686176777
3994.5600695799	0.4630690515
3996.4888769530	0.4666037261
3998.4176843260	0.4650911689
4000.3464916991	0.4599633217
4002.2752990721	0.4731447697
4004.2041064451	0.4656486809
4006.1329138182	0.4638655782
4008.0617211912	0.4701276720
4009.9905285643	0.4519004822
4011.9193359373	0.4554557502
4013.8481433104	0.4708840549
4015.7769506834	0.4630095959
4017.7057580565	0.4597678781
4019.6345654295	0.4625176787
4021.5633728026	0.4639759958
4023.4921801756	0.4671239555
4025.4209875487	0.4642706513
4027.3497949217	0.4602228701
4029.2786022948	0.4602368474
4031.2074096678	0.4561553895
4033.1362170408	0.4540809393
4035.0650244139	0.4642009139
4036.9938317869	0.4591060579
4038.9226391600	0.4514096975
4040.8514465330	0.4577740431
4042.7802539061	0.4585026503
4044.7090612791	0.4641713500
4046.6378686522	0.4614728391
4048.5666760252	0.4580992162
4050.4954833983	0.4610577226
4052.4242907713	0.4554225802
4054.3530981444	0.4588015079
4056.2819055174	0.4576574266
4058.2107128905	0.4571661949
4060.1395202635	0.4633642435
4062.0683276365	0.4547920823
4063.9971350096	0.4488228559
4065.9259423826	0.4603131711
4067.8547497557	0.4622483552
4069.7835571287	0.4432629347
4071.7123645018	0.4466197193
4073.6411718748	0.4636495113
4075.5699792479	0.4544138610
4077.4987866209	0.4483336806
4079.4275939940	0.4624180794
4081.3564013670	0.4608957767
4083.2852087401	0.4482219219
4085.2140161131	0.4549243748
4087.1428234862	0.4592106640
4089.0716308592	0.4593123794
4091.0004382323	0.4577718973
4092.9292456053	0.4471425116
4094.8580529783	0.4538514912
4096.7868603514	0.4577177167
4098.7156677244	0.4489182532
4100.6444750975	0.4492548108
4102.5732824705	0.4511231780
4104.5020898436	0.4574705362
4106.4308972166	0.4584732950
4108.3597045897	0.4513804018
4110.2885119627	0.4542754292
4112.2173193358	0.4575346410
4114.1461267088	0.4524969459
4116.0749340819	0.4442671835
4118.0037414549	0.4412389994
4119.9325488280	0.4500984848
4121.8613562010	0.4517979026
4123.7901635740	0.4430093765
4125.7189709471	0.4447945654
4127.6477783201	0.4453646839
4129.5765856932	0.4465413988
4131.5053930662	0.4541246593
4133.4342004393	0.4546889067
4135.3630078123	0.4585503042
4137.2918151854	0.4559967518
4139.2206225584	0.4525589347
4141.1494299315	0.4468503296
4143.0782373045	0.4382959008
4145.0070446776	0.4544627070
4146.9358520506	0.4525993466
4148.8646594237	0.4457419217
4150.7934667967	0.4549174607
4152.7222741697	0.4468625784
4154.6510815428	0.4522629082
4156.5798889158	0.4527299106
4158.5086962889	0.4492275119
4160.4375036619	0.4575150311
4162.3663110350	0.4462355375
4164.2951184080	0.4434915781
4166.2239257811	0.4510376453
4168.1527331541	0.4578853846
4170.0815405272	0.4587069452
4172.0103479002	0.4497377872
4173.9391552733	0.4593708217
4175.8679626463	0.4558199942
4177.7967700194	0.4442579746
4179.7255773924	0.4546357989
4181.6543847654	0.4460347891
4183.5831921385	0.4390482008
4185.5119995115	0.4451544881
4187.4408068846	0.4395903647
4189.3696142576	0.4429319501
4191.2984216307	0.4476142526
4193.2272290037	0.4461390376
4195.1560363768	0.4420266747
4197.0848437498	0.4491116703
4199.0136511229	0.4548595250
4200.9424584959	0.4437262416
4202.8712658690	0.4565087557
4204.8000732420	0.4627739191
4206.7288806151	0.4519574940
4208.6576879881	0.4508833289
4210.5864953611	0.4494021535
4212.5153027342	0.4509776235
4214.4441101072	0.4470323324
4216.3729174803	0.4464709759
4218.3017248533	0.4468070269
4220.2305322264	0.4491245151
4222.1593395994	0.4490363300
4224.0881469725	0.4463639855
4226.0169543455	0.4581983089
4227.9457617186	0.4492691457
4229.8745690916	0.4473515153
4231.8033764647	0.4611268044
4233.7321838377	0.4492853582
4235.6609912108	0.4449737668
4237.5897985838	0.4480201006
4239.5186059569	0.4374781847
4241.4474133299	0.4443100095
4243.3762207029	0.4513198435
4245.3050280760	0.4425463676
4247.2338354490	0.4481051564
4249.1626428221	0.4400459230
4251.0914501951	0.4429028928
4253.0202575682	0.4537145495
4254.9490649412	0.4420010746
4256.8778723143	0.4532736242
4258.8066796873	0.4542239010
4260.7354870604	0.4438194335
4262.6642944334	0.4349092543
4264.5931018065	0.4373286068
4266.5219091795	0.4447879791
4268.4507165526	0.4400062263
4270.3795239256	0.4579065740
4272.3083312986	0.4443963468
4274.2371386717	0.4447738826
4276.1659460447	0.4500262439
4278.0947534178	0.4266515970
4280.0235607908	0.4493785501
4281.9523681639	0.4517875612
4283.8811755369	0.4390629232
4285.8099829100	0.4351438880
4287.7387902830	0.4464309812
4289.6675976561	0.4587936401
4291.5964050291	0.4372487962
4293.5252124022	0.4403384030
4295.4540197752	0.4417842031
4297.3828271483	0.4424874485
4299.3116345213	0.4452380836
4301.2404418943	0.4391961098
4303.1692492674	0.4314172566
4305.0980566404	0.4323053360
4307.0268640135	0.4508718848
4308.9556713865	0.4379079938
4310.8844787596	0.4434317946
4312.8132861326	0.4414884746
4314.7420935057	0.4255947471
4316.6709008787	0.4431422949
4318.5997082518	0.4346616864
4320.5285156248	0.4318621159
4322.4573229979	0.4430343807
4324.3861303709	0.4559596777
4326.3149377440	0.4551918209
4328.2437451170	0.4430105388
4330.1725524900	0.4505819976
4332.1013598631	0.4446027875
4334.0301672361	0.4412852228
4335.9589746092	0.4418642819
4337.8877819822	0.4454642236
4339.8165893553	0.4442418218
4341.7453967283	0.4417152107
4343.6742041014	0.4465601742
4345.6030114744	0.4287674725
4347.5318188475	0.4266734719
4349.4606262205	0.4272234738
4351.3894335936	0.4293343723
4353.3182409666	0.4436072707
4355.2470483397	0.4339024127
4357.1758557127	0.4463321567
4359.1046630858	0.4591248930
4361.0334704588	0.4315885603
4362.9622778318	0.4253962338
4364.8910852049	0.4370076060
4366.8198925779	0.4350951016
4368.7486999510	0.4409838319
4370.6775073240	0.4448396564
4372.6063146971	0.4464805424
4374.5351220701	0.4452271461
4376.4639294432	0.4347873926
4378.3927368162	0.4436903000
4380.3215441893	0.4352139831
4382.2503515623	0.4190045595
4384.1791589354	0.4324076474
4386.1079663084	0.4330762327
4388.0367736815	0.4226733446
4389.9655810545	0.4197961092
4391.8943884275	0.4232397974
4393.8231958006	0.4339099824
4395.7520031736	0.4366504252
4397.6808105467	0.4313028455
4399.6096179197	0.4270404279
4401.5384252928	0.4355167747
4403.4672326658	0.4403476417
4405.3960400389	0.4173233211
4407.3248474119	0.4209850132
4409.2536547850	0.4427092969
4411.1824621580	0.4365481138
4413.1112695311	0.4405331016
4415.0400769041	0.4332201183
4416.9688842772	0.4318170547
4418.8976916502	0.4404300153
4420.8264990232	0.4221051037
4422.7553063963	0.4269635975
4424.6841137693	0.4301716685
4426.6129211424	0.4290470779
4428.5417285154	0.4386472404
4430.4705358885	0.4357433021
4432.3993432615	0.4358383119
4434.3281506346	0.4301308990
4436.2569580076	0.4324347675
4438.1857653807	0.4398729801
4440.1145727537	0.4410051703
4442.0433801268	0.4435405433
4443.9721874998	0.4400567412
4445.9009948729	0.4333425462
4447.8298022459	0.4375336170
4449.7586096189	0.4482988119
4451.6874169920	0.4374359548
4453.6162243650	0.4427815974
4455.5450317381	0.4474132657
4457.4738391111	0.4348187745
4459.4026464842	0.4487140179
4461.3314538572	0.4402916729
4463.2602612303	0.4253636897
4465.1890686033	0.4336767495
4467.1178759764	0.4419760108
4469.0466833494	0.4314815402
4470.9754907225	0.4214581251
4472.9042980955	0.4438794255
4474.8331054686	0.4381644428
4476.7619128416	0.4376302958
4478.6907202147	0.4483203888
4480.6195275877	0.4252168536
4482.5483349607	0.4310581684
4484.4771423338	0.4261919558
4486.4059497068	0.4175327718
4488.3347570799	0.4419079423
4490.2635644529	0.4466439188
4492.1923718260	0.4403411746
4494.1211791990	0.4434393048
4496.0499865721	0.4426134825
4497.9787939451	0.4178523421
4499.9076013182	0.4243162274
4501.8364086912	0.4476363361
4503.7652160643	0.4342684150
4505.6940234373	0.4308803976
4507.6228308104	0.4264663756
4509.5516381834	0.4310582578
4511.4804455564	0.4405797124
4513.4092529295	0.4337629676
4515.3380603025	0.4346929789
4517.2668676756	0.4352857471
4519.1956750486	0.4251177609
4521.1244824217	0.4211987555
4523.0532897947	0.4430609643
4524.9820971678	0.4248396456
4526.9109045408	0.4200134575
4528.8397119139	0.4520708025
4530.7685192869	0.4211779535
4532.6973266600	0.4212203324
4534.6261340330	0.4315240085
4536.5549414061	0.4147751927
4538.4837487791	0.4269237816
4540.4125561521	0.4326388538
4542.3413635252	0.4388144016
4544.2701708982	0.4274608791
4546.1989782713	0.4259263873
4548.1277856443	0.4375754893
4550.0565930174	0.4350351393
4551.9854003904	0.4309993982
4553.9142077635	0.4125215709
4555.8430151365	0.4210926592
4557.7718225096	0.4370414317
4559.7006298826	0.4351000190
4561.6294372557	0.4305480123
4563.5582446287	0.4192080796
4565.4870520018	0.4376324415
4567.4158593748	0.4472293854
4569.3446667478	0.4221695960
4571.2734741209	0.4286036491
4573.2022814939	0.4341768324
4575.1310888670	0.4140551686
4577.0598962400	0.4247735739
4578.9887036131	0.4292839170
4580.9175109861	0.4280334413
4582.8463183592	0.4406708181
4584.7751257322	0.4280755818
4586.7039331053	0.4246153533
4588.6327404783	0.4293693304
4590.5615478514	0.4164370894
4592.4903552244	0.4139465094
4594.4191625975	0.4310768545
4596.3479699705	0.4288481474
4598.2767773435	0.4232781529
4600.2055847166	0.4270867407
4602.1343920896	0.4200778604
4604.0631994627	0.4292055964
4605.9920068357	0.4261774123
4607.9208142088	0.4306252599
4609.8496215818	0.4407268167
4611.7784289549	0.4272209704
4613.7072363279	0.4279306829
4615.6360437010	0.4195359945
4617.5648510740	0.4233004749
4619.4936584471	0.4353868067
4621.4224658201	0.4217963815
4623.3512731932	0.4132601321
4625.2800805662	0.4216828942
4627.2088879393	0.4249639213
4629.1376953123	0.4264632761
4631.0665026853	0.4269168675
4632.9953100584	0.4069514573
4634.9241174314	0.4229846597
4636.8529248045	0.4365535676
4638.7817321775	0.4175056815
4640.7105395506	0.4214274287
4642.6393469236	0.4271588624
4644.5681542967	0.4217698276
4646.4969616697	0.4149365723
4648.4257690428	0.4318986535
4650.3545764158	0.4341825545
4652.2833837889	0.4370353818
4654.2121911619	0.4391224980
4656.1409985350	0.4143991470
4658.0698059080	0.4223919511
4659.9986132810	0.4193846583
4661.9274206541	0.4246729910
4663.8562280271	0.4259108603
4665.7850354002	0.4188578427
4667.7138427732	0.4393537939
4669.6426501463	0.4301149249
4671.5714575193	0.4309171736
4673.5002648924	0.4352802038
4675.4290722654	0.4433273077
4677.3578796385	0.4365359843
4679.2866870115	0.4142411053
4681.2154943846	0.4232699573
4683.1443017576	0.4136702120
4685.0731091307	0.4198248088
4687.0019165037	0.4334354699
4688.9307238767	0.4200021327
4690.8595312498	0.4159045517
4692.7883386228	0.4249224961
4694.7171459959	0.4214058220
4696.6459533689	0.4099625945
4698.5747607420	0.4300381243
4700.5035681150	0.4161489904
4702.4323754881	0.3865465224
4704.3611828611	0.4140751362
4706.2899902342	0.4286686480
4708.2187976072	0.4288529754
4710.1476049803	0.4343713820
4712.0764123533	0.4092054367
4714.0052197264	0.4204257429
4715.9340270994	0.4516085684
4717.8628344724	0.4212540984
4719.7916418455	0.4065879285
4721.7204492185	0.4111705720
4723.6492565916	0.4164084196
4725.5780639646	0.4442870915
4727.5068713377	0.4403414428
4729.4356787107	0.4123560190
4731.3644860838	0.4179710150
4733.2932934568	0.4414307773
4735.2221008299	0.4326193929
4737.1509082029	0.4186920524
4739.0797155760	0.4183939397
4741.0085229490	0.4291475117
4742.9373303221	0.4267075360
4744.8661376951	0.4044632614
4746.7949450682	0.4189662039
4748.7237524412	0.4182703197
4750.6525598142	0.4019678831
4752.5813671873	0.4208704233
4754.5101745603	0.4281404912
4756.4389819334	0.4184122086
4758.3677893064	0.4231628776
4760.2965966795	0.4273372293
4762.2254040525	0.4259866476
4764.1542114256	0.4302028716
4766.0830187986	0.4210208952
4768.0118261717	0.4253163934
4769.9406335447	0.4126920104
4771.8694409178	0.4092102647
4773.7982482908	0.4262357950
4775.7270556639	0.3984887898
4777.6558630369	0.4241563082
4779.5846704099	0.4370259047
4781.5134777830	0.4029789269
4783.4422851560	0.4059413970
4785.3710925291	0.4109751582
4787.2998999021	0.4221915305
4789.2287072752	0.4184948802
4791.1575146482	0.4198433757
4793.0863220213	0.4276314378
4795.0151293943	0.4386727810
4796.9439367674	0.4307121933
4798.8727441404	0.3925436437
4800.8015515135	0.4052505493
4802.7303588865	0.4184949100
4804.6591662596	0.4050167501
4806.5879736326	0.4041399956
4808.5167810056	0.4259680212
4810.4455883787	0.4244595170
4812.3743957517	0.4129686952
4814.3032031248	0.4347214997
4816.2320104978	0.4149720669
4818.1608178709	0.4100973904
4820.0896252439	0.4354647994
4822.0184326170	0.4301464856
4823.9472399900	0.4152438343
4825.8760473631	0.4101884067
4827.8048547361	0.4238110483
4829.7336621092	0.4018516243
4831.6624694822	0.3902847767
4833.5912768553	0.4137188494
4835.5200842283	0.4076400101
4837.4488916013	0.4045268297
4839.3776989744	0.4167149365
4841.3065063474	0.4168141186
4843.2353137205	0.4052405059
4845.1641210935	0.3973098993
4847.0929284666	0.4116339386
4849.0217358396	0.4135306180
4850.9505432127	0.4042280614
4852.8793505857	0.4273764789
4854.8081579588	0.4289312661
4856.7369653318	0.4124027193
4858.6657727049	0.4112807512
4860.5945800779	0.4092687070
4862.5233874510	0.4150283635
4864.4521948240	0.4004289508
4866.3810021971	0.3913519681
4868.3098095701	0.4174075425
4870.2386169431	0.4263566136
4872.1674243162	0.4071374834
4874.0962316892	0.4021828175
4876.0250390623	0.4108381569
4877.9538464353	0.4213137031
4879.8826538084	0.4387449920
4881.8114611814	0.4279990792
4883.7402685545	0.4148786962
4885.6690759275	0.4229276180
4887.5978833006	0.4184503257
4889.5266906736	0.4047411680
4891.4554980467	0.4023241699
4893.3843054197	0.4143720269
4895.3131127928	0.4205503166
4897.2419201658	0.4218734801
4899.1707275388	0.4264931083
4901.0995349119	0.4205116034
4903.0283422849	0.4046035409
4904.9571496580	0.4160897434
4906.8859570310	0.4070679545
4908.8147644041	0.3855805099
4910.7435717771	0.4032396376
4912.6723791502	0.4094971716
4914.6011865232	0.4255391359
4916.5299938963	0.4114350677
4918.4588012693	0.4098236859
4920.3876086424	0.4350339174
4922.3164160154	0.4042332470
4924.2452233885	0.4134316146
4926.1740307615	0.4213587642
4928.1028381345	0.4180755913
4930.0316455076	0.4074515998
4931.9604528806	0.3891506791
4933.8892602537	0.4147849083
4935.8180676267	0.4024804235
4937.7468749998	0.3894607127
4939.6756823728	0.4052694440
4941.6044897459	0.4256542027
4943.5332971189	0.4143532813
4945.4621044920	0.4025593996
4947.3909118650	0.4176327586
4949.3197192381	0.4208465219
4951.2485266111	0.4283702970
4953.1773339842	0.3987723589
4955.1061413572	0.3954635561
4957.0349487302	0.4022584558
4958.9637561033	0.4204206169
4960.8925634763	0.4332920313
4962.8213708494	0.3984298706
4964.7501782224	0.4299894273
4966.6789855955	0.3972917199
4968.6077929685	0.3779470623
4970.5366003416	0.4266329110
4972.4654077146	0.4063309133
4974.3942150877	0.4041943252
4976.3230224607	0.3945603669
4978.2518298338	0.4107087851
4980.1806372068	0.4162725210
4982.1094445799	0.3982544243
4984.0382519529	0.4049516916
4985.9670593259	0.3906725943
4987.8958666990	0.3905380070
4989.8246740720	0.4011298716
4991.7534814451	0.4227098525
4993.6822888181	0.4138420820
4995.6110961912	0.4228810072
4997.5399035642	0.4251782894
4999.4687109373	0.3601208031
5001.3975183103	0.3862092793
5003.3263256834	0.4216060340
5005.2551330564	0.3888785839
5007.1839404295	0.4025188982
5009.1127478025	0.4105634093
5011.0415551756	0.3862895966
5012.9703625486	0.4147444069
5014.8991699217	0.4237799346
5016.8279772947	0.3999987245
5018.7567846677	0.4297531843
5020.6855920408	0.4157998264
5022.6143994138	0.3942486048
5024.5432067869	0.3979893923
5026.4720141599	0.3975432515
5028.4008215330	0.4274373353
5030.3296289060	0.3942251205
5032.2584362791	0.3699911833
5034.1872436521	0.4033341408
5036.1160510252	0.3861692250
5038.0448583982	0.3916822672
5039.9736657713	0.4409698546
5041.9024731443	0.4293242693
5043.8312805174	0.4003052115
5045.7600878904	0.4012434185
5047.6888952634	0.4023042619
5049.6177026365	0.4136413038
5051.5465100095	0.4053087533
5053.4753173826	0.4092221260
5055.4041247556	0.4144431651
5057.3329321287	0.3675786555
5059.2617395017	0.3779546320
5061.1905468748	0.4101914465
5063.1193542478	0.3712030351
5065.0481616209	0.3530349433
5066.9769689939	0.3982819319
5068.9057763670	0.4112050533
5070.8345837400	0.3962814212
5072.7633911131	0.4280339479
5074.6921984861	0.4194005430
5076.6210058591	0.3964193165
5078.5498132322	0.4010482728
5080.4786206052	0.3812247515
5082.4074279783	0.3832471371
5084.3362353513	0.4082438350
5086.2650427244	0.4257513285
5088.1938500974	0.3985263109
5090.1226574705	0.3988687098
5092.0514648435	0.4274491370
5093.9802722166	0.4053046703
5095.9090795896	0.4138312638
5097.8378869627	0.4088105559
5099.7666943357	0.3933331072
5101.6955017088	0.3904488981
5103.6243090818	0.3749911189
5105.5531164548	0.3992368877
5107.4819238279	0.3925647140
5109.4107312009	0.3998822272
5111.3395385740	0.4343687594
5113.2683459470	0.4211462140
5115.1971533201	0.3948706090
5117.1259606931	0.3977392614
5119.0547680662	0.4151800573
5120.9835754392	0.3884643912
5122.9123828123	0.3883915544
5124.8411901853	0.4022502005
5126.7699975584	0.4051020443
5128.6988049314	0.4027457833
5130.6276123045	0.3842307329
5132.5564196775	0.4155114293
5134.4852270506	0.4143184721
5136.4140344236	0.3937788606
5138.3428417966	0.3895307183
5140.2716491697	0.3832687438
5142.2004565427	0.3831788898
5144.1292639158	0.3963394463
5146.0580712888	0.4517449439
5147.9868786619	0.4070802331
5149.9156860349	0.3825208247
5151.8444934080	0.4078066647
5153.7733007810	0.3732222617
5155.7021081541	0.4218559265
5157.6309155271	0.4163218737
5159.5597229002	0.3908160031
5161.4885302732	0.3941577077
5163.4173376463	0.3663478494
5165.3461450193	0.4200955033
5167.2749523923	0.4093839824
5169.2037597654	0.4022661150
5171.1325671384	0.4179178178
5173.0613745115	0.3680532277
5174.9901818845	0.3919501007
5176.9189892576	0.3966400325
5178.8477966306	0.3925430477
5180.7766040037	0.4162871838
5182.7054113767	0.4026710093
5184.6342187498	0.4072455764
5186.5630261228	0.4176445305
5188.4918334959	0.4171128273
5190.4206408689	0.4165813625
5192.3494482420	0.4235097170
5194.2782556150	0.4109199047
5196.2070629880	0.3938001394
5198.1358703611	0.3969725072
5200.0646777341	0.3686406016
5201.9934851072	0.3680325449
5203.9222924802	0.3871716559
5205.8510998533	0.3970535994
5207.7799072263	0.4221145511
5209.7087145994	0.4135035574
5211.6375219724	0.4061402082
5213.5663293455	0.3987102509
5215.4951367185	0.4010733366
5217.4239440916	0.4069208503
5219.3527514646	0.3808347881
5221.2815588377	0.4071269631
5223.2103662107	0.4117228985
5225.1391735837	0.3920904398
5227.0679809568	0.4253520668
5228.9967883298	0.3808474839
5230.9255957029	0.3696048558
5232.8544030759	0.4189179838
5234.7832104490	0.4013311863
5236.7120178220	0.4230697155
5238.6408251951	0.4161509275
5240.5696325681	0.3950162530
5242.4984399412	0.4387308061
5244.4272473142	0.4190329015
5246.3560546873	0.4027807415
5248.2848620603	0.4050629437
5250.2136694334	0.3896946311
5252.1424768064	0.3907806575
5254.0712841795	0.4166162610
5256.0000915525	0.4105800390
5257.9288989255	0.3455989063
5259.8577062986	0.3826901317
5261.7865136716	0.4205048978
5263.7153210447	0.4027029574
5265.6441284177	0.4254294038
5267.5729357908	0.4162819088
5269.5017431638	0.4065364003
5271.4305505369	0.3623353243
5273.3593579099	0.3681910336
5275.2881652830	0.4359196126
5277.2169726560	0.4135914147
5279.1457800291	0.4114974439
5281.0745874021	0.4221491218
5283.0033947752	0.3912420869
5284.9322021482	0.3811034262
5286.8610095212	0.3792183697
5288.7898168943	0.3929279447
5290.7186242673	0.4116272628
5292.6474316404	0.3941172361
5294.5762390134	0.3897641003
5296.5050463865	0.4099706113
5298.4338537595	0.4037679732
5300.3626611326	0.3833062351
5302.2914685056	0.3715932071
5304.2202758787	0.3765628636
5306.1490832517	0.3711329401
5308.0778906248	0.3895735741
5310.0066979978	0.4099295437
5311.9355053709	0.3881981969
5313.8643127439	0.3826242387
5315.7931201169	0.3712980449
5317.7219274900	0.4034642279
5319.6507348630	0.3990634084
5321.5795422361	0.3363677561
5323.5083496091	0.3486623168
5325.4371569822	0.3687179387
5327.3659643552	0.3956175447
5329.2947717283	0.4211760163
5331.2235791013	0.4069333673
5333.1523864744	0.3721344471
5335.0811938474	0.3627861142
5337.0100012205	0.3968776464
5338.9388085935	0.3876627088
5340.8676159666	0.3870681524
5342.7964233396	0.3979130983
5344.7252307126	0.3964840472
5346.6540380857	0.4042166770
5348.5828454587	0.3927787244
5350.5116528318	0.4014515281
5352.4404602048	0.4191957116
5354.3692675779	0.4344614744
5356.2980749509	0.4162685573
5358.2268823240	0.3982715309
5360.1556896970	0.4137930572
5362.0844970701	0.3877346218
5364.0133044431	0.3986611664
5365.9421118162	0.4126452804
5367.8709191892	0.3491333723
5369.7997265623	0.3638282418
5371.7285339353	0.4171455204
5373.6573413083	0.4046519101
5375.5861486814	0.3958291709
5377.5149560544	0.3819428384
5379.4437634275	0.3693040907
5381.3725708005	0.3893757463
5383.3013781736	0.3680825233
5385.2301855466	0.3787921071
5387.1589929197	0.4176051021
5389.0878002927	0.3545159996
5391.0166076658	0.3778381050
5392.9454150388	0.4527839720
5394.8742224119	0.4162776172
5396.8030297849	0.3955538869
5398.7318371580	0.3638704717
5400.6606445310	0.3516022861
5402.5894519041	0.3968781233
5404.5182592771	0.4146210551
5406.4470666501	0.3891409934
5408.3758740232	0.3306070566
5410.3046813962	0.3687775433
5412.2334887693	0.3884578645
5414.1622961423	0.3670433760
5416.0911035154	0.4188127816
5418.0199108884	0.3723413646
5419.9487182615	0.3369274139
5421.8775256345	0.4174828231
5423.8063330076	0.4285676479
5425.7351403806	0.3754478395
5427.6639477537	0.3871701956
5429.5927551267	0.3763985932
5431.5215624998	0.3497597873
5433.4503698728	0.4160397947
5435.3791772458	0.4188210666
5437.3079846189	0.3970434368
5439.2367919919	0.4154109657
5441.1655993650	0.4016304612
5443.0944067380	0.4208510220
5445.0232141111	0.4176290929
5446.9520214841	0.3628096879
5448.8808288572	0.3563523591
5450.8096362302	0.3661521971
5452.7384436033	0.3930415511
5454.6672509763	0.4310497940
5456.5960583494	0.3750657737
5458.5248657224	0.3518918455
5460.4536730955	0.4415319860
5462.3824804685	0.4887495637
5464.3112878415	0.3925005496
5466.2400952146	0.3237104714
5468.1689025876	0.4136032462
5470.0977099607	0.4195441604
5472.0265173337	0.3502776325
5473.9553247068	0.3460686505
5475.8841320798	0.3624001443
5477.8129394529	0.3939700127
5479.7417468259	0.3741719723
5481.6705541990	0.3956016004
5483.5993615720	0.3544834554
5485.5281689451	0.3131544292
5487.4569763181	0.4247534871
5489.3857836912	0.4203161597
5491.3145910642	0.3832553029
5493.2433984372	0.3803740442
5495.1722058103	0.3326270878
5497.1010131833	0.3501976728
5499.0298205564	0.3954279721
5500.9586279294	0.4086778462
5502.8874353025	0.3700722754
5504.8162426755	0.3985506892
5506.7450500486	0.4491465092
5508.6738574216	0.3273583949
5510.6026647947	0.2931538820
5512.5314721677	0.3550776541
5514.4602795408	0.3112612665
5516.3890869138	0.3771538734
5518.3178942869	0.4116589427
5520.2467016599	0.3588031828
5522.1755090330	0.3970514536
5524.1043164060	0.4041151106
5526.0331237790	0.3817909062
5527.9619311521	0.3239021301
5529.8907385251	0.3296909928
5531.8195458982	0.3570691049
5533.7483532712	0.3654288948
5535.6771606443	0.4427212179
5537.6059680173	0.4044458866
5539.5347753904	0.3613720536
5541.4635827634	0.3880173564
5543.3923901365	0.3823763430
5545.3211975095	0.3697609603
5547.2500048826	0.3818368018
5549.1788122556	0.3805302382
5551.1076196287	0.3448936939
5553.0364270017	0.3299765289
5554.9652343747	0.3298353553
5556.8940417478	0.3756230474
5558.8228491208	0.3852581084
5560.7516564939	0.3710994422
5562.6804638669	0.3644479215
5564.6092712400	0.3505450189
5566.5380786130	0.3996170163
5568.4668859861	0.3772706389
5570.3956933591	0.4017787874
5572.3245007322	0.4152208865
5574.2533081052	0.4041986167
5576.1821154783	0.4589561522
5578.1109228513	0.4271493554
5580.0397302244	0.3815628886
5581.9685375974	0.3448202312
5583.8973449704	0.4154380858
5585.8261523435	0.3452069163
5587.7549597165	0.2884353101
5589.6837670896	0.3828860223
5591.6125744626	0.3077630103
5593.5413818357	0.4039980769
5595.4701892087	0.4494417310
5597.3989965818	0.3773407042
5599.3278039548	0.3958230615
5601.2566113279	0.3390365839
5603.1854187009	0.4039380848
5605.1142260740	0.4123026133
5607.0430334470	0.3609381020
5608.9718408201	0.3608202636
5610.9006481931	0.3624234796
5612.8294555661	0.3783084750
5614.7582629392	0.3394517004
5616.6870703122	0.3722022474
5618.6158776853	0.3611273766
5620.5446850583	0.3531516194
5622.4734924314	0.3851318061
5624.4022998044	0.3710839748
5626.3311071775	0.3617959619
5628.2599145505	0.3441109955
5630.1887219236	0.4167686701
5632.1175292966	0.4137906134
5634.0463366697	0.3627363145
5635.9751440427	0.3844250441
5637.9039514158	0.3421269655
5639.8327587888	0.3644377887
5641.7615661619	0.3820594549
5643.6903735349	0.3500626087
5645.6191809079	0.3508812189
5647.5479882810	0.3331714571
5649.4767956540	0.3157750070
5651.4056030271	0.3606257439
5653.3344104001	0.3988641500
5655.2632177732	0.3723395765
5657.1920251462	0.3809289932
5659.1208325193	0.3656119108
5661.0496398923	0.3660549223
5662.9784472654	0.4277600348
5664.9072546384	0.4061124325
5666.8360620115	0.3888227046
5668.7648693845	0.3581723869
5670.6936767576	0.3248853981
5672.6224841306	0.3588695228
5674.5512915036	0.3676921725
5676.4800988767	0.3961306214
5678.4089062497	0.4303256869
5680.3377136228	0.3966189325
5682.2665209958	0.3731262088
5684.1953283689	0.3862518966
5686.1241357419	0.3968024254
5688.0529431150	0.4107211828
5689.9817504880	0.3712556660
5691.9105578611	0.3396660089
5693.8393652341	0.3624205589
5695.7681726072	0.3519417644
5697.6969799802	0.3851393461
5699.6257873533	0.3375080228
5701.5545947263	0.3719061613
5703.4834020993	0.4666911066
5705.4122094724	0.3365637660
5707.3410168454	0.3554306626
5709.2698242185	0.3631131649
5711.1986315915	0.3227758408
5713.1274389646	0.4088772237
5715.0562463376	0.4067603648
5716.9850537107	0.3982650340
5718.9138610837	0.3183764815
5720.8426684568	0.4072153866
5722.7714758298	0.4695701003
5724.7002832029	0.3753392398
5726.6290905759	0.4903246462
5728.5578979490	0.3981053829
5730.4867053220	0.2934888899
5732.4155126950	0.3508464992
5734.3443200681	0.3753347993
5736.2731274411	0.3987456858
5738.2019348142	0.3648529053
5740.1307421872	0.3606796265
5742.0595495603	0.4233134091
5743.9883569333	0.4125881493
5745.9171643064	0.3550694287
5747.8459716794	0.4286847413
5749.7747790525	0.4676377177
5751.7035864255	0.3268686533
5753.6323937986	0.3453581035
5755.5612011716	0.5275887251
5757.4900085447	0.4378282428
5759.4188159177	0.3031536043
5761.3476232907	0.4234105051
5763.2764306638	0.4406969547
5765.2052380368	0.3851515055
5767.1340454099	0.4128985107
5769.0628527829	0.3981069028
5770.9916601560	0.3836094737
5772.9204675290	0.2893593907
5774.8492749021	0.2910771966
5776.7780822751	0.3275231719
5778.7068896482	0.3017698824
5780.6356970212	0.3647426069
5782.5645043943	0.4107376337
5784.4933117673	0.4360095263
5786.4221191404	0.3491526246
5788.3509265134	0.2680092454
5790.2797338865	0.3914044201
5792.2085412595	0.4140227735
5794.1373486325	0.3080326319
5796.0661560056	0.2773179114
5797.9949633786	0.3997448087
5799.9237707517	0.4189925790
5801.8525781247	0.3481481671
5803.7813854978	0.4237862527
5805.7101928708	0.3635542691
5807.6390002439	0.3312105536
5809.5678076169	0.4416389763
5811.4966149900	0.4102101028
5813.4254223630	0.4266782999
5815.3542297361	0.3810696006
5817.2830371091	0.3339882791
5819.2118444822	0.3672216237
5821.1406518552	0.2886049747
5823.0694592282	0.3796914816
5824.9982666013	0.4247287512
5826.9270739743	0.3304007053
5828.8558813474	0.3936712146
5830.7846887204	0.4177013934
5832.7134960935	0.4068481922
5834.6423034665	0.3975211978
5836.5711108396	0.2957657874
5838.4999182126	0.3016456664
5840.4287255857	0.3560984731
5842.3575329587	0.3001521826
5844.2863403318	0.3829174340
5846.2151477048	0.3806620240
5848.1439550779	0.3076130748
5850.0727624509	0.4064870179
5852.0015698239	0.3357746303
5853.9303771970	0.4233577251
5855.8591845700	0.4061147869
5857.7879919431	0.2853995264
5859.7167993161	0.4277602732
5861.6456066892	0.3382588923
5863.5744140622	0.3558068275
5865.5032214353	0.3883014023
5867.4320288083	0.3245036900
5869.3608361814	0.3888695538
5871.2896435544	0.3048010468
5873.2184509275	0.3731665611
5875.1472583005	0.3618948460
5877.0760656736	0.2994649112
5879.0048730466	0.3870239556
5880.9336804196	0.3198275864
5882.8624877927	0.2862429619
5884.7912951657	0.2807024419
5886.7201025388	0.3398477137
5888.6489099118	0.3352354467
5890.5777172849	0.3059927225
5892.5065246579	0.4074392617
5894.4353320310	0.3188371956
5896.3641394040	0.3044388890
5898.2929467771	0.4055995643
5900.2217541501	0.4604168236
5902.1505615232	0.3691040277
5904.0793688962	0.2552384734
5906.0081762693	0.3347479105
5907.9369836423	0.3349650204
5909.8657910154	0.3243241310
5911.7945983884	0.3298707008
5913.7234057614	0.2954605520
5915.6522131345	0.3729481995
5917.5810205075	0.3986935019
5919.5098278806	0.3643760085
5921.4386352536	0.3443332016
5923.3674426267	0.3911495209
5925.2962499997	0.4007526636
5927.2250573728	0.3805592358
5929.1538647458	0.4272459447
5931.0826721189	0.3722833097
5933.0114794919	0.3377144337
5934.9402868650	0.3000173569
5936.8690942380	0.3728946745
5938.7979016111	0.4258872867
5940.7267089841	0.3233295679
5942.6555163571	0.3875809312
5944.5843237302	0.3851453960
5946.5131311032	0.3336718082
5948.4419384763	0.3738254011
5950.3707458493	0.3733620644
5952.2995532224	0.4030880928
5954.2283605954	0.3859088123
5956.1571679685	0.3904092014
5958.0859753415	0.4200668633
5960.0147827146	0.3560204208
5961.9435900876	0.3232982457
5963.8723974607	0.3353612721
5965.8012048337	0.3100891113
5967.7300122068	0.3680632114
5969.6588195798	0.3824966252
5971.5876269528	0.3177742064
5973.5164343259	0.3947765827
5975.4452416989	0.3493281305
5977.3740490720	0.3419916630
5979.3028564450	0.3549425900
5981.2316638181	0.3333541155
5983.1604711911	0.4567562640
5985.0892785642	0.3396137953
5987.0180859372	0.3749085963
5988.9468933103	0.3873163462
5990.8757006833	0.2202418894
5992.8045080564	0.4340898097
5994.7333154294	0.4763538539
5996.6621228025	0.3077008128
5998.5909301755	0.3313490748
6000.5197375485	0.3128714561
