399.2631262207	0.0004185813
401.1919335938	0.0007352422
403.1207409668	0.0003573265
405.0495483398	0.0000071589
406.9783557129	0.0003186858
408.9071630859	0.0003640448
410.8359704590	0.0005857724
412.7647778320	0.0004824883
414.6935852051	0.0008199618
416.6223925781	0.0004657168
418.5511999512	-0.0001120533
420.4800073242	0.0002896206
422.4088146973	0.0002766571
424.3376220703	0.0004187494
426.2664294434	0.0006499144
428.1952368164	0.0006491097
430.1240441895	0.0006503498
432.0528515625	0.0008161803
433.9816589355	0.0007658484
435.9104663086	0.0003946589
437.8392736816	0.0001186843
439.7680810547	0.0006358807
441.6968884277	0.0008680606
443.6256958008	-0.0000554856
445.5545031738	0.0001398480
447.4833105469	0.0003263400
449.4121179199	0.0001141515
451.3409252930	0.0004101335
453.2697326660	0.0004948334
455.1985400391	0.0003746138
457.1273474121	0.0001366884
459.0561547852	0.0004682774
460.9849621582	0.0003029250
462.9137695313	0.0005313830
464.8425769043	0.0003664274
466.7713842773	0.0003282575
468.7001916504	0.0007572984
470.6289990234	-0.0000728044
472.5578063965	0.0000319876
474.4866137695	-0.0001094997
476.4154211426	-0.0000420840
478.3442285156	0.0003053601
480.2730358887	0.0002402181
482.2018432617	0.0007160337
484.1306506348	0.0002680790
486.0594580078	0.0002116190
487.9882653809	0.0002572557
489.9170727539	0.0003667669
491.8458801270	0.0007668199
493.7746875000	0.0002236726
495.7034948730	0.0003151778
497.6323022461	0.0004996823
499.5611096191	0.0001665116
501.4899169922	0.0002919059
503.4187243652	0.0003370667
505.3475317383	0.0000442911
507.2763391113	0.0003985525
509.2051464844	0.0003373420
511.1339538574	0.0000034439
513.0627612305	0.0001760791
514.9915686035	-0.0003144886
516.9203759766	0.0000686315
518.8491833496	0.0004900614
520.7779907227	0.0002406700
522.7067980957	0.0003728688
524.6356054688	0.0001807268
526.5644128418	0.0001157005
528.4932202148	-0.0001871960
530.4220275879	-0.0000363072
532.3508349609	0.0004568977
534.2796423340	0.0003877767
536.2084497070	0.0004620024
538.1372570801	0.0003032058
540.0660644531	0.0003811886
541.9948718262	0.0004101794
543.9236791992	0.0003970832
545.8524865723	0.0004076363
547.7812939453	0.0003402293
549.7101013184	0.0003783822
551.6389086914	0.0000024601
553.5677160645	0.0002865380
555.4965234375	0.0002370883
557.4253308105	0.0001288891
559.3541381836	0.0005179911
561.2829455566	-0.0000631047
563.2117529297	-0.0000949648
565.1405603027	0.0004092577
567.0693676758	0.0003066232
568.9981750488	-0.0000089989
570.9269824219	0.0001769110
572.8557897949	0.0004321312
574.7845971680	0.0002379657
576.7134045410	0.0002662305
578.6422119141	0.0002523107
580.5710192871	0.0002880108
582.4998266602	0.0002987907
584.4286340332	0.0002394718
586.3574414063	0.0003750884
588.2862487793	0.0001656899
590.2150561523	0.0001737287
592.1438635254	0.0003856379
594.0726708984	0.0003635695
596.0014782715	0.0002431871
597.9302856445	0.0000809825
599.8590930176	0.0003472438
601.7879003906	0.0005573557
603.7167077637	0.0003629532
605.6455151367	0.0002137329
607.5743225098	0.0004510237
609.5031298828	0.0004947091
611.4319372559	0.0002361796
613.3607446289	0.0001161862
615.2895520020	0.0001442516
617.2183593750	0.0003533546
619.1471667480	0.0000024942
621.0759741211	-0.0000876489
623.0047814941	-0.0002393046
624.9335888672	-0.0004924333
626.8623962402	-0.0004283297
628.7912036133	-0.0002313605
630.7200109863	0.0001757872
632.6488183594	0.0001969736
634.5776257324	0.0002330981
636.5064331055	0.0006823005
638.4352404785	0.0008297705
640.3640478516	0.0007930783
642.2928552246	0.0012622208
644.2216625977	0.0011282363
646.1504699707	0.0012422111
648.0792773438	0.0011707644
650.0080847168	0.0010717236
651.9368920898	0.0018461486
653.8656994629	0.0016664484
655.7945068359	0.0016814226
657.7233142090	0.0016785759
659.6521215820	0.0017557711
661.5809289551	0.0019272882
663.5097363281	0.0016230631
665.4385437012	0.0023193760
667.3673510742	0.0021067585
669.2961584473	0.0019904238
671.2249658203	0.0024147492
673.1537731934	0.0023736744
675.0825805664	0.0026411526
677.0113879395	0.0024447502
678.9401953125	0.0026026219
680.8690026855	0.0024950034
682.7978100586	0.0027195907
684.7266174316	0.0031090938
686.6554248047	0.0026189536
688.5842321777	0.0027279896
690.5130395508	0.0028894476
692.4418469238	0.0031302066
694.3706542969	0.0031522636
696.2994616699	0.0035518077
698.2282690430	0.0044090003
700.1570764160	0.0044338112
702.0858837891	0.0045440635
704.0146911621	0.0044499561
705.9434985352	0.0038052606
707.8723059082	0.0032546103
709.8011132813	0.0026625120
711.7299206543	0.0015133563
713.6587280273	0.0008829747
715.5875354004	0.0007342256
717.5163427734	0.0004977519
719.4451501465	0.0004181484
721.3739575195	-0.0001560841
723.3027648926	0.0000006437
725.2315722656	0.0001680167
727.1603796387	-0.0000811620
729.0891870117	0.0000056160
731.0179943848	-0.0001116253
732.9468017578	0.0000496531
734.8756091309	0.0001195233
736.8044165039	0.0002608948
738.7332238770	0.0001637421
740.6620312500	0.0000912875
742.5908386230	-0.0000058929
744.5196459961	-0.0002463947
746.4484533691	0.0000923502
748.3772607422	-0.0001065139
750.3060681152	-0.0002486035
752.2348754883	-0.0001325394
754.1636828613	-0.0000745955
756.0924902344	0.0000676023
758.0212976074	0.0000970521
759.9501049805	0.0001944500
761.8789123535	0.0001793086
763.8077197266	0.0001260312
765.7365270996	0.0002356229
767.6653344727	0.0001548584
769.5941418457	0.0003088415
771.5229492188	0.0002979054
773.4517565918	-0.0000061128
775.3805639648	0.0004234361
777.3093713379	0.0003418729
779.2381787109	0.0000164895
781.1669860840	0.0003605364
783.0957934570	0.0000883508
785.0246008301	0.0000377398
786.9534082031	0.0002205810
788.8822155762	0.0000831776
790.8110229492	0.0003332226
792.7398303223	0.0003586754
794.6686376953	0.0000916199
796.5974450684	0.0003594374
798.5262524414	0.0006506697
800.4550598145	0.0005792140
802.3838671875	0.0008697381
804.3126745605	0.0007946834
806.2414819336	0.0005805790
808.1702893066	0.0005967943
810.0990966797	0.0003812647
812.0279040527	0.0004626384
813.9567114258	0.0003339375
815.8855187988	0.0003893631
817.8143261719	0.0003816874
819.7431335449	0.0004133896
821.6719409180	0.0007933374
823.6007482910	0.0005584505
825.5295556641	0.0007401592
827.4583630371	0.0007158067
829.3871704102	0.0006037774
831.3159777832	0.0011324489
833.2447851563	0.0013012567
835.1735925293	0.0013928387
837.1023999023	0.0012993910
839.0312072754	0.0012399689
840.9600146484	0.0013299540
842.8888220215	0.0013371320
844.8176293945	0.0012164947
846.7464367676	0.0009373083
848.6752441406	0.0010186639
850.6040515137	0.0011516982
852.5328588867	0.0008124410
854.4616662598	0.0006713911
856.3904736328	0.0008171179
858.3192810059	0.0005561359
860.2480883789	0.0004345821
862.1768957520	0.0003470828
864.1057031250	0.0003754126
866.0345104980	0.0004938330
867.9633178711	0.0004818563
869.8921252441	0.0006458242
871.8209326172	0.0001441303
873.7497399902	0.0001246951
875.6785473633	0.0005473958
877.6073547363	0.0002632404
879.5361621094	0.0001356120
881.4649694824	0.0003013600
883.3937768555	0.0005155525
885.3225842285	0.0003725044
887.2513916016	0.0003785520
889.1801989746	0.0005623564
891.1090063477	0.0004182318
893.0378137207	0.0001301109
894.9666210938	0.0003491809
896.8954284668	0.0006561482
898.8242358398	0.0002741672
900.7530432129	0.0003911237
902.6818505859	0.0004675522
904.6106579590	0.0004325319
906.5394653320	0.0003588980
908.4682727051	0.0003818590
910.3970800781	0.0007980719
912.3258874512	0.0005921139
914.2546948242	0.0007737397
916.1835021973	0.0007047295
918.1123095703	0.0009643054
920.0411169434	0.0013739840
921.9699243164	0.0012393142
923.8987316895	0.0016453990
925.8275390625	0.0016063387
927.7563464355	0.0020132810
929.6851538086	0.0020687524
931.6139611816	0.0021208466
933.5427685547	0.0024269689
935.4715759277	0.0020310814
937.4003833008	0.0026405819
939.3291906738	0.0027641398
941.2579980469	0.0026818812
943.1868054199	0.0030030957
945.1156127930	0.0027745485
947.0444201660	0.0026795189
948.9732275391	0.0025287052
950.9020349121	0.0025630791
952.8308422852	0.0027009770
954.7596496582	0.0026164996
956.6884570313	0.0025561280
958.6172644043	0.0027024571
960.5460717773	0.0027235353
962.4748791504	0.0026924559
964.4036865234	0.0027313922
966.3324938965	0.0029103213
968.2613012695	0.0032334600
970.1901086426	0.0030475126
972.1189160156	0.0031403340
974.0477233887	0.0035082228
975.9765307617	0.0037371509
977.9053381348	0.0040912512
979.8341455078	0.0044852002
981.7629528809	0.0048730406
983.6917602539	0.0051250723
985.6205676270	0.0058251778
987.5493750000	0.0066961995
989.4781823730	0.0073680822
991.4069897461	0.0082305986
993.3357971191	0.0092300773
995.2646044922	0.0099356622
997.1934118652	0.0107532982
999.1222192383	0.0116384570
1001.0510266113	0.0122400261
1002.9798339844	0.0133645432
1004.9086413574	0.0142598702
1006.8374487305	0.0152180549
1008.7662561035	0.0162363164
1010.6950634766	0.0170577690
1012.6238708496	0.0183245949
1014.5526782227	0.0189280845
1016.4814855957	0.0197344236
1018.4102929688	0.0208637752
1020.3391003418	0.0218083579
1022.2679077148	0.0226943344
1024.1967150879	0.0236779116
1026.1255224609	0.0248903222
1028.0543298340	0.0253064092
1029.9831372070	0.0261174254
1031.9119445801	0.0268689506
1033.8407519531	0.0272122920
1035.7695593262	0.0278933123
1037.6983666992	0.0281861704
1039.6271740723	0.0283885859
1041.5559814453	0.0279973876
1043.4847888184	0.0278195534
1045.4135961914	0.0276535302
1047.3424035645	0.0270547327
1049.2712109375	0.0270102229
1051.2000183105	0.0263944492
1053.1288256836	0.0259161778
1055.0576330566	0.0254902840
1056.9864404297	0.0244224984
1058.9152478027	0.0240496472
1060.8440551758	0.0234697573
1062.7728625488	0.0225426108
1064.7016699219	0.0220448878
1066.6304772949	0.0212085359
1068.5592846680	0.0202424191
1070.4880920410	0.0194288455
1072.4168994141	0.0185956247
1074.3457067871	0.0175976325
1076.2745141602	0.0166140199
1078.2033215332	0.0160525367
1080.1321289062	0.0152834971
1082.0609362793	0.0145797767
1083.9897436523	0.0141174477
1085.9185510254	0.0132704740
1087.8473583984	0.0126332100
1089.7761657715	0.0122554302
1091.7049731445	0.0116521958
1093.6337805176	0.0109833330
1095.5625878906	0.0105553791
1097.4913952637	0.0103571657
1099.4202026367	0.0100809876
1101.3490100098	0.0098320115
1103.2778173828	0.0097112451
1105.2066247559	0.0093035586
1107.1354321289	0.0089704590
1109.0642395019	0.0090463161
1110.9930468750	0.0089138513
1112.9218542480	0.0086092157
1114.8506616211	0.0085904878
1116.7794689941	0.0087526757
1118.7082763672	0.0085676275
1120.6370837402	0.0086492486
1122.5658911133	0.0089640385
1124.4946984863	0.0087811435
1126.4235058594	0.0089194179
1128.3523132324	0.0091023287
1130.2811206055	0.0092598740
1132.2099279785	0.0095727444
1134.1387353516	0.0098436922
1136.0675427246	0.0103362165
1137.9963500977	0.0108136218
1139.9251574707	0.0116468193
1141.8539648437	0.0124289999
1143.7827722168	0.0131231081
1145.7115795898	0.0140444506
1147.6403869629	0.0147411171
1149.5691943359	0.0157298557
1151.4980017090	0.0166687034
1153.4268090820	0.0172008164
1155.3556164551	0.0180499032
1157.2844238281	0.0188352223
1159.2132312012	0.0193550438
1161.1420385742	0.0201776531
1163.0708459473	0.0208875146
1164.9996533203	0.0218335502
1166.9284606934	0.0228479132
1168.8572680664	0.0232859589
1170.7860754394	0.0240086000
1172.7148828125	0.0249946900
1174.6436901855	0.0260637049
1176.5724975586	0.0269485936
1178.5013049316	0.0279656034
1180.4301123047	0.0290481467
1182.3589196777	0.0301459171
1184.2877270508	0.0317877233
1186.2165344238	0.0328807458
1188.1453417969	0.0344048440
1190.0741491699	0.0362381637
1192.0029565430	0.0377597734
1193.9317639160	0.0396086313
1195.8605712891	0.0410718955
1197.7893786621	0.0430688225
1199.7181860351	0.0451508164
1201.6469934082	0.0468284339
1203.5758007812	0.0488271192
1205.5046081543	0.0507895127
1207.4334155273	0.0524569377
1209.3622229004	0.0539624989
1211.2910302734	0.0558179840
1213.2198376465	0.0573955551
1215.1486450195	0.0586702377
1217.0774523926	0.0600260980
1219.0062597656	0.0610447340
1220.9350671387	0.0619202331
1222.8638745117	0.0628812984
1224.7926818848	0.0633896664
1226.7214892578	0.0635243207
1228.6502966308	0.0640135184
1230.5791040039	0.0643010587
1232.5079113769	0.0644004792
1234.4367187500	0.0645280778
1236.3655261230	0.0644176826
1238.2943334961	0.0643043891
1240.2231408691	0.0640898943
1242.1519482422	0.0638276562
1244.0807556152	0.0638085604
1246.0095629883	0.0634119138
1247.9383703613	0.0627904534
1249.8671777344	0.0627189875
1251.7959851074	0.0620673522
1253.7247924805	0.0613550469
1255.6535998535	0.0605848394
1257.5824072266	0.0595792681
1259.5112145996	0.0589861795
1261.4400219726	0.0577627271
1263.3688293457	0.0573166013
1265.2976367187	0.0566013195
1267.2264440918	0.0555000603
1269.1552514648	0.0550778806
1271.0840588379	0.0539196059
1273.0128662109	0.0534096733
1274.9416735840	0.0524657965
1276.8704809570	0.0511759333
1278.7992883301	0.0504283793
1280.7280957031	0.0493168235
1282.6569030762	0.0484005660
1284.5857104492	0.0474137627
1286.5145178223	0.0466250069
1288.4433251953	0.0457690433
1290.3721325683	0.0451291800
1292.3009399414	0.0448055863
1294.2297473144	0.0443713702
1296.1585546875	0.0439649411
1298.0873620605	0.0437617823
1300.0161694336	0.0439419001
1301.9449768066	0.0441823378
1303.8737841797	0.0447457619
1305.8025915527	0.0448778346
1307.7313989258	0.0455167517
1309.6602062988	0.0465179458
1311.5890136719	0.0468946695
1313.5178210449	0.0480521359
1315.4466284180	0.0492769033
1317.3754357910	0.0503862947
1319.3042431640	0.0516803749
1321.2330505371	0.0532893464
1323.1618579101	0.0549309477
1325.0906652832	0.0563569814
1327.0194726562	0.0580076277
1328.9482800293	0.0595060959
1330.8770874023	0.0610185526
1332.8058947754	0.0623550713
1334.7347021484	0.0635890067
1336.6635095215	0.0642080903
1338.5923168945	0.0640851259
1340.5211242676	0.0649863631
1342.4499316406	0.0668960437
1344.3787390137	0.0672957152
1346.3075463867	0.0670760050
1348.2363537597	0.0673033446
1350.1651611328	0.0666312873
1352.0939685058	0.0665744767
1354.0227758789	0.0659078658
1355.9515832519	0.0651528612
1357.8803906250	0.0650098473
1359.8091979980	0.0637409166
1361.7380053711	0.0617792755
1363.6668127441	0.0609088168
1365.5956201172	0.0628284663
1367.5244274902	0.0617775917
1369.4532348633	0.0610377826
1371.3820422363	0.0618714765
1373.3108496094	0.0591982231
1375.2396569824	0.0596614033
1377.1684643555	0.0606132299
1379.0972717285	0.0604252890
1381.0260791015	0.0604840182
1382.9548864746	0.0600664914
1384.8836938476	0.0602125376
1386.8125012207	0.0582032725
1388.7413085937	0.0590064451
1390.6701159668	0.0627009422
1392.5989233398	0.0616310239
1394.5277307129	0.0585450828
1396.4565380859	0.0609299988
1398.3853454590	0.0609834418
1400.3141528320	0.0604594871
1402.2429602051	0.0643842742
1404.1717675781	0.0613842383
1406.1005749512	0.0618269965
1408.0293823242	0.0635034740
1409.9581896972	0.0614465401
1411.8869970703	0.0626753718
1413.8158044433	0.0606255010
1415.7446118164	0.0613828301
1417.6734191894	0.0566642061
1419.6022265625	0.0518599227
1421.5310339355	0.0571802594
1423.4598413086	0.0556149259
1425.3886486816	0.0538764484
1427.3174560547	0.0539413169
1429.2462634277	0.0506740957
1431.1750708008	0.0490408763
1433.1038781738	0.0493345372
1435.0326855469	0.0454707220
1436.9614929199	0.0397660621
1438.8903002929	0.0434146896
1440.8191076660	0.0439127535
1442.7479150390	0.0414312072
1444.6767224121	0.0428032130
1446.6055297851	0.0401127003
1448.5343371582	0.0402994305
1450.4631445312	0.0413346589
1452.3919519043	0.0422960445
1454.3207592773	0.0436998680
1456.2495666504	0.0380737819
1458.1783740234	0.0399485603
1460.1071813965	0.0503029004
1462.0359887695	0.0531879589
1463.9647961426	0.0537320077
1465.8936035156	0.0561381280
1467.8224108886	0.0626606494
1469.7512182617	0.0669740587
1471.6800256347	0.0620999783
1473.6088330078	0.0653634220
1475.5376403808	0.0730916709
1477.4664477539	0.0782211423
1479.3952551269	0.0845728889
1481.3240625000	0.0865590721
1483.2528698730	0.0913295746
1485.1816772461	0.0943102092
1487.1104846191	0.0940797329
1489.0392919922	0.0942502096
1490.9680993652	0.0954241157
1492.8969067383	0.1073620468
1494.8257141113	0.1059049964
1496.7545214843	0.0980397910
1498.6833288574	0.1085092425
1500.6121362304	0.1113166511
1502.5409436035	0.1172837168
1504.4697509765	0.1127573177
1506.3985583496	0.0889880955
1508.3273657226	0.1038356721
1510.2561730957	0.1171812639
1512.1849804687	0.1139118969
1514.1137878418	0.1214995682
1516.0425952148	0.1123477519
1517.9714025879	0.1165100932
1519.9002099609	0.1122759208
1521.8290173340	0.1011074483
1523.7578247070	0.1180762202
1525.6866320801	0.1160068810
1527.6154394531	0.1160643771
1529.5442468261	0.1246363223
1531.4730541992	0.1207195818
1533.4018615722	0.1129987836
1535.3306689453	0.1179229394
1537.2594763183	0.1234492362
1539.1882836914	0.0953944772
1541.1170910644	0.0990872905
1543.0458984375	0.1132335514
1544.9747058105	0.1095784903
1546.9035131836	0.1242774278
1548.8323205566	0.1175089180
1550.7611279297	0.1204473451
1552.6899353027	0.1191571206
1554.6187426758	0.1104149222
1556.5475500488	0.1161169559
1558.4763574218	0.0888953656
1560.4051647949	0.0935888737
1562.3339721679	0.1221232861
1564.2627795410	0.1164381206
1566.1915869140	0.1186899245
1568.1203942871	0.1172173992
1570.0492016601	0.1064685434
1571.9780090332	0.1182250679
1573.9068164062	0.1183546782
1575.8356237793	0.0983685628
1577.7644311523	0.1073514819
1579.6932385254	0.1180158928
1581.6220458984	0.1132903695
1583.5508532715	0.1144816205
1585.4796606445	0.1124204695
1587.4084680175	0.1122681946
1589.3372753906	0.1106362492
1591.2660827636	0.1097991318
1593.1948901367	0.1093554795
1595.1236975097	0.1072591543
1597.0525048828	0.1074150279
1598.9813122558	0.1058420539
1600.9101196289	0.1052519381
1602.8389270019	0.1028282270
1604.7677343750	0.1031314060
1606.6965417480	0.1010519639
1608.6253491211	0.1000311971
1610.5541564941	0.0987729430
1612.4829638672	0.0980027467
1614.4117712402	0.0982361734
1616.3405786132	0.0829513520
1618.2693859863	0.0877820328
1620.1981933593	0.0979483277
1622.1270007324	0.0883059353
1624.0558081054	0.0887257606
1625.9846154785	0.0910954475
1627.9134228515	0.0906725749
1629.8422302246	0.0899431705
1631.7710375976	0.0943206549
1633.6998449707	0.0887895003
1635.6286523437	0.0769949779
1637.5574597168	0.0869093239
1639.4862670898	0.0935546607
1641.4150744629	0.0923153535
1643.3438818359	0.0947665274
1645.2726892090	0.0880625099
1647.2014965820	0.0808603317
1649.1303039550	0.0964803845
1651.0591113281	0.0925535932
1652.9879187011	0.0669099391
1654.9167260742	0.0856191739
1656.8455334472	0.1028825492
1658.7743408203	0.1001440138
1660.7031481933	0.1037953496
1662.6319555664	0.0973675400
1664.5607629394	0.1024251431
1666.4895703125	0.1091877222
1668.4183776855	0.0995991006
1670.3471850586	0.0987322778
1672.2759924316	0.1095721275
1674.2047998047	0.1039664894
1676.1336071777	0.1018604934
1678.0624145507	0.1143638566
1679.9912219238	0.1121529192
1681.9200292968	0.1126763076
1683.8488366699	0.0966877043
1685.7776440429	0.0965844914
1687.7064514160	0.1248958409
1689.6352587890	0.1126308590
1691.5640661621	0.1220834255
1693.4928735351	0.1250064224
1695.4216809082	0.0984693319
1697.3504882812	0.1167563051
1699.2792956543	0.1071626917
1701.2081030273	0.0995637700
1703.1369104004	0.1268554181
1705.0657177734	0.1193651929
1706.9945251464	0.1207415164
1708.9233325195	0.1292869747
1710.8521398925	0.1259575486
1712.7809472656	0.1285711527
1714.7097546386	0.1218639538
1716.6385620117	0.1121338308
1718.5673693847	0.1110558659
1720.4961767578	0.1276134253
1722.4249841308	0.1313655376
1724.3537915039	0.1245948374
1726.2825988769	0.1332212090
1728.2114062500	0.1251026988
1730.1402136230	0.1268848032
1732.0690209961	0.1238384321
1733.9978283691	0.1010841206
1735.9266357421	0.1196528077
1737.8554431152	0.1295541227
1739.7842504882	0.1188773289
1741.7130578613	0.1274763346
1743.6418652343	0.1295093894
1745.5706726074	0.1299307197
1747.4994799804	0.1312659383
1749.4282873535	0.1271786988
1751.3570947265	0.1231193691
1753.2859020996	0.1334358454
1755.2147094726	0.1385897398
1757.1435168457	0.1294479370
1759.0723242187	0.1392206252
1761.0011315918	0.1330567598
1762.9299389648	0.1297754645
1764.8587463379	0.1439450681
1766.7875537109	0.1326948106
1768.7163610839	0.1338565946
1770.6451684570	0.1334364563
1772.5739758300	0.1230501607
1774.5027832031	0.1339352429
1776.4315905761	0.1398617625
1778.3603979492	0.1381939054
1780.2892053222	0.1371427774
1782.2180126953	0.1380469501
1784.1468200683	0.1377196908
1786.0756274414	0.1359595656
1788.0044348144	0.1412763298
1789.9332421875	0.1385441869
1791.8620495605	0.1286462396
1793.7908569336	0.1327338070
1795.7196643066	0.1403646022
1797.6484716796	0.1387635767
1799.5772790527	0.1372127533
1801.5060864257	0.1356201619
1803.4348937988	0.1387760341
1805.3637011718	0.1411318034
1807.2925085449	0.1395073533
1809.2213159179	0.1401587874
1811.1501232910	0.1374699473
1813.0789306640	0.1405274868
1815.0077380371	0.1408448964
1816.9365454101	0.1395471692
1818.8653527832	0.1407164931
1820.7941601562	0.1402743459
1822.7229675293	0.1416938007
1824.6517749023	0.1346236765
1826.5805822753	0.1384591013
1828.5093896484	0.1385643482
1830.4381970214	0.1319788098
1832.3670043945	0.1406522691
1834.2958117675	0.1399131715
1836.2246191406	0.1398046911
1838.1534265136	0.1393651366
1840.0822338867	0.1399965882
1842.0110412597	0.1398020387
1843.9398486328	0.1279935837
1845.8686560058	0.1343206465
1847.7974633789	0.1396935880
1849.7262707519	0.1375002563
1851.6550781250	0.1401993334
1853.5838854980	0.1381279975
1855.5126928710	0.1391206533
1857.4415002441	0.1381412745
1859.3703076171	0.1375186741
1861.2991149902	0.1381466091
1863.2279223632	0.1370690763
1865.1567297363	0.1381569505
1867.0855371093	0.1345050931
1869.0143444824	0.1303897053
1870.9431518554	0.1339354515
1872.8719592285	0.1376478076
1874.8007666015	0.1361303031
1876.7295739746	0.1362573504
1878.6583813476	0.1359106153
1880.5871887207	0.1352811158
1882.5159960937	0.1359720379
1884.4448034667	0.1345272362
1886.3736108398	0.1355788708
1888.3024182128	0.1333212852
1890.2312255859	0.1314214319
1892.1600329589	0.1349051148
1894.0888403320	0.1335757673
1896.0176477050	0.1327925622
1897.9464550781	0.1338548660
1899.8752624511	0.1334574521
1901.8040698242	0.1336402446
1903.7328771972	0.1327816695
1905.6616845703	0.1331457794
1907.5904919433	0.1321373284
1909.5192993164	0.1312880516
1911.4481066894	0.1317993104
1913.3769140625	0.1317431182
1915.3057214355	0.1325741708
1917.2345288085	0.1280854046
1919.1633361816	0.1281854212
1921.0921435546	0.1316357851
1923.0209509277	0.1284422278
1924.9497583007	0.1305195987
1926.8785656738	0.1312127262
1928.8073730468	0.1301294267
1930.7361804199	0.1310052574
1932.6649877929	0.1293701231
1934.5937951660	0.1304659992
1936.5226025390	0.1295222342
1938.4514099121	0.1297884136
1940.3802172851	0.1296924055
1942.3090246582	0.1265279204
1944.2378320312	0.1281571090
1946.1666394042	0.1290408820
1948.0954467773	0.1288635135
1950.0242541503	0.1290355921
1951.9530615234	0.1285655200
1953.8818688964	0.1285532713
1955.8106762695	0.1281340122
1957.7394836425	0.1282854825
1959.6682910156	0.1279572695
1961.5970983886	0.1277840137
1963.5259057617	0.1279418468
1965.4547131347	0.1270690858
1967.3835205078	0.1261883676
1969.3123278808	0.1269483864
1971.2411352539	0.1272014230
1973.1699426269	0.1265307218
1975.0987499999	0.1268288195
1977.0275573730	0.1262097955
1978.9563647460	0.1261295378
1980.8851721191	0.1259753108
1982.8139794921	0.1256144494
1984.7427868652	0.1258738339
1986.6715942382	0.1247000992
1988.6004016113	0.1247608960
1990.5292089843	0.1240398511
1992.4580163574	0.1226342320
1994.3868237304	0.1238636076
1996.3156311035	0.1239225566
1998.2444384765	0.1232519746
2000.1732458496	0.1232067943
2002.1020532226	0.1228482127
2004.0308605956	0.1228403896
2005.9596679687	0.1223247349
2007.8884753417	0.1218350604
2009.8172827148	0.1216162369
2011.7460900878	0.1211595982
2013.6748974609	0.1211879998
2015.6037048339	0.1204205379
2017.5325122070	0.1194407344
2019.4613195800	0.1198663116
2021.3901269531	0.1197003275
2023.3189343261	0.1191429794
2025.2477416992	0.1191890389
2027.1765490722	0.1186122820
2029.1053564453	0.1182875037
2031.0341638183	0.1182363331
2032.9629711914	0.1177544519
2034.8917785644	0.1173767596
2036.8205859374	0.1170357764
2038.7493933105	0.1168976277
2040.6782006835	0.1162643880
2042.6070080566	0.1159127578
2044.5358154296	0.1158729196
2046.4646228027	0.1152135432
2048.3934301757	0.1153035313
2050.3222375488	0.1150769293
2052.2510449218	0.1146295890
2054.1798522949	0.1143998653
2056.1086596679	0.1139477342
2058.0374670410	0.1138380766
2059.9662744140	0.1133829355
2061.8950817871	0.1132139862
2063.8238891601	0.1127292067
2065.7526965331	0.1123143435
2067.6815039062	0.1125055328
2069.6103112792	0.1121506244
2071.5391186523	0.1119390950
2073.4679260253	0.1115478873
2075.3967333984	0.1112992167
2077.3255407714	0.1111606732
2079.2543481445	0.1107693166
2081.1831555175	0.1105129272
2083.1119628906	0.1103783101
2085.0407702636	0.1102603376
2086.9695776367	0.1096834987
2088.8983850097	0.1094297618
2090.8271923828	0.1092796922
2092.7559997558	0.1091462150
2094.6848071288	0.1090935618
2096.6136145019	0.1087596193
2098.5424218749	0.1086276025
2100.4712292480	0.1083794013
2102.4000366210	0.1081776842
2104.3288439941	0.1078764051
2106.2576513671	0.1076470613
2108.1864587402	0.1075733006
2110.1152661132	0.1073126793
2112.0440734863	0.1071143597
2113.9728808593	0.1068398058
2115.9016882324	0.1067825109
2117.8304956054	0.1067342386
2119.7593029785	0.1064786389
2121.6881103515	0.1062104106
2123.6169177245	0.1060477644
2125.5457250976	0.1059507281
2127.4745324706	0.1057851613
2129.4033398437	0.1055407599
2131.3321472167	0.1053298190
2133.2609545898	0.1053362638
2135.1897619628	0.1051390916
2137.1185693359	0.1049787849
2139.0473767089	0.1048592031
2140.9761840820	0.1047450304
2142.9049914550	0.1046911627
2144.8337988281	0.1044655591
2146.7626062011	0.1044347882
2148.6914135742	0.1042688638
2150.6202209472	0.1040998325
2152.5490283203	0.1039364785
2154.4778356933	0.1037526056
2156.4066430663	0.1038368195
2158.3354504394	0.1036713868
2160.2642578124	0.1033712178
2162.1930651855	0.1033382416
2164.1218725585	0.1033809036
2166.0506799316	0.1033362746
2167.9794873046	0.1031940579
2169.9082946777	0.1028721631
2171.8371020507	0.1029698402
2173.7659094238	0.1029347926
2175.6947167968	0.1025835723
2177.6235241699	0.1026135832
2179.5523315429	0.1024607569
2181.4811389160	0.1024701446
2183.4099462890	0.1023700386
2185.3387536620	0.1022634953
2187.2675610351	0.1021491587
2189.1963684081	0.1018593386
2191.1251757812	0.1020070240
2193.0539831542	0.1018526405
2194.9827905273	0.1017717496
2196.9115979003	0.1016465500
2198.8404052734	0.1014566943
2200.7692126464	0.1014683694
2202.6980200195	0.1013156027
2204.6268273925	0.1012475640
2206.5556347656	0.1011066884
2208.4844421386	0.1011594534
2210.4132495117	0.1010145694
2212.3420568847	0.1009727120
2214.2708642577	0.1009393781
2216.1996716308	0.1005760208
2218.1284790038	0.1004716232
2220.0572863769	0.1004170254
2221.9860937499	0.1005678326
2223.9149011230	0.1003632322
2225.8437084960	0.1001482457
2227.7725158691	0.1000514776
2229.7013232421	0.0998613387
2231.6301306152	0.0998522192
2233.5589379882	0.0996363983
2235.4877453613	0.0996028632
2237.4165527343	0.0993391201
2239.3453601074	0.0992481709
2241.2741674804	0.0993402451
2243.2029748534	0.0991518795
2245.1317822265	0.0990653634
2247.0605895995	0.0987753794
2248.9893969726	0.0986988768
2250.9182043456	0.0986060202
2252.8470117187	0.0984024107
2254.7758190917	0.0983273387
2256.7046264648	0.0982748121
2258.6334338378	0.0981951505
2260.5622412109	0.0980236679
2262.4910485839	0.0979741067
2264.4198559570	0.0977586433
2266.3486633300	0.0975445807
2268.2774707031	0.0975258201
2270.2062780761	0.0975511819
2272.1350854491	0.0974609554
2274.0638928222	0.0973708406
2275.9927001952	0.0972627997
2277.9215075683	0.0970872268
2279.8503149413	0.0970614925
2281.7791223144	0.0969781280
2283.7079296874	0.0969265848
2285.6367370605	0.0966435969
2287.5655444335	0.0964429528
2289.4943518066	0.0962941945
2291.4231591796	0.0960263014
2293.3519665527	0.0959050804
2295.2807739257	0.0955004096
2297.2095812988	0.0954401642
2299.1383886718	0.0952385217
2301.0671960449	0.0947852433
2302.9960034179	0.0945293903
2304.9248107909	0.0940036774
2306.8536181640	0.0935538858
2308.7824255370	0.0929842666
2310.7112329101	0.0923902541
2312.6400402831	0.0916412622
2314.5688476562	0.0908273011
2316.4976550292	0.0900020152
2318.4264624023	0.0888888538
2320.3552697753	0.0880175009
2322.2840771484	0.0870118588
2324.2128845214	0.0860657096
2326.1416918945	0.0853904784
2328.0704992675	0.0845806003
2329.9993066406	0.0837190002
2331.9281140136	0.0830565691
2333.8569213866	0.0828240886
2335.7857287597	0.0826255530
2337.7145361327	0.0825247169
2339.6433435058	0.0826049149
2341.5721508788	0.0829088613
2343.5009582519	0.0837185979
2345.4297656249	0.0850713477
2347.3585729980	0.0879305750
2349.2873803710	0.0899776667
2351.2161877441	0.0875504166
2353.1449951171	0.0839074850
2355.0738024902	0.0816062242
2357.0026098632	0.0794815719
2358.9314172363	0.0781722665
2360.8602246093	0.0773508102
2362.7890319823	0.0770828351
2364.7178393554	0.0775796771
2366.6466467284	0.0783157274
2368.5754541015	0.0794536471
2370.5042614745	0.0809938163
2372.4330688476	0.0829956159
2374.3618762206	0.0848339796
2376.2906835937	0.0865723640
2378.2194909667	0.0881504565
2380.1482983398	0.0893145502
2382.0771057128	0.0901340246
2384.0059130859	0.0904556662
2385.9347204589	0.0907346159
2387.8635278320	0.0908241570
2389.7923352050	0.0909218937
2391.7211425780	0.0907436013
2393.6499499511	0.0904372931
2395.5787573241	0.0905047059
2397.5075646972	0.0902865976
2399.4363720702	0.0901659131
2401.3651794433	0.0901584849
2403.2939868163	0.0900582820
2405.2227941894	0.0897996426
2407.1516015624	0.0895957202
2409.0804089355	0.0896831304
2411.0092163085	0.0896209925
2412.9380236816	0.0894518793
2414.8668310546	0.0891627520
2416.7956384277	0.0889907628
2418.7244458007	0.0890038386
2420.6532531738	0.0890619829
2422.5820605468	0.0889113545
2424.5108679198	0.0886776596
2426.4396752929	0.0885585845
2428.3684826659	0.0883090645
2430.2972900390	0.0883104503
2432.2260974120	0.0882644802
2434.1549047851	0.0881173760
2436.0837121581	0.0880130231
2438.0125195312	0.0878501832
2439.9413269042	0.0877639502
2441.8701342773	0.0876552016
2443.7989416503	0.0875612497
2445.7277490234	0.0873821229
2447.6565563964	0.0873828232
2449.5853637695	0.0872926861
2451.5141711425	0.0870527625
2453.4429785155	0.0869186968
2455.3717858886	0.0868008584
2457.3005932616	0.0868048668
2459.2294006347	0.0865057558
2461.1582080077	0.0862924531
2463.0870153808	0.0863769203
2465.0158227538	0.0862639099
2466.9446301269	0.0861221105
2468.8734374999	0.0861014873
2470.8022448730	0.0858626068
2472.7310522460	0.0856411606
2474.6598596191	0.0856623277
2476.5886669921	0.0855031535
2478.5174743652	0.0854919702
2480.4462817382	0.0853334665
2482.3750891112	0.0851243883
2484.3038964843	0.0851387456
2486.2327038573	0.0850005448
2488.1615112304	0.0849387944
2490.0903186034	0.0847903192
2492.0191259765	0.0846539512
2493.9479333495	0.0844238400
2495.8767407226	0.0843489915
2497.8055480956	0.0843129158
2499.7343554687	0.0840810984
2501.6631628417	0.0840333998
2503.5919702148	0.0838272572
2505.5207775878	0.0838688761
2507.4495849609	0.0837999433
2509.3783923339	0.0836202875
2511.3071997069	0.0835871398
2513.2360070800	0.0833797529
2515.1648144530	0.0832847506
2517.0936218261	0.0830613375
2519.0224291991	0.0830027461
2520.9512365722	0.0828171819
2522.8800439452	0.0826852471
2524.8088513183	0.0827729926
2526.7376586913	0.0825318545
2528.6664660644	0.0823589563
2530.5952734374	0.0822788849
2532.5240808105	0.0823129714
2534.4528881835	0.0820949450
2536.3816955566	0.0820101798
2538.3105029296	0.0819499865
2540.2393103027	0.0816338658
2542.1681176757	0.0817356333
2544.0969250487	0.0815167278
2546.0257324218	0.0813227743
2547.9545397948	0.0813214555
2549.8833471679	0.0810168684
2551.8121545409	0.0808953643
2553.7409619140	0.0809241235
2555.6697692870	0.0807470679
2557.5985766601	0.0805694982
2559.5273840331	0.0806562603
2561.4561914062	0.0803819969
2563.3849987792	0.0801936239
2565.3138061523	0.0802355558
2567.2426135253	0.0800316930
2569.1714208984	0.0799380615
2571.1002282714	0.0797411725
2573.0290356444	0.0796643347
2574.9578430175	0.0795935094
2576.8866503905	0.0793865770
2578.8154577636	0.0793110952
2580.7442651366	0.0791203976
2582.6730725097	0.0789671689
2584.6018798827	0.0789801329
2586.5306872558	0.0788847804
2588.4594946288	0.0786146522
2590.3883020019	0.0785850286
2592.3171093749	0.0785242170
2594.2459167480	0.0782761425
2596.1747241210	0.0781871527
2598.1035314941	0.0781150758
2600.0323388671	0.0780934840
2601.9611462401	0.0779082626
2603.8899536132	0.0776902139
2605.8187609862	0.0776256174
2607.7475683593	0.0774735659
2609.6763757323	0.0772700459
2611.6051831054	0.0771324188
2613.5339904784	0.0771298259
2615.4627978515	0.0769336075
2617.3916052245	0.0768267810
2619.3204125976	0.0768620521
2621.2492199706	0.0765844434
2623.1780273437	0.0763991475
2625.1068347167	0.0763214305
2627.0356420898	0.0762125999
2628.9644494628	0.0760591775
2630.8932568358	0.0759032965
2632.8220642089	0.0758402944
2634.7508715819	0.0756637603
2636.6796789550	0.0755220279
2638.6084863280	0.0754292160
2640.5372937011	0.0753553584
2642.4661010741	0.0752681792
2644.3949084472	0.0750707611
2646.3237158202	0.0748432726
2648.2525231933	0.0746862888
2650.1813305663	0.0746216625
2652.1101379394	0.0744040906
2654.0389453124	0.0744032860
2655.9677526855	0.0743732154
2657.8965600585	0.0739911497
2659.8253674315	0.0739388689
2661.7541748046	0.0738289058
2663.6829821776	0.0736417174
2665.6117895507	0.0736371875
2667.5405969237	0.0734456703
2669.4694042968	0.0732551068
2671.3982116698	0.0731857568
2673.3270190429	0.0730977729
2675.2558264159	0.0728944242
2677.1846337890	0.0727589577
2679.1134411620	0.0726998746
2681.0422485351	0.0726007670
2682.9710559081	0.0724163204
2684.8998632812	0.0721545219
2686.8286706542	0.0720656961
2688.7574780273	0.0719620362
2690.6862854003	0.0717915446
2692.6150927733	0.0716997087
2694.5439001464	0.0715286583
2696.4727075194	0.0713397712
2698.4015148925	0.0712854564
2700.3303222655	0.0711602867
2702.2591296386	0.0709419399
2704.1879370116	0.0708049014
2706.1167443847	0.0706569403
2708.0455517577	0.0705856383
2709.9743591308	0.0704402924
2711.9031665038	0.0702132210
2713.8319738769	0.0701069087
2715.7607812499	0.0699847192
2717.6895886230	0.0698716938
2719.6183959960	0.0697373450
2721.5472033690	0.0695715994
2723.4760107421	0.0694952309
2725.4048181151	0.0694044232
2727.3336254882	0.0690707266
2729.2624328612	0.0689111128
2731.1912402343	0.0688649863
2733.1200476073	0.0686587170
2735.0488549804	0.0685982928
2736.9776623534	0.0682789907
2738.9064697265	0.0681469291
2740.8352770995	0.0681131780
2742.7640844726	0.0677981898
2744.6928918456	0.0678570867
2746.6216992187	0.0676803812
2748.5505065917	0.0674534068
2750.4793139647	0.0673816726
2752.4081213378	0.0670885593
2754.3369287108	0.0670756847
2756.2657360839	0.0669492111
2758.1945434569	0.0666119158
2760.1233508300	0.0665279329
2762.0521582030	0.0664012283
2763.9809655761	0.0662388653
2765.9097729491	0.0660959184
2767.8385803222	0.0658219159
2769.7673876952	0.0657066703
2771.6961950683	0.0655049309
2773.6250024413	0.0652531236
2775.5538098144	0.0652366355
2777.4826171874	0.0650139302
2779.4114245604	0.0647763908
2781.3402319335	0.0646955073
2783.2690393065	0.0645646751
2785.1978466796	0.0643658116
2787.1266540526	0.0642211810
2789.0554614257	0.0640639961
2790.9842687987	0.0638716817
2792.9130761718	0.0637284219
2794.8418835448	0.0634893849
2796.7706909179	0.0633818507
2798.6994982909	0.0631896406
2800.6283056640	0.0629559830
2802.5571130370	0.0627877116
2804.4859204101	0.0625806078
2806.4147277831	0.0624596700
2808.3435351562	0.0622028559
2810.2723425292	0.0620931461
2812.2011499022	0.0617632866
2814.1299572753	0.0614962727
2816.0587646483	0.0615141056
2817.9875720214	0.0612553768
2819.9163793944	0.0612277612
2821.8451867675	0.0609251857
2823.7739941405	0.0606123134
2825.7028015136	0.0605699755
2827.6316088866	0.0602107942
2829.5604162597	0.0600601956
2831.4892236327	0.0599600524
2833.4180310058	0.0597295910
2835.3468383788	0.0594990514
2837.2756457519	0.0592485741
2839.2044531249	0.0590114668
2841.1332604979	0.0587499402
2843.0620678710	0.0584785789
2844.9908752440	0.0579952300
2846.9196826171	0.0574664176
2848.8484899901	0.0571184084
2850.7772973632	0.0567398220
2852.7061047362	0.0565440804
2854.6349121093	0.0565685853
2856.5637194823	0.0564504676
2858.4925268554	0.0563576818
2860.4213342284	0.0561921299
2862.3501416015	0.0560845882
2864.2789489745	0.0559902564
2866.2077563476	0.0557411686
2868.1365637206	0.0556866378
2870.0653710936	0.0554382131
2871.9941784667	0.0551865175
2873.9229858397	0.0550428033
2875.8517932128	0.0549016520
2877.7806005858	0.0547690019
2879.7094079589	0.0544420779
2881.6382153319	0.0542765260
2883.5670227050	0.0541657433
2885.4958300780	0.0540632680
2887.4246374511	0.0537664779
2889.3534448241	0.0535444766
2891.2822521972	0.0533374958
2893.2110595702	0.0529368892
2895.1398669433	0.0528791547
2897.0686743163	0.0525328256
2898.9974816893	0.0523083359
2900.9262890624	0.0521691814
2902.8550964354	0.0517176986
2904.7839038085	0.0514603406
2906.7127111815	0.0512079261
2908.6415185546	0.0510728881
2910.5703259276	0.0506049469
2912.4991333007	0.0500579476
2914.4279406737	0.0497712716
2916.3567480468	0.0494050011
2918.2855554198	0.0490831546
2920.2143627929	0.0488100052
2922.1431701659	0.0486681014
2924.0719775390	0.0484819524
2926.0007849120	0.0483254716
2927.9295922851	0.0482146852
2929.8583996581	0.0480854101
2931.7872070311	0.0479482040
2933.7160144042	0.0478758179
2935.6448217772	0.0477220416
2937.5736291503	0.0474883616
2939.5024365233	0.0475124866
2941.4312438964	0.0473328866
2943.3600512694	0.0472021401
2945.2888586425	0.0470802300
2947.2176660155	0.0468538478
2949.1464733886	0.0467004701
2951.0752807616	0.0463363864
2953.0040881347	0.0460802987
2954.9328955077	0.0458282456
2956.8617028808	0.0456210822
2958.7905102538	0.0453266688
2960.7193176268	0.0451038033
2962.6481249999	0.0449224003
2964.5769323729	0.0445920601
2966.5057397460	0.0444709696
2968.4345471190	0.0442283824
2970.3633544921	0.0442755446
2972.2921618651	0.0441224240
2974.2209692382	0.0438503549
2976.1497766112	0.0439864658
2978.0785839843	0.0437341109
2980.0073913573	0.0435144231
2981.9361987304	0.0433106832
2983.8650061034	0.0430579521
2985.7938134765	0.0429041423
2987.7226208495	0.0427420810
2989.6514282225	0.0425369851
2991.5802355956	0.0422821343
2993.5090429686	0.0421045795
2995.4378503417	0.0418149233
2997.3666577147	0.0416129082
2999.2954650878	0.0413857177
3001.2242724608	0.0411941968
3003.1530798339	0.0409111306
3005.0818872069	0.0405960716
3007.0106945800	0.0404497795
3008.9395019530	0.0400842354
3010.8683093261	0.0398642495
3012.7971166991	0.0395926982
3014.7259240722	0.0392557308
3016.6547314452	0.0390755832
3018.5835388182	0.0388846211
3020.5123461913	0.0385567620
3022.4411535643	0.0382476002
3024.3699609374	0.0381039307
3026.2987683104	0.0377585404
3028.2275756835	0.0376066417
3030.1563830565	0.0372532047
3032.0851904296	0.0368794948
3034.0139978026	0.0368239880
3035.9428051757	0.0364130847
3037.8716125487	0.0361677669
3039.8004199218	0.0359697379
3041.7292272948	0.0356602222
3043.6580346679	0.0353966877
3045.5868420409	0.0352324992
3047.5156494139	0.0349544883
3049.4444567870	0.0345066488
3051.3732641600	0.0344067365
3053.3020715331	0.0341618732
3055.2308789061	0.0337968990
3057.1596862792	0.0335417315
3059.0884936522	0.0333901532
3061.0173010253	0.0332442485
3062.9461083983	0.0329317898
3064.8749157714	0.0326879211
3066.8037231444	0.0324181691
3068.7325305175	0.0321863852
3070.6613378905	0.0319052711
3072.5901452636	0.0317277610
3074.5189526366	0.0315483734
3076.4477600097	0.0311824977
3078.3765673827	0.0309206918
3080.3053747557	0.0306897461
3082.2341821288	0.0304766968
3084.1629895018	0.0301477183
3086.0917968749	0.0299462155
3088.0206042479	0.0297676437
3089.9494116210	0.0294675492
3091.8782189940	0.0292296614
3093.8070263671	0.0288991090
3095.7358337401	0.0287080314
3097.6646411132	0.0285068788
3099.5934484862	0.0282435007
3101.5222558593	0.0280185100
3103.4510632323	0.0278126765
3105.3798706054	0.0276416987
3107.3086779784	0.0273571126
3109.2374853514	0.0270776562
3111.1662927245	0.0268112961
3113.0951000975	0.0266055837
3115.0239074706	0.0263848156
3116.9527148436	0.0261583384
3118.8815222167	0.0260028932
3120.8103295897	0.0256853644
3122.7391369628	0.0254229102
3124.6679443358	0.0253248475
3126.5967517089	0.0250496455
3128.5255590819	0.0248155687
3130.4543664550	0.0246642400
3132.3831738280	0.0243352652
3134.3119812011	0.0241812654
3136.2407885741	0.0239830576
3138.1695959471	0.0237638038
3140.0984033202	0.0236694496
3142.0272106932	0.0233796984
3143.9560180663	0.0232492313
3145.8848254393	0.0230071805
3147.8136328124	0.0227246135
3149.7424401854	0.0226702355
3151.6712475585	0.0224704184
3153.6000549315	0.0223015584
3155.5288623046	0.0220645107
3157.4576696776	0.0218300130
3159.3864770507	0.0217196196
3161.3152844237	0.0215255283
3163.2440917968	0.0213687029
3165.1728991698	0.0211847983
3167.1017065428	0.0209795907
3169.0305139159	0.0208710134
3170.9593212889	0.0207417570
3172.8881286620	0.0206367336
3174.8169360350	0.0204234719
3176.7457434081	0.0201550946
3178.6745507811	0.0201313086
3180.6033581542	0.0200771801
3182.5321655272	0.0199212469
3184.4609729003	0.0196996555
3186.3897802733	0.0195887834
3188.3185876464	0.0195473824
3190.2473950194	0.0193201043
3192.1762023925	0.0192620791
3194.1050097655	0.0192210563
3196.0338171386	0.0191709325
3197.9626245116	0.0190462917
3199.8914318846	0.0188098066
3201.8202392577	0.0187525991
3203.7490466307	0.0186730213
3205.6778540038	0.0186076388
3207.6066613768	0.0184528828
3209.5354687499	0.0184105970
3211.4642761229	0.0184046887
3213.3930834960	0.0182405189
3215.3218908690	0.0182536747
3217.2506982421	0.0181935020
3219.1795056151	0.0181068704
3221.1083129882	0.0180258844
3223.0371203612	0.0179380514
3224.9659277343	0.0179565102
3226.8947351073	0.0179926120
3228.8235424803	0.0179463066
3230.7523498534	0.0178033337
3232.6811572264	0.0177579168
3234.6099645995	0.0177540742
3236.5387719725	0.0177917220
3238.4675793456	0.0177114680
3240.3963867186	0.0176510811
3242.3251940917	0.0176834837
3244.2540014647	0.0176131073
3246.1828088378	0.0176542401
3248.1116162108	0.0176104307
3250.0404235839	0.0175932646
3251.9692309569	0.0176435411
3253.8980383300	0.0175663605
3255.8268457030	0.0175373331
3257.7556530760	0.0175707489
3259.6844604491	0.0175597575
3261.6132678221	0.0175091848
3263.5420751952	0.0175605416
3265.4708825682	0.0175358951
3267.3996899413	0.0175380036
3269.3284973143	0.0175530426
3271.2573046874	0.0174480602
3273.1861120604	0.0174244568
3275.1149194335	0.0173769705
3277.0437268065	0.0174783356
3278.9725341796	0.0175599121
3280.9013415526	0.0174574628
3282.8301489257	0.0174876750
3284.7589562987	0.0175427347
3286.6877636717	0.0175365657
3288.6165710448	0.0174275637
3290.5453784178	0.0173825957
3292.4741857909	0.0174479317
3294.4029931639	0.0173551217
3296.3318005370	0.0174002144
3298.2606079100	0.0174507890
3300.1894152831	0.0173195601
3302.1182226561	0.0173917841
3304.0470300292	0.0173451602
3305.9758374022	0.0172914118
3307.9046447753	0.0174284633
3309.8334521483	0.0173998848
3311.7622595214	0.0173568130
3313.6910668944	0.0173672847
3315.6198742675	0.0173891429
3317.5486816405	0.0173501261
3319.4774890135	0.0173363145
3321.4062963866	0.0173082612
3323.3351037596	0.0173539780
3325.2639111327	0.0174487736
3327.1927185057	0.0173425339
3329.1215258788	0.0174350291
3331.0503332518	0.0173828676
3332.9791406249	0.0172912702
3334.9079479979	0.0173208080
3336.8367553710	0.0171867870
3338.7655627440	0.0172612630
3340.6943701171	0.0172514152
3342.6231774901	0.0172921568
3344.5519848632	0.0173364133
3346.4807922362	0.0172410980
3348.4095996092	0.0172480196
3350.3384069823	0.0172901936
3352.2672143553	0.0173310153
3354.1960217284	0.0172418319
3356.1248291014	0.0173890665
3358.0536364745	0.0173597932
3359.9824438475	0.0172220971
3361.9112512206	0.0173246227
3363.8400585936	0.0173004121
3365.7688659667	0.0174573474
3367.6976733397	0.0174186602
3369.6264807128	0.0173402503
3371.5552880858	0.0174211115
3373.4840954589	0.0174382720
3375.4129028319	0.0175358821
3377.3417102049	0.0174755529
3379.2705175780	0.0175905060
3381.1993249510	0.0176680014
3383.1281323241	0.0175859854
3385.0569396971	0.0176730081
3386.9857470702	0.0176856313
3388.9145544432	0.0177277364
3390.8433618163	0.0177334249
3392.7721691893	0.0177611820
3394.7009765624	0.0178350322
3396.6297839354	0.0178166665
3398.5585913085	0.0179716051
3400.4873986815	0.0180657879
3402.4162060546	0.0180296488
3404.3450134276	0.0180895403
3406.2738208006	0.0181614049
3408.2026281737	0.0182411298
3410.1314355467	0.0182483457
3412.0602429198	0.0182715058
3413.9890502928	0.0183169954
3415.9178576659	0.0183559284
3417.8466650389	0.0184398033
3419.7754724120	0.0185385663
3421.7042797850	0.0186521504
3423.6330871581	0.0186460800
3425.5618945311	0.0187612418
3427.4907019042	0.0188621320
3429.4195092772	0.0188110396
3431.3483166503	0.0188391805
3433.2771240233	0.0189817753
3435.2059313963	0.0191494226
3437.1347387694	0.0190730151
3439.0635461424	0.0192269217
3440.9923535155	0.0193073377
3442.9211608885	0.0192588139
3444.8499682616	0.0194373205
3446.7787756346	0.0192738697
3448.7075830077	0.0194422398
3450.6363903807	0.0197710767
3452.5651977538	0.0197277963
3454.4940051268	0.0197168402
3456.4228124999	0.0198138803
3458.3516198729	0.0199636593
3460.2804272460	0.0199510418
3462.2092346190	0.0200566575
3464.1380419921	0.0201742984
3466.0668493651	0.0201902762
3467.9956567381	0.0202676356
3469.9244641112	0.0203881897
3471.8532714842	0.0205216072
3473.7820788573	0.0205776840
3475.7108862303	0.0206018891
3477.6396936034	0.0206715371
3479.5685009764	0.0208333619
3481.4973083495	0.0207941774
3483.4261157225	0.0209258571
3485.3549230956	0.0210326761
3487.2837304686	0.0209876895
3489.2125378417	0.0212109163
3491.1413452147	0.0212893300
3493.0701525878	0.0214839578
3494.9989599608	0.0214897394
3496.9277673338	0.0215178896
3498.8565747069	0.0217543654
3500.7853820799	0.0216795653
3502.7141894530	0.0216567945
3504.6429968260	0.0217930935
3506.5718041991	0.0220912490
3508.5006115721	0.0219544247
3510.4294189452	0.0219581239
3512.3582263182	0.0223238617
3514.2870336913	0.0224452727
3516.2158410643	0.0226621777
3518.1446484374	0.0225412473
3520.0734558104	0.0225970317
3522.0022631835	0.0227203853
3523.9310705565	0.0225419775
3525.8598779295	0.0226900112
3527.7886853026	0.0228178483
3529.7174926756	0.0229838341
3531.6463000487	0.0232103318
3533.5751074217	0.0232961252
3535.5039147948	0.0233793519
3537.4327221678	0.0234613847
3539.3615295409	0.0236663222
3541.2903369139	0.0238101631
3543.2191442870	0.0236904547
3545.1479516600	0.0234583206
3547.0767590331	0.0234005582
3549.0055664061	0.0240387768
3550.9343737792	0.0241364464
3552.8631811522	0.0236788206
3554.7919885252	0.0242820438
3556.7207958983	0.0245412886
3558.6496032713	0.0244362652
3560.5784106444	0.0243773982
3562.5072180174	0.0244513117
3564.4360253905	0.0247007348
3566.3648327635	0.0234859176
3568.2936401366	0.0232460126
3570.2224475096	0.0247553289
3572.1512548827	0.0252194740
3574.0800622557	0.0250731036
3576.0088696288	0.0252252854
3577.9376770018	0.0253129378
3579.8664843749	0.0253974050
3581.7952917479	0.0254531875
3583.7240991210	0.0255940296
3585.6529064940	0.0253059845
3587.5817138670	0.0238981955
3589.5105212401	0.0244854204
3591.4393286131	0.0261251163
3593.3681359862	0.0256657954
3595.2969433592	0.0254138727
3597.2257507323	0.0258303694
3599.1545581053	0.0260367058
3601.0833654784	0.0259423666
3603.0121728514	0.0263060201
3604.9409802245	0.0267718546
3606.8697875975	0.0260577463
3608.7985949706	0.0249864198
3610.7274023436	0.0255609192
3612.6562097167	0.0260414928
3614.5850170897	0.0254744403
3616.5138244627	0.0269675478
3618.4426318358	0.0255341902
3620.3714392088	0.0249511115
3622.3002465819	0.0274090655
3624.2290539549	0.0268911086
3626.1578613280	0.0279181190
3628.0866687010	0.0247304291
3630.0154760741	0.0231943205
3631.9442834471	0.0276296679
3633.8730908202	0.0271319412
3635.8018981932	0.0275349226
3637.7307055663	0.0280532353
3639.6595129393	0.0278755985
3641.5883203124	0.0282443613
3643.5171276854	0.0280188322
3645.4459350584	0.0283875987
3647.3747424315	0.0262648687
3649.3035498045	0.0245843567
3651.2323571776	0.0250608269
3653.1611645506	0.0286189336
3655.0899719237	0.0283288211
3657.0187792967	0.0264058877
3658.9475866698	0.0293395631
3660.8763940428	0.0288685355
3662.8052014159	0.0293766931
3664.7340087889	0.0292302649
3666.6628161620	0.0292090364
3668.5916235350	0.0287234969
3670.5204309081	0.0247782432
3672.4492382811	0.0287594050
3674.3780456541	0.0278318711
3676.3068530272	0.0242988244
3678.2356604002	0.0287364461
3680.1644677733	0.0294084586
3682.0932751463	0.0294804908
3684.0220825194	0.0300458372
3685.9508898924	0.0298282113
3687.8796972655	0.0276257787
3689.8085046385	0.0260065906
3691.7373120116	0.0288384371
3693.6661193846	0.0294329561
3695.5949267577	0.0300121792
3697.5237341307	0.0300242566
3699.4525415038	0.0297161080
3701.3813488768	0.0292907376
3703.3101562499	0.0285440963
3705.2389636229	0.0306209773
3707.1677709959	0.0295212083
3709.0965783690	0.0290276073
3711.0253857420	0.0275907442
3712.9541931151	0.0263945330
3714.8830004881	0.0299023874
3716.8118078612	0.0293021239
3718.7406152342	0.0295218602
3720.6694226073	0.0291824974
3722.5982299803	0.0283678211
3724.5270373534	0.0291191414
3726.4558447264	0.0274952985
3728.3846520995	0.0293312278
3730.3134594725	0.0289561749
3732.2422668456	0.0272148512
3734.1710742186	0.0268206671
3736.0998815916	0.0257742591
3738.0286889647	0.0268095434
3739.9574963377	0.0284161679
3741.8863037108	0.0295400470
3743.8151110838	0.0241694152
3745.7439184569	0.0231865924
3747.6727258299	0.0283921864
3749.6015332030	0.0251986310
3751.5303405760	0.0237086937
3753.4591479491	0.0262883306
3755.3879553221	0.0278024115
3757.3167626952	0.0285716746
3759.2455700682	0.0270085521
3761.1743774413	0.0277943350
3763.1031848143	0.0289839730
3765.0319921873	0.0275647137
3766.9607995604	0.0279269945
3768.8896069334	0.0276503488
3770.8184143065	0.0267196707
3772.7472216795	0.0283553749
3774.6760290526	0.0283984840
3776.6048364256	0.0282879733
3778.5336437987	0.0277023241
3780.4624511717	0.0268541835
3782.3912585448	0.0280783139
3784.3200659178	0.0276586749
3786.2488732909	0.0276329741
3788.1776806639	0.0280518383
3790.1064880370	0.0278572682
3792.0352954100	0.0276123956
3793.9641027830	0.0279670898
3795.8929101561	0.0267096981
3797.8217175291	0.0264685489
3799.7505249022	0.0274826642
3801.6793322752	0.0230022818
3803.6081396483	0.0259300843
3805.5369470213	0.0276036933
3807.4657543944	0.0237647444
3809.3945617674	0.0274195783
3811.3233691405	0.0269493628
3813.2521765135	0.0276315548
3815.1809838866	0.0253860615
3817.1097912596	0.0231136456
3819.0385986327	0.0275892876
3820.9674060057	0.0236073285
3822.8962133787	0.0244760700
3824.8250207518	0.0273715500
3826.7538281248	0.0253986754
3828.6826354979	0.0266855173
3830.6114428709	0.0259274282
3832.5402502440	0.0253373682
3834.4690576170	0.0257167015
3836.3978649901	0.0246915072
3838.3266723631	0.0227794573
3840.2554797362	0.0242649429
3842.1842871092	0.0257334579
3844.1130944823	0.0248310082
3846.0419018553	0.0262784064
3847.9707092284	0.0258947276
3849.8995166014	0.0259679612
3851.8283239745	0.0240004994
3853.7571313475	0.0192001238
3855.6859387205	0.0216587596
3857.6147460936	0.0260232668
3859.5435534666	0.0253093764
3861.4723608397	0.0251806527
3863.4011682127	0.0248441659
3865.3299755858	0.0233514197
3867.2587829588	0.0253920089
3869.1875903319	0.0236474797
3871.1163977049	0.0224184357
3873.0452050780	0.0253914725
3874.9740124510	0.0237782728
3876.9028198241	0.0251885615
3878.8316271971	0.0254543014
3880.7604345702	0.0227672290
3882.6892419432	0.0252808630
3884.6180493162	0.0239499286
3886.5468566893	0.0225180145
3888.4756640623	0.0253323242
3890.4044714354	0.0241142362
3892.3332788084	0.0230252817
3894.2620861815	0.0247283541
3896.1908935545	0.0249339268
3898.1197009276	0.0240507610
3900.0485083006	0.0231467262
3901.9773156737	0.0228767749
3903.9061230467	0.0225829296
3905.8349304198	0.0229104199
3907.7637377928	0.0243920423
3909.6925451659	0.0243889876
3911.6213525389	0.0242370144
3913.5501599119	0.0244981330
3915.4789672850	0.0240654126
3917.4077746580	0.0234049670
3919.3365820311	0.0231933929
3921.2653894041	0.0239161663
3923.1941967772	0.0237526782
3925.1230041502	0.0233852044
3927.0518115233	0.0236654803
3928.9806188963	0.0237850063
3930.9094262694	0.0233666431
3932.8382336424	0.0228513256
3934.7670410155	0.0235182680
3936.6958483885	0.0236942731
3938.6246557616	0.0235771593
3940.5534631346	0.0236487519
3942.4822705076	0.0229568928
3944.4110778807	0.0230464675
3946.3398852537	0.0232840553
3948.2686926268	0.0229209196
3950.1974999998	0.0229873117
3952.1263073729	0.0231674686
3954.0551147459	0.0231388379
3955.9839221190	0.0230212212
3957.9127294920	0.0229677260
3959.8415368651	0.0229841545
3961.7703442381	0.0228432585
3963.6991516112	0.0228606276
3965.6279589842	0.0229439382
3967.5567663573	0.0228523389
3969.4855737303	0.0227667522
3971.4143811034	0.0226642415
3973.3431884764	0.0226221271
3975.2719958494	0.0224775597
3977.2008032225	0.0225514006
3979.1296105955	0.0225616917
3981.0584179686	0.0223344564
3982.9872253416	0.0224212892
3984.9160327147	0.0223192535
3986.8448400877	0.0223971009
3988.7736474608	0.0223974995
3990.7024548338	0.0220861807
3992.6312622069	0.0221691243
3994.5600695799	0.0221176296
3996.4888769530	0.0220525507
3998.4176843260	0.0220628642
4000.3464916991	0.0219413303
4002.2752990721	0.0219063647
4004.2041064451	0.0218630657
4006.1329138182	0.0218302011
4008.0617211912	0.0217640474
4009.9905285643	0.0216789525
4011.9193359373	0.0216764398
4013.8481433104	0.0216316562
4015.7769506834	0.0215491988
4017.7057580565	0.0214777477
4019.6345654295	0.0214337055
4021.5633728026	0.0214867257
4023.4921801756	0.0214142948
4025.4209875487	0.0213079415
4027.3497949217	0.0213131737
4029.2786022948	0.0212687273
4031.2074096678	0.0211815760
4033.1362170408	0.0211404171
4035.0650244139	0.0211381465
4036.9938317869	0.0210689772
4038.9226391600	0.0210581757
4040.8514465330	0.0209357943
4042.7802539061	0.0209016912
4044.7090612791	0.0208908059
4046.6378686522	0.0207467526
4048.5666760252	0.0208704099
4050.4954833983	0.0207319520
4052.4242907713	0.0206658095
4054.3530981444	0.0206769127
4056.2819055174	0.0205318332
4058.2107128905	0.0205989331
4060.1395202635	0.0204394124
4062.0683276365	0.0204295926
4063.9971350096	0.0204492975
4065.9259423826	0.0203461424
4067.8547497557	0.0203320999
4069.7835571287	0.0202569962
4071.7123645018	0.0202544555
4073.6411718748	0.0201531406
4075.5699792479	0.0201255027
4077.4987866209	0.0200662483
4079.4275939940	0.0199286751
4081.3564013670	0.0199285410
4083.2852087401	0.0199239068
4085.2140161131	0.0199094098
4087.1428234862	0.0198677368
4089.0716308592	0.0197823197
4091.0004382323	0.0197665989
4092.9292456053	0.0197839774
4094.8580529783	0.0196018852
4096.7868603514	0.0195780732
4098.7156677244	0.0196393281
4100.6444750975	0.0195243731
4102.5732824705	0.0195040647
4104.5020898436	0.0194698684
4106.4308972166	0.0193930343
4108.3597045897	0.0193413775
4110.2885119627	0.0193797871
4112.2173193358	0.0193484034
4114.1461267088	0.0192405358
4116.0749340819	0.0191961825
4118.0037414549	0.0191884749
4119.9325488280	0.0191564448
4121.8613562010	0.0190800168
4123.7901635740	0.0190691836
4125.7189709471	0.0189800207
4127.6477783201	0.0189302228
4129.5765856932	0.0188146234
4131.5053930662	0.0187862050
4133.4342004393	0.0188583452
4135.3630078123	0.0187418722
4137.2918151854	0.0187570099
4139.2206225584	0.0186686106
4141.1494299315	0.0186040513
4143.0782373045	0.0185534749
4145.0070446776	0.0184838548
4146.9358520506	0.0185231920
4148.8646594237	0.0184272099
4150.7934667967	0.0183935463
4152.7222741697	0.0183307193
4154.6510815428	0.0183475558
4156.5798889158	0.0183377340
4158.5086962889	0.0182637908
4160.4375036619	0.0182202850
4162.3663110350	0.0181770809
4164.2951184080	0.0181698538
4166.2239257811	0.0180225018
4168.1527331541	0.0180438273
4170.0815405272	0.0179803930
4172.0103479002	0.0178658776
4173.9391552733	0.0178706814
4175.8679626463	0.0178791694
4177.7967700194	0.0178677104
4179.7255773924	0.0177632384
4181.6543847654	0.0178092867
4183.5831921385	0.0176057778
4185.5119995115	0.0175572410
4187.4408068846	0.0176431462
4189.3696142576	0.0175269172
4191.2984216307	0.0176056772
4193.2272290037	0.0174787641
4195.1560363768	0.0173979662
4197.0848437498	0.0174130015
4199.0136511229	0.0173416566
4200.9424584959	0.0173424147
4202.8712658690	0.0173293650
4204.8000732420	0.0172217935
4206.7288806151	0.0171540938
4208.6576879881	0.0171792023
4210.5864953611	0.0170481876
4212.5153027342	0.0170637742
4214.4441101072	0.0170521680
4216.3729174803	0.0170006808
4218.3017248533	0.0170636103
4220.2305322264	0.0169827808
4222.1593395994	0.0169376545
4224.0881469725	0.0169132426
4226.0169543455	0.0168727636
4227.9457617186	0.0167935714
4229.8745690916	0.0167673789
4231.8033764647	0.0167019535
4233.7321838377	0.0166716799
4235.6609912108	0.0166781060
4237.5897985838	0.0166014265
4239.5186059569	0.0166156441
4241.4474133299	0.0164920576
4243.3762207029	0.0164580438
4245.3050280760	0.0164297149
4247.2338354490	0.0163584277
4249.1626428221	0.0163630415
4251.0914501951	0.0163424388
4253.0202575682	0.0163193773
4254.9490649412	0.0161629170
4256.8778723143	0.0162118226
4258.8066796873	0.0161297880
4260.7354870604	0.0160429738
4262.6642944334	0.0161149353
4264.5931018065	0.0160320178
4266.5219091795	0.0160959531
4268.4507165526	0.0159857217
4270.3795239256	0.0158826038
4272.3083312986	0.0158465225
4274.2371386717	0.0157764554
4276.1659460447	0.0158001352
4278.0947534178	0.0157212745
4280.0235607908	0.0157030933
4281.9523681639	0.0156784616
4283.8811755369	0.0156360902
4285.8099829100	0.0156310536
4287.7387902830	0.0156206191
4289.6675976561	0.0155103505
4291.5964050291	0.0154586211
4293.5252124022	0.0155272204
4295.4540197752	0.0154281538
4297.3828271483	0.0154095590
4299.3116345213	0.0154718664
4301.2404418943	0.0153590981
4303.1692492674	0.0152710490
4305.0980566404	0.0152620189
4307.0268640135	0.0151629364
4308.9556713865	0.0151754413
4310.8844787596	0.0151791470
4312.8132861326	0.0151454937
4314.7420935057	0.0151320463
4316.6709008787	0.0149787273
4318.5997082518	0.0150231365
4320.5285156248	0.0149853993
4322.4573229979	0.0149251893
4324.3861303709	0.0148797631
4326.3149377440	0.0147394249
4328.2437451170	0.0148197077
4330.1725524900	0.0147791971
4332.1013598631	0.0147588477
4334.0301672361	0.0147443330
4335.9589746092	0.0146811716
4337.8877819822	0.0145876464
4339.8165893553	0.0145714693
4341.7453967283	0.0146419927
4343.6742041014	0.0144994576
4345.6030114744	0.0145038124
4347.5318188475	0.0143750980
4349.4606262205	0.0143758003
4351.3894335936	0.0144316833
4353.3182409666	0.0142517677
4355.2470483397	0.0143132508
4357.1758557127	0.0142305782
4359.1046630858	0.0142210349
4361.0334704588	0.0142301247
4362.9622778318	0.0141362734
4364.8910852049	0.0141071621
4366.8198925779	0.0141143724
4368.7486999510	0.0141059300
4370.6775073240	0.0139782541
4372.6063146971	0.0140792299
4374.5351220701	0.0139982924
4376.4639294432	0.0139079671
4378.3927368162	0.0139120389
4380.3215441893	0.0138216503
4382.2503515623	0.0138557255
4384.1791589354	0.0137202293
4386.1079663084	0.0137448721
4388.0367736815	0.0137183275
4389.9655810545	0.0136620170
4391.8943884275	0.0137332641
4393.8231958006	0.0136250379
4395.7520031736	0.0136465598
4397.6808105467	0.0135825137
4399.6096179197	0.0135084130
4401.5384252928	0.0135250259
4403.4672326658	0.0134733338
4405.3960400389	0.0134711908
4407.3248474119	0.0134103857
4409.2536547850	0.0133024948
4411.1824621580	0.0132397898
4413.1112695311	0.0132982861
4415.0400769041	0.0133593753
4416.9688842772	0.0132839326
4418.8976916502	0.0132125393
4420.8264990232	0.0131960921
4422.7553063963	0.0131371375
4424.6841137693	0.0130512100
4426.6129211424	0.0129623814
4428.5417285154	0.0129667353
4430.4705358885	0.0129867271
4432.3993432615	0.0129111391
4434.3281506346	0.0129381940
4436.2569580076	0.0129119623
4438.1857653807	0.0128701581
4440.1145727537	0.0128966868
4442.0433801268	0.0128115229
4443.9721874998	0.0127206640
4445.9009948729	0.0126924654
4447.8298022459	0.0127323214
4449.7586096189	0.0126796886
4451.6874169920	0.0126119331
4453.6162243650	0.0126268081
4455.5450317381	0.0125529226
4457.4738391111	0.0125392098
4459.4026464842	0.0125810802
4461.3314538572	0.0124921370
4463.2602612303	0.0124167725
4465.1890686033	0.0124086393
4467.1178759764	0.0123749729
4469.0466833494	0.0123636574
4470.9754907225	0.0122843944
4472.9042980955	0.0122972000
4474.8331054686	0.0123286285
4476.7619128416	0.0121903345
4478.6907202147	0.0122470288
4480.6195275877	0.0122642741
4482.5483349607	0.0121182902
4484.4771423338	0.0120774405
4486.4059497068	0.0120756747
4488.3347570799	0.0120868273
4490.2635644529	0.0120704453
4492.1923718260	0.0120270085
4494.1211791990	0.0120007899
4496.0499865721	0.0119988956
4497.9787939451	0.0119204838
4499.9076013182	0.0118440175
4501.8364086912	0.0118626384
4503.7652160643	0.0118583329
4505.6940234373	0.0117816739
4507.6228308104	0.0117564276
4509.5516381834	0.0118319253
4511.4804455564	0.0117271338
4513.4092529295	0.0116469897
4515.3380603025	0.0116550876
4517.2668676756	0.0115310755
4519.1956750486	0.0115339849
4521.1244824217	0.0115482509
4523.0532897947	0.0115054417
4524.9820971678	0.0115250051
4526.9109045408	0.0115018394
4528.8397119139	0.0114762876
4530.7685192869	0.0114613287
4532.6973266600	0.0113721928
4534.6261340330	0.0113357138
4536.5549414061	0.0113938116
4538.4837487791	0.0113260541
4540.4125561521	0.0112339742
4542.3413635252	0.0112235602
4544.2701708982	0.0112212133
4546.1989782713	0.0111686215
4548.1277856443	0.0110914651
4550.0565930174	0.0111201005
4551.9854003904	0.0110940766
4553.9142077635	0.0110500753
4555.8430151365	0.0110518737
4557.7718225096	0.0109642539
4559.7006298826	0.0109091084
4561.6294372557	0.0109028108
4563.5582446287	0.0109256841
4565.4870520018	0.0109049994
4567.4158593748	0.0108373743
4569.3446667478	0.0108199324
4571.2734741209	0.0107691083
4573.2022814939	0.0107682589
4575.1310888670	0.0107858879
4577.0598962400	0.0107616652
4578.9887036131	0.0106868558
4580.9175109861	0.0105928462
4582.8463183592	0.0106392670
4584.7751257322	0.0106193926
4586.7039331053	0.0105726207
4588.6327404783	0.0105594266
4590.5615478514	0.0104746446
4592.4903552244	0.0104932431
4594.4191625975	0.0105024017
4596.3479699705	0.0104337428
4598.2767773435	0.0104341805
4600.2055847166	0.0104276501
4602.1343920896	0.0103060212
4604.0631994627	0.0102972183
4605.9920068357	0.0103044584
4607.9208142088	0.0102376696
4609.8496215818	0.0102763250
4611.7784289549	0.0102185514
4613.7072363279	0.0101983771
4615.6360437010	0.0101341344
4617.5648510740	0.0101086600
4619.4936584471	0.0101768374
4621.4224658201	0.0100603849
4623.3512731932	0.0100808572
4625.2800805662	0.0100406650
4627.2088879393	0.0099643683
4629.1376953123	0.0100172833
4631.0665026853	0.0099932980
4632.9953100584	0.0098473374
4634.9241174314	0.0098390738
4636.8529248045	0.0099534225
4638.7817321775	0.0097738560
4640.7105395506	0.0098347943
4642.6393469236	0.0097903199
4644.5681542967	0.0096243350
4646.4969616697	0.0097802002
4648.4257690428	0.0096973553
4650.3545764158	0.0097132539
4652.2833837889	0.0096969586
4654.2121911619	0.0096447561
4656.1409985350	0.0096541960
4658.0698059080	0.0095895641
4659.9986132810	0.0095797069
4661.9274206541	0.0094981156
4663.8562280271	0.0095560886
4665.7850354002	0.0094804559
4667.7138427732	0.0094720479
4669.6426501463	0.0095536057
4671.5714575193	0.0094460696
4673.5002648924	0.0094081052
4675.4290722654	0.0093932366
4677.3578796385	0.0093944846
4679.2866870115	0.0092709307
4681.2154943846	0.0092699844
4683.1443017576	0.0093039293
4685.0731091307	0.0092583541
4687.0019165037	0.0092765028
4688.9307238767	0.0091792047
4690.8595312498	0.0091296937
4692.7883386228	0.0091878790
4694.7171459959	0.0092031965
4696.6459533689	0.0090679880
4698.5747607420	0.0090638325
4700.5035681150	0.0090268794
4702.4323754881	0.0089872843
4704.3611828611	0.0090391655
4706.2899902342	0.0089896675
4708.2187976072	0.0090548769
4710.1476049803	0.0089607928
4712.0764123533	0.0089558065
4714.0052197264	0.0089379176
4715.9340270994	0.0088883638
4717.8628344724	0.0088862404
4719.7916418455	0.0087647913
4721.7204492185	0.0088533685
4723.6492565916	0.0087174345
4725.5780639646	0.0087446924
4727.5068713377	0.0088043083
4729.4356787107	0.0087048011
4731.3644860838	0.0087696798
4733.2932934568	0.0087013738
4735.2221008299	0.0087254625
4737.1509082029	0.0086210314
4739.0797155760	0.0086315777
4741.0085229490	0.0085737854
4742.9373303221	0.0085092243
4744.8661376951	0.0086223949
4746.7949450682	0.0084434059
4748.7237524412	0.0084417993
4750.6525598142	0.0084142145
4752.5813671873	0.0084644835
4754.5101745603	0.0084923450
4756.4389819334	0.0084328875
4758.3677893064	0.0084861126
4760.2965966795	0.0083350986
4762.2254040525	0.0083291326
4764.1542114256	0.0082960203
4766.0830187986	0.0083144829
4768.0118261717	0.0083500948
4769.9406335447	0.0082761925
4771.8694409178	0.0082158484
4773.7982482908	0.0081544444
4775.7270556639	0.0082404036
4777.6558630369	0.0081887348
4779.5846704099	0.0081671048
4781.5134777830	0.0080865407
4783.4422851560	0.0080102924
4785.3710925291	0.0080753081
4787.2998999021	0.0080411192
4789.2287072752	0.0080472147
4791.1575146482	0.0080244560
4793.0863220213	0.0080143213
4795.0151293943	0.0079534091
4796.9439367674	0.0079494128
4798.8727441404	0.0079323743
4800.8015515135	0.0078597721
4802.7303588865	0.0078488952
4804.6591662596	0.0078071365
4806.5879736326	0.0078741945
4808.5167810056	0.0077965418
4810.4455883787	0.0077330144
4812.3743957517	0.0077737272
4814.3032031248	0.0077489158
4816.2320104978	0.0077080252
4818.1608178709	0.0076620225
4820.0896252439	0.0077640298
4822.0184326170	0.0077509508
4823.9472399900	0.0076541849
4825.8760473631	0.0076657631
4827.8048547361	0.0076525491
4829.7336621092	0.0075857108
4831.6624694822	0.0076029664
4833.5912768553	0.0075946525
4835.5200842283	0.0075001726
4837.4488916013	0.0075430470
4839.3776989744	0.0075198812
4841.3065063474	0.0074126632
4843.2353137205	0.0073758271
4845.1641210935	0.0073817628
4847.0929284666	0.0073121963
4849.0217358396	0.0073438799
4850.9505432127	0.0074055493
4852.8793505857	0.0072427159
4854.8081579588	0.0072771232
4856.7369653318	0.0073526418
4858.6657727049	0.0073252995
4860.5945800779	0.0072843488
4862.5233874510	0.0072426088
4864.4521948240	0.0072243554
4866.3810021971	0.0071664965
4868.3098095701	0.0071575232
4870.2386169431	0.0070971935
4872.1674243162	0.0072002281
4874.0962316892	0.0072266599
4876.0250390623	0.0071810852
4877.9538464353	0.0071474351
4879.8826538084	0.0070029432
4881.8114611814	0.0070988373
4883.7402685545	0.0070716068
4885.6690759275	0.0070743635
4887.5978833006	0.0070374170
4889.5266906736	0.0069657229
4891.4554980467	0.0070696245
4893.3843054197	0.0068826005
4895.3131127928	0.0068774335
4897.2419201658	0.0069660419
4899.1707275388	0.0069089215
4901.0995349119	0.0068858722
4903.0283422849	0.0068216072
4904.9571496580	0.0068203844
4906.8859570310	0.0068616467
4908.8147644041	0.0068044029
4910.7435717771	0.0066739502
4912.6723791502	0.0067706453
4914.6011865232	0.0067064175
4916.5299938963	0.0066059129
4918.4588012693	0.0067403475
4920.3876086424	0.0066717207
4922.3164160154	0.0066476273
4924.2452233885	0.0066501563
4926.1740307615	0.0066020596
4928.1028381345	0.0066199852
4930.0316455076	0.0066508753
4931.9604528806	0.0066035120
4933.8892602537	0.0064953803
4935.8180676267	0.0065210154
4937.7468749998	0.0065276474
4939.6756823728	0.0064934921
4941.6044897459	0.0064746141
4943.5332971189	0.0064812480
4945.4621044920	0.0064891484
4947.3909118650	0.0064778738
4949.3197192381	0.0064792344
4951.2485266111	0.0063867355
4953.1773339842	0.0063296584
4955.1061413572	0.0063806488
4957.0349487302	0.0063899253
4958.9637561033	0.0063661141
4960.8925634763	0.0063784858
4962.8213708494	0.0062820166
4964.7501782224	0.0062466143
4966.6789855955	0.0063288817
4968.6077929685	0.0062469034
4970.5366003416	0.0062304493
4972.4654077146	0.0062377136
4974.3942150877	0.0061860071
4976.3230224607	0.0062076137
4978.2518298338	0.0061654262
4980.1806372068	0.0060933186
4982.1094445799	0.0060632527
4984.0382519529	0.0060865497
4985.9670593259	0.0061407578
4987.8958666990	0.0061033722
4989.8246740720	0.0059908452
4991.7534814451	0.0060190652
4993.6822888181	0.0060215816
4995.6110961912	0.0059146471
4997.5399035642	0.0059972461
4999.4687109373	0.0060167448
5001.3975183103	0.0059102797
5003.3263256834	0.0059750918
5005.2551330564	0.0059549534
5007.1839404295	0.0058279261
5009.1127478025	0.0059051244
5011.0415551756	0.0059204204
5012.9703625486	0.0058278088
5014.8991699217	0.0058568609
5016.8279772947	0.0058364244
5018.7567846677	0.0058000395
5020.6855920408	0.0058068838
5022.6143994138	0.0057696453
5024.5432067869	0.0057192957
5026.4720141599	0.0057396367
5028.4008215330	0.0057321000
5030.3296289060	0.0056556398
5032.2584362791	0.0056660529
5034.1872436521	0.0056680301
5036.1160510252	0.0056548533
5038.0448583982	0.0056051146
5039.9736657713	0.0056056399
5041.9024731443	0.0056517683
5043.8312805174	0.0055212276
5045.7600878904	0.0055181859
5047.6888952634	0.0055711763
5049.6177026365	0.0054820902
5051.5465100095	0.0054273754
5053.4753173826	0.0054297401
5055.4041247556	0.0054997336
5057.3329321287	0.0054716603
5059.2617395017	0.0054559661
5061.1905468748	0.0054821214
5063.1193542478	0.0053810757
5065.0481616209	0.0054457374
5066.9769689939	0.0054520443
5068.9057763670	0.0053195134
5070.8345837400	0.0054181716
5072.7633911131	0.0053975591
5074.6921984861	0.0052763680
5076.6210058591	0.0053100563
5078.5498132322	0.0053351698
5080.4786206052	0.0053160926
5082.4074279783	0.0052679782
5084.3362353513	0.0052716713
5086.2650427244	0.0052394690
5088.1938500974	0.0051997895
5090.1226574705	0.0052175866
5092.0514648435	0.0051926286
5093.9802722166	0.0051889140
5095.9090795896	0.0051967148
5097.8378869627	0.0051654056
5099.7666943357	0.0051104412
5101.6955017088	0.0051204837
5103.6243090818	0.0050552851
5105.5531164548	0.0050328597
5107.4819238279	0.0051209023
5109.4107312009	0.0050208857
5111.3395385740	0.0049986104
5113.2683459470	0.0050037215
5115.1971533201	0.0049897013
5117.1259606931	0.0050303312
5119.0547680662	0.0049647633
5120.9835754392	0.0049692411
5122.9123828123	0.0049493117
5124.8411901853	0.0049528759
5126.7699975584	0.0049601281
5128.6988049314	0.0048977830
5130.6276123045	0.0049006296
5132.5564196775	0.0048222151
5134.4852270506	0.0048010610
5136.4140344236	0.0048426585
5138.3428417966	0.0048747589
5140.2716491697	0.0048862956
5142.2004565427	0.0047958707
5144.1292639158	0.0048547094
5146.0580712888	0.0048854584
5147.9868786619	0.0047684740
5149.9156860349	0.0047605857
5151.8444934080	0.0047519142
5153.7733007810	0.0047505260
5155.7021081541	0.0047373292
5157.6309155271	0.0047008991
5159.5597229002	0.0047115777
5161.4885302732	0.0046577458
5163.4173376463	0.0046471576
5165.3461450193	0.0046834936
5167.2749523923	0.0047156354
5169.2037597654	0.0046827300
5171.1325671384	0.0046386775
5173.0613745115	0.0046793716
5174.9901818845	0.0046176892
5176.9189892576	0.0046200361
5178.8477966306	0.0046247123
5180.7766040037	0.0045714471
5182.7054113767	0.0045746425
5184.6342187498	0.0045117098
5186.5630261228	0.0045109629
5188.4918334959	0.0044990089
5190.4206408689	0.0044796173
5192.3494482420	0.0045065489
5194.2782556150	0.0045332955
5196.2070629880	0.0044668149
5198.1358703611	0.0043868567
5200.0646777341	0.0045072678
5201.9934851072	0.0044607678
5203.9222924802	0.0044137379
5205.8510998533	0.0044317129
5207.7799072263	0.0042959386
5209.7087145994	0.0043276772
5211.6375219724	0.0043929284
5213.5663293455	0.0043942151
5215.4951367185	0.0043799970
5217.4239440916	0.0043878099
5219.3527514646	0.0043387748
5221.2815588377	0.0042577880
5223.2103662107	0.0043576900
5225.1391735837	0.0042834999
5227.0679809568	0.0041980483
5228.9967883298	0.0042934157
5230.9255957029	0.0042515304
5232.8544030759	0.0042195595
5234.7832104490	0.0042421296
5236.7120178220	0.0042550657
5238.6408251951	0.0042311633
5240.5696325681	0.0042178566
5242.4984399412	0.0042005084
5244.4272473142	0.0041167950
5246.3560546873	0.0041454360
5248.2848620603	0.0040415232
5250.2136694334	0.0039792862
5252.1424768064	0.0041394294
5254.0712841795	0.0041064834
5256.0000915525	0.0041196207
5257.9288989255	0.0041394122
5259.8577062986	0.0040764669
5261.7865136716	0.0040457393
5263.7153210447	0.0039351173
5265.6441284177	0.0039472124
5267.5729357908	0.0040410860
5269.5017431638	0.0040375623
5271.4305505369	0.0040073991
5273.3593579099	0.0041015241
5275.2881652830	0.0040298537
5277.2169726560	0.0039377445
5279.1457800291	0.0040017217
5281.0745874021	0.0038819043
5283.0033947752	0.0039718747
5284.9322021482	0.0040253038
5286.8610095212	0.0039714333
5288.7898168943	0.0039796801
5290.7186242673	0.0038536191
5292.6474316404	0.0038847276
5294.5762390134	0.0038765511
5296.5050463865	0.0038881178
5298.4338537595	0.0038551376
5300.3626611326	0.0037969563
5302.2914685056	0.0038218522
5304.2202758787	0.0038260429
5306.1490832517	0.0038696150
5308.0778906248	0.0037287059
5310.0066979978	0.0038049286
5311.9355053709	0.0038283581
5313.8643127439	0.0037315243
5315.7931201169	0.0037571590
5317.7219274900	0.0036820448
5319.6507348630	0.0037801992
5321.5795422361	0.0037072869
5323.5083496091	0.0036717928
5325.4371569822	0.0036963902
5327.3659643552	0.0036397334
5329.2947717283	0.0036812022
5331.2235791013	0.0036129206
5333.1523864744	0.0036630754
5335.0811938474	0.0036899897
5337.0100012205	0.0036940193
5338.9388085935	0.0036003203
5340.8676159666	0.0036172001
5342.7964233396	0.0036528830
5344.7252307126	0.0034519858
5346.6540380857	0.0035718037
5348.5828454587	0.0035343687
5350.5116528318	0.0035406314
5352.4404602048	0.0036026761
5354.3692675779	0.0034445850
5356.2980749509	0.0035733832
5358.2268823240	0.0035488219
5360.1556896970	0.0035108384
5362.0844970701	0.0035506014
5364.0133044431	0.0034823918
5365.9421118162	0.0034891404
5367.8709191892	0.0034720749
5369.7997265623	0.0034910864
5371.7285339353	0.0035053645
5373.6573413083	0.0034935144
5375.5861486814	0.0034504270
5377.5149560544	0.0033691740
5379.4437634275	0.0033711395
5381.3725708005	0.0034324373
5383.3013781736	0.0033616633
5385.2301855466	0.0033339255
5387.1589929197	0.0034006503
5389.0878002927	0.0033658966
5391.0166076658	0.0034179753
5392.9454150388	0.0033782700
5394.8742224119	0.0033305096
5396.8030297849	0.0033787650
5398.7318371580	0.0032799446
5400.6606445310	0.0032915720
5402.5894519041	0.0033329772
5404.5182592771	0.0032815633
5406.4470666501	0.0033346151
5408.3758740232	0.0033473237
5410.3046813962	0.0032125060
5412.2334887693	0.0031739953
5414.1622961423	0.0031840526
5416.0911035154	0.0031801991
5418.0199108884	0.0032923226
5419.9487182615	0.0032576490
5421.8775256345	0.0031892438
5423.8063330076	0.0032272800
5425.7351403806	0.0031782282
5427.6639477537	0.0031771045
5429.5927551267	0.0031310651
5431.5215624998	0.0030803494
5433.4503698728	0.0031825430
5435.3791772458	0.0031584706
5437.3079846189	0.0031350981
5439.2367919919	0.0031833397
5441.1655993650	0.0030699302
5443.0944067380	0.0030392483
5445.0232141111	0.0030997978
5446.9520214841	0.0031096679
5448.8808288572	0.0031331466
5450.8096362302	0.0030778737
5452.7384436033	0.0030537264
5454.6672509763	0.0031133397
5456.5960583494	0.0031160363
5458.5248657224	0.0030955931
5460.4536730955	0.0030489899
5462.3824804685	0.0030298503
5464.3112878415	0.0030331432
5466.2400952146	0.0029956980
5468.1689025876	0.0030566021
5470.0977099607	0.0030103214
5472.0265173337	0.0029471712
5473.9553247068	0.0030158390
5475.8841320798	0.0029167347
5477.8129394529	0.0029260269
5479.7417468259	0.0029478536
5481.6705541990	0.0028934320
5483.5993615720	0.0029553613
5485.5281689451	0.0029663385
5487.4569763181	0.0029536537
5489.3857836912	0.0028671033
5491.3145910642	0.0029166294
5493.2433984372	0.0029092808
5495.1722058103	0.0028037252
5497.1010131833	0.0028805782
5499.0298205564	0.0028326090
5500.9586279294	0.0028201980
5502.8874353025	0.0028165446
5504.8162426755	0.0028208648
5506.7450500486	0.0028769164
5508.6738574216	0.0028392337
5510.6026647947	0.0028262055
5512.5314721677	0.0027781641
5514.4602795408	0.0028111581
5516.3890869138	0.0027851709
5518.3178942869	0.0027256967
5520.2467016599	0.0027950942
5522.1755090330	0.0027659237
5524.1043164060	0.0027187765
5526.0331237790	0.0027721929
5527.9619311521	0.0027496251
5529.8907385251	0.0027030862
5531.8195458982	0.0028096358
5533.7483532712	0.0027523299
5535.6771606443	0.0026897672
5537.6059680173	0.0027419620
5539.5347753904	0.0027435166
5541.4635827634	0.0027965109
5543.3923901365	0.0026929022
5545.3211975095	0.0026230186
5547.2500048826	0.0025990852
5549.1788122556	0.0026065628
5551.1076196287	0.0026414110
5553.0364270017	0.0025773060
5554.9652343747	0.0026684350
5556.8940417478	0.0026572400
5558.8228491208	0.0025835591
5560.7516564939	0.0025885846
5562.6804638669	0.0026256717
5564.6092712400	0.0026322578
5566.5380786130	0.0025428613
5568.4668859861	0.0026066862
5570.3956933591	0.0025955392
5572.3245007322	0.0025704298
5574.2533081052	0.0025722147
5576.1821154783	0.0025160871
5578.1109228513	0.0025766338
5580.0397302244	0.0025331611
5581.9685375974	0.0025303736
5583.8973449704	0.0025628665
5585.8261523435	0.0024956702
5587.7549597165	0.0024958518
5589.6837670896	0.0024812589
5591.6125744626	0.0024992169
5593.5413818357	0.0024980041
5595.4701892087	0.0024873503
5597.3989965818	0.0025529000
5599.3278039548	0.0024831109
5601.2566113279	0.0024759816
5603.1854187009	0.0025110482
5605.1142260740	0.0023959300
5607.0430334470	0.0024254308
5608.9718408201	0.0024511856
5610.9006481931	0.0024076058
5612.8294555661	0.0024167914
5614.7582629392	0.0024174151
5616.6870703122	0.0024101837
5618.6158776853	0.0023365445
5620.5446850583	0.0023536361
5622.4734924314	0.0023911330
5624.4022998044	0.0023944806
5626.3311071775	0.0023996308
5628.2599145505	0.0023823786
5630.1887219236	0.0024305338
5632.1175292966	0.0023500114
5634.0463366697	0.0022758306
5635.9751440427	0.0023240477
5637.9039514158	0.0023220633
5639.8327587888	0.0023362469
5641.7615661619	0.0023052867
5643.6903735349	0.0022203610
5645.6191809079	0.0022918549
5647.5479882810	0.0023282333
5649.4767956540	0.0022088476
5651.4056030271	0.0022525399
5653.3344104001	0.0022936820
5655.2632177732	0.0022519345
5657.1920251462	0.0022256395
5659.1208325193	0.0022115386
5661.0496398923	0.0022357134
5662.9784472654	0.0022173566
5664.9072546384	0.0022418597
5666.8360620115	0.0021853480
5668.7648693845	0.0022605453
5670.6936767576	0.0022835261
5672.6224841306	0.0021468699
5674.5512915036	0.0022755866
5676.4800988767	0.0021972270
5678.4089062497	0.0021560574
5680.3377136228	0.0021770985
5682.2665209958	0.0021224138
5684.1953283689	0.0022421398
5686.1241357419	0.0021002428
5688.0529431150	0.0020783572
5689.9817504880	0.0021369539
5691.9105578611	0.0021039282
5693.8393652341	0.0021951424
5695.7681726072	0.0021658612
5697.6969799802	0.0021527724
5699.6257873533	0.0021224499
5701.5545947263	0.0020869419
5703.4834020993	0.0020853826
5705.4122094724	0.0020840298
5707.3410168454	0.0020707047
5709.2698242185	0.0020627857
5711.1986315915	0.0020894434
5713.1274389646	0.0020298827
5715.0562463376	0.0020488044
5716.9850537107	0.0020225889
5718.9138610837	0.0020541204
5720.8426684568	0.0020692898
5722.7714758298	0.0019148719
5724.7002832029	0.0020055561
5726.6290905759	0.0020262457
5728.5578979490	0.0019372620
5730.4867053220	0.0019803392
5732.4155126950	0.0020529609
5734.3443200681	0.0019841404
5736.2731274411	0.0018953753
5738.2019348142	0.0019888226
5740.1307421872	0.0018917795
5742.0595495603	0.0018954374
5743.9883569333	0.0019450320
5745.9171643064	0.0018694976
5747.8459716794	0.0019532475
5749.7747790525	0.0019377146
5751.7035864255	0.0019627027
5753.6323937986	0.0019445067
5755.5612011716	0.0019354237
5757.4900085447	0.0019513005
5759.4188159177	0.0018764089
5761.3476232907	0.0019469885
5763.2764306638	0.0018823774
5765.2052380368	0.0018763242
5767.1340454099	0.0018988822
5769.0628527829	0.0018570451
5770.9916601560	0.0018903646
5772.9204675290	0.0018120280
5774.8492749021	0.0018842216
5776.7780822751	0.0019226765
5778.7068896482	0.0018526010
5780.6356970212	0.0018379851
5782.5645043943	0.0018435549
5784.4933117673	0.0018790810
5786.4221191404	0.0017920810
5788.3509265134	0.0017821512
5790.2797338865	0.0018243026
5792.2085412595	0.0018147085
5794.1373486325	0.0018244851
5796.0661560056	0.0017845277
5797.9949633786	0.0017902259
5799.9237707517	0.0018291791
5801.8525781247	0.0017581820
5803.7813854978	0.0017201955
5805.7101928708	0.0017839633
5807.6390002439	0.0017410018
5809.5678076169	0.0017495336
5811.4966149900	0.0017576334
5813.4254223630	0.0017172241
5815.3542297361	0.0017503398
5817.2830371091	0.0016662631
5819.2118444822	0.0017007731
5821.1406518552	0.0017914769
5823.0694592282	0.0017621208
5824.9982666013	0.0017310210
5826.9270739743	0.0016597540
5828.8558813474	0.0016572133
5830.7846887204	0.0016255882
5832.7134960935	0.0016139753
5834.6423034665	0.0016971184
5836.5711108396	0.0016746663
5838.4999182126	0.0016577974
5840.4287255857	0.0016706409
5842.3575329587	0.0016343566
5844.2863403318	0.0016740020
5846.2151477048	0.0016681635
5848.1439550779	0.0016178167
5850.0727624509	0.0016499239
5852.0015698239	0.0016435082
5853.9303771970	0.0016648117
5855.8591845700	0.0016451764
5857.7879919431	0.0016046530
5859.7167993161	0.0016289534
5861.6456066892	0.0015988271
5863.5744140622	0.0015585355
5865.5032214353	0.0015399853
5867.4320288083	0.0016054164
5869.3608361814	0.0016060988
5871.2896435544	0.0015743328
5873.2184509275	0.0015753822
5875.1472583005	0.0015723242
5877.0760656736	0.0016466314
5879.0048730466	0.0015993869
5880.9336804196	0.0015852451
5882.8624877927	0.0015557369
5884.7912951657	0.0014862285
5886.7201025388	0.0015542449
5888.6489099118	0.0015236681
5890.5777172849	0.0014886414
5892.5065246579	0.0015234235
5894.4353320310	0.0015571384
5896.3641394040	0.0015418022
5898.2929467771	0.0015338806
5900.2217541501	0.0015105852
5902.1505615232	0.0014584456
5904.0793688962	0.0014785700
5906.0081762693	0.0014321019
5907.9369836423	0.0014636565
5909.8657910154	0.0014952472
5911.7945983884	0.0014668962
5913.7234057614	0.0014892658
5915.6522131345	0.0014374186
5917.5810205075	0.0014316970
5919.5098278806	0.0014614456
5921.4386352536	0.0014582847
5923.3674426267	0.0014372232
5925.2962499997	0.0014489318
5927.2250573728	0.0014698848
5929.1538647458	0.0014766760
5931.0826721189	0.0014521356
5933.0114794919	0.0013555194
5934.9402868650	0.0013933455
5936.8690942380	0.0014317088
5938.7979016111	0.0013768757
5940.7267089841	0.0013835216
5942.6555163571	0.0013937163
5944.5843237302	0.0014253596
5946.5131311032	0.0014608875
5948.4419384763	0.0013804585
5950.3707458493	0.0013798117
5952.2995532224	0.0014877120
5954.2283605954	0.0013837115
5956.1571679685	0.0013397606
5958.0859753415	0.0013667841
5960.0147827146	0.0013156359
5961.9435900876	0.0013832676
5963.8723974607	0.0013433304
5965.8012048337	0.0013167879
5967.7300122068	0.0013704702
5969.6588195798	0.0013419564
5971.5876269528	0.0013521807
5973.5164343259	0.0013118186
5975.4452416989	0.0012738423
5977.3740490720	0.0013043680
5979.3028564450	0.0012722877
5981.2316638181	0.0013171640
5983.1604711911	0.0013361571
5985.0892785642	0.0012449975
5987.0180859372	0.0013076146
5988.9468933103	0.0012922315
5990.8757006833	0.0013127285
5992.8045080564	0.0013274876
5994.7333154294	0.0012093987
5996.6621228025	0.0013418420
5998.5909301755	0.0012703429
6000.5197375485	0.0012417680
