399.2631262207	0.0005601086
401.1919335938	0.0001828665
403.1207409668	0.0003518150
405.0495483398	0.0005184974
406.9783557129	0.0008664832
408.9071630859	0.0009261965
410.8359704590	0.0009123564
412.7647778320	0.0004893417
414.6935852051	0.0004870567
416.6223925781	0.0009212899
418.5511999512	0.0005382141
420.4800073242	0.0006706770
422.4088146973	0.0012068874
424.3376220703	0.0005039563
426.2664294434	0.0003927618
428.1952368164	0.0008481541
430.1240441895	0.0005828931
432.0528515625	0.0006912941
433.9816589355	0.0008782551
435.9104663086	0.0006698874
437.8392736816	0.0001809692
439.7680810547	0.0008247140
441.6968884277	0.0011816628
443.6256958008	-0.0000678533
445.5545031738	-0.0000862428
447.4833105469	0.0004182882
449.4121179199	0.0004547411
451.3409252930	0.0004663350
453.2697326660	0.0005601264
455.1985400391	0.0005665155
457.1273474121	0.0006419943
459.0561547852	0.0008690399
460.9849621582	0.0002872323
462.9137695313	0.0003703695
464.8425769043	0.0008100433
466.7713842773	0.0008625149
468.7001916504	0.0004814990
470.6289990234	-0.0000705244
472.5578063965	0.0006861276
474.4866137695	0.0008692501
476.4154211426	0.0004268200
478.3442285156	0.0003784245
480.2730358887	0.0003491931
482.2018432617	0.0004519582
484.1306506348	0.0004565751
486.0594580078	0.0005404092
487.9882653809	-0.0000009359
489.9170727539	0.0002344734
491.8458801270	0.0006553383
493.7746875000	-0.0001678274
495.7034948730	0.0002118536
497.6323022461	0.0006070968
499.5611096191	0.0002974937
501.4899169922	0.0003605898
503.4187243652	0.0004173380
505.3475317383	0.0003426964
507.2763391113	-0.0001007459
509.2051464844	0.0000483920
511.1339538574	0.0004388156
513.0627612305	0.0002891449
514.9915686035	0.0003284474
516.9203759766	0.0004145155
518.8491833496	0.0001026698
520.7779907227	0.0003114938
522.7067980957	0.0004084158
524.6356054688	-0.0000754602
526.5644128418	0.0003406953
528.4932202148	0.0002548615
530.4220275879	0.0002045603
532.3508349609	0.0005604900
534.2796423340	0.0001622252
536.2084497070	0.0001378629
538.1372570801	0.0001828913
540.0660644531	0.0005519091
541.9948718262	0.0005364454
543.9236791992	-0.0000921401
545.8524865723	0.0001105223
547.7812939453	0.0003907435
549.7101013184	0.0003137007
551.6389086914	0.0003855181
553.5677160645	0.0005258762
555.4965234375	0.0003807559
557.4253308105	0.0002831392
559.3541381836	0.0001703031
561.2829455566	0.0000876758
563.2117529297	0.0002793585
565.1405603027	0.0001868378
567.0693676758	0.0003489666
568.9981750488	0.0005146503
570.9269824219	0.0000148956
572.8557897949	-0.0000744832
574.7845971680	0.0003004294
576.7134045410	0.0005469967
578.6422119141	0.0005355391
580.5710192871	0.0003136473
582.4998266602	0.0003383884
584.4286340332	0.0000378051
586.3574414063	0.0001723296
588.2862487793	0.0005677474
590.2150561523	-0.0000821153
592.1438635254	0.0000630392
594.0726708984	0.0002639863
596.0014782715	0.0002742378
597.9302856445	0.0007285204
599.8590930176	0.0003275024
601.7879003906	0.0001904919
603.7167077637	0.0003185685
605.6455151367	0.0000518693
607.5743225098	0.0002391955
609.5031298828	0.0003904460
611.4319372559	0.0000437078
613.3607446289	0.0003608299
615.2895520020	0.0004226750
617.2183593750	0.0000379390
619.1471667480	0.0001274718
621.0759741211	-0.0003149172
623.0047814941	-0.0002326143
624.9335888672	0.0000587124
626.8623962402	0.0001007858
628.7912036133	0.0000175381
630.7200109863	0.0001236191
632.6488183594	0.0004648988
634.5776257324	0.0006124611
636.5064331055	0.0009408975
638.4352404785	0.0005965338
640.3640478516	0.0006074044
642.2928552246	0.0011965422
644.2216625977	0.0011371855
646.1504699707	0.0008741037
648.0792773438	0.0009034649
650.0080847168	0.0011934646
651.9368920898	0.0011056645
653.8656994629	0.0011681699
655.7945068359	0.0015512852
657.7233142090	0.0016454002
659.6521215820	0.0014452027
661.5809289551	0.0015476965
663.5097363281	0.0019969933
665.4385437012	0.0017497038
667.3673510742	0.0015013171
669.2961584473	0.0017684600
671.2249658203	0.0019924752
673.1537731934	0.0021865969
675.0825805664	0.0024810883
677.0113879395	0.0027014264
678.9401953125	0.0024575926
680.8690026855	0.0024484587
682.7978100586	0.0026880933
684.7266174316	0.0024761248
686.6554248047	0.0025222683
688.5842321777	0.0027717750
690.5130395508	0.0026744842
692.4418469238	0.0027304438
694.3706542969	0.0028006821
696.2994616699	0.0031989757
698.2282690430	0.0040443595
700.1570764160	0.0042433236
702.0858837891	0.0039800480
704.0146911621	0.0035123993
705.9434985352	0.0032083211
707.8723059082	0.0032335273
709.8011132813	0.0024168254
711.7299206543	0.0015061882
713.6587280273	0.0014181037
715.5875354004	0.0007595053
717.5163427734	0.0002058540
719.4451501465	0.0006618791
721.3739575195	0.0003181361
723.3027648926	0.0000878934
725.2315722656	0.0006035439
727.1603796387	0.0001815315
729.0891870117	0.0000880510
731.0179943848	0.0004795371
732.9468017578	0.0001246482
734.8756091309	0.0000913818
736.8044165039	0.0001867505
738.7332238770	0.0001067138
740.6620312500	0.0001352885
742.5908386230	-0.0000178158
744.5196459961	0.0000411083
746.4484533691	0.0002394626
748.3772607422	0.0000093002
750.3060681152	-0.0001744933
752.2348754883	-0.0000439781
754.1636828613	-0.0000151112
756.0924902344	0.0003213654
758.0212976074	0.0004413200
759.9501049805	0.0002495841
761.8789123535	0.0003974064
763.8077197266	0.0000420166
765.7365270996	0.0000873777
767.6653344727	0.0004256590
769.5941418457	-0.0000431871
771.5229492188	0.0001673866
773.4517565918	0.0004848707
775.3805639648	0.0002102631
777.3093713379	0.0003128651
779.2381787109	0.0000506422
781.1669860840	0.0000256453
783.0957934570	0.0001974139
785.0246008301	0.0002551821
786.9534082031	0.0004090641
788.8822155762	0.0002950565
790.8110229492	0.0002734984
792.7398303223	0.0002948761
794.6686376953	0.0003829435
796.5974450684	0.0003552579
798.5262524414	0.0007037459
800.4550598145	0.0010760105
802.3838671875	0.0008069904
804.3126745605	0.0006134844
806.2414819336	0.0004646499
808.1702893066	0.0004291624
810.0990966797	0.0003732724
812.0279040527	0.0006666998
813.9567114258	0.0004826973
815.8855187988	0.0000527226
817.8143261719	0.0004286855
819.7431335449	0.0003207270
821.6719409180	0.0004598479
823.6007482910	0.0003483367
825.5295556641	0.0001639259
827.4583630371	0.0006058422
829.3871704102	0.0006858225
831.3159777832	0.0010308067
833.2447851563	0.0011272162
835.1735925293	0.0013425510
837.1023999023	0.0015392842
839.0312072754	0.0013854950
840.9600146484	0.0015376568
842.8888220215	0.0012453145
844.8176293945	0.0010108141
846.7464367676	0.0013137152
848.6752441406	0.0012413797
850.6040515137	0.0008720270
852.5328588867	0.0010790700
854.4616662598	0.0009615637
856.3904736328	0.0006664973
858.3192810059	0.0008159536
860.2480883789	0.0006810009
862.1768957520	0.0004989331
864.1057031250	0.0003674196
866.0345104980	0.0005992206
867.9633178711	0.0006433473
869.8921252441	0.0004647557
871.8209326172	0.0004878215
873.7497399902	0.0002993807
875.6785473633	0.0003048143
877.6073547363	0.0004804631
879.5361621094	0.0006241548
881.4649694824	0.0004866761
883.3937768555	0.0004234861
885.3225842285	0.0004453492
887.2513916016	0.0003789155
889.1801989746	0.0004590053
891.1090063477	0.0003879376
893.0378137207	0.0006561710
894.9666210938	0.0006032117
896.8954284668	0.0002538889
898.8242358398	0.0003971522
900.7530432129	0.0004124081
902.6818505859	0.0002941192
904.6106579590	0.0003325607
906.5394653320	0.0005143341
908.4682727051	0.0004504068
910.3970800781	0.0006068673
912.3258874512	0.0006643016
914.2546948242	0.0005539160
916.1835021973	0.0010228739
918.1123095703	0.0012379681
920.0411169434	0.0012638911
921.9699243164	0.0014917467
923.8987316895	0.0015397412
925.8275390625	0.0015886051
927.7563464355	0.0018397339
929.6851538086	0.0017116577
931.6139611816	0.0019043692
933.5427685547	0.0022633576
935.4715759277	0.0021213761
937.4003833008	0.0023473254
939.3291906738	0.0024547253
941.2579980469	0.0027191960
943.1868054199	0.0025993257
945.1156127930	0.0023999913
947.0444201660	0.0027113305
948.9732275391	0.0025670358
950.9020349121	0.0027608643
952.8308422852	0.0025032423
954.7596496582	0.0023865583
956.6884570313	0.0024184869
958.6172644043	0.0020638851
960.5460717773	0.0026363977
962.4748791504	0.0028586369
964.4036865234	0.0027368469
966.3324938965	0.0027324897
968.2613012695	0.0028327827
970.1901086426	0.0030029318
972.1189160156	0.0030616799
974.0477233887	0.0033838041
975.9765307617	0.0037685693
977.9053381348	0.0041538104
979.8341455078	0.0042024292
981.7629528809	0.0045303321
983.6917602539	0.0049441308
985.6205676270	0.0056445217
987.5493750000	0.0065478561
989.4781823730	0.0067303437
991.4069897461	0.0076041166
993.3357971191	0.0084781405
995.2646044922	0.0092870006
997.1934118652	0.0104120281
999.1222192383	0.0108660115
1001.0510266113	0.0113998549
1002.9798339844	0.0120195579
1004.9086413574	0.0130664632
1006.8374487305	0.0143409325
1008.7662561035	0.0149851330
1010.6950634766	0.0156785771
1012.6238708496	0.0165645592
1014.5526782227	0.0173968039
1016.4814855957	0.0183963366
1018.4102929688	0.0193167999
1020.3391003418	0.0201057829
1022.2679077148	0.0210376047
1024.1967150879	0.0217192397
1026.1255224609	0.0226050392
1028.0543298340	0.0236683227
1029.9831372070	0.0241055284
1031.9119445801	0.0246012174
1033.8407519531	0.0252545774
1035.7695593262	0.0256199539
1037.6983666992	0.0259347931
1039.6271740723	0.0259816460
1041.5559814453	0.0257554594
1043.4847888184	0.0255422331
1045.4135961914	0.0251386277
1047.3424035645	0.0249413513
1049.2712109375	0.0247975960
1051.2000183105	0.0242818817
1053.1288256836	0.0238189138
1055.0576330566	0.0232371278
1056.9864404297	0.0227090307
1058.9152478027	0.0220630132
1060.8440551758	0.0213697739
1062.7728625488	0.0209095068
1064.7016699219	0.0201325193
1066.6304772949	0.0195136257
1068.5592846680	0.0188028086
1070.4880920410	0.0179094728
1072.4168994141	0.0170198157
1074.3457067871	0.0158988498
1076.2745141602	0.0152535848
1078.2033215332	0.0147659834
1080.1321289062	0.0141351521
1082.0609362793	0.0133290607
1083.9897436523	0.0126083065
1085.9185510254	0.0123409927
1087.8473583984	0.0116535854
1089.7761657715	0.0108074993
1091.7049731445	0.0104964608
1093.6337805176	0.0102131888
1095.5625878906	0.0095236730
1097.4913952637	0.0092904232
1099.4202026367	0.0094323466
1101.3490100098	0.0089419931
1103.2778173828	0.0086262301
1105.2066247559	0.0085234307
1107.1354321289	0.0083489418
1109.0642395019	0.0083246306
1110.9930468750	0.0080540143
1112.9218542480	0.0077999402
1114.8506616211	0.0080060754
1116.7794689941	0.0082014445
1118.7082763672	0.0078422111
1120.6370837402	0.0078221420
1122.5658911133	0.0080620386
1124.4946984863	0.0080536399
1126.4235058594	0.0082649551
1128.3523132324	0.0083833998
1130.2811206055	0.0084370226
1132.2099279785	0.0086639132
1134.1387353516	0.0091457535
1136.0675427246	0.0094847456
1137.9963500977	0.0099492641
1139.9251574707	0.0105710486
1141.8539648437	0.0109136133
1143.7827722168	0.0118117230
1145.7115795898	0.0125764273
1147.6403869629	0.0132116722
1149.5691943359	0.0138808237
1151.4980017090	0.0143874362
1153.4268090820	0.0153796896
1155.3556164551	0.0159906372
1157.2844238281	0.0166121591
1159.2132312012	0.0175422728
1161.1420385742	0.0181666426
1163.0708459473	0.0186813083
1164.9996533203	0.0194725171
1166.9284606934	0.0203463323
1168.8572680664	0.0207985602
1170.7860754394	0.0213163085
1172.7148828125	0.0220168885
1174.6436901855	0.0231172703
1176.5724975586	0.0240574628
1178.5013049316	0.0247926842
1180.4301123047	0.0258868746
1182.3589196777	0.0269575007
1184.2877270508	0.0283295847
1186.2165344238	0.0293651950
1188.1453417969	0.0305282585
1190.0741491699	0.0321433842
1192.0029565430	0.0334338136
1193.9317639160	0.0350603871
1195.8605712891	0.0368209742
1197.7893786621	0.0382541381
1199.7181860351	0.0397301316
1201.6469934082	0.0414509885
1203.5758007812	0.0430237278
1205.5046081543	0.0446979739
1207.4334155273	0.0464172363
1209.3622229004	0.0479768962
1211.2910302734	0.0493151769
1213.2198376465	0.0503386483
1215.1486450195	0.0518831536
1217.0774523926	0.0530456826
1219.0062597656	0.0538814738
1220.9350671387	0.0547356382
1222.8638745117	0.0549849086
1224.7926818848	0.0555110089
1226.7214892578	0.0561108701
1228.6502966308	0.0564068146
1230.5791040039	0.0564851984
1232.5079113769	0.0566509441
1234.4367187500	0.0568260066
1236.3655261230	0.0567822382
1238.2943334961	0.0567158088
1240.2231408691	0.0565865338
1242.1519482422	0.0564457029
1244.0807556152	0.0560376346
1246.0095629883	0.0557594001
1247.9383703613	0.0553380325
1249.8671777344	0.0548929423
1251.7959851074	0.0545597076
1253.7247924805	0.0538016334
1255.6535998535	0.0532367304
1257.5824072266	0.0524576046
1259.5112145996	0.0516649261
1261.4400219726	0.0510985479
1263.3688293457	0.0503377840
1265.2976367187	0.0496728569
1267.2264440918	0.0488881469
1269.1552514648	0.0480758660
1271.0840588379	0.0474730022
1273.0128662109	0.0467744246
1274.9416735840	0.0458671823
1276.8704809570	0.0449100696
1278.7992883301	0.0440153927
1280.7280957031	0.0433175862
1282.6569030762	0.0422688425
1284.5857104492	0.0414343849
1286.5145178223	0.0407686979
1288.4433251953	0.0398263074
1290.3721325683	0.0396407843
1292.3009399414	0.0390273333
1294.2297473144	0.0385252833
1296.1585546875	0.0385932662
1298.0873620605	0.0383669510
1300.0161694336	0.0385416001
1301.9449768066	0.0387629904
1303.8737841797	0.0392208844
1305.8025915527	0.0395554826
1307.7313989258	0.0399600379
1309.6602062988	0.0405880772
1311.5890136719	0.0411743633
1313.5178210449	0.0420013554
1315.4466284180	0.0427219123
1317.3754357910	0.0438300073
1319.3042431640	0.0450182073
1321.2330505371	0.0465153232
1323.1618579101	0.0480652414
1325.0906652832	0.0492207259
1327.0194726562	0.0504631922
1328.9482800293	0.0517729223
1330.8770874023	0.0532525890
1332.8058947754	0.0544022880
1334.7347021484	0.0554656684
1336.6635095215	0.0559160188
1338.5923168945	0.0557690784
1340.5211242676	0.0565339103
1342.4499316406	0.0581896678
1344.3787390137	0.0588586777
1346.3075463867	0.0586668402
1348.2363537597	0.0586923137
1350.1651611328	0.0581424832
1352.0939685058	0.0579393990
1354.0227758789	0.0573474914
1355.9515832519	0.0567647852
1357.8803906250	0.0565410368
1359.8091979980	0.0554041862
1361.7380053711	0.0535647348
1363.6668127441	0.0528404899
1365.5956201172	0.0548465177
1367.5244274902	0.0537886843
1369.4532348633	0.0529790781
1371.3820422363	0.0538457558
1373.3108496094	0.0512763038
1375.2396569824	0.0515199602
1377.1684643555	0.0524527803
1379.0972717285	0.0523541607
1381.0260791015	0.0523106642
1382.9548864746	0.0518975332
1384.8836938476	0.0522108190
1386.8125012207	0.0503311083
1388.7413085937	0.0511187240
1390.6701159668	0.0543057509
1392.5989233398	0.0531283319
1394.5277307129	0.0508158207
1396.4565380859	0.0526844710
1398.3853454590	0.0526491515
1400.3141528320	0.0523130894
1402.2429602051	0.0554720312
1404.1717675781	0.0532787591
1406.1005749512	0.0534568429
1408.0293823242	0.0547981784
1409.9581896972	0.0532226041
1411.8869970703	0.0537850037
1413.8158044433	0.0521064065
1415.7446118164	0.0527899861
1417.6734191894	0.0486673340
1419.6022265625	0.0447209477
1421.5310339355	0.0492763110
1423.4598413086	0.0479681939
1425.3886486816	0.0464594588
1427.3174560547	0.0466625616
1429.2462634277	0.0437676534
1431.1750708008	0.0422126912
1433.1038781738	0.0424628481
1435.0326855469	0.0391074903
1436.9614929199	0.0342814736
1438.8903002929	0.0374555737
1440.8191076660	0.0380873829
1442.7479150390	0.0356904604
1444.6767224121	0.0367308967
1446.6055297851	0.0346360877
1448.5343371582	0.0347057283
1450.4631445312	0.0356223509
1452.3919519043	0.0363172553
1454.3207592773	0.0377003029
1456.2495666504	0.0326890871
1458.1783740234	0.0340814292
1460.1071813965	0.0432835594
1462.0359887695	0.0454334356
1463.9647961426	0.0460342765
1465.8936035156	0.0480122380
1467.8224108886	0.0534188785
1469.7512182617	0.0574120730
1471.6800256347	0.0528427660
1473.6088330078	0.0559233055
1475.5376403808	0.0626686513
1477.4664477539	0.0666893572
1479.3952551269	0.0723623708
1481.3240625000	0.0739567801
1483.2528698730	0.0780405179
1485.1816772461	0.0804404765
1487.1104846191	0.0799143761
1489.0392919922	0.0802017674
1490.9680993652	0.0812748075
1492.8969067383	0.0915624499
1494.8257141113	0.0900465846
1496.7545214843	0.0831739455
1498.6833288574	0.0922558457
1500.6121362304	0.0944224820
1502.5409436035	0.0996526927
1504.4697509765	0.0956154317
1506.3985583496	0.0750831813
1508.3273657226	0.0880984142
1510.2561730957	0.0994256884
1512.1849804687	0.0966155976
1514.1137878418	0.1028801799
1516.0425952148	0.0946611613
1517.9714025879	0.0983552486
1519.9002099609	0.0949807316
1521.8290173340	0.0853790268
1523.7578247070	0.0996150970
1525.6866320801	0.0977510810
1527.6154394531	0.0976444185
1529.5442468261	0.1050567478
1531.4730541992	0.1017765850
1533.4018615722	0.0950657278
1535.3306689453	0.0992601588
1537.2594763183	0.1036788374
1539.1882836914	0.0799783245
1541.1170910644	0.0832200274
1543.0458984375	0.0950319916
1544.9747058105	0.0919720978
1546.9035131836	0.1041147336
1548.8323205566	0.0982192680
1550.7611279297	0.1007118523
1552.6899353027	0.0995770246
1554.6187426758	0.0922135040
1556.5475500488	0.0969399065
1558.4763574218	0.0740318149
1560.4051647949	0.0779117793
1562.3339721679	0.1018844247
1564.2627795410	0.0970290750
1566.1915869140	0.0985549465
1568.1203942871	0.0972526446
1570.0492016601	0.0882137790
1571.9780090332	0.0979883075
1573.9068164062	0.0979946181
1575.8356237793	0.0812713206
1577.7644311523	0.0890841410
1579.6932385254	0.0973408446
1581.6220458984	0.0929359794
1583.5508532715	0.0943933204
1585.4796606445	0.0925202370
1587.4084680175	0.0924229622
1589.3372753906	0.0910385400
1591.2660827636	0.0899449661
1593.1948901367	0.0895686001
1595.1236975097	0.0878577232
1597.0525048828	0.0880278423
1598.9813122558	0.0866655111
1600.9101196289	0.0860857368
1602.8389270019	0.0840781182
1604.7677343750	0.0844888091
1606.6965417480	0.0826789439
1608.6253491211	0.0814303160
1610.5541564941	0.0806253105
1612.4829638672	0.0802387893
1614.4117712402	0.0802429318
1616.3405786132	0.0678657368
1618.2693859863	0.0721160322
1620.1981933593	0.0804752111
1622.1270007324	0.0727537721
1624.0558081054	0.0731592998
1625.9846154785	0.0751855522
1627.9134228515	0.0750756934
1629.8422302246	0.0746568739
1631.7710375976	0.0786799490
1633.6998449707	0.0740808249
1635.6286523437	0.0642851293
1637.5574597168	0.0728121251
1639.4862670898	0.0786997750
1641.4150744629	0.0779287964
1643.3438818359	0.0800151676
1645.2726892090	0.0746139511
1647.2014965820	0.0686892271
1649.1303039550	0.0822578967
1651.0591113281	0.0789774954
1652.9879187011	0.0571154729
1654.9167260742	0.0736542493
1656.8455334472	0.0885994136
1658.7743408203	0.0862145945
1660.7031481933	0.0895710886
1662.6319555664	0.0842662752
1664.5607629394	0.0888996869
1666.4895703125	0.0951325670
1668.4183776855	0.0868448168
1670.3471850586	0.0862216949
1672.2759924316	0.0960259438
1674.2047998047	0.0911922604
1676.1336071777	0.0895989016
1678.0624145507	0.1006857306
1679.9912219238	0.0989952236
1681.9200292968	0.0994639397
1683.8488366699	0.0851879269
1685.7776440429	0.0856728107
1687.7064514160	0.1109002829
1689.6352587890	0.1001413912
1691.5640661621	0.1089461222
1693.4928735351	0.1113776639
1695.4216809082	0.0878382623
1697.3504882812	0.1044886857
1699.2792956543	0.0955990404
1701.2081030273	0.0890792757
1703.1369104004	0.1139302775
1705.0657177734	0.1069501489
1706.9945251464	0.1086068302
1708.9233325195	0.1163260043
1710.8521398925	0.1131742895
1712.7809472656	0.1156778932
1714.7097546386	0.1095334664
1716.6385620117	0.1010436267
1718.5673693847	0.1002087146
1720.4961767578	0.1152041703
1722.4249841308	0.1185095757
1724.3537915039	0.1123921871
1726.2825988769	0.1202109903
1728.2114062500	0.1128216684
1730.1402136230	0.1146251857
1732.0690209961	0.1115985885
1733.9978283691	0.0910554603
1735.9266357421	0.1078345999
1737.8554431152	0.1167309135
1739.7842504882	0.1073028892
1741.7130578613	0.1148757935
1743.6418652343	0.1165947393
1745.5706726074	0.1169692874
1747.4994799804	0.1184193045
1749.4282873535	0.1145105064
1751.3570947265	0.1107823253
1753.2859020996	0.1204480082
1755.2147094726	0.1246958673
1757.1435168457	0.1165544093
1759.0723242187	0.1255721897
1761.0011315918	0.1197530478
1762.9299389648	0.1168409139
1764.8587463379	0.1296532750
1766.7875537109	0.1193930805
1768.7163610839	0.1204628572
1770.6451684570	0.1201552600
1772.5739758300	0.1107565463
1774.5027832031	0.1205101460
1776.4315905761	0.1256302595
1778.3603979492	0.1242264137
1780.2892053222	0.1232941449
1782.2180126953	0.1239685938
1784.1468200683	0.1236397475
1786.0756274414	0.1217573583
1788.0044348144	0.1266652495
1789.9332421875	0.1242318526
1791.8620495605	0.1152462512
1793.7908569336	0.1188357919
1795.7196643066	0.1255345643
1797.6484716796	0.1242851466
1799.5772790527	0.1227349639
1801.5060864257	0.1212080568
1803.4348937988	0.1240215674
1805.3637011718	0.1261786520
1807.2925085449	0.1248254776
1809.2213159179	0.1251205206
1811.1501232910	0.1226650476
1813.0789306640	0.1254989207
1815.0077380371	0.1257259548
1816.9365454101	0.1243549436
1818.8653527832	0.1253230572
1820.7941601562	0.1249466091
1822.7229675293	0.1261497140
1824.6517749023	0.1199465916
1826.5805822753	0.1231831461
1828.5093896484	0.1230463013
1830.4381970214	0.1174746454
1832.3670043945	0.1252253354
1834.2958117675	0.1242365837
1836.2246191406	0.1242365241
1838.1534265136	0.1237525418
1840.0822338867	0.1242945641
1842.0110412597	0.1242504120
1843.9398486328	0.1133285463
1845.8686560058	0.1190142483
1847.7974633789	0.1238125712
1849.7262707519	0.1216653213
1851.6550781250	0.1243053302
1853.5838854980	0.1223553047
1855.5126928710	0.1231317297
1857.4415002441	0.1222957522
1859.3703076171	0.1217662543
1861.2991149902	0.1223379746
1863.2279223632	0.1210063845
1865.1567297363	0.1219481528
1867.0855371093	0.1188679785
1869.0143444824	0.1150240973
1870.9431518554	0.1184154972
1872.8719592285	0.1215195805
1874.8007666015	0.1197693646
1876.7295739746	0.1204177290
1878.6583813476	0.1199685186
1880.5871887207	0.1191311032
1882.5159960937	0.1198166013
1884.4448034667	0.1182856709
1886.3736108398	0.1194863617
1888.3024182128	0.1174020022
1890.2312255859	0.1155089960
1892.1600329589	0.1186382771
1894.0888403320	0.1173397899
1896.0176477050	0.1168919206
1897.9464550781	0.1177113354
1899.8752624511	0.1170013249
1901.8040698242	0.1172074601
1903.7328771972	0.1166173965
1905.6616845703	0.1167605072
1907.5904919433	0.1156987324
1909.5192993164	0.1152010113
1911.4481066894	0.1155555695
1913.3769140625	0.1154931784
1915.3057214355	0.1162976101
1917.2345288085	0.1120847017
1919.1633361816	0.1120870262
1921.0921435546	0.1152081639
1923.0209509277	0.1124136969
1924.9497583007	0.1140480787
1926.8785656738	0.1147318780
1928.8073730468	0.1136642843
1930.7361804199	0.1143063977
1932.6649877929	0.1131377667
1934.5937951660	0.1139303744
1936.5226025390	0.1131971925
1938.4514099121	0.1133939549
1940.3802172851	0.1130229384
1942.3090246582	0.1103646308
1944.2378320312	0.1117522269
1946.1666394042	0.1124846712
1948.0954467773	0.1121370792
1950.0242541503	0.1123628318
1951.9530615234	0.1120048612
1953.8818688964	0.1117872372
1955.8106762695	0.1114601940
1957.7394836425	0.1114252210
1959.6682910156	0.1113155186
1961.5970983886	0.1112245396
1963.5259057617	0.1112586260
1965.4547131347	0.1105972081
1967.3835205078	0.1095169783
1969.3123278808	0.1101455241
1971.2411352539	0.1105291769
1973.1699426269	0.1098551750
1975.0987499999	0.1099470556
1977.0275573730	0.1094439626
1978.9563647460	0.1093704998
1980.8851721191	0.1090407595
1982.8139794921	0.1086611897
1984.7427868652	0.1089182273
1986.6715942382	0.1081611961
1988.6004016113	0.1080161333
1990.5292089843	0.1072141528
1992.4580163574	0.1062392145
1994.3868237304	0.1071853936
1996.3156311035	0.1070755646
1998.2444384765	0.1064301580
2000.1732458496	0.1065555587
2002.1020532226	0.1060510129
2004.0308605956	0.1057865694
2005.9596679687	0.1055126414
2007.8884753417	0.1050477922
2009.8172827148	0.1050029024
2011.7460900878	0.1045735404
2013.6748974609	0.1043940634
2015.6037048339	0.1038018242
2017.5325122070	0.1030312926
2019.4613195800	0.1033233851
2021.3901269531	0.1030760705
2023.3189343261	0.1026461422
2025.2477416992	0.1025994122
2027.1765490722	0.1021399498
2029.1053564453	0.1017920747
2031.0341638183	0.1015924662
2032.9629711914	0.1012549698
2034.8917785644	0.1010308042
2036.8205859374	0.1006837785
2038.7493933105	0.1002184227
2040.6782006835	0.0999009609
2042.6070080566	0.0997007564
2044.5358154296	0.0995176286
2046.4646228027	0.0991715863
2048.3934301757	0.0988937467
2050.3222375488	0.0986445621
2052.2510449218	0.0985189080
2054.1798522949	0.0982216001
2056.1086596679	0.0977459103
2058.0374670410	0.0976351649
2059.9662744140	0.0973171517
2061.8950817871	0.0971577540
2063.8238891601	0.0968683064
2065.7526965331	0.0962681323
2067.6815039062	0.0962758660
2069.6103112792	0.0962646753
2071.5391186523	0.0958980769
2073.4679260253	0.0956214592
2075.3967333984	0.0955061167
2077.3255407714	0.0951558724
2079.2543481445	0.0949034989
2081.1831555175	0.0948283970
2083.1119628906	0.0945240110
2085.0407702636	0.0943724513
2086.9695776367	0.0942584723
2088.8983850097	0.0938789845
2090.8271923828	0.0935624540
2092.7559997558	0.0935486108
2094.6848071288	0.0932878703
2096.6136145019	0.0930308849
2098.5424218749	0.0929207578
2100.4712292480	0.0926290303
2102.4000366210	0.0924596190
2104.3288439941	0.0923603773
2106.2576513671	0.0922465175
2108.1864587402	0.0919032097
2110.1152661132	0.0918653682
2112.0440734863	0.0917968601
2113.9728808593	0.0914013833
2115.9016882324	0.0912997872
2117.8304956054	0.0910584480
2119.7593029785	0.0910286233
2121.6881103515	0.0909414068
2123.6169177245	0.0906858444
2125.5457250976	0.0906749666
2127.4745324706	0.0905578732
2129.4033398437	0.0903099179
2131.3321472167	0.0901083648
2133.2609545898	0.0900931805
2135.1897619628	0.0899679214
2137.1185693359	0.0898821950
2139.0473767089	0.0897054374
2140.9761840820	0.0895784199
2142.9049914550	0.0895506293
2144.8337988281	0.0893156677
2146.7626062011	0.0892966390
2148.6914135742	0.0892392695
2150.6202209472	0.0890342072
2152.5490283203	0.0888582468
2154.4778356933	0.0888797268
2156.4066430663	0.0887296349
2158.3354504394	0.0887003988
2160.2642578124	0.0888373852
2162.1930651855	0.0884847045
2164.1218725585	0.0884150267
2166.0506799316	0.0883358866
2167.9794873046	0.0883060247
2169.9082946777	0.0882660672
2171.8371020507	0.0880635381
2173.7659094238	0.0881267712
2175.6947167968	0.0878833979
2177.6235241699	0.0877988189
2179.5523315429	0.0877611041
2181.4811389160	0.0876692086
2183.4099462890	0.0876249671
2185.3387536620	0.0874278247
2187.2675610351	0.0873999894
2189.1963684081	0.0873675793
2191.1251757812	0.0872939974
2193.0539831542	0.0872313827
2194.9827905273	0.0872489959
2196.9115979003	0.0870932341
2198.8404052734	0.0870048553
2200.7692126464	0.0870370269
2202.6980200195	0.0868978277
2204.6268273925	0.0867808461
2206.5556347656	0.0866310820
2208.4844421386	0.0864908546
2210.4132495117	0.0864387602
2212.3420568847	0.0865681395
2214.2708642577	0.0863266587
2216.1996716308	0.0862761140
2218.1284790038	0.0863555223
2220.0572863769	0.0860384032
2221.9860937499	0.0861770883
2223.9149011230	0.0860093087
2225.8437084960	0.0858239830
2227.7725158691	0.0858200938
2229.7013232421	0.0856537521
2231.6301306152	0.0855820328
2233.5589379882	0.0854398757
2235.4877453613	0.0855096728
2237.4165527343	0.0852592736
2239.3453601074	0.0850317553
2241.2741674804	0.0849757344
2243.2029748534	0.0848727226
2245.1317822265	0.0847868025
2247.0605895995	0.0846169218
2248.9893969726	0.0846938044
2250.9182043456	0.0845100880
2252.8470117187	0.0843429789
2254.7758190917	0.0842361525
2256.7046264648	0.0840273052
2258.6334338378	0.0840018541
2260.5622412109	0.0840047374
2262.4910485839	0.0839411765
2264.4198559570	0.0837522149
2266.3486633300	0.0836979747
2268.2774707031	0.0835774541
2270.2062780761	0.0835511833
2272.1350854491	0.0834501237
2274.0638928222	0.0833025128
2275.9927001952	0.0833859369
2277.9215075683	0.0832330436
2279.8503149413	0.0830561295
2281.7791223144	0.0828910172
2283.7079296874	0.0829820782
2285.6367370605	0.0829217359
2287.5655444335	0.0826541111
2289.4943518066	0.0826259553
2291.4231591796	0.0823168904
2293.3519665527	0.0820778608
2295.2807739257	0.0819553733
2297.2095812988	0.0817707926
2299.1383886718	0.0814246759
2301.0671960449	0.0810616463
2302.9960034179	0.0809268802
2304.9248107909	0.0805300251
2306.8536181640	0.0800011307
2308.7824255370	0.0795757025
2310.7112329101	0.0790112391
2312.6400402831	0.0783060044
2314.5688476562	0.0777689666
2316.4976550292	0.0770064518
2318.4264624023	0.0760638118
2320.3552697753	0.0753008649
2322.2840771484	0.0744030327
2324.2128845214	0.0737076551
2326.1416918945	0.0730674788
2328.0704992675	0.0722697079
2329.9993066406	0.0715712011
2331.9281140136	0.0711652488
2333.8569213866	0.0709758103
2335.7857287597	0.0706260651
2337.7145361327	0.0705125928
2339.6433435058	0.0705118179
2341.5721508788	0.0707212240
2343.5009582519	0.0715022236
2345.4297656249	0.0726871938
2347.3585729980	0.0752344579
2349.2873803710	0.0769647285
2351.2161877441	0.0748564303
2353.1449951171	0.0717255101
2355.0738024902	0.0695443451
2357.0026098632	0.0677109212
2358.9314172363	0.0665833354
2360.8602246093	0.0659299642
2362.7890319823	0.0657755584
2364.7178393554	0.0660415441
2366.6466467284	0.0667347014
2368.5754541015	0.0679061934
2370.5042614745	0.0692159832
2372.4330688476	0.0706984401
2374.3618762206	0.0723004788
2376.2906835937	0.0739199668
2378.2194909667	0.0751135796
2380.1482983398	0.0761387125
2382.0771057128	0.0770063251
2384.0059130859	0.0773964077
2385.9347204589	0.0775582716
2387.8635278320	0.0775205716
2389.7923352050	0.0775834471
2391.7211425780	0.0774353892
2393.6499499511	0.0773384199
2395.5787573241	0.0773575082
2397.5075646972	0.0770234466
2399.4363720702	0.0769633949
2401.3651794433	0.0769532919
2403.2939868163	0.0767314807
2405.2227941894	0.0766085237
2407.1516015624	0.0765837654
2409.0804089355	0.0764930099
2411.0092163085	0.0763330460
2412.9380236816	0.0762174353
2414.8668310546	0.0761050209
2416.7956384277	0.0759803057
2418.7244458007	0.0758612454
2420.6532531738	0.0757831186
2422.5820605468	0.0756288618
2424.5108679198	0.0755910575
2426.4396752929	0.0755025595
2428.3684826659	0.0752998739
2430.2972900390	0.0752332807
2432.2260974120	0.0751181170
2434.1549047851	0.0750764757
2436.0837121581	0.0749541149
2438.0125195312	0.0747684464
2439.9413269042	0.0746933743
2441.8701342773	0.0746274218
2443.7989416503	0.0745541230
2445.7277490234	0.0743795931
2447.6565563964	0.0741864219
2449.5853637695	0.0742182434
2451.5141711425	0.0741091669
2453.4429785155	0.0737791657
2455.3717858886	0.0738760233
2457.3005932616	0.0737272799
2459.2294006347	0.0735224262
2461.1582080077	0.0734692514
2463.0870153808	0.0731779188
2465.0158227538	0.0733206496
2466.9446301269	0.0731922761
2468.8734374999	0.0730612502
2470.8022448730	0.0730654299
2472.7310522460	0.0728028864
2474.6598596191	0.0727882236
2476.5886669921	0.0726259500
2478.5174743652	0.0724618435
2480.4462817382	0.0722823218
2482.3750891112	0.0722534806
2484.3038964843	0.0722778440
2486.2327038573	0.0720435977
2488.1615112304	0.0718861669
2490.0903186034	0.0717539042
2492.0191259765	0.0716469586
2493.9479333495	0.0714763999
2495.8767407226	0.0715902001
2497.8055480956	0.0715608746
2499.7343554687	0.0712663680
2501.6631628417	0.0712065995
2503.5919702148	0.0710914060
2505.5207775878	0.0709925145
2507.4495849609	0.0708815381
2509.3783923339	0.0707930401
2511.3071997069	0.0706001222
2513.2360070800	0.0704939067
2515.1648144530	0.0704115704
2517.0936218261	0.0702098012
2519.0224291991	0.0702198148
2520.9512365722	0.0701130927
2522.8800439452	0.0700074807
2524.8088513183	0.0698714480
2526.7376586913	0.0697466433
2528.6664660644	0.0697057694
2530.5952734374	0.0695788562
2532.5240808105	0.0694145560
2534.4528881835	0.0692579448
2536.3816955566	0.0693221539
2538.3105029296	0.0692360252
2540.2393103027	0.0689961314
2542.1681176757	0.0688553378
2544.0969250487	0.0687699169
2546.0257324218	0.0686937571
2547.9545397948	0.0685817897
2549.8833471679	0.0684412867
2551.8121545409	0.0683406964
2553.7409619140	0.0682793856
2555.6697692870	0.0681016222
2557.5985766601	0.0680291057
2559.5273840331	0.0678626001
2561.4561914062	0.0677074045
2563.3849987792	0.0675152615
2565.3138061523	0.0673674941
2567.2426135253	0.0674428642
2569.1714208984	0.0672120899
2571.1002282714	0.0672064722
2573.0290356444	0.0670766532
2574.9578430175	0.0669340119
2576.8866503905	0.0669749379
2578.8154577636	0.0667214319
2580.7442651366	0.0666462332
2582.6730725097	0.0664599836
2584.6018798827	0.0663899332
2586.5306872558	0.0662553310
2588.4594946288	0.0660425127
2590.3883020019	0.0658105463
2592.3171093749	0.0656868368
2594.2459167480	0.0659944490
2596.1747241210	0.0656269640
2598.1035314941	0.0653955489
2600.0323388671	0.0654390454
2601.9611462401	0.0652005523
2603.8899536132	0.0652000681
2605.8187609862	0.0650554448
2607.7475683593	0.0648519397
2609.6763757323	0.0647472590
2611.6051831054	0.0647155195
2613.5339904784	0.0645235181
2615.4627978515	0.0644444823
2617.3916052245	0.0644023567
2619.3204125976	0.0641470104
2621.2492199706	0.0640932322
2623.1780273437	0.0639622509
2625.1068347167	0.0637888834
2627.0356420898	0.0636676699
2628.9644494628	0.0636061579
2630.8932568358	0.0634585544
2632.8220642089	0.0632985830
2634.7508715819	0.0631829128
2636.6796789550	0.0630045980
2638.6084863280	0.0629550964
2640.5372937011	0.0627298504
2642.4661010741	0.0626737624
2644.3949084472	0.0626588762
2646.3237158202	0.0623921789
2648.2525231933	0.0622674748
2650.1813305663	0.0622121170
2652.1101379394	0.0620823354
2654.0389453124	0.0618819147
2655.9677526855	0.0618010461
2657.8965600585	0.0616604537
2659.8253674315	0.0615284741
2661.7541748046	0.0614067018
2663.6829821776	0.0612549186
2665.6117895507	0.0611492246
2667.5405969237	0.0609832034
2669.4694042968	0.0610020310
2671.3982116698	0.0608973652
2673.3270190429	0.0606234297
2675.2558264159	0.0605324320
2677.1846337890	0.0604531989
2679.1134411620	0.0601858348
2681.0422485351	0.0601303875
2682.9710559081	0.0601272844
2684.8998632812	0.0598666072
2686.8286706542	0.0598086044
2688.7574780273	0.0595811531
2690.6862854003	0.0593560711
2692.6150927733	0.0593397468
2694.5439001464	0.0592510514
2696.4727075194	0.0591212362
2698.4015148925	0.0589343980
2700.3303222655	0.0588330589
2702.2591296386	0.0586154908
2704.1879370116	0.0585336387
2706.1167443847	0.0584179759
2708.0455517577	0.0582107343
2709.9743591308	0.0581039488
2711.9031665038	0.0579251833
2713.8319738769	0.0578725934
2715.7607812499	0.0577154718
2717.6895886230	0.0576452985
2719.6183959960	0.0575195178
2721.5472033690	0.0572387464
2723.4760107421	0.0571378283
2725.4048181151	0.0571057796
2727.3336254882	0.0569332056
2729.2624328612	0.0566230863
2731.1912402343	0.0565800220
2733.1200476073	0.0564512424
2735.0488549804	0.0563358963
2736.9776623534	0.0562444925
2738.9064697265	0.0559953898
2740.8352770995	0.0559126921
2742.7640844726	0.0557652935
2744.6928918456	0.0555764064
2746.6216992187	0.0553613752
2748.5505065917	0.0553388260
2750.4793139647	0.0552114472
2752.4081213378	0.0549509153
2754.3369287108	0.0548888370
2756.2657360839	0.0547032915
2758.1945434569	0.0545795783
2760.1233508300	0.0544131324
2762.0521582030	0.0542657785
2763.9809655761	0.0540424958
2765.9097729491	0.0538505390
2767.8385803222	0.0538359359
2769.7673876952	0.0535683520
2771.6961950683	0.0534550361
2773.6250024413	0.0533873960
2775.5538098144	0.0530687198
2777.4826171874	0.0529062301
2779.4114245604	0.0529817864
2781.3402319335	0.0527761877
2783.2690393065	0.0524710119
2785.1978466796	0.0524176285
2787.1266540526	0.0522179827
2789.0554614257	0.0520056710
2790.9842687987	0.0518294238
2792.9130761718	0.0516700484
2794.8418835448	0.0515800565
2796.7706909179	0.0514521524
2798.6994982909	0.0512305722
2800.6283056640	0.0510438383
2802.5571130370	0.0508985445
2804.4859204101	0.0507054217
2806.4147277831	0.0505524650
2808.3435351562	0.0502411686
2810.2723425292	0.0501510650
2812.2011499022	0.0500080064
2814.1299572753	0.0497544035
2816.0587646483	0.0497278534
2817.9875720214	0.0494248644
2819.9163793944	0.0492559820
2821.8451867675	0.0490939319
2823.7739941405	0.0489424430
2825.7028015136	0.0488010272
2827.6316088866	0.0484921932
2829.5604162597	0.0484378263
2831.4892236327	0.0481758788
2833.4180310058	0.0479631200
2835.3468383788	0.0478872024
2837.2756457519	0.0476100780
2839.2044531249	0.0474102460
2841.1332604979	0.0471448004
2843.0620678710	0.0466979891
2844.9908752440	0.0464022383
2846.9196826171	0.0461439639
2848.8484899901	0.0456216857
2850.7772973632	0.0453085005
2852.7061047362	0.0452053323
2854.6349121093	0.0451956093
2856.5637194823	0.0450545438
2858.4925268554	0.0448629111
2860.4213342284	0.0449412242
2862.3501416015	0.0446950048
2864.2789489745	0.0445297174
2866.2077563476	0.0444300398
2868.1365637206	0.0441195220
2870.0653710936	0.0440594442
2871.9941784667	0.0439181104
2873.9229858397	0.0436747372
2875.8517932128	0.0435646474
2877.7806005858	0.0433873869
2879.7094079589	0.0430858061
2881.6382153319	0.0430274755
2883.5670227050	0.0429089256
2885.4958300780	0.0425707623
2887.4246374511	0.0424129665
2889.3534448241	0.0422392786
2891.2822521972	0.0420953929
2893.2110595702	0.0418453217
2895.1398669433	0.0415832475
2897.0686743163	0.0414537266
2898.9974816893	0.0411503240
2900.9262890624	0.0409300923
2902.8550964354	0.0407016650
2904.7839038085	0.0404501185
2906.7127111815	0.0403180495
2908.6415185546	0.0399722606
2910.5703259276	0.0396037325
2912.4991333007	0.0392927229
2914.4279406737	0.0389203653
2916.3567480468	0.0386074334
2918.2855554198	0.0383204967
2920.2143627929	0.0381810889
2922.1431701659	0.0379860178
2924.0719775390	0.0377547070
2926.0007849120	0.0376626998
2927.9295922851	0.0375337079
2929.8583996581	0.0374344066
2931.7872070311	0.0372347124
2933.7160144042	0.0371622890
2935.6448217772	0.0371016935
2937.5736291503	0.0368911102
2939.5024365233	0.0367663205
2941.4312438964	0.0366465673
2943.3600512694	0.0366588198
2945.2888586425	0.0364172012
2947.2176660155	0.0362142548
2949.1464733886	0.0360732824
2951.0752807616	0.0357090309
2953.0040881347	0.0356111079
2954.9328955077	0.0352908075
2956.8617028808	0.0350516327
2958.7905102538	0.0349792019
2960.7193176268	0.0346356332
2962.6481249999	0.0344877206
2964.5769323729	0.0342787206
2966.5057397460	0.0340492614
2968.4345471190	0.0340428129
2970.3633544921	0.0338873453
2972.2921618651	0.0337641612
2974.2209692382	0.0337703750
2976.1497766112	0.0335676447
2978.0785839843	0.0333153345
2980.0073913573	0.0331043974
2981.9361987304	0.0330347680
2983.8650061034	0.0329323113
2985.7938134765	0.0326632485
2987.7226208495	0.0325695723
2989.6514282225	0.0323341489
2991.5802355956	0.0321051627
2993.5090429686	0.0319079161
2995.4378503417	0.0316837244
2997.3666577147	0.0315873064
2999.2954650878	0.0313880220
3001.2242724608	0.0311984234
3003.1530798339	0.0308217667
3005.0818872069	0.0305768941
3007.0106945800	0.0304933228
3008.9395019530	0.0302799717
3010.8683093261	0.0300019346
3012.7971166991	0.0297480263
3014.7259240722	0.0297041200
3016.6547314452	0.0294200666
3018.5835388182	0.0291944034
3020.5123461913	0.0290025007
3022.4411535643	0.0287756473
3024.3699609374	0.0286546163
3026.2987683104	0.0283045191
3028.2275756835	0.0281628743
3030.1563830565	0.0279088337
3032.0851904296	0.0275822338
3034.0139978026	0.0274429657
3035.9428051757	0.0272644628
3037.8716125487	0.0271182824
3039.8004199218	0.0268382616
3041.7292272948	0.0265971944
3043.6580346679	0.0264176633
3045.5868420409	0.0262767747
3047.5156494139	0.0260108672
3049.4444567870	0.0257001631
3051.3732641600	0.0256513674
3053.3020715331	0.0254758783
3055.2308789061	0.0251267105
3057.1596862792	0.0249370374
3059.0884936522	0.0248441957
3061.0173010253	0.0246469751
3062.9461083983	0.0243477561
3064.8749157714	0.0240814053
3066.8037231444	0.0240640976
3068.7325305175	0.0239227042
3070.6613378905	0.0236099511
3072.5901452636	0.0234623365
3074.5189526366	0.0233105402
3076.4477600097	0.0230471939
3078.3765673827	0.0227315649
3080.3053747557	0.0226944797
3082.2341821288	0.0224777944
3084.1629895018	0.0222737826
3086.0917968749	0.0222957283
3088.0206042479	0.0220222846
3089.9494116210	0.0219210666
3091.8782189940	0.0216910969
3093.8070263671	0.0214456301
3095.7358337401	0.0212702472
3097.6646411132	0.0210099109
3099.5934484862	0.0209685341
3101.5222558593	0.0207882673
3103.4510632323	0.0206410941
3105.3798706054	0.0204391908
3107.3086779784	0.0201710649
3109.2374853514	0.0200073123
3111.1662927245	0.0198662952
3113.0951000975	0.0196443051
3115.0239074706	0.0194446351
3116.9527148436	0.0193986148
3118.8815222167	0.0192070082
3120.8103295897	0.0190657526
3122.7391369628	0.0188148785
3124.6679443358	0.0187196769
3126.5967517089	0.0187161751
3128.5255590819	0.0184542704
3130.4543664550	0.0183132961
3132.3831738280	0.0181069113
3134.3119812011	0.0180948712
3136.2407885741	0.0179647915
3138.1695959471	0.0176719241
3140.0984033202	0.0175913312
3142.0272106932	0.0174137689
3143.9560180663	0.0172539130
3145.8848254393	0.0171642452
3147.8136328124	0.0171341859
3149.7424401854	0.0169959627
3151.6712475585	0.0168212987
3153.6000549315	0.0167066883
3155.5288623046	0.0166212395
3157.4576696776	0.0164206587
3159.3864770507	0.0162942652
3161.3152844237	0.0162575766
3163.2440917968	0.0159259178
3165.1728991698	0.0159491673
3167.1017065428	0.0159754381
3169.0305139159	0.0157882832
3170.9593212889	0.0157139935
3172.8881286620	0.0156299882
3174.8169360350	0.0156239532
3176.7457434081	0.0153461900
3178.6745507811	0.0152697489
3180.6033581542	0.0153544936
3182.5321655272	0.0151584093
3184.4609729003	0.0149816554
3186.3897802733	0.0150293717
3188.3185876464	0.0150202718
3190.2473950194	0.0147673916
3192.1762023925	0.0148017276
3194.1050097655	0.0148299206
3196.0338171386	0.0146906953
3197.9626245116	0.0145789534
3199.8914318846	0.0145980157
3201.8202392577	0.0146335810
3203.7490466307	0.0144639108
3205.6778540038	0.0144296251
3207.6066613768	0.0144205587
3209.5354687499	0.0143601373
3211.4642761229	0.0142293591
3213.3930834960	0.0142673338
3215.3218908690	0.0142695401
3217.2506982421	0.0141366059
3219.1795056151	0.0142314695
3221.1083129882	0.0141684078
3223.0371203612	0.0142116752
3224.9659277343	0.0141854845
3226.8947351073	0.0140504576
3228.8235424803	0.0141450353
3230.7523498534	0.0141580980
3232.6811572264	0.0141392602
3234.6099645995	0.0141084511
3236.5387719725	0.0140732564
3238.4675793456	0.0140654696
3240.3963867186	0.0140931066
3242.3251940917	0.0140948901
3244.2540014647	0.0141838081
3246.1828088378	0.0140809761
3248.1116162108	0.0139569752
3250.0404235839	0.0140432781
3251.9692309569	0.0139427800
3253.8980383300	0.0140709449
3255.8268457030	0.0140253827
3257.7556530760	0.0139408251
3259.6844604491	0.0140880141
3261.6132678221	0.0140263774
3263.5420751952	0.0140352938
3265.4708825682	0.0140743498
3267.3996899413	0.0141533269
3269.3284973143	0.0140956603
3271.2573046874	0.0141360909
3273.1861120604	0.0141808623
3275.1149194335	0.0141045153
3277.0437268065	0.0141571769
3278.9725341796	0.0141787520
3280.9013415526	0.0142538119
3282.8301489257	0.0141232032
3284.7589562987	0.0141848046
3286.6877636717	0.0142109469
3288.6165710448	0.0141343204
3290.5453784178	0.0142286457
3292.4741857909	0.0141245117
3294.4029931639	0.0142416731
3296.3318005370	0.0142377708
3298.2606079100	0.0142318252
3300.1894152831	0.0143289808
3302.1182226561	0.0142929256
3304.0470300292	0.0142018348
3305.9758374022	0.0140961949
3307.9046447753	0.0142630357
3309.8334521483	0.0142605659
3311.7622595214	0.0143002756
3313.6910668944	0.0143440664
3315.6198742675	0.0142425885
3317.5486816405	0.0142061636
3319.4774890135	0.0142090106
3321.4062963866	0.0143128773
3323.3351037596	0.0142700262
3325.2639111327	0.0143342409
3327.1927185057	0.0143621117
3329.1215258788	0.0143928491
3331.0503332518	0.0143676605
3332.9791406249	0.0143262371
3334.9079479979	0.0144556742
3336.8367553710	0.0143553661
3338.7655627440	0.0144547103
3340.6943701171	0.0144567713
3342.6231774901	0.0144411726
3344.5519848632	0.0144990636
3346.4807922362	0.0143885091
3348.4095996092	0.0145091880
3350.3384069823	0.0144465268
3352.2672143553	0.0144265797
3354.1960217284	0.0144941732
3356.1248291014	0.0145360958
3358.0536364745	0.0145846084
3359.9824438475	0.0145447049
3361.9112512206	0.0146546569
3363.8400585936	0.0146079306
3365.7688659667	0.0146379825
3367.6976733397	0.0146631077
3369.6264807128	0.0145679414
3371.5552880858	0.0147347189
3373.4840954589	0.0147783561
3375.4129028319	0.0147380596
3377.3417102049	0.0148158055
3379.2705175780	0.0148623195
3381.1993249510	0.0149207227
3383.1281323241	0.0149838496
3385.0569396971	0.0149413422
3386.9857470702	0.0149166323
3388.9145544432	0.0151149593
3390.8433618163	0.0151480641
3392.7721691893	0.0150684100
3394.7009765624	0.0152156483
3396.6297839354	0.0151916109
3398.5585913085	0.0152739957
3400.4873986815	0.0153852608
3402.4162060546	0.0152995605
3404.3450134276	0.0154704805
3406.2738208006	0.0155443214
3408.2026281737	0.0155807454
3410.1314355467	0.0156406574
3412.0602429198	0.0156908259
3413.9890502928	0.0157670174
3415.9178576659	0.0157663859
3417.8466650389	0.0158784688
3419.7754724120	0.0158668272
3421.7042797850	0.0160461608
3423.6330871581	0.0162078757
3425.5618945311	0.0161539167
3427.4907019042	0.0161553398
3429.4195092772	0.0161620751
3431.3483166503	0.0163546614
3433.2771240233	0.0163752809
3435.2059313963	0.0164766237
3437.1347387694	0.0165605396
3439.0635461424	0.0165932775
3440.9923535155	0.0168175530
3442.9211608885	0.0168193039
3444.8499682616	0.0168549828
3446.7787756346	0.0168176815
3448.7075830077	0.0169087574
3450.6363903807	0.0171042513
3452.5651977538	0.0171768460
3454.4940051268	0.0173321627
3456.4228124999	0.0173551813
3458.3516198729	0.0174507909
3460.2804272460	0.0175392218
3462.2092346190	0.0176038519
3464.1380419921	0.0177596770
3466.0668493651	0.0177218746
3467.9956567381	0.0177004524
3469.9244641112	0.0179398600
3471.8532714842	0.0179955699
3473.7820788573	0.0179748945
3475.7108862303	0.0181690864
3477.6396936034	0.0182699375
3479.5685009764	0.0183143858
3481.4973083495	0.0182717796
3483.4261157225	0.0184064060
3485.3549230956	0.0185283311
3487.2837304686	0.0185081940
3489.2125378417	0.0186045170
3491.1413452147	0.0187426563
3493.0701525878	0.0190391522
3494.9989599608	0.0189634450
3496.9277673338	0.0189525392
3498.8565747069	0.0192263424
3500.7853820799	0.0192731358
3502.7141894530	0.0191881750
3504.6429968260	0.0193037223
3506.5718041991	0.0197126716
3508.5006115721	0.0195824411
3510.4294189452	0.0195692740
3512.3582263182	0.0198197663
3514.2870336913	0.0199472792
3516.2158410643	0.0201296713
3518.1446484374	0.0200157538
3520.0734558104	0.0202085935
3522.0022631835	0.0202814117
3523.9310705565	0.0200948790
3525.8598779295	0.0202302635
3527.7886853026	0.0203608721
3529.7174926756	0.0204315856
3531.6463000487	0.0206971057
3533.5751074217	0.0209805779
3535.5039147948	0.0208708569
3537.4327221678	0.0208895970
3539.3615295409	0.0211562440
3541.2903369139	0.0212787502
3543.2191442870	0.0211934671
3545.1479516600	0.0209919624
3547.0767590331	0.0209929086
3549.0055664061	0.0215481352
3550.9343737792	0.0217206404
3552.8631811522	0.0214538705
3554.7919885252	0.0219075643
3556.7207958983	0.0220411047
3558.6496032713	0.0221134685
3560.5784106444	0.0219967254
3562.5072180174	0.0219235513
3564.4360253905	0.0223149043
3566.3648327635	0.0211908966
3568.2936401366	0.0209704600
3570.2224475096	0.0223142169
3572.1512548827	0.0227464791
3574.0800622557	0.0227197707
3576.0088696288	0.0228196029
3577.9376770018	0.0229805969
3579.8664843749	0.0230158623
3581.7952917479	0.0231136270
3583.7240991210	0.0233167037
3585.6529064940	0.0229735151
3587.5817138670	0.0216888729
3589.5105212401	0.0221234821
3591.4393286131	0.0236754566
3593.3681359862	0.0234045163
3595.2969433592	0.0231800191
3597.2257507323	0.0235287584
3599.1545581053	0.0237822141
3601.0833654784	0.0237185173
3603.0121728514	0.0239288863
3604.9409802245	0.0243459772
3606.8697875975	0.0237488896
3608.7985949706	0.0228084046
3610.7274023436	0.0233100727
3612.6562097167	0.0238600485
3614.5850170897	0.0234323144
3616.5138244627	0.0246688109
3618.4426318358	0.0233800448
3620.3714392088	0.0229441226
3622.3002465819	0.0251861066
3624.2290539549	0.0247004740
3626.1578613280	0.0257464610
3628.0866687010	0.0227553472
3630.0154760741	0.0212883875
3631.9442834471	0.0254706629
3633.8730908202	0.0249821022
3635.8018981932	0.0254261009
3637.7307055663	0.0259003825
3639.6595129393	0.0257450119
3641.5883203124	0.0260872357
3643.5171276854	0.0258052908
3645.4459350584	0.0263040215
3647.3747424315	0.0244114492
3649.3035498045	0.0229639523
3651.2323571776	0.0233265720
3653.1611645506	0.0265082456
3655.0899719237	0.0263389144
3657.0187792967	0.0244651679
3658.9475866698	0.0274033397
3660.8763940428	0.0269865748
3662.8052014159	0.0273287613
3664.7340087889	0.0274757612
3666.6628161620	0.0274376422
3668.5916235350	0.0268812906
3670.5204309081	0.0231651347
3672.4492382811	0.0268966351
3674.3780456541	0.0260819793
3676.3068530272	0.0228459202
3678.2356604002	0.0272297189
3680.1644677733	0.0277087949
3682.0932751463	0.0278064832
3684.0220825194	0.0286266021
3685.9508898924	0.0282759462
3687.8796972655	0.0260865428
3689.8085046385	0.0246058516
3691.7373120116	0.0274020396
3693.6661193846	0.0279299412
3695.5949267577	0.0283476487
3697.5237341307	0.0284750797
3699.4525415038	0.0282919146
3701.3813488768	0.0278614778
3703.3101562499	0.0270444881
3705.2389636229	0.0290392693
3707.1677709959	0.0279910415
3709.0965783690	0.0275225304
3711.0253857420	0.0263301171
3712.9541931151	0.0250743870
3714.8830004881	0.0283267312
3716.8118078612	0.0279657543
3718.7406152342	0.0281598419
3720.6694226073	0.0277177077
3722.5982299803	0.0269893855
3724.5270373534	0.0277565457
3726.4558447264	0.0261681024
3728.3846520995	0.0277656354
3730.3134594725	0.0274588577
3732.2422668456	0.0259022824
3734.1710742186	0.0253852736
3736.0998815916	0.0244882163
3738.0286889647	0.0255218204
3739.9574963377	0.0270188265
3741.8863037108	0.0281218253
3743.8151110838	0.0229089595
3745.7439184569	0.0221044812
3747.6727258299	0.0269771665
3749.6015332030	0.0238674451
3751.5303405760	0.0225566775
3753.4591479491	0.0248963032
3755.3879553221	0.0264968835
3757.3167626952	0.0272380412
3759.2455700682	0.0255845785
3761.1743774413	0.0263969824
3763.1031848143	0.0274898093
3765.0319921873	0.0261288453
3766.9607995604	0.0265460648
3768.8896069334	0.0262190569
3770.8184143065	0.0252817683
3772.7472216795	0.0268864240
3774.6760290526	0.0268837139
3776.6048364256	0.0268045142
3778.5336437987	0.0262470804
3780.4624511717	0.0254256800
3782.3912585448	0.0267433114
3784.3200659178	0.0262911543
3786.2488732909	0.0261678956
3788.1776806639	0.0264851172
3790.1064880370	0.0262819566
3792.0352954100	0.0262065977
3793.9641027830	0.0265244916
3795.8929101561	0.0253351070
3797.8217175291	0.0251499638
3799.7505249022	0.0260105021
3801.6793322752	0.0217379183
3803.6081396483	0.0245537832
3805.5369470213	0.0260507949
3807.4657543944	0.0223768502
3809.3945617674	0.0258524790
3811.3233691405	0.0253257956
3813.2521765135	0.0260700062
3815.1809838866	0.0239126254
3817.1097912596	0.0217220783
3819.0385986327	0.0261075012
3820.9674060057	0.0221511405
3822.8962133787	0.0229560714
3824.8250207518	0.0258135591
3826.7538281248	0.0238352418
3828.6826354979	0.0252260715
3830.6114428709	0.0246097986
3832.5402502440	0.0238473155
3834.4690576170	0.0242150351
3836.3978649901	0.0233387463
3838.3266723631	0.0214672238
3840.2554797362	0.0228521526
3842.1842871092	0.0241963249
3844.1130944823	0.0232880618
3846.0419018553	0.0247531608
3847.9707092284	0.0244591907
3849.8995166014	0.0244599432
3851.8283239745	0.0224594958
3853.7571313475	0.0180248804
3855.6859387205	0.0204851385
3857.6147460936	0.0244480185
3859.5435534666	0.0237420909
3861.4723608397	0.0235944521
3863.4011682127	0.0231919065
3865.3299755858	0.0218531750
3867.2587829588	0.0238749757
3869.1875903319	0.0222527888
3871.1163977049	0.0209839903
3873.0452050780	0.0238697976
3874.9740124510	0.0223759674
3876.9028198241	0.0235899016
3878.8316271971	0.0239397008
3880.7604345702	0.0212929901
3882.6892419432	0.0235616639
3884.6180493162	0.0224045627
3886.5468566893	0.0210018046
3888.4756640623	0.0236318596
3890.4044714354	0.0225961730
3892.3332788084	0.0216234867
3894.2620861815	0.0230673999
3896.1908935545	0.0232701711
3898.1197009276	0.0224887505
3900.0485083006	0.0214247871
3901.9773156737	0.0212875977
3903.9061230467	0.0211828202
3905.8349304198	0.0214435086
3907.7637377928	0.0228958838
3909.6925451659	0.0227632076
3911.6213525389	0.0226149447
3913.5501599119	0.0229005907
3915.4789672850	0.0222199783
3917.4077746580	0.0217893794
3919.3365820311	0.0217378363
3921.2653894041	0.0222111028
3923.1941967772	0.0221788250
3925.1230041502	0.0217626933
3927.0518115233	0.0219028257
3928.9806188963	0.0221418943
3930.9094262694	0.0218209513
3932.8382336424	0.0213172603
3934.7670410155	0.0218587928
3936.6958483885	0.0219952352
3938.6246557616	0.0218265429
3940.5534631346	0.0219872575
3942.4822705076	0.0213863496
3944.4110778807	0.0214307457
3946.3398852537	0.0217314251
3948.2686926268	0.0213034544
3950.1974999998	0.0213547945
3952.1263073729	0.0214757081
3954.0551147459	0.0214877501
3955.9839221190	0.0214714520
3957.9127294920	0.0213543810
3959.8415368651	0.0214669593
3961.7703442381	0.0211639293
3963.6991516112	0.0211086366
3965.6279589842	0.0212694742
3967.5567663573	0.0210703295
3969.4855737303	0.0211186036
3971.4143811034	0.0210405402
3973.3431884764	0.0209513847
3975.2719958494	0.0208487138
3977.2008032225	0.0208772514
3979.1296105955	0.0209735706
3981.0584179686	0.0208220966
3982.9872253416	0.0207564011
3984.9160327147	0.0206335112
3986.8448400877	0.0207519047
3988.7736474608	0.0206411295
3990.7024548338	0.0204348359
3992.6312622069	0.0204971768
3994.5600695799	0.0203803815
3996.4888769530	0.0203740317
3998.4176843260	0.0203333087
4000.3464916991	0.0203808397
4002.2752990721	0.0203762706
4004.2041064451	0.0202071182
4006.1329138182	0.0201366320
4008.0617211912	0.0201315805
4009.9905285643	0.0200940967
4011.9193359373	0.0200159997
4013.8481433104	0.0200747065
4015.7769506834	0.0199529789
4017.7057580565	0.0199112725
4019.6345654295	0.0199102908
4021.5633728026	0.0198110975
4023.4921801756	0.0197481420
4025.4209875487	0.0196087547
4027.3497949217	0.0196631625
4029.2786022948	0.0195894297
4031.2074096678	0.0195407178
4033.1362170408	0.0195618868
4035.0650244139	0.0194602795
4036.9938317869	0.0194525681
4038.9226391600	0.0194107834
4040.8514465330	0.0193856899
4042.7802539061	0.0192987267
4044.7090612791	0.0192063134
4046.6378686522	0.0192090981
4048.5666760252	0.0192238688
4050.4954833983	0.0190810133
4052.4242907713	0.0190449022
4054.3530981444	0.0191264339
4056.2819055174	0.0189882964
4058.2107128905	0.0190144051
4060.1395202635	0.0189731345
4062.0683276365	0.0188745633
4063.9971350096	0.0188923441
4065.9259423826	0.0188209340
4067.8547497557	0.0187863559
4069.7835571287	0.0186471213
4071.7123645018	0.0185507722
4073.6411718748	0.0185917374
4075.5699792479	0.0186014939
4077.4987866209	0.0184858777
4079.4275939940	0.0183934532
4081.3564013670	0.0184759721
4083.2852087401	0.0184261762
4085.2140161131	0.0182617828
4087.1428234862	0.0182627477
4089.0716308592	0.0183160398
4091.0004382323	0.0181940272
4092.9292456053	0.0181244984
4094.8580529783	0.0181453861
4096.7868603514	0.0179965571
4098.7156677244	0.0179898739
4100.6444750975	0.0181339849
4102.5732824705	0.0179425534
4104.5020898436	0.0177544281
4106.4308972166	0.0178118758
4108.3597045897	0.0178089812
4110.2885119627	0.0177995898
4112.2173193358	0.0176842287
4114.1461267088	0.0175999198
4116.0749340819	0.0176351313
4118.0037414549	0.0175699629
4119.9325488280	0.0175250433
4121.8613562010	0.0174965747
4123.7901635740	0.0174314156
4125.7189709471	0.0174129251
4127.6477783201	0.0174302217
4129.5765856932	0.0173478313
4131.5053930662	0.0173251461
4133.4342004393	0.0172454678
4135.3630078123	0.0171038564
4137.2918151854	0.0171512403
4139.2206225584	0.0171021670
4141.1494299315	0.0170780607
4143.0782373045	0.0170370899
4145.0070446776	0.0169771388
4146.9358520506	0.0169950575
4148.8646594237	0.0169114918
4150.7934667967	0.0168379284
4152.7222741697	0.0167735666
4154.6510815428	0.0167609565
4156.5798889158	0.0167153701
4158.5086962889	0.0166963749
4160.4375036619	0.0166668370
4162.3663110350	0.0166123603
4164.2951184080	0.0165924486
4166.2239257811	0.0165624544
4168.1527331541	0.0165913850
4170.0815405272	0.0164400972
4172.0103479002	0.0163449422
4173.9391552733	0.0163117833
4175.8679626463	0.0163579695
4177.7967700194	0.0163569339
4179.7255773924	0.0161610935
4181.6543847654	0.0162404329
4183.5831921385	0.0161995217
4185.5119995115	0.0161706340
4187.4408068846	0.0161692426
4189.3696142576	0.0160269104
4191.2984216307	0.0160298795
4193.2272290037	0.0159479883
4195.1560363768	0.0158797428
4197.0848437498	0.0158357061
4199.0136511229	0.0158328190
4200.9424584959	0.0157772005
4202.8712658690	0.0157480910
4204.8000732420	0.0157656074
4206.7288806151	0.0156712607
4208.6576879881	0.0157143380
4210.5864953611	0.0156960320
4212.5153027342	0.0155919669
4214.4441101072	0.0155408531
4216.3729174803	0.0154755674
4218.3017248533	0.0153734563
4220.2305322264	0.0154256923
4222.1593395994	0.0154653005
4224.0881469725	0.0153540224
4226.0169543455	0.0152780050
4227.9457617186	0.0151824411
4229.8745690916	0.0152630582
4231.8033764647	0.0151879471
4233.7321838377	0.0151509866
4235.6609912108	0.0151920337
4237.5897985838	0.0149927028
4239.5186059569	0.0150019620
4241.4474133299	0.0149863381
4243.3762207029	0.0149742737
4245.3050280760	0.0149411410
4247.2338354490	0.0148976101
4249.1626428221	0.0148783457
4251.0914501951	0.0147990678
4253.0202575682	0.0148229059
4254.9490649412	0.0147042722
4256.8778723143	0.0146834534
4258.8066796873	0.0147260632
4260.7354870604	0.0147406422
4262.6642944334	0.0146792866
4264.5931018065	0.0146066733
4266.5219091795	0.0146264341
4268.4507165526	0.0144857969
4270.3795239256	0.0144587932
4272.3083312986	0.0144336093
4274.2371386717	0.0144201592
4276.1659460447	0.0143899182
4278.0947534178	0.0143690147
4280.0235607908	0.0143903270
4281.9523681639	0.0143043716
4283.8811755369	0.0143548716
4285.8099829100	0.0142637696
4287.7387902830	0.0141693391
4289.6675976561	0.0141151994
4291.5964050291	0.0140719321
4293.5252124022	0.0140834395
4295.4540197752	0.0140173417
4297.3828271483	0.0140222162
4299.3116345213	0.0140152555
4301.2404418943	0.0140345478
4303.1692492674	0.0138738174
4305.0980566404	0.0138451029
4307.0268640135	0.0138612008
4308.9556713865	0.0137262931
4310.8844787596	0.0137887690
4312.8132861326	0.0136997495
4314.7420935057	0.0136349332
4316.6709008787	0.0136050265
4318.5997082518	0.0136569645
4320.5285156248	0.0136687979
4322.4573229979	0.0135075767
4324.3861303709	0.0135594048
4326.3149377440	0.0135099608
4328.2437451170	0.0134037118
4330.1725524900	0.0134021454
4332.1013598631	0.0133817466
4334.0301672361	0.0133078936
4335.9589746092	0.0133231413
4337.8877819822	0.0133209620
4339.8165893553	0.0132860150
4341.7453967283	0.0132817477
4343.6742041014	0.0131335864
4345.6030114744	0.0131362509
4347.5318188475	0.0130639998
4349.4606262205	0.0130441030
4351.3894335936	0.0130865201
4353.3182409666	0.0129819252
4355.2470483397	0.0129809966
4357.1758557127	0.0129129160
4359.1046630858	0.0129739735
4361.0334704588	0.0129265990
4362.9622778318	0.0128074875
4364.8910852049	0.0127972327
4366.8198925779	0.0126984781
4368.7486999510	0.0126622925
4370.6775073240	0.0126785878
4372.6063146971	0.0126953367
4374.5351220701	0.0126040811
4376.4639294432	0.0126067456
4378.3927368162	0.0125536229
4380.3215441893	0.0125546958
4382.2503515623	0.0125211440
4384.1791589354	0.0123225804
4386.1079663084	0.0124493986
4388.0367736815	0.0124354232
4389.9655810545	0.0123890042
4391.8943884275	0.0123373391
4393.8231958006	0.0122952601
4395.7520031736	0.0123358574
4397.6808105467	0.0121648191
4399.6096179197	0.0122327181
4401.5384252928	0.0122542568
4403.4672326658	0.0121782776
4405.3960400389	0.0121329091
4407.3248474119	0.0121605173
4409.2536547850	0.0121742822
4411.1824621580	0.0120103071
4413.1112695311	0.0120420139
4415.0400769041	0.0119458176
4416.9688842772	0.0119158234
4418.8976916502	0.0119271968
4420.8264990232	0.0118653681
4422.7553063963	0.0119225010
4424.6841137693	0.0117895501
4426.6129211424	0.0118232965
4428.5417285154	0.0118216500
4430.4705358885	0.0116771869
4432.3993432615	0.0116615538
4434.3281506346	0.0116259065
4436.2569580076	0.0116431098
4438.1857653807	0.0116100963
4440.1145727537	0.0115912771
4442.0433801268	0.0115902377
4443.9721874998	0.0114921834
4445.9009948729	0.0114288377
4447.8298022459	0.0114136580
4449.7586096189	0.0114259934
4451.6874169920	0.0114241326
4453.6162243650	0.0113792457
4455.5450317381	0.0113682933
4457.4738391111	0.0113330651
4459.4026464842	0.0112742186
4461.3314538572	0.0112252124
4463.2602612303	0.0111785429
4465.1890686033	0.0112232454
4467.1178759764	0.0111626973
4469.0466833494	0.0110921059
4470.9754907225	0.0111330692
4472.9042980955	0.0110568684
4474.8331054686	0.0109972330
4476.7619128416	0.0109859761
4478.6907202147	0.0109511446
4480.6195275877	0.0109695261
4482.5483349607	0.0109634548
4484.4771423338	0.0108495653
4486.4059497068	0.0108363815
4488.3347570799	0.0108635509
4490.2635644529	0.0108174263
4492.1923718260	0.0108197639
4494.1211791990	0.0107461326
4496.0499865721	0.0107319644
4497.9787939451	0.0107234195
4499.9076013182	0.0106742177
4501.8364086912	0.0106777418
4503.7652160643	0.0106074158
4505.6940234373	0.0105647016
4507.6228308104	0.0105269570
4509.5516381834	0.0105523635
4511.4804455564	0.0105636157
4513.4092529295	0.0105184633
4515.3380603025	0.0104696052
4517.2668676756	0.0103923110
4519.1956750486	0.0103932060
4521.1244824217	0.0103430804
4523.0532897947	0.0103326831
4524.9820971678	0.0103240870
4526.9109045408	0.0103295734
4528.8397119139	0.0103645716
4530.7685192869	0.0102587370
4532.6973266600	0.0102176126
4534.6261340330	0.0102010267
4536.5549414061	0.0101585677
4538.4837487791	0.0101132989
4540.4125561521	0.0101385824
4542.3413635252	0.0101141222
4544.2701708982	0.0099968705
4546.1989782713	0.0100172907
4548.1277856443	0.0099865980
4550.0565930174	0.0099881403
4551.9854003904	0.0099499766
4553.9142077635	0.0099477172
4555.8430151365	0.0100126443
4557.7718225096	0.0098428261
4559.7006298826	0.0098151267
4561.6294372557	0.0097520510
4563.5582446287	0.0096851932
4565.4870520018	0.0098007042
4567.4158593748	0.0097121336
4569.3446667478	0.0096981376
4571.2734741209	0.0097057819
4573.2022814939	0.0096041718
4575.1310888670	0.0096166804
4577.0598962400	0.0096097784
4578.9887036131	0.0095754135
4580.9175109861	0.0095383748
4582.8463183592	0.0094894413
4584.7751257322	0.0095152184
4586.7039331053	0.0095114121
4588.6327404783	0.0094332946
4590.5615478514	0.0094404537
4592.4903552244	0.0094454056
4594.4191625975	0.0094275400
4596.3479699705	0.0094072185
4598.2767773435	0.0092610754
4600.2055847166	0.0091982009
4602.1343920896	0.0092557240
4604.0631994627	0.0092572439
4605.9920068357	0.0092118923
4607.9208142088	0.0092090163
4609.8496215818	0.0092186388
4611.7784289549	0.0091797737
4613.7072363279	0.0091450242
4615.6360437010	0.0090493765
4617.5648510740	0.0090993159
4619.4936584471	0.0091323033
4621.4224658201	0.0089603458
4623.3512731932	0.0090114474
4625.2800805662	0.0089774337
4627.2088879393	0.0088192513
4629.1376953123	0.0088650212
4631.0665026853	0.0089021549
4632.9953100584	0.0089184819
4634.9241174314	0.0088518038
4636.8529248045	0.0087655131
4638.7817321775	0.0088048466
4640.7105395506	0.0088360626
4642.6393469236	0.0087783495
4644.5681542967	0.0086949989
4646.4969616697	0.0086678267
4648.4257690428	0.0086398423
4650.3545764158	0.0086127724
4652.2833837889	0.0086079966
4654.2121911619	0.0086281281
4656.1409985350	0.0086363601
4658.0698059080	0.0085621458
4659.9986132810	0.0085901618
4661.9274206541	0.0085842460
4663.8562280271	0.0084371846
4665.7850354002	0.0084847752
4667.7138427732	0.0084836725
4669.6426501463	0.0084638493
4671.5714575193	0.0085249078
4673.5002648924	0.0084285606
4675.4290722654	0.0084141865
4677.3578796385	0.0082609700
4679.2866870115	0.0082086418
4681.2154943846	0.0082793366
4683.1443017576	0.0081438012
4685.0731091307	0.0082500558
4687.0019165037	0.0082233716
4688.9307238767	0.0082188360
4690.8595312498	0.0082920734
4692.7883386228	0.0081253946
4694.7171459959	0.0081426622
4696.6459533689	0.0081075970
4698.5747607420	0.0080572255
4700.5035681150	0.0080932416
4702.4323754881	0.0080930954
4704.3611828611	0.0080302525
4706.2899902342	0.0079820082
4708.2187976072	0.0079735518
4710.1476049803	0.0078954063
4712.0764123533	0.0079563148
4714.0052197264	0.0079423599
4715.9340270994	0.0079319868
4717.8628344724	0.0079041012
4719.7916418455	0.0078422092
4721.7204492185	0.0078833960
4723.6492565916	0.0077754962
4725.5780639646	0.0077664629
4727.5068713377	0.0077938270
4729.4356787107	0.0077944258
4731.3644860838	0.0077326577
4733.2932934568	0.0077185640
4735.2221008299	0.0077286721
4737.1509082029	0.0076293172
4739.0797155760	0.0077442434
4741.0085229490	0.0076854164
4742.9373303221	0.0076048058
4744.8661376951	0.0076103630
4746.7949450682	0.0075711184
4748.7237524412	0.0075964183
4750.6525598142	0.0075556012
4752.5813671873	0.0075926734
4754.5101745603	0.0075335116
4756.4389819334	0.0074850284
4758.3677893064	0.0074504456
4760.2965966795	0.0074913451
4762.2254040525	0.0074149538
4764.1542114256	0.0072283745
4766.0830187986	0.0073941518
4768.0118261717	0.0073721884
4769.9406335447	0.0073691667
4771.8694409178	0.0073573254
4773.7982482908	0.0072409790
4775.7270556639	0.0072543812
4777.6558630369	0.0072319694
4779.5846704099	0.0073189400
4781.5134777830	0.0072190743
4783.4422851560	0.0071621267
4785.3710925291	0.0071387943
4787.2998999021	0.0071133953
4789.2287072752	0.0071689468
4791.1575146482	0.0070618736
4793.0863220213	0.0070981616
4795.0151293943	0.0070968848
4796.9439367674	0.0070173973
4798.8727441404	0.0070036859
4800.8015515135	0.0070610461
4802.7303588865	0.0069938973
4804.6591662596	0.0069443109
4806.5879736326	0.0070286961
4808.5167810056	0.0069554308
4810.4455883787	0.0069866925
4812.3743957517	0.0068527339
4814.3032031248	0.0067993733
4816.2320104978	0.0068631070
4818.1608178709	0.0068096695
4820.0896252439	0.0069138547
4822.0184326170	0.0068214079
4823.9472399900	0.0067626857
4825.8760473631	0.0067139505
4827.8048547361	0.0067072795
4829.7336621092	0.0067455890
4831.6624694822	0.0066593490
4833.5912768553	0.0067536552
4835.5200842283	0.0067084888
4837.4488916013	0.0066059548
4839.3776989744	0.0065908423
4841.3065063474	0.0066429670
4843.2353137205	0.0066696703
4845.1641210935	0.0065498645
4847.0929284666	0.0065442836
4849.0217358396	0.0065803351
4850.9505432127	0.0065747490
4852.8793505857	0.0065129851
4854.8081579588	0.0064918362
4856.7369653318	0.0064126756
4858.6657727049	0.0063622994
4860.5945800779	0.0064895609
4862.5233874510	0.0064489581
4864.4521948240	0.0064293975
4866.3810021971	0.0064627966
4868.3098095701	0.0063154339
4870.2386169431	0.0062825894
4872.1674243162	0.0063366015
4874.0962316892	0.0062282700
4876.0250390623	0.0062194401
4877.9538464353	0.0062699728
4879.8826538084	0.0062637608
4881.8114611814	0.0062599070
4883.7402685545	0.0061686784
4885.6690759275	0.0062063253
4887.5978833006	0.0061989641
4889.5266906736	0.0061650062
4891.4554980467	0.0062231957
4893.3843054197	0.0061073294
4895.3131127928	0.0060438821
4897.2419201658	0.0061056754
4899.1707275388	0.0061010709
4901.0995349119	0.0060268971
4903.0283422849	0.0060448050
4904.9571496580	0.0060394658
4906.8859570310	0.0060037663
4908.8147644041	0.0060368469
4910.7435717771	0.0059818998
4912.6723791502	0.0059816027
4914.6011865232	0.0060009966
4916.5299938963	0.0059526088
4918.4588012693	0.0058530839
4920.3876086424	0.0058343876
4922.3164160154	0.0058926619
4924.2452233885	0.0058711921
4926.1740307615	0.0058517237
4928.1028381345	0.0058087460
4930.0316455076	0.0058182236
4931.9604528806	0.0057894522
4933.8892602537	0.0058014048
4935.8180676267	0.0058034780
4937.7468749998	0.0056930026
4939.6756823728	0.0056870799
4941.6044897459	0.0056621479
4943.5332971189	0.0057336413
4945.4621044920	0.0057071401
4947.3909118650	0.0056207357
4949.3197192381	0.0056630475
4951.2485266111	0.0056194402
4953.1773339842	0.0056435326
4955.1061413572	0.0056152698
4957.0349487302	0.0055788895
4958.9637561033	0.0055623977
4960.8925634763	0.0055063087
4962.8213708494	0.0054884842
4964.7501782224	0.0055074887
4966.6789855955	0.0055349041
4968.6077929685	0.0054734899
4970.5366003416	0.0054942369
4972.4654077146	0.0054281498
4974.3942150877	0.0053898836
4976.3230224607	0.0054311547
4978.2518298338	0.0053502740
4980.1806372068	0.0053808959
4982.1094445799	0.0053877346
4984.0382519529	0.0054029804
4985.9670593259	0.0053734276
4987.8958666990	0.0053551123
4989.8246740720	0.0053701177
4991.7534814451	0.0052757659
4993.6822888181	0.0053592236
4995.6110961912	0.0053100884
4997.5399035642	0.0052271197
4999.4687109373	0.0053144256
5001.3975183103	0.0052160528
5003.3263256834	0.0051641967
5005.2551330564	0.0052276552
5007.1839404295	0.0051440750
5009.1127478025	0.0050870962
5011.0415551756	0.0051883087
5012.9703625486	0.0051331073
5014.8991699217	0.0051113246
5016.8279772947	0.0051889759
5018.7567846677	0.0050885812
5020.6855920408	0.0050696367
5022.6143994138	0.0050056800
5024.5432067869	0.0049297488
5026.4720141599	0.0050481018
5028.4008215330	0.0050815186
5030.3296289060	0.0050303824
5032.2584362791	0.0049873167
5034.1872436521	0.0050049331
5036.1160510252	0.0049953680
5038.0448583982	0.0049105631
5039.9736657713	0.0049321484
5041.9024731443	0.0049218982
5043.8312805174	0.0048677824
5045.7600878904	0.0048941500
5047.6888952634	0.0048698820
5049.6177026365	0.0048530558
5051.5465100095	0.0048488444
5053.4753173826	0.0047985711
5055.4041247556	0.0048132166
5057.3329321287	0.0048193079
5059.2617395017	0.0047476217
5061.1905468748	0.0047182944
5063.1193542478	0.0047420319
5065.0481616209	0.0047196820
5066.9769689939	0.0047655068
5068.9057763670	0.0047506988
5070.8345837400	0.0046148035
5072.7633911131	0.0046660183
5074.6921984861	0.0046768859
5076.6210058591	0.0047052270
5078.5498132322	0.0047694468
5080.4786206052	0.0046258620
5082.4074279783	0.0045985798
5084.3362353513	0.0045942268
5086.2650427244	0.0045764446
5088.1938500974	0.0046164179
5090.1226574705	0.0045352434
5092.0514648435	0.0044557350
5093.9802722166	0.0044957809
5095.9090795896	0.0045323670
5097.8378869627	0.0044870316
5099.7666943357	0.0044806236
5101.6955017088	0.0044342838
5103.6243090818	0.0045029288
5105.5531164548	0.0045474195
5107.4819238279	0.0044378820
5109.4107312009	0.0044635842
5111.3395385740	0.0044320500
5113.2683459470	0.0044758348
5115.1971533201	0.0044117849
5117.1259606931	0.0043426519
5119.0547680662	0.0044622747
5120.9835754392	0.0043495786
5122.9123828123	0.0043474222
5124.8411901853	0.0043952977
5126.7699975584	0.0043602847
5128.6988049314	0.0042616599
5130.6276123045	0.0042351466
5132.5564196775	0.0043265773
5134.4852270506	0.0042428845
5136.4140344236	0.0042808009
5138.3428417966	0.0042172535
5140.2716491697	0.0041537890
5142.2004565427	0.0042061824
5144.1292639158	0.0041733868
5146.0580712888	0.0041555427
5147.9868786619	0.0041256910
5149.9156860349	0.0042294655
5151.8444934080	0.0041190684
5153.7733007810	0.0041018184
5155.7021081541	0.0041663731
5157.6309155271	0.0040864777
5159.5597229002	0.0041949153
5161.4885302732	0.0040681744
5163.4173376463	0.0040154485
5165.3461450193	0.0040586535
5167.2749523923	0.0040487703
5169.2037597654	0.0040797200
5171.1325671384	0.0040049455
5173.0613745115	0.0040089032
5174.9901818845	0.0039675822
5176.9189892576	0.0040350938
5178.8477966306	0.0040178867
5180.7766040037	0.0039659273
5182.7054113767	0.0040087961
5184.6342187498	0.0038687275
5186.5630261228	0.0039376281
5188.4918334959	0.0039880304
5190.4206408689	0.0038995889
5192.3494482420	0.0039318446
5194.2782556150	0.0039221640
5196.2070629880	0.0038513062
5198.1358703611	0.0037962683
5200.0646777341	0.0038080676
5201.9934851072	0.0038383105
5203.9222924802	0.0038419012
5205.8510998533	0.0037841434
5207.7799072263	0.0036913552
5209.7087145994	0.0036786129
5211.6375219724	0.0038042050
5213.5663293455	0.0038499502
5215.4951367185	0.0038055088
5217.4239440916	0.0037798320
5219.3527514646	0.0037203408
5221.2815588377	0.0037910901
5223.2103662107	0.0037889627
5225.1391735837	0.0036700540
5227.0679809568	0.0036918977
5228.9967883298	0.0037525238
5230.9255957029	0.0037273574
5232.8544030759	0.0036590097
5234.7832104490	0.0036799312
5236.7120178220	0.0037347388
5238.6408251951	0.0036906335
5240.5696325681	0.0036481326
5242.4984399412	0.0036168182
5244.4272473142	0.0035022935
5246.3560546873	0.0035995878
5248.2848620603	0.0036128247
5250.2136694334	0.0034765301
5252.1424768064	0.0036321487
5254.0712841795	0.0036177156
5256.0000915525	0.0035328662
5257.9288989255	0.0035081827
5259.8577062986	0.0035558285
5261.7865136716	0.0036085290
5263.7153210447	0.0033908817
5265.6441284177	0.0034246370
5267.5729357908	0.0035443406
5269.5017431638	0.0035213584
5271.4305505369	0.0034603663
5273.3593579099	0.0034631814
5275.2881652830	0.0034786873
5277.2169726560	0.0034144071
5279.1457800291	0.0035205828
5281.0745874021	0.0034834412
5283.0033947752	0.0034937342
5284.9322021482	0.0035029287
5286.8610095212	0.0034094499
5288.7898168943	0.0034170453
5290.7186242673	0.0033283113
5292.6474316404	0.0034043272
5294.5762390134	0.0033709728
5296.5050463865	0.0033555953
5298.4338537595	0.0034591621
5300.3626611326	0.0033390687
5302.2914685056	0.0033385383
5304.2202758787	0.0033618845
5306.1490832517	0.0033065300
5308.0778906248	0.0033061411
5310.0066979978	0.0033362345
5311.9355053709	0.0033228504
5313.8643127439	0.0033303134
5315.7931201169	0.0033004279
5317.7219274900	0.0032783966
5319.6507348630	0.0033663060
5321.5795422361	0.0033132713
5323.5083496091	0.0032783318
5325.4371569822	0.0032295841
5327.3659643552	0.0031937468
5329.2947717283	0.0032618968
5331.2235791013	0.0032161919
5333.1523864744	0.0031800035
5335.0811938474	0.0032145428
5337.0100012205	0.0032053830
5338.9388085935	0.0030900147
5340.8676159666	0.0031572571
5342.7964233396	0.0032172904
5344.7252307126	0.0030648392
5346.6540380857	0.0030534905
5348.5828454587	0.0030576913
5350.5116528318	0.0031113294
5352.4404602048	0.0030926073
5354.3692675779	0.0029847359
5356.2980749509	0.0031019729
5358.2268823240	0.0031081897
5360.1556896970	0.0030511729
5362.0844970701	0.0030797068
5364.0133044431	0.0030407971
5365.9421118162	0.0030556049
5367.8709191892	0.0029972808
5369.7997265623	0.0030158968
5371.7285339353	0.0031206263
5373.6573413083	0.0030766488
5375.5861486814	0.0030477829
5377.5149560544	0.0029313799
5379.4437634275	0.0029585147
5381.3725708005	0.0030233362
5383.3013781736	0.0029633008
5385.2301855466	0.0030179857
5387.1589929197	0.0029222178
5389.0878002927	0.0029106829
5391.0166076658	0.0029360517
5392.9454150388	0.0028753178
5394.8742224119	0.0028685878
5396.8030297849	0.0028612008
5398.7318371580	0.0028778519
5400.6606445310	0.0028527444
5402.5894519041	0.0029345332
5404.5182592771	0.0028566746
5406.4470666501	0.0028156261
5408.3758740232	0.0028578590
5410.3046813962	0.0027838589
5412.2334887693	0.0028364169
5414.1622961423	0.0027537961
5416.0911035154	0.0027705326
5418.0199108884	0.0027902864
5419.9487182615	0.0028337967
5421.8775256345	0.0029089469
5423.8063330076	0.0027881367
5425.7351403806	0.0027876166
5427.6639477537	0.0026796840
5429.5927551267	0.0026889124
5431.5215624998	0.0027339025
5433.4503698728	0.0026924112
5435.3791772458	0.0027235108
5437.3079846189	0.0027104048
5439.2367919919	0.0027683908
5441.1655993650	0.0026939083
5443.0944067380	0.0027062164
5445.0232141111	0.0026870135
5446.9520214841	0.0025945192
5448.8808288572	0.0026270333
5450.8096362302	0.0026127552
5452.7384436033	0.0026469971
5454.6672509763	0.0026089649
5456.5960583494	0.0026427931
5458.5248657224	0.0026719531
5460.4536730955	0.0026004834
5462.3824804685	0.0025760063
5464.3112878415	0.0025909028
5466.2400952146	0.0026372864
5468.1689025876	0.0025893524
5470.0977099607	0.0025450210
5472.0265173337	0.0025858027
5473.9553247068	0.0026544333
5475.8841320798	0.0025357315
5477.8129394529	0.0025381797
5479.7417468259	0.0025959131
5481.6705541990	0.0024737348
5483.5993615720	0.0025589433
5485.5281689451	0.0025079015
5487.4569763181	0.0025071085
5489.3857836912	0.0025514655
5491.3145910642	0.0024478675
5493.2433984372	0.0024748119
5495.1722058103	0.0024319571
5497.1010131833	0.0025071595
5499.0298205564	0.0024735318
5500.9586279294	0.0023910818
5502.8874353025	0.0024420253
5504.8162426755	0.0023358676
5506.7450500486	0.0023908303
5508.6738574216	0.0024116863
5510.6026647947	0.0023782689
5512.5314721677	0.0024908558
5514.4602795408	0.0024366453
5516.3890869138	0.0023921011
5518.3178942869	0.0024291161
5520.2467016599	0.0024018243
5522.1755090330	0.0024062907
5524.1043164060	0.0023757443
5526.0331237790	0.0023701489
5527.9619311521	0.0024241111
5529.8907385251	0.0023876897
5531.8195458982	0.0023723384
5533.7483532712	0.0023646981
5535.6771606443	0.0022964287
5537.6059680173	0.0023231041
5539.5347753904	0.0023419787
5541.4635827634	0.0022822772
5543.3923901365	0.0023515781
5545.3211975095	0.0023654602
5547.2500048826	0.0022847846
5549.1788122556	0.0022897301
5551.1076196287	0.0022697151
5553.0364270017	0.0023118684
5554.9652343747	0.0023244303
5556.8940417478	0.0023061354
5558.8228491208	0.0022557483
5560.7516564939	0.0022094408
5562.6804638669	0.0023294743
5564.6092712400	0.0022345469
5566.5380786130	0.0021855533
5568.4668859861	0.0022746413
5570.3956933591	0.0021778641
5572.3245007322	0.0021841768
5574.2533081052	0.0022676974
5576.1821154783	0.0022819522
5578.1109228513	0.0022394557
5580.0397302244	0.0021928453
5581.9685375974	0.0021468641
5583.8973449704	0.0021761567
5585.8261523435	0.0022264291
5587.7549597165	0.0022002994
5589.6837670896	0.0022228749
5591.6125744626	0.0021870411
5593.5413818357	0.0021455428
5595.4701892087	0.0021099066
5597.3989965818	0.0020824296
5599.3278039548	0.0021137032
5601.2566113279	0.0021247873
5603.1854187009	0.0021571128
5605.1142260740	0.0021058333
5607.0430334470	0.0020609130
5608.9718408201	0.0020992036
5610.9006481931	0.0020530077
5612.8294555661	0.0020276380
5614.7582629392	0.0021113656
5616.6870703122	0.0020846850
5618.6158776853	0.0020308690
5620.5446850583	0.0020524776
5622.4734924314	0.0020318404
5624.4022998044	0.0020504235
5626.3311071775	0.0020261607
5628.2599145505	0.0019979384
5630.1887219236	0.0019971058
5632.1175292966	0.0020159266
5634.0463366697	0.0020212918
5635.9751440427	0.0019789126
5637.9039514158	0.0020231227
5639.8327587888	0.0019791774
5641.7615661619	0.0019828584
5643.6903735349	0.0019533283
5645.6191809079	0.0018795924
5647.5479882810	0.0019623504
5649.4767956540	0.0019174945
5651.4056030271	0.0019101261
5653.3344104001	0.0019202938
5655.2632177732	0.0019267016
5657.1920251462	0.0019545879
5659.1208325193	0.0019001447
5661.0496398923	0.0019702632
5662.9784472654	0.0020005321
5664.9072546384	0.0018855256
5666.8360620115	0.0018592288
5668.7648693845	0.0019445503
5670.6936767576	0.0018510832
5672.6224841306	0.0018408934
5674.5512915036	0.0019354315
5676.4800988767	0.0018054984
5678.4089062497	0.0018529381
5680.3377136228	0.0019133992
5682.2665209958	0.0018587917
5684.1953283689	0.0018686047
5686.1241357419	0.0018222296
5688.0529431150	0.0017762315
5689.9817504880	0.0017830185
5691.9105578611	0.0018558216
5693.8393652341	0.0017887693
5695.7681726072	0.0017250768
5697.6969799802	0.0018120640
5699.6257873533	0.0018408620
5701.5545947263	0.0017976720
5703.4834020993	0.0017373776
5705.4122094724	0.0018001916
5707.3410168454	0.0017978966
5709.2698242185	0.0017520528
5711.1986315915	0.0017928343
5713.1274389646	0.0017364214
5715.0562463376	0.0017779141
5716.9850537107	0.0017929754
5718.9138610837	0.0016964132
5720.8426684568	0.0017434144
5722.7714758298	0.0017788198
5724.7002832029	0.0017289236
5726.6290905759	0.0017037526
5728.5578979490	0.0017360621
5730.4867053220	0.0017143918
5732.4155126950	0.0017130601
5734.3443200681	0.0017330456
5736.2731274411	0.0016948329
5738.2019348142	0.0017686448
5740.1307421872	0.0017407397
5742.0595495603	0.0017104330
5743.9883569333	0.0017017284
5745.9171643064	0.0016125385
5747.8459716794	0.0016540589
5749.7747790525	0.0016030897
5751.7035864255	0.0016415882
5753.6323937986	0.0016835777
5755.5612011716	0.0016133895
5757.4900085447	0.0016525830
5759.4188159177	0.0016758204
5761.3476232907	0.0016868178
5763.2764306638	0.0015565089
5765.2052380368	0.0015834551
5767.1340454099	0.0016582590
5769.0628527829	0.0015818870
5770.9916601560	0.0015964124
5772.9204675290	0.0015389724
5774.8492749021	0.0015653485
5776.7780822751	0.0016001497
5778.7068896482	0.0016320974
5780.6356970212	0.0016303408
5782.5645043943	0.0015488545
5784.4933117673	0.0015513015
5786.4221191404	0.0015465657
5788.3509265134	0.0015902484
5790.2797338865	0.0015205815
5792.2085412595	0.0015224131
5794.1373486325	0.0015545872
5796.0661560056	0.0014912472
5797.9949633786	0.0015489188
5799.9237707517	0.0014963953
5801.8525781247	0.0014890230
5803.7813854978	0.0015307989
5805.7101928708	0.0014821987
5807.6390002439	0.0015050883
5809.5678076169	0.0015460285
5811.4966149900	0.0014804072
5813.4254223630	0.0014657467
5815.3542297361	0.0015197527
5817.2830371091	0.0014576740
5819.2118444822	0.0014654241
5821.1406518552	0.0014533306
5823.0694592282	0.0014161270
5824.9982666013	0.0014143164
5826.9270739743	0.0013765779
5828.8558813474	0.0014221902
5830.7846887204	0.0014598329
5832.7134960935	0.0014580345
5834.6423034665	0.0014277123
5836.5711108396	0.0014304132
5838.4999182126	0.0014126231
5840.4287255857	0.0013495481
5842.3575329587	0.0013529784
5844.2863403318	0.0014024316
5846.2151477048	0.0013725564
5848.1439550779	0.0013785646
5850.0727624509	0.0014641373
5852.0015698239	0.0013203719
5853.9303771970	0.0013668619
5855.8591845700	0.0014395660
5857.7879919431	0.0013071944
5859.7167993161	0.0013803798
5861.6456066892	0.0013458856
5863.5744140622	0.0012995461
5865.5032214353	0.0013247248
5867.4320288083	0.0013594087
5869.3608361814	0.0013792451
5871.2896435544	0.0013474309
5873.2184509275	0.0013420196
5875.1472583005	0.0013248101
5877.0760656736	0.0014005443
5879.0048730466	0.0013767133
5880.9336804196	0.0013432237
5882.8624877927	0.0012803148
5884.7912951657	0.0012636977
5886.7201025388	0.0013665820
5888.6489099118	0.0013400838
5890.5777172849	0.0013217565
5892.5065246579	0.0012756572
5894.4353320310	0.0013509446
5896.3641394040	0.0013359576
5898.2929467771	0.0012753366
5900.2217541501	0.0012765038
5902.1505615232	0.0012315554
5904.0793688962	0.0013391799
5906.0081762693	0.0012352397
5907.9369836423	0.0012263048
5909.8657910154	0.0012265833
5911.7945983884	0.0011885986
5913.7234057614	0.0013362514
5915.6522131345	0.0012371690
5917.5810205075	0.0011959446
5919.5098278806	0.0011618347
5921.4386352536	0.0011846321
5923.3674426267	0.0012670407
5925.2962499997	0.0012085498
5927.2250573728	0.0011953014
5929.1538647458	0.0011796696
5931.0826721189	0.0012280405
5933.0114794919	0.0012316802
5934.9402868650	0.0012666376
5936.8690942380	0.0012727906
5938.7979016111	0.0012319877
5940.7267089841	0.0012129494
5942.6555163571	0.0011275777
5944.5843237302	0.0011973542
5946.5131311032	0.0011961212
5948.4419384763	0.0011328696
5950.3707458493	0.0011729517
5952.2995532224	0.0011692659
5954.2283605954	0.0011836425
5956.1571679685	0.0011871937
5958.0859753415	0.0011311671
5960.0147827146	0.0011365567
5961.9435900876	0.0011459009
5963.8723974607	0.0011355479
5965.8012048337	0.0011617127
5967.7300122068	0.0010618706
5969.6588195798	0.0010726125
5971.5876269528	0.0011275582
5973.5164343259	0.0011007984
5975.4452416989	0.0011055905
5977.3740490720	0.0010236569
5979.3028564450	0.0010982472
5981.2316638181	0.0011103807
5983.1604711911	0.0010687737
5985.0892785642	0.0010890777
5987.0180859372	0.0010449868
5988.9468933103	0.0010741192
5990.8757006833	0.0009950229
5992.8045080564	0.0010366908
5994.7333154294	0.0010794236
5996.6621228025	0.0010504101
5998.5909301755	0.0011174227
6000.5197375485	0.0010450562
