399.2631262207	0.0003366003
401.1919335938	0.0007590576
403.1207409668	0.0004067163
405.0495483398	0.0004204829
406.9783557129	0.0005541092
408.9071630859	0.0001295020
410.8359704590	0.0003368882
412.7647778320	0.0004843344
414.6935852051	0.0006392217
416.6223925781	0.0006689978
418.5511999512	0.0004514896
420.4800073242	0.0003581840
422.4088146973	-0.0000185198
424.3376220703	0.0005093084
426.2664294434	0.0009098150
428.1952368164	0.0006670557
430.1240441895	0.0005114157
432.0528515625	0.0001475438
433.9816589355	0.0002343191
435.9104663086	0.0002031421
437.8392736816	0.0004741523
439.7680810547	0.0006682751
441.6968884277	0.0003652105
443.6256958008	0.0007175364
445.5545031738	0.0005337413
447.4833105469	0.0004853934
449.4121179199	0.0009062203
451.3409252930	0.0003948192
453.2697326660	0.0001952141
455.1985400391	0.0002965046
457.1273474121	0.0002033672
459.0561547852	0.0003456510
460.9849621582	0.0003142874
462.9137695313	0.0000730193
464.8425769043	0.0000580077
466.7713842773	0.0005338452
468.7001916504	0.0003493153
470.6289990234	0.0000222839
472.5578063965	0.0002557468
474.4866137695	0.0000925709
476.4154211426	0.0006714023
478.3442285156	0.0002554317
480.2730358887	-0.0004166247
482.2018432617	0.0004087799
484.1306506348	0.0001434307
486.0594580078	-0.0000482363
487.9882653809	-0.0000140235
489.9170727539	-0.0000659064
491.8458801270	0.0001344717
493.7746875000	0.0000578674
495.7034948730	0.0004137736
497.6323022461	0.0000485128
499.5611096191	0.0000315208
501.4899169922	0.0003988363
503.4187243652	0.0001740668
505.3475317383	0.0002768270
507.2763391113	0.0001931589
509.2051464844	0.0002864026
511.1339538574	0.0002880251
513.0627612305	0.0003386978
514.9915686035	0.0001757201
516.9203759766	-0.0001552669
518.8491833496	0.0004363952
520.7779907227	0.0005419090
522.7067980957	0.0003031971
524.6356054688	0.0003177404
526.5644128418	0.0000624691
528.4932202148	-0.0001236158
530.4220275879	0.0000365392
532.3508349609	0.0001166840
534.2796423340	-0.0000211558
536.2084497070	0.0001092591
538.1372570801	0.0003893171
540.0660644531	0.0001729138
541.9948718262	-0.0000237165
543.9236791992	0.0002347772
545.8524865723	0.0000586698
547.7812939453	0.0002260999
549.7101013184	0.0001760840
551.6389086914	-0.0002967946
553.5677160645	0.0002758778
555.4965234375	0.0007258552
557.4253308105	0.0003087246
559.3541381836	0.0000316055
561.2829455566	0.0002360111
563.2117529297	0.0000313124
565.1405603027	-0.0001387922
567.0693676758	-0.0000316328
568.9981750488	0.0000157275
570.9269824219	0.0001310255
572.8557897949	0.0004096559
574.7845971680	0.0004700620
576.7134045410	-0.0000366687
578.6422119141	0.0001186556
580.5710192871	0.0002514067
582.4998266602	0.0000330471
584.4286340332	0.0001894757
586.3574414063	-0.0000184580
588.2862487793	0.0001814754
590.2150561523	0.0002643700
592.1438635254	-0.0003009388
594.0726708984	-0.0000882881
596.0014782715	0.0003496392
597.9302856445	0.0004062729
599.8590930176	0.0001584046
601.7879003906	0.0000430460
603.7167077637	0.0003483015
605.6455151367	0.0001776841
607.5743225098	0.0000482117
609.5031298828	0.0002115066
611.4319372559	0.0001236223
613.3607446289	-0.0000689751
615.2895520020	0.0000780203
617.2183593750	0.0004140585
619.1471667480	0.0002274666
621.0759741211	0.0001683961
623.0047814941	0.0003045281
624.9335888672	0.0001471584
626.8623962402	0.0000923136
628.7912036133	0.0002004899
630.7200109863	0.0001534085
632.6488183594	0.0002751436
634.5776257324	0.0004140301
636.5064331055	0.0002481228
638.4352404785	0.0005735764
640.3640478516	0.0008167770
642.2928552246	0.0008309979
644.2216625977	0.0009687646
646.1504699707	0.0009913737
648.0792773438	0.0010719935
650.0080847168	0.0010434310
651.9368920898	0.0009985641
653.8656994629	0.0010124932
655.7945068359	0.0009864728
657.7233142090	0.0009200685
659.6521215820	0.0012726849
661.5809289551	0.0012516242
663.5097363281	0.0011545279
665.4385437012	0.0014716461
667.3673510742	0.0010519112
669.2961584473	0.0013816854
671.2249658203	0.0016539802
673.1537731934	0.0013692416
675.0825805664	0.0015837862
677.0113879395	0.0016496287
678.9401953125	0.0019523392
680.8690026855	0.0018636878
682.7978100586	0.0018412638
684.7266174316	0.0018415307
686.6554248047	0.0018968189
688.5842321777	0.0020589363
690.5130395508	0.0017634516
692.4418469238	0.0019839166
694.3706542969	0.0019590533
696.2994616699	0.0024980875
698.2282690430	0.0028051399
700.1570764160	0.0026110574
702.0858837891	0.0031113545
704.0146911621	0.0027470035
705.9434985352	0.0027512340
707.8723059082	0.0022514318
709.8011132813	0.0014842665
711.7299206543	0.0016341270
713.6587280273	0.0009288234
715.5875354004	0.0004437390
717.5163427734	0.0001192735
719.4451501465	0.0001381779
721.3739575195	0.0004959221
723.3027648926	0.0004031241
725.2315722656	0.0005334194
727.1603796387	0.0001728080
729.0891870117	0.0000754769
731.0179943848	0.0003227107
732.9468017578	-0.0001731644
734.8756091309	-0.0003469972
736.8044165039	0.0000361057
738.7332238770	0.0002377838
740.6620312500	0.0000628312
742.5908386230	0.0003013964
744.5196459961	0.0003829005
746.4484533691	0.0000864869
748.3772607422	0.0004396888
750.3060681152	0.0001806449
752.2348754883	-0.0000539192
754.1636828613	0.0004543618
756.0924902344	0.0002655854
758.0212976074	-0.0000537470
759.9501049805	0.0001371590
761.8789123535	0.0002967618
763.8077197266	0.0002165356
765.7365270996	0.0001593165
767.6653344727	0.0001153295
769.5941418457	0.0003907687
771.5229492188	0.0004454042
773.4517565918	0.0000805833
775.3805639648	0.0003807548
777.3093713379	0.0004111773
779.2381787109	0.0002876324
781.1669860840	0.0005710551
783.0957934570	0.0001985981
785.0246008301	0.0000893648
786.9534082031	0.0002908795
788.8822155762	0.0004209246
790.8110229492	0.0007070561
792.7398303223	0.0006291158
794.6686376953	0.0005110758
796.5974450684	0.0006037973
798.5262524414	0.0007622854
800.4550598145	0.0006320474
802.3838671875	0.0005280273
804.3126745605	0.0004286566
806.2414819336	0.0002342216
808.1702893066	0.0002802968
810.0990966797	0.0002818163
812.0279040527	0.0003876233
813.9567114258	0.0002735686
815.8855187988	0.0001656568
817.8143261719	0.0002077693
819.7431335449	0.0002775508
821.6719409180	0.0004437726
823.6007482910	0.0001475924
825.5295556641	0.0001916996
827.4583630371	0.0005001599
829.3871704102	0.0006550373
831.3159777832	0.0007638416
833.2447851563	0.0006526280
835.1735925293	0.0008401766
837.1023999023	0.0007779296
839.0312072754	0.0007336633
840.9600146484	0.0011116939
842.8888220215	0.0011367862
844.8176293945	0.0007958420
846.7464367676	0.0006632966
848.6752441406	0.0008836131
850.6040515137	0.0006551220
852.5328588867	0.0003803007
854.4616662598	0.0003654275
856.3904736328	0.0004745593
858.3192810059	0.0005917373
860.2480883789	0.0004250748
862.1768957520	0.0005615298
864.1057031250	0.0003943898
866.0345104980	0.0002115006
867.9633178711	0.0004593719
869.8921252441	0.0001840950
871.8209326172	0.0002595660
873.7497399902	0.0005635901
875.6785473633	0.0004517989
877.6073547363	0.0004514815
879.5361621094	0.0002761185
881.4649694824	0.0002336446
883.3937768555	0.0002905869
885.3225842285	0.0001078036
887.2513916016	0.0000492415
889.1801989746	0.0004329895
891.1090063477	0.0006564988
893.0378137207	0.0002156561
894.9666210938	0.0004166588
896.8954284668	0.0004615994
898.8242358398	0.0002867408
900.7530432129	0.0006699911
902.6818505859	0.0004186012
904.6106579590	0.0004544937
906.5394653320	0.0006392555
908.4682727051	0.0003643726
910.3970800781	0.0002780999
912.3258874512	0.0003115534
914.2546948242	0.0006606709
916.1835021973	0.0006208145
918.1123095703	0.0005119905
920.0411169434	0.0009228801
921.9699243164	0.0008881957
923.8987316895	0.0008500479
925.8275390625	0.0011164704
927.7563464355	0.0010573306
929.6851538086	0.0011685418
931.6139611816	0.0012533048
933.5427685547	0.0011586165
935.4715759277	0.0015113137
937.4003833008	0.0014280011
939.3291906738	0.0014089362
941.2579980469	0.0018103191
943.1868054199	0.0015043949
945.1156127930	0.0013618973
947.0444201660	0.0015440485
948.9732275391	0.0016627978
950.9020349121	0.0015192756
952.8308422852	0.0011941134
954.7596496582	0.0014073541
956.6884570313	0.0014187619
958.6172644043	0.0012481074
960.5460717773	0.0013743839
962.4748791504	0.0013218950
964.4036865234	0.0012091766
966.3324938965	0.0014506468
968.2613012695	0.0016102765
970.1901086426	0.0015008785
972.1189160156	0.0016981602
974.0477233887	0.0019209085
975.9765307617	0.0019946792
977.9053381348	0.0019767496
979.8341455078	0.0021613545
981.7629528809	0.0027014897
983.6917602539	0.0029573156
985.6205676270	0.0032013494
987.5493750000	0.0035011047
989.4781823730	0.0036666179
991.4069897461	0.0039771255
993.3357971191	0.0043799467
995.2646044922	0.0047206995
997.1934118652	0.0051614083
999.1222192383	0.0058977501
1001.0510266113	0.0063182320
1002.9798339844	0.0065407511
1004.9086413574	0.0069921920
1006.8374487305	0.0073115216
1008.7662561035	0.0077037886
1010.6950634766	0.0082461443
1012.6238708496	0.0086424816
1014.5526782227	0.0089881038
1016.4814855957	0.0096647851
1018.4102929688	0.0101047289
1020.3391003418	0.0100667272
1022.2679077148	0.0105296802
1024.1967150879	0.0111366268
1026.1255224609	0.0115724374
1028.0543298340	0.0119097456
1029.9831372070	0.0120268064
1031.9119445801	0.0124898683
1033.8407519531	0.0128823593
1035.7695593262	0.0129422862
1037.6983666992	0.0128872450
1039.6271740723	0.0127060041
1041.5559814453	0.0128842844
1043.4847888184	0.0128731839
1045.4135961914	0.0124156661
1047.3424035645	0.0123428963
1049.2712109375	0.0123935100
1051.2000183105	0.0121365767
1053.1288256836	0.0117903296
1055.0576330566	0.0114338491
1056.9864404297	0.0111415423
1058.9152478027	0.0109276948
1060.8440551758	0.0104190176
1062.7728625488	0.0098748915
1064.7016699219	0.0097566945
1066.6304772949	0.0094642909
1068.5592846680	0.0090261661
1070.4880920410	0.0087920148
1072.4168994141	0.0083970036
1074.3457067871	0.0078647416
1076.2745141602	0.0074694697
1078.2033215332	0.0073127383
1080.1321289062	0.0068862173
1082.0609362793	0.0064255525
1083.9897436523	0.0063053779
1085.9185510254	0.0058227046
1087.8473583984	0.0054816706
1089.7761657715	0.0053107599
1091.7049731445	0.0051079835
1093.6337805176	0.0049708164
1095.5625878906	0.0044877799
1097.4913952637	0.0046275472
1099.4202026367	0.0046690409
1101.3490100098	0.0042374404
1103.2778173828	0.0042415732
1105.2066247559	0.0039413352
1107.1354321289	0.0038917442
1109.0642395019	0.0040320777
1110.9930468750	0.0039914320
1112.9218542480	0.0039488147
1114.8506616211	0.0037953351
1116.7794689941	0.0039191358
1118.7082763672	0.0038773054
1120.6370837402	0.0038565325
1122.5658911133	0.0037437885
1124.4946984863	0.0037232805
1126.4235058594	0.0039092810
1128.3523132324	0.0039352882
1130.2811206055	0.0042486819
1132.2099279785	0.0041979020
1134.1387353516	0.0044148630
1136.0675427246	0.0044826185
1137.9963500977	0.0044139363
1139.9251574707	0.0050319741
1141.8539648437	0.0050647398
1143.7827722168	0.0056534931
1145.7115795898	0.0061400263
1147.6403869629	0.0062474497
1149.5691943359	0.0067894650
1151.4980017090	0.0068072872
1153.4268090820	0.0072810450
1155.3556164551	0.0075919665
1157.2844238281	0.0078695454
1159.2132312012	0.0084149670
1161.1420385742	0.0085450318
1163.0708459473	0.0088369697
1164.9996533203	0.0088950563
1166.9284606934	0.0092214784
1168.8572680664	0.0096479207
1170.7860754394	0.0100058448
1172.7148828125	0.0105314599
1174.6436901855	0.0106262155
1176.5724975586	0.0109193400
1178.5013049316	0.0114047285
1180.4301123047	0.0118130594
1182.3589196777	0.0122446846
1184.2877270508	0.0126373693
1186.2165344238	0.0132740922
1188.1453417969	0.0139059089
1190.0741491699	0.0145020001
1192.0029565430	0.0153491525
1193.9317639160	0.0159564242
1195.8605712891	0.0164932385
1197.7893786621	0.0172275957
1199.7181860351	0.0180019923
1201.6469934082	0.0189082902
1203.5758007812	0.0195086785
1205.5046081543	0.0201676637
1207.4334155273	0.0207422301
1209.3622229004	0.0212382451
1211.2910302734	0.0221742038
1213.2198376465	0.0227825698
1215.1486450195	0.0232195891
1217.0774523926	0.0236842372
1219.0062597656	0.0243125074
1220.9350671387	0.0246434882
1222.8638745117	0.0245986544
1224.7926818848	0.0249354951
1226.7214892578	0.0251020193
1228.6502966308	0.0252120849
1230.5791040039	0.0251407437
1232.5079113769	0.0251453482
1234.4367187500	0.0252872277
1236.3655261230	0.0251400266
1238.2943334961	0.0251409989
1240.2231408691	0.0250797495
1242.1519482422	0.0249787979
1244.0807556152	0.0246914346
1246.0095629883	0.0246751755
1247.9383703613	0.0246610753
1249.8671777344	0.0241469815
1251.7959851074	0.0239708163
1253.7247924805	0.0239013229
1255.6535998535	0.0236506909
1257.5824072266	0.0231217295
1259.5112145996	0.0227687005
1261.4400219726	0.0225337483
1263.3688293457	0.0221276954
1265.2976367187	0.0218942147
1267.2264440918	0.0217127539
1269.1552514648	0.0214884970
1271.0840588379	0.0209498983
1273.0128662109	0.0206217431
1274.9416735840	0.0203909278
1276.8704809570	0.0199899636
1278.7992883301	0.0195159726
1280.7280957031	0.0190251097
1282.6569030762	0.0187788568
1284.5857104492	0.0183476806
1286.5145178223	0.0182073079
1288.4433251953	0.0177601296
1290.3721325683	0.0172374137
1292.3009399414	0.0173333623
1294.2297473144	0.0170604847
1296.1585546875	0.0170380026
1298.0873620605	0.0169869475
1300.0161694336	0.0168196037
1301.9449768066	0.0170438569
1303.8737841797	0.0171371624
1305.8025915527	0.0173369348
1307.7313989258	0.0175941736
1309.6602062988	0.0178620704
1311.5890136719	0.0182880517
1313.5178210449	0.0186685529
1315.4466284180	0.0190132819
1317.3754357910	0.0192225017
1319.3042431640	0.0195484310
1321.2330505371	0.0203247927
1323.1618579101	0.0208217911
1325.0906652832	0.0215320084
1327.0194726562	0.0221840218
1328.9482800293	0.0221861936
1330.8770874023	0.0231093131
1332.8058947754	0.0237122048
1334.7347021484	0.0239495579
1336.6635095215	0.0245127790
1338.5923168945	0.0241160952
1340.5211242676	0.0243627448
1342.4499316406	0.0250819754
1344.3787390137	0.0251423735
1346.3075463867	0.0253172070
1348.2363537597	0.0252336524
1350.1651611328	0.0250765271
1352.0939685058	0.0250727385
1354.0227758789	0.0245908611
1355.9515832519	0.0242938586
1357.8803906250	0.0242761709
1359.8091979980	0.0238579698
1361.7380053711	0.0232250616
1363.6668127441	0.0230853930
1365.5956201172	0.0237088744
1367.5244274902	0.0232572518
1369.4532348633	0.0228363909
1371.3820422363	0.0229519717
1373.3108496094	0.0219845120
1375.2396569824	0.0221149605
1377.1684643555	0.0224608798
1379.0972717285	0.0224005617
1381.0260791015	0.0225488991
1382.9548864746	0.0223444141
1384.8836938476	0.0222903788
1386.8125012207	0.0215309262
1388.7413085937	0.0218819510
1390.6701159668	0.0232826956
1392.5989233398	0.0226773750
1394.5277307129	0.0215767156
1396.4565380859	0.0224297941
1398.3853454590	0.0224632770
1400.3141528320	0.0222626049
1402.2429602051	0.0236688666
1404.1717675781	0.0226564854
1406.1005749512	0.0226723272
1408.0293823242	0.0235495828
1409.9581896972	0.0227203779
1411.8869970703	0.0228549838
1413.8158044433	0.0221751165
1415.7446118164	0.0223758388
1417.6734191894	0.0206549093
1419.6022265625	0.0189992078
1421.5310339355	0.0212181844
1423.4598413086	0.0205314811
1425.3886486816	0.0197637007
1427.3174560547	0.0199299566
1429.2462634277	0.0186143965
1431.1750708008	0.0180605538
1433.1038781738	0.0180335119
1435.0326855469	0.0165882707
1436.9614929199	0.0146194352
1438.8903002929	0.0158754177
1440.8191076660	0.0161628611
1442.7479150390	0.0152627528
1444.6767224121	0.0155667737
1446.6055297851	0.0145573579
1448.5343371582	0.0147758294
1450.4631445312	0.0149864405
1452.3919519043	0.0153876645
1454.3207592773	0.0160524473
1456.2495666504	0.0137094185
1458.1783740234	0.0144829191
1460.1071813965	0.0182941929
1462.0359887695	0.0191660263
1463.9647961426	0.0193630233
1465.8936035156	0.0201411061
1467.8224108886	0.0225977078
1469.7512182617	0.0240906347
1471.6800256347	0.0220292415
1473.6088330078	0.0232732669
1475.5376403808	0.0260130428
1477.4664477539	0.0279479194
1479.3952551269	0.0305033568
1481.3240625000	0.0308040194
1483.2528698730	0.0323983133
1485.1816772461	0.0335360728
1487.1104846191	0.0330865309
1489.0392919922	0.0330473781
1490.9680993652	0.0334463380
1492.8969067383	0.0377140678
1494.8257141113	0.0369296223
1496.7545214843	0.0341356322
1498.6833288574	0.0381087512
1500.6121362304	0.0390181988
1502.5409436035	0.0413615704
1504.4697509765	0.0390796959
1506.3985583496	0.0301468913
1508.3273657226	0.0359234065
1510.2561730957	0.0404821411
1512.1849804687	0.0395457521
1514.1137878418	0.0423041880
1516.0425952148	0.0386931188
1517.9714025879	0.0403396674
1519.9002099609	0.0384787880
1521.8290173340	0.0343747139
1523.7578247070	0.0406245291
1525.6866320801	0.0396839343
1527.6154394531	0.0397408791
1529.5442468261	0.0430069380
1531.4730541992	0.0415994823
1533.4018615722	0.0385490060
1535.3306689453	0.0403340161
1537.2594763183	0.0423538983
1539.1882836914	0.0318623669
1541.1170910644	0.0332759619
1543.0458984375	0.0385945365
1544.9747058105	0.0372780636
1546.9035131836	0.0425250083
1548.8323205566	0.0398371965
1550.7611279297	0.0409753844
1552.6899353027	0.0406286940
1554.6187426758	0.0374278873
1556.5475500488	0.0393528864
1558.4763574218	0.0294749849
1560.4051647949	0.0314848796
1562.3339721679	0.0416567326
1564.2627795410	0.0394967124
1566.1915869140	0.0404307470
1568.1203942871	0.0396826416
1570.0492016601	0.0360315740
1571.9780090332	0.0405203253
1573.9068164062	0.0403680690
1575.8356237793	0.0332318917
1577.7644311523	0.0365033522
1579.6932385254	0.0402165502
1581.6220458984	0.0387936346
1583.5508532715	0.0393966511
1585.4796606445	0.0387217589
1587.4084680175	0.0388657525
1589.3372753906	0.0383428484
1591.2660827636	0.0382843353
1593.1948901367	0.0382269770
1595.1236975097	0.0377300531
1597.0525048828	0.0380395912
1598.9813122558	0.0374703854
1600.9101196289	0.0376203954
1602.8389270019	0.0369891673
1604.7677343750	0.0372899398
1606.6965417480	0.0366591141
1608.6253491211	0.0365827903
1610.5541564941	0.0366168544
1612.4829638672	0.0367733687
1614.4117712402	0.0371396318
1616.3405786132	0.0313394666
1618.2693859863	0.0337461084
1620.1981933593	0.0382619016
1622.1270007324	0.0346341096
1624.0558081054	0.0351420864
1625.9846154785	0.0367426462
1627.9134228515	0.0368684605
1629.8422302246	0.0369939730
1631.7710375976	0.0393297821
1633.6998449707	0.0367771573
1635.6286523437	0.0319506787
1637.5574597168	0.0366953276
1639.4862670898	0.0401325189
1641.4150744629	0.0398577526
1643.3438818359	0.0409807637
1645.2726892090	0.0380697474
1647.2014965820	0.0347292311
1649.1303039550	0.0423138440
1651.0591113281	0.0403571278
1652.9879187011	0.0284933317
1654.9167260742	0.0376547948
1656.8455334472	0.0456754193
1658.7743408203	0.0446029641
1660.7031481933	0.0461142026
1662.6319555664	0.0431267284
1664.5607629394	0.0458268896
1666.4895703125	0.0488771833
1668.4183776855	0.0442157388
1670.3471850586	0.0437696427
1672.2759924316	0.0490712374
1674.2047998047	0.0460707322
1676.1336071777	0.0450421982
1678.0624145507	0.0512128025
1679.9912219238	0.0498041101
1681.9200292968	0.0499972478
1683.8488366699	0.0422279164
1685.7776440429	0.0422498584
1687.7064514160	0.0556617863
1689.6352587890	0.0495989174
1691.5640661621	0.0543184131
1693.4928735351	0.0552213937
1695.4216809082	0.0425893962
1697.3504882812	0.0513067022
1699.2792956543	0.0461397842
1701.2081030273	0.0427565426
1703.1369104004	0.0555236191
1705.0657177734	0.0516631231
1706.9945251464	0.0523341522
1708.9233325195	0.0560438558
1710.8521398925	0.0544650629
1712.7809472656	0.0553795993
1714.7097546386	0.0519417785
1716.6385620117	0.0475798175
1718.5673693847	0.0470515639
1720.4961767578	0.0547396056
1722.4249841308	0.0561866760
1724.3537915039	0.0527939573
1726.2825988769	0.0566273555
1728.2114062500	0.0527785458
1730.1402136230	0.0535851866
1732.0690209961	0.0517444387
1733.9978283691	0.0415237136
1735.9266357421	0.0500833020
1737.8554431152	0.0540072359
1739.7842504882	0.0489993058
1741.7130578613	0.0526903197
1743.6418652343	0.0533756390
1745.5706726074	0.0533693247
1747.4994799804	0.0539230555
1749.4282873535	0.0519109815
1751.3570947265	0.0498887300
1753.2859020996	0.0544949993
1755.2147094726	0.0563739575
1757.1435168457	0.0521925762
1759.0723242187	0.0564267151
1761.0011315918	0.0535399877
1762.9299389648	0.0520167165
1764.8587463379	0.0578338653
1766.7875537109	0.0529474914
1768.7163610839	0.0534151420
1770.6451684570	0.0528871268
1772.5739758300	0.0484107137
1774.5027832031	0.0530205593
1776.4315905761	0.0554758161
1778.3603979492	0.0547460839
1780.2892053222	0.0540327094
1782.2180126953	0.0545483977
1784.1468200683	0.0542231910
1786.0756274414	0.0530546233
1788.0044348144	0.0554792024
1789.9332421875	0.0539931580
1791.8620495605	0.0497744381
1793.7908569336	0.0516340733
1795.7196643066	0.0545674935
1797.6484716796	0.0538316481
1799.5772790527	0.0529489890
1801.5060864257	0.0523516610
1803.4348937988	0.0534443110
1805.3637011718	0.0542259663
1807.2925085449	0.0537176430
1809.2213159179	0.0536303706
1811.1501232910	0.0524412394
1813.0789306640	0.0535789616
1815.0077380371	0.0536201149
1816.9365454101	0.0532401055
1818.8653527832	0.0535253212
1820.7941601562	0.0532699898
1822.7229675293	0.0538054481
1824.6517749023	0.0508499518
1826.5805822753	0.0522826314
1828.5093896484	0.0521319583
1830.4381970214	0.0495958924
1832.3670043945	0.0530732125
1834.2958117675	0.0525701642
1836.2246191406	0.0524835289
1838.1534265136	0.0521292984
1840.0822338867	0.0524452105
1842.0110412597	0.0523055792
1843.9398486328	0.0472718999
1845.8686560058	0.0497739613
1847.7974633789	0.0518875718
1849.7262707519	0.0511496738
1851.6550781250	0.0521249920
1853.5838854980	0.0511480980
1855.5126928710	0.0515572019
1857.4415002441	0.0510334074
1859.3703076171	0.0507698208
1861.2991149902	0.0508153774
1863.2279223632	0.0503663495
1865.1567297363	0.0507553145
1867.0855371093	0.0491545573
1869.0143444824	0.0477015488
1870.9431518554	0.0491497181
1872.8719592285	0.0504084118
1874.8007666015	0.0496056825
1876.7295739746	0.0497611985
1878.6583813476	0.0495276600
1880.5871887207	0.0492009670
1882.5159960937	0.0495471470
1884.4448034667	0.0488358140
1886.3736108398	0.0492297485
1888.3024182128	0.0481994674
1890.2312255859	0.0474489070
1892.1600329589	0.0487936288
1894.0888403320	0.0481748134
1896.0176477050	0.0479066074
1897.9464550781	0.0480715930
1899.8752624511	0.0477165952
1901.8040698242	0.0478118137
1903.7328771972	0.0475149490
1905.6616845703	0.0474958643
1907.5904919433	0.0471286550
1909.5192993164	0.0469992012
1911.4481066894	0.0470565334
1913.3769140625	0.0469139367
1915.3057214355	0.0471607633
1917.2345288085	0.0454006121
1919.1633361816	0.0455043763
1921.0921435546	0.0466609336
1923.0209509277	0.0453915969
1924.9497583007	0.0463657454
1926.8785656738	0.0464168377
1928.8073730468	0.0459497720
1930.7361804199	0.0464189723
1932.6649877929	0.0455942526
1934.5937951660	0.0460048690
1936.5226025390	0.0456707329
1938.4514099121	0.0456489660
1940.3802172851	0.0454512164
1942.3090246582	0.0442847908
1944.2378320312	0.0449191891
1946.1666394042	0.0451316945
1948.0954467773	0.0452344269
1950.0242541503	0.0451520085
1951.9530615234	0.0447725244
1953.8818688964	0.0447355621
1955.8106762695	0.0445391089
1957.7394836425	0.0446730629
1959.6682910156	0.0444233865
1961.5970983886	0.0443670824
1963.5259057617	0.0444475152
1965.4547131347	0.0440876409
1967.3835205078	0.0437003747
1969.3123278808	0.0438458100
1971.2411352539	0.0441678464
1973.1699426269	0.0439521819
1975.0987499999	0.0437832326
1977.0275573730	0.0436313599
1978.9563647460	0.0435575470
1980.8851721191	0.0433324873
1982.8139794921	0.0432688296
1984.7427868652	0.0432712957
1986.6715942382	0.0429015532
1988.6004016113	0.0428614691
1990.5292089843	0.0424785465
1992.4580163574	0.0420933403
1994.3868237304	0.0423963442
1996.3156311035	0.0424415022
1998.2444384765	0.0420776755
2000.1732458496	0.0419927090
2002.1020532226	0.0420044437
2004.0308605956	0.0419679023
2005.9596679687	0.0418807790
2007.8884753417	0.0415507481
2009.8172827148	0.0413972624
2011.7460900878	0.0412561074
2013.6748974609	0.0413156748
2015.6037048339	0.0411209390
2017.5325122070	0.0407090560
2019.4613195800	0.0407463312
2021.3901269531	0.0406121984
2023.3189343261	0.0406101495
2025.2477416992	0.0403482914
2027.1765490722	0.0402219892
2029.1053564453	0.0403332375
2031.0341638183	0.0399383381
2032.9629711914	0.0399530791
2034.8917785644	0.0398946628
2036.8205859374	0.0395881310
2038.7493933105	0.0394358113
2040.6782006835	0.0393657237
2042.6070080566	0.0392950214
2044.5358154296	0.0391824171
2046.4646228027	0.0392340496
2048.3934301757	0.0389629826
2050.3222375488	0.0387000740
2052.2510449218	0.0387722813
2054.1798522949	0.0387607813
2056.1086596679	0.0384382419
2058.0374670410	0.0382813215
2059.9662744140	0.0384928472
2061.8950817871	0.0382972807
2063.8238891601	0.0380286649
2065.7526965331	0.0379128642
2067.6815039062	0.0378571376
2069.6103112792	0.0378237218
2071.5391186523	0.0375970304
2073.4679260253	0.0376080275
2075.3967333984	0.0375613831
2077.3255407714	0.0373889469
2079.2543481445	0.0373302437
2081.1831555175	0.0371485725
2083.1119628906	0.0370998159
2085.0407702636	0.0370745286
2086.9695776367	0.0369857475
2088.8983850097	0.0369296595
2090.8271923828	0.0367128253
2092.7559997558	0.0366712026
2094.6848071288	0.0367373526
2096.6136145019	0.0364823416
2098.5424218749	0.0363687053
2100.4712292480	0.0363857783
2102.4000366210	0.0362183526
2104.3288439941	0.0363622084
2106.2576513671	0.0363295227
2108.1864587402	0.0359963067
2110.1152661132	0.0360825658
2112.0440734863	0.0359858423
2113.9728808593	0.0359049812
2115.9016882324	0.0359910503
2117.8304956054	0.0357984081
2119.7593029785	0.0357231312
2121.6881103515	0.0356206335
2123.6169177245	0.0356166326
2125.5457250976	0.0355967321
2127.4745324706	0.0354185030
2129.4033398437	0.0355030298
2131.3321472167	0.0355215445
2133.2609545898	0.0353110209
2135.1897619628	0.0352063775
2137.1185693359	0.0352593437
2139.0473767089	0.0351459756
2140.9761840820	0.0350673124
2142.9049914550	0.0350684524
2144.8337988281	0.0350258425
2146.7626062011	0.0350952782
2148.6914135742	0.0351169929
2150.6202209472	0.0350890234
2152.5490283203	0.0349245146
2154.4778356933	0.0347594619
2156.4066430663	0.0346558280
2158.3354504394	0.0347625762
2160.2642578124	0.0348122157
2162.1930651855	0.0345391333
2164.1218725585	0.0345675796
2166.0506799316	0.0346427485
2167.9794873046	0.0346012004
2169.9082946777	0.0344554856
2171.8371020507	0.0344887748
2173.7659094238	0.0344960615
2175.6947167968	0.0343234390
2177.6235241699	0.0345070213
2179.5523315429	0.0342836082
2181.4811389160	0.0341682583
2183.4099462890	0.0342022330
2185.3387536620	0.0340347104
2187.2675610351	0.0341520682
2189.1963684081	0.0341103263
2191.1251757812	0.0340436138
2193.0539831542	0.0339206457
2194.9827905273	0.0340192914
2196.9115979003	0.0340028219
2198.8404052734	0.0338631570
2200.7692126464	0.0339495055
2202.6980200195	0.0337037668
2204.6268273925	0.0337411873
2206.5556347656	0.0337997898
2208.4844421386	0.0336631984
2210.4132495117	0.0336287469
2212.3420568847	0.0336727798
2214.2708642577	0.0336140394
2216.1996716308	0.0334574580
2218.1284790038	0.0335687436
2220.0572863769	0.0333961546
2221.9860937499	0.0333851725
2223.9149011230	0.0333980732
2225.8437084960	0.0332694799
2227.7725158691	0.0333054811
2229.7013232421	0.0331181809
2231.6301306152	0.0332282782
2233.5589379882	0.0331083462
2235.4877453613	0.0328933336
2237.4165527343	0.0329854824
2239.3453601074	0.0328809395
2241.2741674804	0.0328625962
2243.2029748534	0.0328075141
2245.1317822265	0.0327156708
2247.0605895995	0.0326954387
2248.9893969726	0.0326913670
2250.9182043456	0.0326393545
2252.8470117187	0.0325933397
2254.7758190917	0.0325635448
2256.7046264648	0.0324560627
2258.6334338378	0.0323481262
2260.5622412109	0.0322411582
2262.4910485839	0.0323208869
2264.4198559570	0.0323325694
2266.3486633300	0.0321471766
2268.2774707031	0.0320488885
2270.2062780761	0.0320748240
2272.1350854491	0.0320121720
2274.0638928222	0.0318614691
2275.9927001952	0.0319319218
2277.9215075683	0.0319760777
2279.8503149413	0.0318625458
2281.7791223144	0.0317828394
2283.7079296874	0.0317271799
2285.6367370605	0.0316659212
2287.5655444335	0.0316324010
2289.4943518066	0.0314871967
2291.4231591796	0.0313990377
2293.3519665527	0.0314018875
2295.2807739257	0.0312248319
2297.2095812988	0.0311796032
2299.1383886718	0.0309642125
2301.0671960449	0.0307709649
2302.9960034179	0.0307462886
2304.9248107909	0.0304307491
2306.8536181640	0.0302310884
2308.7824255370	0.0300090536
2310.7112329101	0.0297627579
2312.6400402831	0.0293964688
2314.5688476562	0.0289971661
2316.4976550292	0.0287068337
2318.4264624023	0.0282201841
2320.3552697753	0.0280020125
2322.2840771484	0.0276297331
2324.2128845214	0.0271164924
2326.1416918945	0.0267829783
2328.0704992675	0.0262934417
2329.9993066406	0.0259875860
2331.9281140136	0.0257715583
2333.8569213866	0.0257314313
2335.7857287597	0.0257896632
2337.7145361327	0.0255866833
2339.6433435058	0.0255087335
2341.5721508788	0.0256938431
2343.5009582519	0.0260598101
2345.4297656249	0.0265736990
2347.3585729980	0.0276574753
2349.2873803710	0.0286060367
2351.2161877441	0.0276043601
2353.1449951171	0.0259379447
2355.0738024902	0.0249990448
2357.0026098632	0.0241582319
2358.9314172363	0.0236866679
2360.8602246093	0.0234252252
2362.7890319823	0.0234347302
2364.7178393554	0.0236347318
2366.6466467284	0.0238045435
2368.5754541015	0.0243537128
2370.5042614745	0.0248739291
2372.4330688476	0.0256437697
2374.3618762206	0.0265051983
2376.2906835937	0.0271760412
2378.2194909667	0.0278665274
2380.1482983398	0.0283236951
2382.0771057128	0.0286961012
2384.0059130859	0.0288362615
2385.9347204589	0.0289231706
2387.8635278320	0.0288845412
2389.7923352050	0.0288442671
2391.7211425780	0.0289660841
2393.6499499511	0.0288006365
2395.5787573241	0.0287294053
2397.5075646972	0.0286972281
2399.4363720702	0.0286452100
2401.3651794433	0.0285918489
2403.2939868163	0.0285686962
2405.2227941894	0.0285506733
2407.1516015624	0.0283270627
2409.0804089355	0.0283790380
2411.0092163085	0.0283466373
2412.9380236816	0.0281804837
2414.8668310546	0.0283006895
2416.7956384277	0.0283106863
2418.7244458007	0.0281600095
2420.6532531738	0.0280351527
2422.5820605468	0.0279528238
2424.5108679198	0.0279454626
2426.4396752929	0.0279539339
2428.3684826659	0.0278508700
2430.2972900390	0.0277893636
2432.2260974120	0.0277813394
2434.1549047851	0.0277511068
2436.0837121581	0.0276481062
2438.0125195312	0.0275205187
2439.9413269042	0.0274624228
2441.8701342773	0.0274482258
2443.7989416503	0.0274960734
2445.7277490234	0.0273651443
2447.6565563964	0.0273467228
2449.5853637695	0.0273039378
2451.5141711425	0.0270868167
2453.4429785155	0.0271729454
2455.3717858886	0.0271924529
2457.3005932616	0.0270042811
2459.2294006347	0.0268555284
2461.1582080077	0.0269659422
2463.0870153808	0.0269368086
2465.0158227538	0.0268007740
2466.9446301269	0.0267913695
2468.8734374999	0.0265929829
2470.8022448730	0.0266965870
2472.7310522460	0.0266149268
2474.6598596191	0.0264731795
2476.5886669921	0.0265595578
2478.5174743652	0.0263659954
2480.4462817382	0.0264044888
2482.3750891112	0.0263879709
2484.3038964843	0.0263056606
2486.2327038573	0.0262111574
2488.1615112304	0.0261424705
2490.0903186034	0.0262130369
2492.0191259765	0.0259790123
2493.9479333495	0.0259852596
2495.8767407226	0.0260058250
2497.8055480956	0.0258095916
2499.7343554687	0.0258126371
2501.6631628417	0.0257154219
2503.5919702148	0.0255461894
2505.5207775878	0.0254986994
2507.4495849609	0.0254938826
2509.3783923339	0.0255244114
2511.3071997069	0.0255755596
2513.2360070800	0.0254349373
2515.1648144530	0.0253601260
2517.0936218261	0.0254275165
2519.0224291991	0.0253777951
2520.9512365722	0.0252519883
2522.8800439452	0.0250709560
2524.8088513183	0.0250427276
2526.7376586913	0.0250077583
2528.6664660644	0.0249163620
2530.5952734374	0.0248246919
2532.5240808105	0.0247634910
2534.4528881835	0.0248710550
2536.3816955566	0.0248280745
2538.3105029296	0.0247599520
2540.2393103027	0.0246874578
2542.1681176757	0.0245885067
2544.0969250487	0.0245907903
2546.0257324218	0.0244852230
2547.9545397948	0.0243820734
2549.8833471679	0.0243650414
2551.8121545409	0.0243501849
2553.7409619140	0.0242364146
2555.6697692870	0.0242277905
2557.5985766601	0.0242345110
2559.5273840331	0.0240850039
2561.4561914062	0.0240760259
2563.3849987792	0.0240371637
2565.3138061523	0.0239376612
2567.2426135253	0.0238459297
2569.1714208984	0.0237782039
2571.1002282714	0.0237107463
2573.0290356444	0.0236615501
2574.9578430175	0.0237188935
2576.8866503905	0.0236098990
2578.8154577636	0.0234933309
2580.7442651366	0.0234136693
2582.6730725097	0.0234251432
2584.6018798827	0.0233949386
2586.5306872558	0.0232004076
2588.4594946288	0.0233090110
2590.3883020019	0.0233186390
2592.3171093749	0.0231977142
2594.2459167480	0.0231004097
2596.1747241210	0.0229863673
2598.1035314941	0.0230266601
2600.0323388671	0.0228661783
2601.9611462401	0.0227218680
2603.8899536132	0.0227263421
2605.8187609862	0.0227094311
2607.7475683593	0.0226722136
2609.6763757323	0.0226622038
2611.6051831054	0.0226284899
2613.5339904784	0.0224853046
2615.4627978515	0.0224748533
2617.3916052245	0.0223681610
2619.3204125976	0.0222907923
2621.2492199706	0.0223112814
2623.1780273437	0.0222068354
2625.1068347167	0.0221108701
2627.0356420898	0.0219482519
2628.9644494628	0.0219585188
2630.8932568358	0.0220201723
2632.8220642089	0.0219454542
2634.7508715819	0.0217923187
2636.6796789550	0.0217173956
2638.6084863280	0.0218027420
2640.5372937011	0.0216111876
2642.4661010741	0.0215010643
2644.3949084472	0.0216329172
2646.3237158202	0.0215875357
2648.2525231933	0.0214930139
2650.1813305663	0.0214998350
2652.1101379394	0.0214228481
2654.0389453124	0.0212627128
2655.9677526855	0.0212665647
2657.8965600585	0.0211811252
2659.8253674315	0.0210934170
2661.7541748046	0.0210764036
2663.6829821776	0.0209054686
2665.6117895507	0.0208800640
2667.5405969237	0.0208732598
2669.4694042968	0.0207351670
2671.3982116698	0.0206473656
2673.3270190429	0.0205974728
2675.2558264159	0.0205975678
2677.1846337890	0.0205579791
2679.1134411620	0.0204528607
2681.0422485351	0.0204276517
2682.9710559081	0.0204185415
2684.8998632812	0.0203448422
2686.8286706542	0.0202460811
2688.7574780273	0.0202067718
2690.6862854003	0.0202101544
2692.6150927733	0.0200962853
2694.5439001464	0.0199903734
2696.4727075194	0.0199597329
2698.4015148925	0.0199263170
2700.3303222655	0.0198129341
2702.2591296386	0.0197361764
2704.1879370116	0.0197503716
2706.1167443847	0.0196111444
2708.0455517577	0.0195598025
2709.9743591308	0.0195737015
2711.9031665038	0.0194955356
2713.8319738769	0.0193767846
2715.7607812499	0.0193825942
2717.6895886230	0.0194279030
2719.6183959960	0.0191638377
2721.5472033690	0.0191757716
2723.4760107421	0.0191613603
2725.4048181151	0.0189560745
2727.3336254882	0.0190365706
2729.2624328612	0.0189957358
2731.1912402343	0.0189536549
2733.1200476073	0.0188310705
2735.0488549804	0.0187135898
2736.9776623534	0.0186595470
2738.9064697265	0.0185906664
2740.8352770995	0.0186249651
2742.7640844726	0.0184864141
2744.6928918456	0.0183918923
2746.6216992187	0.0183339417
2748.5505065917	0.0183634441
2750.4793139647	0.0183098949
2752.4081213378	0.0181566775
2754.3369287108	0.0181612875
2756.2657360839	0.0180305876
2758.1945434569	0.0180493873
2760.1233508300	0.0179799795
2762.0521582030	0.0178189017
2763.9809655761	0.0178710930
2765.9097729491	0.0178531259
2767.8385803222	0.0177668408
2769.7673876952	0.0176466089
2771.6961950683	0.0176459998
2773.6250024413	0.0175569914
2775.5538098144	0.0174291693
2777.4826171874	0.0174055919
2779.4114245604	0.0173899904
2781.3402319335	0.0173371620
2783.2690393065	0.0171085149
2785.1978466796	0.0170639530
2787.1266540526	0.0170787275
2789.0554614257	0.0169925168
2790.9842687987	0.0169287473
2792.9130761718	0.0168974511
2794.8418835448	0.0169418342
2796.7706909179	0.0168046635
2798.6994982909	0.0166331008
2800.6283056640	0.0165748112
2802.5571130370	0.0165397674
2804.4859204101	0.0164678395
2806.4147277831	0.0164556690
2808.3435351562	0.0164720342
2810.2723425292	0.0163532924
2812.2011499022	0.0163203049
2814.1299572753	0.0161984339
2816.0587646483	0.0161526259
2817.9875720214	0.0161542986
2819.9163793944	0.0159028620
2821.8451867675	0.0159982666
2823.7739941405	0.0160670504
2825.7028015136	0.0158558637
2827.6316088866	0.0158068575
2829.5604162597	0.0157281887
2831.4892236327	0.0156894289
2833.4180310058	0.0155429840
2835.3468383788	0.0154100619
2837.2756457519	0.0154771581
2839.2044531249	0.0153765846
2841.1332604979	0.0152589427
2843.0620678710	0.0151150320
2844.9908752440	0.0150016285
2846.9196826171	0.0149739478
2848.8484899901	0.0148661304
2850.7772973632	0.0148081128
2852.7061047362	0.0146848876
2854.6349121093	0.0146417674
2856.5637194823	0.0147026666
2858.4925268554	0.0145959994
2860.4213342284	0.0145008294
2862.3501416015	0.0146167018
2864.2789489745	0.0146128610
2866.2077563476	0.0143176811
2868.1365637206	0.0142606404
2870.0653710936	0.0142935682
2871.9941784667	0.0142413955
2873.9229858397	0.0142812524
2875.8517932128	0.0141627118
2877.7806005858	0.0140960552
2879.7094079589	0.0140946638
2881.6382153319	0.0139694484
2883.5670227050	0.0139665240
2885.4958300780	0.0139822457
2887.4246374511	0.0138200475
2889.3534448241	0.0137364157
2891.2822521972	0.0137521960
2893.2110595702	0.0136758285
2895.1398669433	0.0135864168
2897.0686743163	0.0134993456
2898.9974816893	0.0135152442
2900.9262890624	0.0135159008
2902.8550964354	0.0133385956
2904.7839038085	0.0132727483
2906.7127111815	0.0132750226
2908.6415185546	0.0131269153
2910.5703259276	0.0129928757
2912.4991333007	0.0129358172
2914.4279406737	0.0128725972
2916.3567480468	0.0127635226
2918.2855554198	0.0125695486
2920.2143627929	0.0126097063
2922.1431701659	0.0127152205
2924.0719775390	0.0126101114
2926.0007849120	0.0125553776
2927.9295922851	0.0124400798
2929.8583996581	0.0124801863
2931.7872070311	0.0125570130
2933.7160144042	0.0124886092
2935.6448217772	0.0125391306
2937.5736291503	0.0123895165
2939.5024365233	0.0122538377
2941.4312438964	0.0123366537
2943.3600512694	0.0123889446
2945.2888586425	0.0123721175
2947.2176660155	0.0122691151
2949.1464733886	0.0121754762
2951.0752807616	0.0121236602
2953.0040881347	0.0121138301
2954.9328955077	0.0120608937
2956.8617028808	0.0120012481
2958.7905102538	0.0119785760
2960.7193176268	0.0119267870
2962.6481249999	0.0118871275
2964.5769323729	0.0118666217
2966.5057397460	0.0118950829
2968.4345471190	0.0118551645
2970.3633544921	0.0117483959
2972.2921618651	0.0117230956
2974.2209692382	0.0116665587
2976.1497766112	0.0116099734
2978.0785839843	0.0116451681
2980.0073913573	0.0116053857
2981.9361987304	0.0115159731
2983.8650061034	0.0115098841
2985.7938134765	0.0115754437
2987.7226208495	0.0115373749
2989.6514282225	0.0114410073
2991.5802355956	0.0114954710
2993.5090429686	0.0114537086
2995.4378503417	0.0113913696
2997.3666577147	0.0113150682
2999.2954650878	0.0112434216
3001.2242724608	0.0113747017
3003.1530798339	0.0112750987
3005.0818872069	0.0111470222
3007.0106945800	0.0111507261
3008.9395019530	0.0110487305
3010.8683093261	0.0109662190
3012.7971166991	0.0109786708
3014.7259240722	0.0110067073
3016.6547314452	0.0108533408
3018.5835388182	0.0107736196
3020.5123461913	0.0108521981
3022.4411535643	0.0108878072
3024.3699609374	0.0107605401
3026.2987683104	0.0106673110
3028.2275756835	0.0107130669
3030.1563830565	0.0106780492
3032.0851904296	0.0106817670
3034.0139978026	0.0105247218
3035.9428051757	0.0104496181
3037.8716125487	0.0104466220
3039.8004199218	0.0103603629
3041.7292272948	0.0104191741
3043.6580346679	0.0102483127
3045.5868420409	0.0102530262
3047.5156494139	0.0103366766
3049.4444567870	0.0102081336
3051.3732641600	0.0102085937
3053.3020715331	0.0101828389
3055.2308789061	0.0101144239
3057.1596862792	0.0100551769
3059.0884936522	0.0101560531
3061.0173010253	0.0101377312
3062.9461083983	0.0100245364
3064.8749157714	0.0100211985
3066.8037231444	0.0099188881
3068.7325305175	0.0098882057
3070.6613378905	0.0098597454
3072.5901452636	0.0098350123
3074.5189526366	0.0097786020
3076.4477600097	0.0097473525
3078.3765673827	0.0097775990
3080.3053747557	0.0096405931
3082.2341821288	0.0095405988
3084.1629895018	0.0095675830
3086.0917968749	0.0095891692
3088.0206042479	0.0095178410
3089.9494116210	0.0095270062
3091.8782189940	0.0095747784
3093.8070263671	0.0094847353
3095.7358337401	0.0093903262
3097.6646411132	0.0093120150
3099.5934484862	0.0092953146
3101.5222558593	0.0093144691
3103.4510632323	0.0093227578
3105.3798706054	0.0092915911
3107.3086779784	0.0092487857
3109.2374853514	0.0091890283
3111.1662927245	0.0090830717
3113.0951000975	0.0090718092
3115.0239074706	0.0090769865
3116.9527148436	0.0090298895
3118.8815222167	0.0090552680
3120.8103295897	0.0090660350
3122.7391369628	0.0089486744
3124.6679443358	0.0088953990
3126.5967517089	0.0088812085
3128.5255590819	0.0089206360
3130.4543664550	0.0089911204
3132.3831738280	0.0088578835
3134.3119812011	0.0087879384
3136.2407885741	0.0087759513
3138.1695959471	0.0087168328
3140.0984033202	0.0086930320
3142.0272106932	0.0086694732
3143.9560180663	0.0087133572
3145.8848254393	0.0087027401
3147.8136328124	0.0086098332
3149.7424401854	0.0085471459
3151.6712475585	0.0085049551
3153.6000549315	0.0084996270
3155.5288623046	0.0085699148
3157.4576696776	0.0085031651
3159.3864770507	0.0084389225
3161.3152844237	0.0084893964
3163.2440917968	0.0083988784
3165.1728991698	0.0083883535
3167.1017065428	0.0083708260
3169.0305139159	0.0083184205
3170.9593212889	0.0083661024
3172.8881286620	0.0083761215
3174.8169360350	0.0082959644
3176.7457434081	0.0082514547
3178.6745507811	0.0083078686
3180.6033581542	0.0081705563
3182.5321655272	0.0081798453
3184.4609729003	0.0082817227
3186.3897802733	0.0082478058
3188.3185876464	0.0082275271
3190.2473950194	0.0080944989
3192.1762023925	0.0082008103
3194.1050097655	0.0082294010
3196.0338171386	0.0081226975
3197.9626245116	0.0082354043
3199.8914318846	0.0082369260
3201.8202392577	0.0081204800
3203.7490466307	0.0080958633
3205.6778540038	0.0081309471
3207.6066613768	0.0080747036
3209.5354687499	0.0081929881
3211.4642761229	0.0081749521
3213.3930834960	0.0079815974
3215.3218908690	0.0080718473
3217.2506982421	0.0081516132
3219.1795056151	0.0082260743
3221.1083129882	0.0081643062
3223.0371203612	0.0080482196
3224.9659277343	0.0080855787
3226.8947351073	0.0081530288
3228.8235424803	0.0081310086
3230.7523498534	0.0080598500
3232.6811572264	0.0081182737
3234.6099645995	0.0080049839
3236.5387719725	0.0080657694
3238.4675793456	0.0082357246
3240.3963867186	0.0081516523
3242.3251940917	0.0081928140
3244.2540014647	0.0082956329
3246.1828088378	0.0083720777
3248.1116162108	0.0082348837
3250.0404235839	0.0082191098
3251.9692309569	0.0083073489
3253.8980383300	0.0082152998
3255.8268457030	0.0083575565
3257.7556530760	0.0083190817
3259.6844604491	0.0082730651
3261.6132678221	0.0084051043
3263.5420751952	0.0083428118
3265.4708825682	0.0083326921
3267.3996899413	0.0083033694
3269.3284973143	0.0083461944
3271.2573046874	0.0083468975
3273.1861120604	0.0082913414
3275.1149194335	0.0083846077
3277.0437268065	0.0083748298
3278.9725341796	0.0084802322
3280.9013415526	0.0085060438
3282.8301489257	0.0083783390
3284.7589562987	0.0084588230
3286.6877636717	0.0085211163
3288.6165710448	0.0085008182
3290.5453784178	0.0084664486
3292.4741857909	0.0084790699
3294.4029931639	0.0084774066
3296.3318005370	0.0085597411
3298.2606079100	0.0085443007
3300.1894152831	0.0083995108
3302.1182226561	0.0086665638
3304.0470300292	0.0086817499
3305.9758374022	0.0085007539
3307.9046447753	0.0086171618
3309.8334521483	0.0085564982
3311.7622595214	0.0085576344
3313.6910668944	0.0085957497
3315.6198742675	0.0085986704
3317.5486816405	0.0086708535
3319.4774890135	0.0086414386
3321.4062963866	0.0086668292
3323.3351037596	0.0087287817
3325.2639111327	0.0087242676
3327.1927185057	0.0087333908
3329.1215258788	0.0087391445
3331.0503332518	0.0087405145
3332.9791406249	0.0088133514
3334.9079479979	0.0087856278
3336.8367553710	0.0087300632
3338.7655627440	0.0088017005
3340.6943701171	0.0089016315
3342.6231774901	0.0089078322
3344.5519848632	0.0087613277
3346.4807922362	0.0088218469
3348.4095996092	0.0089019388
3350.3384069823	0.0088337706
3352.2672143553	0.0089131929
3354.1960217284	0.0089280345
3356.1248291014	0.0089454027
3358.0536364745	0.0090287086
3359.9824438475	0.0089909732
3361.9112512206	0.0090373009
3363.8400585936	0.0090763662
3365.7688659667	0.0089812269
3367.6976733397	0.0091405576
3369.6264807128	0.0092359800
3371.5552880858	0.0091423448
3373.4840954589	0.0092196874
3375.4129028319	0.0092247315
3377.3417102049	0.0092667174
3379.2705175780	0.0092560155
3381.1993249510	0.0092455978
3383.1281323241	0.0093955975
3385.0569396971	0.0093260072
3386.9857470702	0.0092914011
3388.9145544432	0.0094857449
3390.8433618163	0.0094951494
3392.7721691893	0.0093848966
3394.7009765624	0.0095557505
3396.6297839354	0.0096021853
3398.5585913085	0.0095985401
3400.4873986815	0.0096952822
3402.4162060546	0.0096755410
3404.3450134276	0.0098125450
3406.2738208006	0.0097459937
3408.2026281737	0.0098110614
3410.1314355467	0.0099912323
3412.0602429198	0.0098723117
3413.9890502928	0.0099157058
3415.9178576659	0.0099948328
3417.8466650389	0.0100612855
3419.7754724120	0.0100531373
3421.7042797850	0.0101408176
3423.6330871581	0.0102264909
3425.5618945311	0.0102089252
3427.4907019042	0.0102923512
3429.4195092772	0.0102389213
3431.3483166503	0.0103205033
3433.2771240233	0.0104610361
3435.2059313963	0.0105414763
3437.1347387694	0.0104815569
3439.0635461424	0.0104736127
3440.9923535155	0.0106602712
3442.9211608885	0.0105679827
3444.8499682616	0.0105895251
3446.7787756346	0.0106919911
3448.7075830077	0.0106924213
3450.6363903807	0.0107579026
3452.5651977538	0.0108188251
3454.4940051268	0.0108939782
3456.4228124999	0.0109132882
3458.3516198729	0.0109263733
3460.2804272460	0.0109601077
3462.2092346190	0.0110408515
3464.1380419921	0.0110656805
3466.0668493651	0.0111333774
3467.9956567381	0.0112135923
3469.9244641112	0.0112488270
3471.8532714842	0.0113760084
3473.7820788573	0.0113737285
3475.7108862303	0.0113480128
3477.6396936034	0.0114131048
3479.5685009764	0.0114519186
3481.4973083495	0.0114574283
3483.4261157225	0.0116240401
3485.3549230956	0.0116874399
3487.2837304686	0.0115998145
3489.2125378417	0.0117681436
3491.1413452147	0.0118074100
3493.0701525878	0.0118499808
3494.9989599608	0.0119472947
3496.9277673338	0.0118651446
3498.8565747069	0.0120210387
3500.7853820799	0.0121642649
3502.7141894530	0.0119329579
3504.6429968260	0.0119750295
3506.5718041991	0.0122292684
3508.5006115721	0.0121810399
3510.4294189452	0.0123312455
3512.3582263182	0.0123760803
3514.2870336913	0.0124151502
3516.2158410643	0.0126184896
3518.1446484374	0.0124847079
3520.0734558104	0.0125706252
3522.0022631835	0.0125539862
3523.9310705565	0.0124445613
3525.8598779295	0.0125930291
3527.7886853026	0.0126280356
3529.7174926756	0.0126908310
3531.6463000487	0.0128242765
3533.5751074217	0.0130310142
3535.5039147948	0.0129651157
3537.4327221678	0.0128927808
3539.3615295409	0.0131629398
3541.2903369139	0.0131875891
3543.2191442870	0.0130959302
3545.1479516600	0.0129193114
3547.0767590331	0.0128497705
3549.0055664061	0.0133457687
3550.9343737792	0.0134061221
3552.8631811522	0.0132358409
3554.7919885252	0.0135139599
3556.7207958983	0.0135109406
3558.6496032713	0.0135204680
3560.5784106444	0.0133728124
3562.5072180174	0.0134376734
3564.4360253905	0.0137371756
3566.3648327635	0.0130217625
3568.2936401366	0.0127633307
3570.2224475096	0.0135443658
3572.1512548827	0.0139821023
3574.0800622557	0.0139311692
3576.0088696288	0.0139971636
3577.9376770018	0.0140662901
3579.8664843749	0.0139011890
3581.7952917479	0.0139349941
3583.7240991210	0.0141871758
3585.6529064940	0.0139118880
3587.5817138670	0.0129347686
3589.5105212401	0.0134309446
3591.4393286131	0.0144741330
3593.3681359862	0.0140626905
3595.2969433592	0.0139272735
3597.2257507323	0.0141700525
3599.1545581053	0.0142349908
3601.0833654784	0.0142358858
3603.0121728514	0.0144368131
3604.9409802245	0.0146313552
3606.8697875975	0.0142680043
3608.7985949706	0.0136761889
3610.7274023436	0.0139547642
3612.6562097167	0.0142983254
3614.5850170897	0.0140381437
3616.5138244627	0.0148325125
3618.4426318358	0.0139503088
3620.3714392088	0.0137025760
3622.3002465819	0.0150991939
3624.2290539549	0.0147808436
3626.1578613280	0.0153440926
3628.0866687010	0.0132979080
3630.0154760741	0.0125532579
3631.9442834471	0.0152427629
3633.8730908202	0.0149383675
3635.8018981932	0.0152709354
3637.7307055663	0.0155375395
3639.6595129393	0.0154153397
3641.5883203124	0.0155841801
3643.5171276854	0.0154925026
3645.4459350584	0.0157131366
3647.3747424315	0.0144433966
3649.3035498045	0.0134812519
3651.2323571776	0.0137587171
3653.1611645506	0.0159532838
3655.0899719237	0.0156958103
3657.0187792967	0.0145620722
3658.9475866698	0.0163089819
3660.8763940428	0.0160214975
3662.8052014159	0.0164444037
3664.7340087889	0.0163183454
3666.6628161620	0.0163402259
3668.5916235350	0.0159134567
3670.5204309081	0.0135666840
3672.4492382811	0.0160078369
3674.3780456541	0.0152968420
3676.3068530272	0.0133484341
3678.2356604002	0.0160186794
3680.1644677733	0.0163299963
3682.0932751463	0.0163998380
3684.0220825194	0.0167970657
3685.9508898924	0.0165103879
3687.8796972655	0.0149912974
3689.8085046385	0.0142246643
3691.7373120116	0.0158699993
3693.6661193846	0.0162037872
3695.5949267577	0.0165532306
3697.5237341307	0.0165098198
3699.4525415038	0.0164419748
3701.3813488768	0.0160110127
3703.3101562499	0.0155503545
3705.2389636229	0.0167397261
3707.1677709959	0.0159523599
3709.0965783690	0.0157289878
3711.0253857420	0.0149565507
3712.9541931151	0.0141201187
3714.8830004881	0.0159896687
3716.8118078612	0.0158811174
3718.7406152342	0.0159005746
3720.6694226073	0.0155213242
3722.5982299803	0.0151602067
3724.5270373534	0.0155037101
3726.4558447264	0.0145439934
3728.3846520995	0.0154696452
3730.3134594725	0.0152364410
3732.2422668456	0.0142069310
3734.1710742186	0.0139707793
3736.0998815916	0.0134565551
3738.0286889647	0.0139491390
3739.9574963377	0.0148968594
3741.8863037108	0.0153736155
3743.8151110838	0.0123597588
3745.7439184569	0.0119288377
3747.6727258299	0.0146319577
3749.6015332030	0.0127697559
3751.5303405760	0.0120419674
3753.4591479491	0.0135233756
3755.3879553221	0.0142476596
3757.3167626952	0.0146740731
3759.2455700682	0.0136778615
3761.1743774413	0.0140393572
3763.1031848143	0.0148001537
3765.0319921873	0.0139777530
3766.9607995604	0.0142644998
3768.8896069334	0.0139593054
3770.8184143065	0.0133892614
3772.7472216795	0.0143185258
3774.6760290526	0.0142519614
3776.6048364256	0.0142662507
3778.5336437987	0.0138192903
3780.4624511717	0.0133950114
3782.3912585448	0.0140759815
3784.3200659178	0.0137333609
3786.2488732909	0.0137468809
3788.1776806639	0.0138491634
3790.1064880370	0.0137555748
3792.0352954100	0.0136943543
3793.9641027830	0.0137842670
3795.8929101561	0.0131145362
3797.8217175291	0.0130701754
3799.7505249022	0.0134435650
3801.6793322752	0.0110570360
3803.6081396483	0.0127374083
3805.5369470213	0.0134167802
3807.4657543944	0.0114524290
3809.3945617674	0.0134326471
3811.3233691405	0.0130052157
3813.2521765135	0.0133226588
3815.1809838866	0.0121271219
3817.1097912596	0.0110719055
3819.0385986327	0.0133931488
3820.9674060057	0.0111873504
3822.8962133787	0.0116899740
3824.8250207518	0.0132016744
3826.7538281248	0.0121196695
3828.6826354979	0.0127913235
3830.6114428709	0.0124756303
3832.5402502440	0.0121299382
3834.4690576170	0.0122697987
3836.3978649901	0.0117316376
3838.3266723631	0.0107583264
3840.2554797362	0.0115327062
3842.1842871092	0.0121499877
3844.1130944823	0.0116435215
3846.0419018553	0.0124132419
3847.9707092284	0.0122234654
3849.8995166014	0.0122268274
3851.8283239745	0.0111318473
3853.7571313475	0.0087959878
3855.6859387205	0.0100990050
3857.6147460936	0.0122396946
3859.5435534666	0.0118765272
3861.4723608397	0.0117515922
3863.4011682127	0.0115313157
3865.3299755858	0.0107719898
3867.2587829588	0.0118066147
3869.1875903319	0.0109378621
3871.1163977049	0.0103206635
3873.0452050780	0.0117494026
3874.9740124510	0.0109292595
3876.9028198241	0.0117150471
3878.8316271971	0.0117543079
3880.7604345702	0.0104326038
3882.6892419432	0.0116847605
3884.6180493162	0.0109398663
3886.5468566893	0.0103232367
3888.4756640623	0.0115748607
3890.4044714354	0.0110522509
3892.3332788084	0.0105990916
3894.2620861815	0.0111777214
3896.1908935545	0.0114371795
3898.1197009276	0.0110490154
3900.0485083006	0.0104729943
3901.9773156737	0.0103860442
3903.9061230467	0.0102061229
3905.8349304198	0.0104072802
3907.7637377928	0.0111585446
3909.6925451659	0.0111046266
3911.6213525389	0.0110512115
3913.5501599119	0.0112130493
3915.4789672850	0.0107961446
3917.4077746580	0.0104614329
3919.3365820311	0.0105484342
3921.2653894041	0.0107465377
3923.1941967772	0.0107403705
3925.1230041502	0.0105981231
3927.0518115233	0.0105796792
3928.9806188963	0.0107448548
3930.9094262694	0.0105004450
3932.8382336424	0.0102269258
3934.7670410155	0.0106182080
3936.6958483885	0.0106783919
3938.6246557616	0.0105355196
3940.5534631346	0.0105061876
3942.4822705076	0.0102522960
3944.4110778807	0.0103342142
3946.3398852537	0.0104283094
3948.2686926268	0.0102080051
3950.1974999998	0.0102471467
3952.1263073729	0.0103400433
3954.0551147459	0.0102710370
3955.9839221190	0.0102158207
3957.9127294920	0.0102517027
3959.8415368651	0.0103279352
3961.7703442381	0.0101986006
3963.6991516112	0.0101547856
3965.6279589842	0.0101441732
3967.5567663573	0.0100698005
3969.4855737303	0.0100596063
3971.4143811034	0.0099899666
3973.3431884764	0.0100392904
3975.2719958494	0.0099663511
3977.2008032225	0.0099460129
3979.1296105955	0.0099229701
3981.0584179686	0.0097878808
3982.9872253416	0.0098817684
3984.9160327147	0.0098503632
3986.8448400877	0.0097847804
3988.7736474608	0.0097167511
3990.7024548338	0.0097149406
3992.6312622069	0.0096766297
3994.5600695799	0.0095783649
3996.4888769530	0.0096399318
3998.4176843260	0.0095726438
4000.3464916991	0.0096531678
4002.2752990721	0.0096371984
4004.2041064451	0.0095194168
4006.1329138182	0.0095044617
4008.0617211912	0.0094198827
4009.9905285643	0.0094849262
4011.9193359373	0.0094460556
4013.8481433104	0.0093830824
4015.7769506834	0.0093758944
4017.7057580565	0.0093060285
4019.6345654295	0.0092590312
4021.5633728026	0.0092871729
4023.4921801756	0.0092372019
4025.4209875487	0.0091671534
4027.3497949217	0.0092699435
4029.2786022948	0.0091329738
4031.2074096678	0.0091130249
4033.1362170408	0.0091850106
4035.0650244139	0.0090624839
4036.9938317869	0.0090891868
4038.9226391600	0.0090462845
4040.8514465330	0.0090337042
4042.7802539061	0.0089983149
4044.7090612791	0.0089152288
4046.6378686522	0.0088988058
4048.5666760252	0.0088762958
4050.4954833983	0.0089311562
4052.4242907713	0.0089080445
4054.3530981444	0.0088747609
4056.2819055174	0.0088337939
4058.2107128905	0.0088158436
4060.1395202635	0.0087507945
4062.0683276365	0.0085979057
4063.9971350096	0.0086836182
4065.9259423826	0.0087164994
4067.8547497557	0.0086273653
4069.7835571287	0.0086539881
4071.7123645018	0.0086167762
4073.6411718748	0.0085749552
4075.5699792479	0.0085184369
4077.4987866209	0.0084043574
4079.4275939940	0.0084745996
4081.3564013670	0.0085253119
4083.2852087401	0.0084249955
4085.2140161131	0.0084034856
4087.1428234862	0.0082979770
4089.0716308592	0.0082600508
4091.0004382323	0.0084459540
4092.9292456053	0.0083675375
4094.8580529783	0.0082256561
4096.7868603514	0.0083432747
4098.7156677244	0.0082738278
4100.6444750975	0.0081310105
4102.5732824705	0.0082153780
4104.5020898436	0.0082467459
4106.4308972166	0.0081667472
4108.3597045897	0.0081619164
4110.2885119627	0.0081967171
4112.2173193358	0.0081744958
4114.1461267088	0.0081171645
4116.0749340819	0.0080278534
4118.0037414549	0.0080205202
4119.9325488280	0.0080126803
4121.8613562010	0.0079399347
4123.7901635740	0.0079584215
4125.7189709471	0.0078869350
4127.6477783201	0.0078505147
4129.5765856932	0.0079512103
4131.5053930662	0.0079080723
4133.4342004393	0.0077989064
4135.3630078123	0.0078434506
4137.2918151854	0.0079132989
4139.2206225584	0.0077980724
4141.1494299315	0.0077497493
4143.0782373045	0.0077894954
4145.0070446776	0.0077341478
4146.9358520506	0.0076945918
4148.8646594237	0.0076741790
4150.7934667967	0.0076513430
4152.7222741697	0.0076492801
4154.6510815428	0.0076303454
4156.5798889158	0.0075298324
4158.5086962889	0.0074601490
4160.4375036619	0.0074893832
4162.3663110350	0.0075219721
4164.2951184080	0.0075030355
4166.2239257811	0.0074826451
4168.1527331541	0.0074515240
4170.0815405272	0.0073906677
4172.0103479002	0.0074193263
4173.9391552733	0.0073840069
4175.8679626463	0.0073498432
4177.7967700194	0.0073679551
4179.7255773924	0.0073267398
4181.6543847654	0.0073621012
4183.5831921385	0.0073693311
4185.5119995115	0.0073241284
4187.4408068846	0.0071929758
4189.3696142576	0.0071238452
4191.2984216307	0.0072041163
4193.2272290037	0.0071628578
4195.1560363768	0.0071635479
4197.0848437498	0.0071984264
4199.0136511229	0.0071026203
4200.9424584959	0.0071153408
4202.8712658690	0.0071383421
4204.8000732420	0.0070225736
4206.7288806151	0.0070453496
4208.6576879881	0.0069799274
4210.5864953611	0.0069510140
4212.5153027342	0.0070869699
4214.4441101072	0.0069726286
4216.3729174803	0.0069507277
4218.3017248533	0.0068841795
4220.2305322264	0.0068420479
4222.1593395994	0.0069428375
4224.0881469725	0.0068576802
4226.0169543455	0.0069169481
4227.9457617186	0.0068609011
4229.8745690916	0.0067656692
4231.8033764647	0.0067722481
4233.7321838377	0.0067076725
4235.6609912108	0.0067328857
4237.5897985838	0.0067181676
4239.5186059569	0.0067188088
4241.4474133299	0.0066554644
4243.3762207029	0.0066566169
4245.3050280760	0.0066906032
4247.2338354490	0.0065974318
4249.1626428221	0.0066197035
4251.0914501951	0.0065824576
4253.0202575682	0.0065289633
4254.9490649412	0.0065354053
4256.8778723143	0.0065200981
4258.8066796873	0.0065620742
4260.7354870604	0.0065210713
4262.6642944334	0.0064422870
4264.5931018065	0.0064959191
4266.5219091795	0.0065018833
4268.4507165526	0.0064322734
4270.3795239256	0.0063905953
4272.3083312986	0.0063881245
4274.2371386717	0.0063903271
4276.1659460447	0.0063421801
4278.0947534178	0.0064159129
4280.0235607908	0.0063159931
4281.9523681639	0.0062079513
4283.8811755369	0.0063185543
4285.8099829100	0.0061774063
4287.7387902830	0.0062094443
4289.6675976561	0.0062824250
4291.5964050291	0.0061560250
4293.5252124022	0.0061828364
4295.4540197752	0.0061668344
4297.3828271483	0.0061642900
4299.3116345213	0.0061660102
4301.2404418943	0.0061044614
4303.1692492674	0.0060838135
4305.0980566404	0.0060938322
4307.0268640135	0.0060385792
4308.9556713865	0.0060040718
4310.8844787596	0.0060580354
4312.8132861326	0.0060663698
4314.7420935057	0.0060219578
4316.6709008787	0.0059300470
4318.5997082518	0.0059557157
4320.5285156248	0.0059138881
4322.4573229979	0.0058569135
4324.3861303709	0.0059670927
4326.3149377440	0.0059435796
4328.2437451170	0.0059481021
4330.1725524900	0.0059230593
4332.1013598631	0.0058232350
4334.0301672361	0.0058285813
4335.9589746092	0.0058051152
4337.8877819822	0.0058275955
4339.8165893553	0.0058944514
4341.7453967283	0.0057798922
4343.6742041014	0.0056966254
4345.6030114744	0.0057798191
4347.5318188475	0.0057207872
4349.4606262205	0.0056910259
4351.3894335936	0.0057276459
4353.3182409666	0.0056860060
4355.2470483397	0.0056527872
4357.1758557127	0.0056483317
4359.1046630858	0.0056313938
4361.0334704588	0.0055685472
4362.9622778318	0.0056580026
4364.8910852049	0.0056151459
4366.8198925779	0.0054959501
4368.7486999510	0.0055497661
4370.6775073240	0.0055346824
4372.6063146971	0.0055238446
4374.5351220701	0.0055138161
4376.4639294432	0.0055398233
4378.3927368162	0.0054897796
4380.3215441893	0.0054544820
4382.2503515623	0.0054524969
4384.1791589354	0.0053929957
4386.1079663084	0.0054204492
4388.0367736815	0.0053351074
4389.9655810545	0.0053638369
4391.8943884275	0.0054433593
4393.8231958006	0.0054618819
4395.7520031736	0.0053998157
4397.6808105467	0.0052744392
4399.6096179197	0.0053360919
4401.5384252928	0.0052597374
4403.4672326658	0.0052692983
4405.3960400389	0.0052868482
4407.3248474119	0.0052130911
4409.2536547850	0.0052192928
4411.1824621580	0.0051232674
4413.1112695311	0.0051737353
4415.0400769041	0.0051411828
4416.9688842772	0.0051286370
4418.8976916502	0.0052090883
4420.8264990232	0.0051481584
4422.7553063963	0.0051272577
4424.6841137693	0.0050952355
4426.6129211424	0.0051540015
4428.5417285154	0.0051553696
4430.4705358885	0.0051001739
4432.3993432615	0.0051021436
4434.3281506346	0.0050155739
4436.2569580076	0.0050358688
4438.1857653807	0.0050715646
4440.1145727537	0.0049228463
4442.0433801268	0.0049291328
4443.9721874998	0.0050895968
4445.9009948729	0.0050269142
4447.8298022459	0.0049523637
4449.7586096189	0.0049269581
4451.6874169920	0.0048822360
4453.6162243650	0.0048336526
4455.5450317381	0.0047858413
4457.4738391111	0.0048793131
4459.4026464842	0.0048836437
4461.3314538572	0.0048491694
4463.2602612303	0.0047932537
4465.1890686033	0.0047757393
4467.1178759764	0.0048507396
4469.0466833494	0.0047609443
4470.9754907225	0.0047007222
4472.9042980955	0.0046637133
4474.8331054686	0.0046999538
4476.7619128416	0.0047684787
4478.6907202147	0.0047458312
4480.6195275877	0.0046747155
4482.5483349607	0.0046251267
4484.4771423338	0.0047457945
4486.4059497068	0.0046303803
4488.3347570799	0.0045651752
4490.2635644529	0.0046765725
4492.1923718260	0.0046225572
4494.1211791990	0.0046524275
4496.0499865721	0.0045636506
4497.9787939451	0.0045164544
4499.9076013182	0.0045894608
4501.8364086912	0.0045738234
4503.7652160643	0.0046031876
4505.6940234373	0.0045690229
4507.6228308104	0.0045126667
4509.5516381834	0.0044997446
4511.4804455564	0.0045157252
4513.4092529295	0.0045214109
4515.3380603025	0.0044689314
4517.2668676756	0.0044395565
4519.1956750486	0.0044460581
4521.1244824217	0.0043518841
4523.0532897947	0.0043685460
4524.9820971678	0.0045046550
4526.9109045408	0.0043798629
4528.8397119139	0.0043886523
4530.7685192869	0.0044219065
4532.6973266600	0.0042750658
4534.6261340330	0.0042896457
4536.5549414061	0.0042813728
4538.4837487791	0.0042974725
4540.4125561521	0.0043094512
4542.3413635252	0.0043287426
4544.2701708982	0.0043129642
4546.1989782713	0.0042263521
4548.1277856443	0.0042646015
4550.0565930174	0.0042452505
4551.9854003904	0.0042517888
4553.9142077635	0.0041872412
4555.8430151365	0.0041732490
4557.7718225096	0.0042381538
4559.7006298826	0.0041240025
4561.6294372557	0.0041527208
4563.5582446287	0.0041486532
4565.4870520018	0.0041459603
4567.4158593748	0.0041422532
4569.3446667478	0.0040318342
4571.2734741209	0.0041241380
4573.2022814939	0.0041304929
4575.1310888670	0.0040906444
4577.0598962400	0.0040885657
4578.9887036131	0.0040528830
4580.9175109861	0.0040969355
4582.8463183592	0.0040213969
4584.7751257322	0.0040025543
4586.7039331053	0.0040631890
4588.6327404783	0.0040285485
4590.5615478514	0.0040538209
4592.4903552244	0.0040305555
4594.4191625975	0.0039562611
4596.3479699705	0.0039197248
4598.2767773435	0.0039309817
4600.2055847166	0.0039532143
4602.1343920896	0.0038628490
4604.0631994627	0.0039008555
4605.9920068357	0.0039178450
4607.9208142088	0.0038506803
4609.8496215818	0.0039326632
4611.7784289549	0.0038294510
4613.7072363279	0.0037714168
4615.6360437010	0.0038672094
4617.5648510740	0.0038573947
4619.4936584471	0.0038319484
4621.4224658201	0.0037834540
4623.3512731932	0.0038161799
4625.2800805662	0.0037891308
4627.2088879393	0.0037000189
4629.1376953123	0.0037057674
4631.0665026853	0.0037427498
4632.9953100584	0.0037235692
4634.9241174314	0.0036664146
4636.8529248045	0.0037232686
4638.7817321775	0.0037517091
4640.7105395506	0.0037556328
4642.6393469236	0.0037147098
4644.5681542967	0.0036858923
4646.4969616697	0.0037012650
4648.4257690428	0.0035950097
4650.3545764158	0.0035908516
4652.2833837889	0.0036226828
4654.2121911619	0.0036192234
4656.1409985350	0.0035261349
4658.0698059080	0.0034962110
4659.9986132810	0.0036574239
4661.9274206541	0.0035779630
4663.8562280271	0.0035127499
4665.7850354002	0.0036166166
4667.7138427732	0.0036182038
4669.6426501463	0.0035621133
4671.5714575193	0.0035489430
4673.5002648924	0.0035367054
4675.4290722654	0.0034893188
4677.3578796385	0.0035037738
4679.2866870115	0.0034811881
4681.2154943846	0.0034494298
4683.1443017576	0.0034737345
4685.0731091307	0.0035268862
4687.0019165037	0.0034638182
4688.9307238767	0.0033785733
4690.8595312498	0.0034458931
4692.7883386228	0.0034234328
4694.7171459959	0.0034545758
4696.6459533689	0.0034337011
4698.5747607420	0.0033559618
4700.5035681150	0.0033899711
4702.4323754881	0.0033384080
4704.3611828611	0.0033665351
4706.2899902342	0.0033494337
4708.2187976072	0.0033133926
4710.1476049803	0.0033371183
4712.0764123533	0.0033015343
4714.0052197264	0.0033150264
4715.9340270994	0.0032894439
4717.8628344724	0.0032870616
4719.7916418455	0.0033317050
4721.7204492185	0.0033604875
4723.6492565916	0.0032932889
4725.5780639646	0.0032643375
4727.5068713377	0.0032952679
4729.4356787107	0.0031723171
4731.3644860838	0.0032285354
4733.2932934568	0.0032821952
4735.2221008299	0.0031752577
4737.1509082029	0.0031963335
4739.0797155760	0.0031729508
4741.0085229490	0.0031589619
4742.9373303221	0.0031718798
4744.8661376951	0.0031747678
4746.7949450682	0.0031747120
4748.7237524412	0.0030996532
4750.6525598142	0.0031276653
4752.5813671873	0.0032008803
4754.5101745603	0.0031758882
4756.4389819334	0.0031119157
4758.3677893064	0.0031663910
4760.2965966795	0.0032000127
4762.2254040525	0.0030620866
4764.1542114256	0.0030721354
4766.0830187986	0.0030846107
4768.0118261717	0.0030542421
4769.9406335447	0.0030928440
4771.8694409178	0.0030271104
4773.7982482908	0.0030825976
4775.7270556639	0.0031069750
4777.6558630369	0.0029674023
4779.5846704099	0.0029197363
4781.5134777830	0.0029860826
4783.4422851560	0.0030148812
4785.3710925291	0.0029510094
4787.2998999021	0.0030089663
4789.2287072752	0.0029713330
4791.1575146482	0.0028435970
4793.0863220213	0.0028815232
4795.0151293943	0.0029508739
4796.9439367674	0.0029783840
4798.8727441404	0.0028922544
4800.8015515135	0.0028668814
4802.7303588865	0.0029011262
4804.6591662596	0.0029177221
4806.5879736326	0.0029505463
4808.5167810056	0.0029151659
4810.4455883787	0.0028378395
4812.3743957517	0.0027724840
4814.3032031248	0.0028313224
4816.2320104978	0.0028002316
4818.1608178709	0.0028016339
4820.0896252439	0.0028885799
4822.0184326170	0.0027636590
4823.9472399900	0.0027213062
4825.8760473631	0.0027379426
4827.8048547361	0.0027858696
4829.7336621092	0.0028623338
4831.6624694822	0.0028047801
4833.5912768553	0.0027553062
4835.5200842283	0.0027476007
4837.4488916013	0.0027679596
4839.3776989744	0.0027624657
4841.3065063474	0.0027396367
4843.2353137205	0.0026729675
4845.1641210935	0.0027138807
4847.0929284666	0.0027492661
4849.0217358396	0.0026330673
4850.9505432127	0.0026895455
4852.8793505857	0.0026796721
4854.8081579588	0.0026776658
4856.7369653318	0.0026872137
4858.6657727049	0.0025699981
4860.5945800779	0.0026414501
4862.5233874510	0.0026396834
4864.4521948240	0.0025983877
4866.3810021971	0.0025809349
4868.3098095701	0.0025894642
4870.2386169431	0.0026157575
4872.1674243162	0.0025182771
4874.0962316892	0.0026543965
4876.0250390623	0.0026546195
4877.9538464353	0.0025101777
4879.8826538084	0.0025797621
4881.8114611814	0.0025384864
4883.7402685545	0.0025915559
4885.6690759275	0.0026342142
4887.5978833006	0.0025461065
4889.5266906736	0.0025565345
4891.4554980467	0.0025228979
4893.3843054197	0.0025087460
4895.3131127928	0.0025209906
4897.2419201658	0.0024957792
4899.1707275388	0.0024857582
4901.0995349119	0.0025184925
4903.0283422849	0.0025427695
4904.9571496580	0.0024825756
4906.8859570310	0.0024575312
4908.8147644041	0.0024576643
4910.7435717771	0.0024116314
4912.6723791502	0.0024018076
4914.6011865232	0.0024626628
4916.5299938963	0.0024775029
4918.4588012693	0.0024116389
4920.3876086424	0.0023669326
4922.3164160154	0.0023529937
4924.2452233885	0.0023579642
4926.1740307615	0.0023293155
4928.1028381345	0.0023451080
4930.0316455076	0.0023891991
4931.9604528806	0.0023311160
4933.8892602537	0.0023531923
4935.8180676267	0.0024059350
4937.7468749998	0.0023675619
4939.6756823728	0.0023549576
4941.6044897459	0.0023486509
4943.5332971189	0.0023390057
4945.4621044920	0.0023352779
4947.3909118650	0.0023219683
4949.3197192381	0.0023287307
4951.2485266111	0.0023350297
4953.1773339842	0.0022971365
4955.1061413572	0.0022766055
4957.0349487302	0.0022778544
4958.9637561033	0.0022504928
4960.8925634763	0.0022788779
4962.8213708494	0.0022622126
4964.7501782224	0.0021847617
4966.6789855955	0.0022799782
4968.6077929685	0.0023529804
4970.5366003416	0.0022592379
4972.4654077146	0.0022585415
4974.3942150877	0.0022732145
4976.3230224607	0.0021893876
4978.2518298338	0.0021761530
4980.1806372068	0.0022253809
4982.1094445799	0.0022794611
4984.0382519529	0.0022722911
4985.9670593259	0.0022098864
4987.8958666990	0.0022110068
4989.8246740720	0.0021693697
4991.7534814451	0.0021131993
4993.6822888181	0.0021217675
4995.6110961912	0.0021295222
4997.5399035642	0.0021189149
4999.4687109373	0.0020899749
5001.3975183103	0.0021478431
5003.3263256834	0.0021392850
5005.2551330564	0.0020836284
5007.1839404295	0.0021452578
5009.1127478025	0.0021542159
5011.0415551756	0.0021308444
5012.9703625486	0.0020675403
5014.8991699217	0.0020984928
5016.8279772947	0.0021657639
5018.7567846677	0.0020903968
5020.6855920408	0.0020698961
5022.6143994138	0.0020285074
5024.5432067869	0.0020330171
5026.4720141599	0.0020287493
5028.4008215330	0.0019958974
5030.3296289060	0.0020792093
5032.2584362791	0.0020609463
5034.1872436521	0.0020085170
5036.1160510252	0.0019963011
5038.0448583982	0.0019964629
5039.9736657713	0.0019960175
5041.9024731443	0.0019922918
5043.8312805174	0.0019651647
5045.7600878904	0.0019619255
5047.6888952634	0.0019939803
5049.6177026365	0.0019502457
5051.5465100095	0.0020012823
5053.4753173826	0.0019958261
5055.4041247556	0.0019819252
5057.3329321287	0.0019415305
5059.2617395017	0.0018377375
5061.1905468748	0.0019021851
5063.1193542478	0.0018553114
5065.0481616209	0.0019189208
5066.9769689939	0.0019418194
5068.9057763670	0.0018593569
5070.8345837400	0.0019235590
5072.7633911131	0.0018990114
5074.6921984861	0.0018983911
5076.6210058591	0.0018070223
5078.5498132322	0.0018792883
5080.4786206052	0.0019640732
5082.4074279783	0.0018765648
5084.3362353513	0.0018631481
5086.2650427244	0.0017645587
5088.1938500974	0.0018508654
5090.1226574705	0.0018706975
5092.0514648435	0.0018637555
5093.9802722166	0.0018996499
5095.9090795896	0.0018073909
5097.8378869627	0.0018626479
5099.7666943357	0.0018537146
5101.6955017088	0.0018489838
5103.6243090818	0.0017928440
5105.5531164548	0.0017597440
5107.4819238279	0.0018132214
5109.4107312009	0.0017523908
5111.3395385740	0.0017594616
5113.2683459470	0.0017784762
5115.1971533201	0.0018384944
5117.1259606931	0.0018354018
5119.0547680662	0.0017974365
5120.9835754392	0.0017711591
5122.9123828123	0.0017105730
5124.8411901853	0.0017828125
5126.7699975584	0.0017767259
5128.6988049314	0.0016918796
5130.6276123045	0.0016944152
5132.5564196775	0.0017469903
5134.4852270506	0.0017323159
5136.4140344236	0.0016875216
5138.3428417966	0.0017041918
5140.2716491697	0.0017223338
5142.2004565427	0.0017073978
5144.1292639158	0.0016605908
5146.0580712888	0.0016710092
5147.9868786619	0.0016799457
5149.9156860349	0.0016878918
5151.8444934080	0.0016705346
5153.7733007810	0.0016567998
5155.7021081541	0.0016767312
5157.6309155271	0.0016159816
5159.5597229002	0.0016203558
5161.4885302732	0.0016449504
5163.4173376463	0.0016416992
5165.3461450193	0.0016280941
5167.2749523923	0.0016414910
5169.2037597654	0.0016723003
5171.1325671384	0.0016110754
5173.0613745115	0.0016100662
5174.9901818845	0.0016013571
5176.9189892576	0.0015755799
5178.8477966306	0.0015939397
5180.7766040037	0.0016102960
5182.7054113767	0.0016506615
5184.6342187498	0.0015852578
5186.5630261228	0.0015008583
5188.4918334959	0.0015175045
5190.4206408689	0.0015220456
5192.3494482420	0.0015379949
5194.2782556150	0.0015512053
5196.2070629880	0.0015524777
5198.1358703611	0.0015796464
5200.0646777341	0.0015287616
5201.9934851072	0.0015418528
5203.9222924802	0.0015636573
5205.8510998533	0.0015240955
5207.7799072263	0.0015136120
5209.7087145994	0.0015129766
5211.6375219724	0.0016293540
5213.5663293455	0.0015460611
5215.4951367185	0.0014845785
5217.4239440916	0.0015059354
5219.3527514646	0.0014195401
5221.2815588377	0.0015260784
5223.2103662107	0.0014462746
5225.1391735837	0.0014525352
5227.0679809568	0.0015184019
5228.9967883298	0.0014413098
5230.9255957029	0.0015036955
5232.8544030759	0.0014686519
5234.7832104490	0.0015447545
5236.7120178220	0.0015266088
5238.6408251951	0.0014853682
5240.5696325681	0.0014816973
5242.4984399412	0.0013824182
5244.4272473142	0.0014848667
5246.3560546873	0.0014456708
5248.2848620603	0.0013997420
5250.2136694334	0.0014222803
5252.1424768064	0.0014136467
5254.0712841795	0.0013868709
5256.0000915525	0.0013375620
5257.9288989255	0.0014494271
5259.8577062986	0.0014516520
5261.7865136716	0.0014255154
5263.7153210447	0.0014349192
5265.6441284177	0.0013800078
5267.5729357908	0.0013596280
5269.5017431638	0.0014136035
5271.4305505369	0.0014026471
5273.3593579099	0.0012927447
5275.2881652830	0.0013964769
5277.2169726560	0.0014514432
5279.1457800291	0.0013804807
5281.0745874021	0.0013793664
5283.0033947752	0.0014037496
5284.9322021482	0.0014524305
5286.8610095212	0.0013723955
5288.7898168943	0.0013209246
5290.7186242673	0.0013700537
5292.6474316404	0.0013748559
5294.5762390134	0.0013542084
5296.5050463865	0.0013422933
5298.4338537595	0.0013895817
5300.3626611326	0.0013889477
5302.2914685056	0.0013100987
5304.2202758787	0.0013281401
5306.1490832517	0.0013055517
5308.0778906248	0.0012275141
5310.0066979978	0.0012796747
5311.9355053709	0.0012918338
5313.8643127439	0.0012988641
5315.7931201169	0.0013106999
5317.7219274900	0.0012999414
5319.6507348630	0.0012949677
5321.5795422361	0.0012809804
5323.5083496091	0.0013291993
5325.4371569822	0.0012740265
5327.3659643552	0.0012382660
5329.2947717283	0.0012595195
5331.2235791013	0.0012720895
5333.1523864744	0.0012535041
5335.0811938474	0.0012650595
5337.0100012205	0.0013246868
5338.9388085935	0.0011727987
5340.8676159666	0.0012329530
5342.7964233396	0.0012523225
5344.7252307126	0.0011141218
5346.6540380857	0.0012254922
5348.5828454587	0.0012234835
5350.5116528318	0.0012803667
5352.4404602048	0.0012662067
5354.3692675779	0.0012087827
5356.2980749509	0.0012579937
5358.2268823240	0.0011936829
5360.1556896970	0.0012224857
5362.0844970701	0.0012634590
5364.0133044431	0.0012992641
5365.9421118162	0.0012071824
5367.8709191892	0.0011865415
5369.7997265623	0.0012616123
5371.7285339353	0.0011751299
5373.6573413083	0.0012084227
5375.5861486814	0.0011545650
5377.5149560544	0.0011777515
5379.4437634275	0.0012247004
5381.3725708005	0.0011139838
5383.3013781736	0.0011927607
5385.2301855466	0.0011685134
5387.1589929197	0.0011417624
5389.0878002927	0.0011628610
5391.0166076658	0.0011214804
5392.9454150388	0.0011809585
5394.8742224119	0.0011761746
5396.8030297849	0.0011822206
5398.7318371580	0.0011358247
5400.6606445310	0.0011499667
5402.5894519041	0.0012564474
5404.5182592771	0.0011564633
5406.4470666501	0.0011756803
5408.3758740232	0.0011834376
5410.3046813962	0.0010501717
5412.2334887693	0.0011247740
5414.1622961423	0.0011411017
5416.0911035154	0.0010549296
5418.0199108884	0.0011229147
5419.9487182615	0.0011553523
5421.8775256345	0.0011167466
5423.8063330076	0.0011769808
5425.7351403806	0.0011518300
5427.6639477537	0.0010711128
5429.5927551267	0.0010678839
5431.5215624998	0.0010975270
5433.4503698728	0.0011344975
5435.3791772458	0.0010656902
5437.3079846189	0.0011013076
5439.2367919919	0.0010695216
5441.1655993650	0.0009845616
5443.0944067380	0.0011265909
5445.0232141111	0.0010760068
5446.9520214841	0.0010040675
5448.8808288572	0.0010185600
5450.8096362302	0.0010397015
5452.7384436033	0.0011393543
5454.6672509763	0.0010511742
5456.5960583494	0.0010028782
5458.5248657224	0.0010582437
5460.4536730955	0.0009759126
5462.3824804685	0.0009009669
5464.3112878415	0.0009472844
5466.2400952146	0.0010031135
5468.1689025876	0.0010259331
5470.0977099607	0.0009970639
5472.0265173337	0.0010491260
5473.9553247068	0.0010719176
5475.8841320798	0.0009148973
5477.8129394529	0.0010046910
5479.7417468259	0.0010181400
5481.6705541990	0.0009688330
5483.5993615720	0.0010707537
5485.5281689451	0.0009845493
5487.4569763181	0.0010644146
5489.3857836912	0.0010253781
5491.3145910642	0.0009075693
5493.2433984372	0.0009811596
5495.1722058103	0.0009496255
5497.1010131833	0.0009655514
5499.0298205564	0.0009320827
5500.9586279294	0.0009898050
5502.8874353025	0.0010033050
5504.8162426755	0.0008849303
5506.7450500486	0.0009477006
5508.6738574216	0.0009377178
5510.6026647947	0.0009278111
5512.5314721677	0.0009821863
5514.4602795408	0.0010008474
5516.3890869138	0.0010100000
5518.3178942869	0.0009426784
5520.2467016599	0.0009194197
5522.1755090330	0.0009558168
5524.1043164060	0.0009602413
5526.0331237790	0.0009886832
5527.9619311521	0.0009711302
5529.8907385251	0.0009139500
5531.8195458982	0.0009554705
5533.7483532712	0.0009315965
5535.6771606443	0.0008728052
5537.6059680173	0.0009631461
5539.5347753904	0.0010104738
5541.4635827634	0.0009137907
5543.3923901365	0.0008985304
5545.3211975095	0.0009333008
5547.2500048826	0.0009401791
5549.1788122556	0.0009808425
5551.1076196287	0.0008675120
5553.0364270017	0.0008537129
5554.9652343747	0.0009388747
5556.8940417478	0.0008920009
5558.8228491208	0.0009236275
5560.7516564939	0.0008879285
5562.6804638669	0.0008874938
5564.6092712400	0.0008986764
5566.5380786130	0.0008580238
5568.4668859861	0.0009274972
5570.3956933591	0.0009228208
5572.3245007322	0.0008918963
5574.2533081052	0.0008297609
5576.1821154783	0.0008421084
5578.1109228513	0.0008987209
5580.0397302244	0.0008224231
5581.9685375974	0.0008258095
5583.8973449704	0.0008770180
5585.8261523435	0.0008874739
5587.7549597165	0.0008212019
5589.6837670896	0.0007808826
5591.6125744626	0.0008684357
5593.5413818357	0.0008654121
5595.4701892087	0.0008272802
5597.3989965818	0.0008766406
5599.3278039548	0.0008343236
5601.2566113279	0.0007892277
5603.1854187009	0.0008478284
5605.1142260740	0.0008293152
5607.0430334470	0.0008399180
5608.9718408201	0.0008512427
5610.9006481931	0.0007715231
5612.8294555661	0.0007526382
5614.7582629392	0.0007989577
5616.6870703122	0.0008609549
5618.6158776853	0.0008349472
5620.5446850583	0.0008422829
5622.4734924314	0.0007903879
5624.4022998044	0.0006689312
5626.3311071775	0.0007924285
5628.2599145505	0.0008117972
5630.1887219236	0.0007580562
5632.1175292966	0.0007941559
5634.0463366697	0.0007469770
5635.9751440427	0.0008255191
5637.9039514158	0.0008249676
5639.8327587888	0.0007286667
5641.7615661619	0.0007517213
5643.6903735349	0.0007373432
5645.6191809079	0.0007569332
5647.5479882810	0.0007681396
5649.4767956540	0.0007648051
5651.4056030271	0.0008018853
5653.3344104001	0.0007653787
5655.2632177732	0.0007712035
5657.1920251462	0.0007936473
5659.1208325193	0.0007135315
5661.0496398923	0.0006764670
5662.9784472654	0.0007217390
5664.9072546384	0.0007508332
5666.8360620115	0.0007510029
5668.7648693845	0.0007289906
5670.6936767576	0.0007453184
5672.6224841306	0.0007718873
5674.5512915036	0.0007437580
5676.4800988767	0.0007576718
5678.4089062497	0.0007631034
5680.3377136228	0.0007285713
5682.2665209958	0.0007566124
5684.1953283689	0.0007615814
5686.1241357419	0.0007271265
5688.0529431150	0.0007723318
5689.9817504880	0.0007307753
5691.9105578611	0.0006804963
5693.8393652341	0.0007989588
5695.7681726072	0.0007327087
5697.6969799802	0.0006482534
5699.6257873533	0.0007162536
5701.5545947263	0.0006931269
5703.4834020993	0.0007268242
5705.4122094724	0.0007974906
5707.3410168454	0.0007455949
5709.2698242185	0.0006092329
5711.1986315915	0.0006329946
5713.1274389646	0.0006844269
5715.0562463376	0.0006249815
5716.9850537107	0.0006829845
5718.9138610837	0.0007242773
5720.8426684568	0.0007791029
5722.7714758298	0.0007249559
5724.7002832029	0.0006166494
5726.6290905759	0.0006872375
5728.5578979490	0.0006384471
5730.4867053220	0.0005911272
5732.4155126950	0.0006569047
5734.3443200681	0.0006787748
5736.2731274411	0.0006641984
5738.2019348142	0.0006608410
5740.1307421872	0.0006572041
5742.0595495603	0.0006689364
5743.9883569333	0.0006776435
5745.9171643064	0.0006247576
5747.8459716794	0.0006337257
5749.7747790525	0.0006350989
5751.7035864255	0.0006291746
5753.6323937986	0.0006303756
5755.5612011716	0.0006321409
5757.4900085447	0.0006448649
5759.4188159177	0.0006112286
5761.3476232907	0.0006379305
5763.2764306638	0.0005961790
5765.2052380368	0.0005979503
5767.1340454099	0.0006620449
5769.0628527829	0.0006139377
5770.9916601560	0.0006416478
5772.9204675290	0.0006920154
5774.8492749021	0.0006224550
5776.7780822751	0.0006085100
5778.7068896482	0.0006529574
5780.6356970212	0.0005578722
5782.5645043943	0.0006226550
5784.4933117673	0.0006620868
5786.4221191404	0.0005559055
5788.3509265134	0.0005980500
5790.2797338865	0.0005584251
5792.2085412595	0.0006077945
5794.1373486325	0.0005815763
5796.0661560056	0.0005451015
5797.9949633786	0.0006675033
5799.9237707517	0.0005799407
5801.8525781247	0.0005602504
5803.7813854978	0.0005905597
5805.7101928708	0.0005828693
5807.6390002439	0.0006370661
5809.5678076169	0.0006227795
5811.4966149900	0.0005149962
5813.4254223630	0.0005271214
5815.3542297361	0.0005826624
5817.2830371091	0.0005181683
5819.2118444822	0.0005536692
5821.1406518552	0.0005565354
5823.0694592282	0.0005913227
5824.9982666013	0.0005805616
5826.9270739743	0.0005641279
5828.8558813474	0.0006174441
5830.7846887204	0.0005575567
5832.7134960935	0.0005892522
5834.6423034665	0.0004741454
5836.5711108396	0.0004849943
5838.4999182126	0.0005536949
5840.4287255857	0.0005064934
5842.3575329587	0.0005778383
5844.2863403318	0.0004894590
5846.2151477048	0.0005616739
5848.1439550779	0.0005572762
5850.0727624509	0.0005259958
5852.0015698239	0.0005790973
5853.9303771970	0.0004906844
5855.8591845700	0.0005842372
5857.7879919431	0.0005169258
5859.7167993161	0.0004882350
5861.6456066892	0.0005235696
5863.5744140622	0.0004968399
5865.5032214353	0.0005693668
5867.4320288083	0.0005179150
5869.3608361814	0.0005701180
5871.2896435544	0.0005363923
5873.2184509275	0.0004891195
5875.1472583005	0.0005881444
5877.0760656736	0.0005291642
5879.0048730466	0.0004868358
5880.9336804196	0.0004806470
5882.8624877927	0.0004809145
5884.7912951657	0.0005173354
5886.7201025388	0.0004992795
5888.6489099118	0.0005076313
5890.5777172849	0.0005621106
5892.5065246579	0.0005288920
5894.4353320310	0.0004643209
5896.3641394040	0.0004760445
5898.2929467771	0.0005008717
5900.2217541501	0.0005154328
5902.1505615232	0.0005449696
5904.0793688962	0.0005139259
5906.0081762693	0.0004595371
5907.9369836423	0.0005122956
5909.8657910154	0.0005223925
5911.7945983884	0.0004722660
5913.7234057614	0.0004401636
5915.6522131345	0.0004568742
5917.5810205075	0.0005289383
5919.5098278806	0.0004991130
5921.4386352536	0.0004314767
5923.3674426267	0.0004709427
5925.2962499997	0.0005329262
5927.2250573728	0.0004420158
5929.1538647458	0.0004293970
5931.0826721189	0.0005008758
5933.0114794919	0.0004858138
5934.9402868650	0.0005233620
5936.8690942380	0.0004557960
5938.7979016111	0.0004626996
5940.7267089841	0.0004982340
5942.6555163571	0.0004322024
5944.5843237302	0.0004661167
5946.5131311032	0.0004246803
5948.4419384763	0.0004425472
5950.3707458493	0.0004585220
5952.2995532224	0.0004046580
5954.2283605954	0.0004639662
5956.1571679685	0.0004528361
5958.0859753415	0.0004329426
5960.0147827146	0.0005337323
5961.9435900876	0.0005504713
5963.8723974607	0.0004701318
5965.8012048337	0.0004677595
5967.7300122068	0.0004685650
5969.6588195798	0.0004674220
5971.5876269528	0.0004461745
5973.5164343259	0.0004405871
5975.4452416989	0.0004618288
5977.3740490720	0.0004108548
5979.3028564450	0.0004334592
5981.2316638181	0.0004240698
5983.1604711911	0.0004260750
5985.0892785642	0.0004291352
5987.0180859372	0.0003684960
5988.9468933103	0.0004161191
5990.8757006833	0.0004058807
5992.8045080564	0.0004088352
5994.7333154294	0.0004117375
5996.6621228025	0.0003648839
5998.5909301755	0.0003890344
6000.5197375485	0.0004308142
