399.2631262207	0.0001908596
401.1919335938	0.0005614168
403.1207409668	-0.0000407562
405.0495483398	0.0006886854
406.9783557129	0.0004816848
408.9071630859	0.0002698890
410.8359704590	0.0004951406
412.7647778320	0.0001555022
414.6935852051	0.0008027859
416.6223925781	0.0005421501
418.5511999512	0.0002255439
420.4800073242	0.0007341667
422.4088146973	0.0005304661
424.3376220703	0.0006421417
426.2664294434	0.0006413540
428.1952368164	0.0004072328
430.1240441895	0.0006835473
432.0528515625	0.0008624246
433.9816589355	0.0008399022
435.9104663086	0.0007258257
437.8392736816	0.0004773015
439.7680810547	0.0003380299
441.6968884277	0.0006055832
443.6256958008	0.0005891612
445.5545031738	0.0003431887
447.4833105469	0.0005955701
449.4121179199	0.0005610222
451.3409252930	0.0004169048
453.2697326660	0.0008299694
455.1985400391	0.0006597689
457.1273474121	0.0000277284
459.0561547852	0.0003368547
460.9849621582	0.0005943802
462.9137695313	0.0004418392
464.8425769043	0.0004160433
466.7713842773	0.0000431188
468.7001916504	0.0000207598
470.6289990234	0.0004788233
472.5578063965	0.0007666880
474.4866137695	0.0003010370
476.4154211426	0.0002948565
478.3442285156	0.0009349056
480.2730358887	0.0002997731
482.2018432617	0.0000221745
484.1306506348	0.0004217122
486.0594580078	0.0001104570
487.9882653809	-0.0001326682
489.9170727539	0.0002118666
491.8458801270	0.0005016827
493.7746875000	0.0003431423
495.7034948730	0.0003754828
497.6323022461	0.0006332800
499.5611096191	0.0005737931
501.4899169922	-0.0000343353
503.4187243652	0.0000181334
505.3475317383	0.0003160420
507.2763391113	0.0002276695
509.2051464844	0.0004805089
511.1339538574	0.0002723121
513.0627612305	0.0003569285
514.9915686035	0.0003903212
516.9203759766	0.0001603486
518.8491833496	0.0001954995
520.7779907227	0.0000149666
522.7067980957	0.0003024830
524.6356054688	0.0003453488
526.5644128418	0.0003789413
528.4932202148	0.0004354129
530.4220275879	0.0003215743
532.3508349609	0.0005337452
534.2796423340	0.0002492779
536.2084497070	0.0002027041
538.1372570801	0.0004279584
540.0660644531	0.0002735792
541.9948718262	0.0000757561
543.9236791992	0.0003358541
545.8524865723	0.0002656134
547.7812939453	-0.0001812582
549.7101013184	0.0000668721
551.6389086914	-0.0000399117
553.5677160645	0.0003004956
555.4965234375	0.0005080884
557.4253308105	0.0000380795
559.3541381836	0.0003302065
561.2829455566	0.0001547040
563.2117529297	0.0000248573
565.1405603027	0.0000485595
567.0693676758	0.0000717152
568.9981750488	0.0001472849
570.9269824219	0.0000735190
572.8557897949	0.0004766177
574.7845971680	0.0005921302
576.7134045410	0.0006425691
578.6422119141	0.0003163474
580.5710192871	0.0003602006
582.4998266602	0.0004627576
584.4286340332	-0.0001481999
586.3574414063	-0.0000039939
588.2862487793	-0.0001646207
590.2150561523	-0.0001867077
592.1438635254	-0.0001169042
594.0726708984	-0.0002206882
596.0014782715	0.0001592675
597.9302856445	0.0000804387
599.8590930176	0.0003662570
601.7879003906	0.0001408116
603.7167077637	-0.0003312056
605.6455151367	0.0003385147
607.5743225098	0.0003117658
609.5031298828	-0.0000133836
611.4319372559	0.0002412490
613.3607446289	0.0001084260
615.2895520020	-0.0001693314
617.2183593750	0.0001297811
619.1471667480	0.0004020151
621.0759741211	-0.0000113227
623.0047814941	-0.0002235131
624.9335888672	-0.0002029390
626.8623962402	-0.0001116827
628.7912036133	0.0002305140
630.7200109863	0.0001310210
632.6488183594	0.0003953539
634.5776257324	0.0007424259
636.5064331055	0.0005054681
638.4352404785	0.0007415339
640.3640478516	0.0004095587
642.2928552246	0.0003576031
644.2216625977	0.0010731670
646.1504699707	0.0011889240
648.0792773438	0.0012123041
650.0080847168	0.0008993725
651.9368920898	0.0011430965
653.8656994629	0.0014272949
655.7945068359	0.0011477278
657.7233142090	0.0013294590
659.6521215820	0.0013529985
661.5809289551	0.0015397766
663.5097363281	0.0015332669
665.4385437012	0.0015798146
667.3673510742	0.0014639498
669.2961584473	0.0013754019
671.2249658203	0.0021143393
673.1537731934	0.0016308187
675.0825805664	0.0014317000
677.0113879395	0.0018520649
678.9401953125	0.0017667859
680.8690026855	0.0020753979
682.7978100586	0.0018447454
684.7266174316	0.0020946944
686.6554248047	0.0023159145
688.5842321777	0.0018820656
690.5130395508	0.0019831676
692.4418469238	0.0020821756
694.3706542969	0.0025355378
696.2994616699	0.0027071903
698.2282690430	0.0029513398
700.1570764160	0.0034306257
702.0858837891	0.0029299809
704.0146911621	0.0029674536
705.9434985352	0.0029810555
707.8723059082	0.0022791259
709.8011132813	0.0019709179
711.7299206543	0.0013848803
713.6587280273	0.0007678863
715.5875354004	0.0005391109
717.5163427734	0.0001983374
719.4451501465	-0.0000523096
721.3739575195	0.0002467789
723.3027648926	0.0002331178
725.2315722656	0.0000550332
727.1603796387	0.0005458012
729.0891870117	0.0003115782
731.0179943848	0.0000714756
732.9468017578	0.0001413678
734.8756091309	-0.0000777092
736.8044165039	0.0001055223
738.7332238770	0.0000705124
740.6620312500	0.0002768971
742.5908386230	0.0004581986
744.5196459961	-0.0000784695
746.4484533691	-0.0000270099
748.3772607422	0.0000500753
750.3060681152	0.0000032259
752.2348754883	0.0005720872
754.1636828613	0.0003289616
756.0924902344	-0.0001150432
758.0212976074	0.0001820523
759.9501049805	0.0003402687
761.8789123535	0.0003435985
763.8077197266	0.0004865993
765.7365270996	0.0003541482
767.6653344727	0.0002347202
769.5941418457	0.0002064164
771.5229492188	-0.0000125692
773.4517565918	0.0002702964
775.3805639648	0.0004588943
777.3093713379	0.0003133688
779.2381787109	0.0001247929
781.1669860840	0.0001676116
783.0957934570	0.0002298667
785.0246008301	0.0002291227
786.9534082031	0.0006368844
788.8822155762	0.0002720008
790.8110229492	0.0001714659
792.7398303223	0.0005574271
794.6686376953	0.0003921452
796.5974450684	0.0006918395
798.5262524414	0.0007250680
800.4550598145	0.0006627829
802.3838671875	0.0008574442
804.3126745605	0.0003030069
806.2414819336	0.0003424566
808.1702893066	0.0008062996
810.0990966797	0.0003319356
812.0279040527	0.0003811329
813.9567114258	0.0003817662
815.8855187988	0.0002011530
817.8143261719	0.0005131289
819.7431335449	0.0001606049
821.6719409180	0.0005759370
823.6007482910	0.0005856393
825.5295556641	0.0000478076
827.4583630371	0.0006902393
829.3871704102	0.0006205923
831.3159777832	0.0006601534
833.2447851563	0.0010780756
835.1735925293	0.0012596797
837.1023999023	0.0013029190
839.0312072754	0.0011380796
840.9600146484	0.0012760125
842.8888220215	0.0009653294
844.8176293945	0.0008450826
846.7464367676	0.0009313268
848.6752441406	0.0007992825
850.6040515137	0.0008512025
852.5328588867	0.0008244505
854.4616662598	0.0008266998
856.3904736328	0.0008376890
858.3192810059	0.0006798807
860.2480883789	0.0003991484
862.1768957520	0.0004779136
864.1057031250	0.0003343207
866.0345104980	0.0002195848
867.9633178711	0.0003310412
869.8921252441	0.0001087539
871.8209326172	0.0005506367
873.7497399902	0.0006898597
875.6785473633	0.0003510743
877.6073547363	0.0004928242
879.5361621094	0.0003487788
881.4649694824	0.0000675273
883.3937768555	0.0002900161
885.3225842285	0.0004710265
887.2513916016	0.0003272076
889.1801989746	0.0005160471
891.1090063477	0.0004682920
893.0378137207	0.0004075475
894.9666210938	0.0005017051
896.8954284668	0.0003771182
898.8242358398	0.0005063870
900.7530432129	0.0003087003
902.6818505859	0.0005659314
904.6106579590	0.0006747164
906.5394653320	0.0002595110
908.4682727051	0.0006606994
910.3970800781	0.0007049297
912.3258874512	0.0006685027
914.2546948242	0.0007025632
916.1835021973	0.0008152912
918.1123095703	0.0011035360
920.0411169434	0.0009079095
921.9699243164	0.0010335335
923.8987316895	0.0010572993
925.8275390625	0.0012384023
927.7563464355	0.0012568850
929.6851538086	0.0010329812
931.6139611816	0.0015071111
933.5427685547	0.0014940153
935.4715759277	0.0015440232
937.4003833008	0.0017986489
939.3291906738	0.0019899611
941.2579980469	0.0021212155
943.1868054199	0.0017763381
945.1156127930	0.0021100650
947.0444201660	0.0021555056
948.9732275391	0.0018280831
950.9020349121	0.0019273843
952.8308422852	0.0015458926
954.7596496582	0.0015275532
956.6884570313	0.0017942651
958.6172644043	0.0016610117
960.5460717773	0.0018068135
962.4748791504	0.0019915807
964.4036865234	0.0018088461
966.3324938965	0.0016704687
968.2613012695	0.0017779572
970.1901086426	0.0019732220
972.1189160156	0.0020978251
974.0477233887	0.0022002379
975.9765307617	0.0024547167
977.9053381348	0.0027165571
979.8341455078	0.0029743665
981.7629528809	0.0031918546
983.6917602539	0.0035015279
985.6205676270	0.0039043068
987.5493750000	0.0041806586
989.4781823730	0.0046375450
991.4069897461	0.0050640898
993.3357971191	0.0055902656
995.2646044922	0.0060882187
997.1934118652	0.0064309211
999.1222192383	0.0071452004
1001.0510266113	0.0074524903
1002.9798339844	0.0078550847
1004.9086413574	0.0087754158
1006.8374487305	0.0091763623
1008.7662561035	0.0095528169
1010.6950634766	0.0100867637
1012.6238708496	0.0106334658
1014.5526782227	0.0114088096
1016.4814855957	0.0119361477
1018.4102929688	0.0123342741
1020.3391003418	0.0128380470
1022.2679077148	0.0131983031
1024.1967150879	0.0138473483
1026.1255224609	0.0145454444
1028.0543298340	0.0147489132
1029.9831372070	0.0149704162
1031.9119445801	0.0153327212
1033.8407519531	0.0158103332
1035.7695593262	0.0160400700
1037.6983666992	0.0159695819
1039.6271740723	0.0161505304
1041.5559814453	0.0162399486
1043.4847888184	0.0160748456
1045.4135961914	0.0158514231
1047.3424035645	0.0155812893
1049.2712109375	0.0151741337
1051.2000183105	0.0149557851
1053.1288256836	0.0147434175
1055.0576330566	0.0142563097
1056.9864404297	0.0140634179
1058.9152478027	0.0136200245
1060.8440551758	0.0130542787
1062.7728625488	0.0128204022
1064.7016699219	0.0125526693
1066.6304772949	0.0120167919
1068.5592846680	0.0113464687
1070.4880920410	0.0110889301
1072.4168994141	0.0102680149
1074.3457067871	0.0095538944
1076.2745141602	0.0096442401
1078.2033215332	0.0092541436
1080.1321289062	0.0088978792
1082.0609362793	0.0084045976
1083.9897436523	0.0077875480
1085.9185510254	0.0072664795
1087.8473583984	0.0067905029
1089.7761657715	0.0067640585
1091.7049731445	0.0064233607
1093.6337805176	0.0062103211
1095.5625878906	0.0059819389
1097.4913952637	0.0055837026
1099.4202026367	0.0056436076
1101.3490100098	0.0053065312
1103.2778173828	0.0050993590
1105.2066247559	0.0052562412
1107.1354321289	0.0051859440
1109.0642395019	0.0051203584
1110.9930468750	0.0048389561
1112.9218542480	0.0047223503
1114.8506616211	0.0049412497
1116.7794689941	0.0049364162
1118.7082763672	0.0048959218
1120.6370837402	0.0048085470
1122.5658911133	0.0046373936
1124.4946984863	0.0049284953
1126.4235058594	0.0052095149
1128.3523132324	0.0050443583
1130.2811206055	0.0051337946
1132.2099279785	0.0054873591
1134.1387353516	0.0055552619
1136.0675427246	0.0057342406
1137.9963500977	0.0061893337
1139.9251574707	0.0063565364
1141.8539648437	0.0067727147
1143.7827722168	0.0073669171
1145.7115795898	0.0076026740
1147.6403869629	0.0079149604
1149.5691943359	0.0082815569
1151.4980017090	0.0088272635
1153.4268090820	0.0092257876
1155.3556164551	0.0094165476
1157.2844238281	0.0099463342
1159.2132312012	0.0103750359
1161.1420385742	0.0105823716
1163.0708459473	0.0110152820
1164.9996533203	0.0114990119
1166.9284606934	0.0117066083
1168.8572680664	0.0122717582
1170.7860754394	0.0127527975
1172.7148828125	0.0128771402
1174.6436901855	0.0135886930
1176.5724975586	0.0141679868
1178.5013049316	0.0144932568
1180.4301123047	0.0150927398
1182.3589196777	0.0158497337
1184.2877270508	0.0166200176
1186.2165344238	0.0172052719
1188.1453417969	0.0177105963
1190.0741491699	0.0184471011
1192.0029565430	0.0194376372
1193.9317639160	0.0201219767
1195.8605712891	0.0210919008
1197.7893786621	0.0221721269
1199.7181860351	0.0229594912
1201.6469934082	0.0241453238
1203.5758007812	0.0250720717
1205.5046081543	0.0258192401
1207.4334155273	0.0266454872
1209.3622229004	0.0274744406
1211.2910302734	0.0283484943
1213.2198376465	0.0291346610
1215.1486450195	0.0298034921
1217.0774523926	0.0301977322
1219.0062597656	0.0307453535
1220.9350671387	0.0311669763
1222.8638745117	0.0315018259
1224.7926818848	0.0317619517
1226.7214892578	0.0319387764
1228.6502966308	0.0322116390
1230.5791040039	0.0321897715
1232.5079113769	0.0323055759
1234.4367187500	0.0322128534
1236.3655261230	0.0321812630
1238.2943334961	0.0322414674
1240.2231408691	0.0321544483
1242.1519482422	0.0322182067
1244.0807556152	0.0319073834
1246.0095629883	0.0317923203
1247.9383703613	0.0314456969
1249.8671777344	0.0311644264
1251.7959851074	0.0312019568
1253.7247924805	0.0306521747
1255.6535998535	0.0302678831
1257.5824072266	0.0298836641
1259.5112145996	0.0292328801
1261.4400219726	0.0286728553
1263.3688293457	0.0284643993
1265.2976367187	0.0280459374
1267.2264440918	0.0276862066
1269.1552514648	0.0275840275
1271.0840588379	0.0268551931
1273.0128662109	0.0265878625
1274.9416735840	0.0261466000
1276.8704809570	0.0254200213
1278.7992883301	0.0250847470
1280.7280957031	0.0244715996
1282.6569030762	0.0241645966
1284.5857104492	0.0236224290
1286.5145178223	0.0230489373
1288.4433251953	0.0227692276
1290.3721325683	0.0223700032
1292.3009399414	0.0222652573
1294.2297473144	0.0221110824
1296.1585546875	0.0218045339
1298.0873620605	0.0217366479
1300.0161694336	0.0219153855
1301.9449768066	0.0218969509
1303.8737841797	0.0220551752
1305.8025915527	0.0223072357
1307.7313989258	0.0223369226
1309.6602062988	0.0228377916
1311.5890136719	0.0232866779
1313.5178210449	0.0236891098
1315.4466284180	0.0243564546
1317.3754357910	0.0246320982
1319.3042431640	0.0251329392
1321.2330505371	0.0262078699
1323.1618579101	0.0269425064
1325.0906652832	0.0275418516
1327.0194726562	0.0282330513
1328.9482800293	0.0289134197
1330.8770874023	0.0298987925
1332.8058947754	0.0304271095
1334.7347021484	0.0307474378
1336.6635095215	0.0312906727
1338.5923168945	0.0313700959
1340.5211242676	0.0318380892
1342.4499316406	0.0324937925
1344.3787390137	0.0325318240
1346.3075463867	0.0328074396
1348.2363537597	0.0327032767
1350.1651611328	0.0323057920
1352.0939685058	0.0323694572
1354.0227758789	0.0319616199
1355.9515832519	0.0315360948
1357.8803906250	0.0313060954
1359.8091979980	0.0309246816
1361.7380053711	0.0298179928
1363.6668127441	0.0293339156
1365.5956201172	0.0304432418
1367.5244274902	0.0297846012
1369.4532348633	0.0294489227
1371.3820422363	0.0298062004
1373.3108496094	0.0286114290
1375.2396569824	0.0287381262
1377.1684643555	0.0290044174
1379.0972717285	0.0289933067
1381.0260791015	0.0290237442
1382.9548864746	0.0288226642
1384.8836938476	0.0288597271
1386.8125012207	0.0279851928
1388.7413085937	0.0283996761
1390.6701159668	0.0300472565
1392.5989233398	0.0294024572
1394.5277307129	0.0279240552
1396.4565380859	0.0289730951
1398.3853454590	0.0288983695
1400.3141528320	0.0288284682
1402.2429602051	0.0305536389
1404.1717675781	0.0291815028
1406.1005749512	0.0295883901
1408.0293823242	0.0302421022
1409.9581896972	0.0292288475
1411.8869970703	0.0296800137
1413.8158044433	0.0287337955
1415.7446118164	0.0291651189
1417.6734191894	0.0267731007
1419.6022265625	0.0244945101
1421.5310339355	0.0271042492
1423.4598413086	0.0263282061
1425.3886486816	0.0255045258
1427.3174560547	0.0257512070
1429.2462634277	0.0241586845
1431.1750708008	0.0231328085
1433.1038781738	0.0233544037
1435.0326855469	0.0215104390
1436.9614929199	0.0187456999
1438.8903002929	0.0206906255
1440.8191076660	0.0208768863
1442.7479150390	0.0196133032
1444.6767224121	0.0201758202
1446.6055297851	0.0188774653
1448.5343371582	0.0193844102
1450.4631445312	0.0198454130
1452.3919519043	0.0201032013
1454.3207592773	0.0206702314
1456.2495666504	0.0178517848
1458.1783740234	0.0189358741
1460.1071813965	0.0237262491
1462.0359887695	0.0248500966
1463.9647961426	0.0251365900
1465.8936035156	0.0262962878
1467.8224108886	0.0292402282
1469.7512182617	0.0312122442
1471.6800256347	0.0289371237
1473.6088330078	0.0301701650
1475.5376403808	0.0337518007
1477.4664477539	0.0362708494
1479.3952551269	0.0391044393
1481.3240625000	0.0398664214
1483.2528698730	0.0419910029
1485.1816772461	0.0432273746
1487.1104846191	0.0429277346
1489.0392919922	0.0429983214
1490.9680993652	0.0434543602
1492.8969067383	0.0488457829
1494.8257141113	0.0480347648
1496.7545214843	0.0445171855
1498.6833288574	0.0492609888
1500.6121362304	0.0502071939
1502.5409436035	0.0531885028
1504.4697509765	0.0507722050
1506.3985583496	0.0396000892
1508.3273657226	0.0468045920
1510.2561730957	0.0528874248
1512.1849804687	0.0513218492
1514.1137878418	0.0544141792
1516.0425952148	0.0500974804
1517.9714025879	0.0522213876
1519.9002099609	0.0501879379
1521.8290173340	0.0450741313
1523.7578247070	0.0526884608
1525.6866320801	0.0515994094
1527.6154394531	0.0515635423
1529.5442468261	0.0554895736
1531.4730541992	0.0535344109
1533.4018615722	0.0498055220
1535.3306689453	0.0521786660
1537.2594763183	0.0544208214
1539.1882836914	0.0416411981
1541.1170910644	0.0435832180
1543.0458984375	0.0497863069
1544.9747058105	0.0480702966
1546.9035131836	0.0546299182
1548.8323205566	0.0515389629
1550.7611279297	0.0528843850
1552.6899353027	0.0520732254
1554.6187426758	0.0483071208
1556.5475500488	0.0507406145
1558.4763574218	0.0384258181
1560.4051647949	0.0409406498
1562.3339721679	0.0534105711
1564.2627795410	0.0506435037
1566.1915869140	0.0516222492
1568.1203942871	0.0508156195
1570.0492016601	0.0461574383
1571.9780090332	0.0511222854
1573.9068164062	0.0510447398
1575.8356237793	0.0424936116
1577.7644311523	0.0463921055
1579.6932385254	0.0507656932
1581.6220458984	0.0488474071
1583.5508532715	0.0495731086
1585.4796606445	0.0486041382
1587.4084680175	0.0486152694
1589.3372753906	0.0478245094
1591.2660827636	0.0474830866
1593.1948901367	0.0473223552
1595.1236975097	0.0466954038
1597.0525048828	0.0470003821
1598.9813122558	0.0462049022
1600.9101196289	0.0462292209
1602.8389270019	0.0451575369
1604.7677343750	0.0455166623
1606.6965417480	0.0449595600
1608.6253491211	0.0445225239
1610.5541564941	0.0443224907
1612.4829638672	0.0442573428
1614.4117712402	0.0445405729
1616.3405786132	0.0378756076
1618.2693859863	0.0405187383
1620.1981933593	0.0457296781
1622.1270007324	0.0415706970
1624.0558081054	0.0420329273
1625.9846154785	0.0435480475
1627.9134228515	0.0436280891
1629.8422302246	0.0438378155
1631.7710375976	0.0464780629
1633.6998449707	0.0437287912
1635.6286523437	0.0381610841
1637.5574597168	0.0437073745
1639.4862670898	0.0476506166
1641.4150744629	0.0471374691
1643.3438818359	0.0485800132
1645.2726892090	0.0454470739
1647.2014965820	0.0418620221
1649.1303039550	0.0504851937
1651.0591113281	0.0484144464
1652.9879187011	0.0350482315
1654.9167260742	0.0454130545
1656.8455334472	0.0546750575
1658.7743408203	0.0533150733
1660.7031481933	0.0554591045
1662.6319555664	0.0522159860
1664.5607629394	0.0550374463
1666.4895703125	0.0589642450
1668.4183776855	0.0536814071
1670.3471850586	0.0532094389
1672.2759924316	0.0594222918
1674.2047998047	0.0561725721
1676.1336071777	0.0553369671
1678.0624145507	0.0623783171
1679.9912219238	0.0611303598
1681.9200292968	0.0614089072
1683.8488366699	0.0522511378
1685.7776440429	0.0527981296
1687.7064514160	0.0683727041
1689.6352587890	0.0612344295
1691.5640661621	0.0670427233
1693.4928735351	0.0682490841
1695.4216809082	0.0535864681
1697.3504882812	0.0637921244
1699.2792956543	0.0579535812
1701.2081030273	0.0542416349
1703.1369104004	0.0693278387
1705.0657177734	0.0650018305
1706.9945251464	0.0658266842
1708.9233325195	0.0703811422
1710.8521398925	0.0686561242
1712.7809472656	0.0697181448
1714.7097546386	0.0658704340
1716.6385620117	0.0606013313
1718.5673693847	0.0601285100
1720.4961767578	0.0692965090
1722.4249841308	0.0708224103
1724.3537915039	0.0671991110
1726.2825988769	0.0717833489
1728.2114062500	0.0671916157
1730.1402136230	0.0683872849
1732.0690209961	0.0661306083
1733.9978283691	0.0538046770
1735.9266357421	0.0640609860
1737.8554431152	0.0691947043
1739.7842504882	0.0634025931
1741.7130578613	0.0677578747
1743.6418652343	0.0686908364
1745.5706726074	0.0687786937
1747.4994799804	0.0694904476
1749.4282873535	0.0670229942
1751.3570947265	0.0646744221
1753.2859020996	0.0703770071
1755.2147094726	0.0727569684
1757.1435168457	0.0679365098
1759.0723242187	0.0730861276
1761.0011315918	0.0694484115
1762.9299389648	0.0676758885
1764.8587463379	0.0749456435
1766.7875537109	0.0690149069
1768.7163610839	0.0696339905
1770.6451684570	0.0691447854
1772.5739758300	0.0635535270
1774.5027832031	0.0692932531
1776.4315905761	0.0723074004
1778.3603979492	0.0713157803
1780.2892053222	0.0706169233
1782.2180126953	0.0709163398
1784.1468200683	0.0707811862
1786.0756274414	0.0696180165
1788.0044348144	0.0722483993
1789.9332421875	0.0707190633
1791.8620495605	0.0654675663
1793.7908569336	0.0676469803
1795.7196643066	0.0713143274
1797.6484716796	0.0705697089
1799.5772790527	0.0697117150
1801.5060864257	0.0686408579
1803.4348937988	0.0703319088
1805.3637011718	0.0714039207
1807.2925085449	0.0705371797
1809.2213159179	0.0707536638
1811.1501232910	0.0691807568
1813.0789306640	0.0707188770
1815.0077380371	0.0708413869
1816.9365454101	0.0700423867
1818.8653527832	0.0705762655
1820.7941601562	0.0702265054
1822.7229675293	0.0707213655
1824.6517749023	0.0672765747
1826.5805822753	0.0690367371
1828.5093896484	0.0687992424
1830.4381970214	0.0656027347
1832.3670043945	0.0699047819
1834.2958117675	0.0694710985
1836.2246191406	0.0694089085
1838.1534265136	0.0690640584
1840.0822338867	0.0693124980
1842.0110412597	0.0689491630
1843.9398486328	0.0628042072
1845.8686560058	0.0661446303
1847.7974633789	0.0687342361
1849.7262707519	0.0675120950
1851.6550781250	0.0689375997
1853.5838854980	0.0676757619
1855.5126928710	0.0681743473
1857.4415002441	0.0678033233
1859.3703076171	0.0674304441
1861.2991149902	0.0675877109
1863.2279223632	0.0669308752
1865.1567297363	0.0674663782
1867.0855371093	0.0654618591
1869.0143444824	0.0634013116
1870.9431518554	0.0651142225
1872.8719592285	0.0667118579
1874.8007666015	0.0659517944
1876.7295739746	0.0660529658
1878.6583813476	0.0657325685
1880.5871887207	0.0653119683
1882.5159960937	0.0656441748
1884.4448034667	0.0648157895
1886.3736108398	0.0653999448
1888.3024182128	0.0642816201
1890.2312255859	0.0632287413
1892.1600329589	0.0648547634
1894.0888403320	0.0641089082
1896.0176477050	0.0637286156
1897.9464550781	0.0639090538
1899.8752624511	0.0637707561
1901.8040698242	0.0640076324
1903.7328771972	0.0633338392
1905.6616845703	0.0635069758
1907.5904919433	0.0627995133
1909.5192993164	0.0623876154
1911.4481066894	0.0626734793
1913.3769140625	0.0626673922
1915.3057214355	0.0631696284
1917.2345288085	0.0606191605
1919.1633361816	0.0607087240
1921.0921435546	0.0623469502
1923.0209509277	0.0606215782
1924.9497583007	0.0616937056
1926.8785656738	0.0618997514
1928.8073730468	0.0614057630
1930.7361804199	0.0617410690
1932.6649877929	0.0609821379
1934.5937951660	0.0614282489
1936.5226025390	0.0607460886
1938.4514099121	0.0610771105
1940.3802172851	0.0608778223
1942.3090246582	0.0592275634
1944.2378320312	0.0601013377
1946.1666394042	0.0603420883
1948.0954467773	0.0601778775
1950.0242541503	0.0603300817
1951.9530615234	0.0600545704
1953.8818688964	0.0598659329
1955.8106762695	0.0596564114
1957.7394836425	0.0597300641
1959.6682910156	0.0595244989
1961.5970983886	0.0594507903
1963.5259057617	0.0594959185
1965.4547131347	0.0590359792
1967.3835205078	0.0585113876
1969.3123278808	0.0588737428
1971.2411352539	0.0589931607
1973.1699426269	0.0585444532
1975.0987499999	0.0585580841
1977.0275573730	0.0582699925
1978.9563647460	0.0582265332
1980.8851721191	0.0580685958
1982.8139794921	0.0577970445
1984.7427868652	0.0577985197
1986.6715942382	0.0574541986
1988.6004016113	0.0574250296
1990.5292089843	0.0569279417
1992.4580163574	0.0563811511
1994.3868237304	0.0568627194
1996.3156311035	0.0569780990
1998.2444384765	0.0564581119
2000.1732458496	0.0562518537
2002.1020532226	0.0561405867
2004.0308605956	0.0559833050
2005.9596679687	0.0558305643
2007.8884753417	0.0556431785
2009.8172827148	0.0555856936
2011.7460900878	0.0551920049
2013.6748974609	0.0551422983
2015.6037048339	0.0550036356
2017.5325122070	0.0543783009
2019.4613195800	0.0545321330
2021.3901269531	0.0543829054
2023.3189343261	0.0540275574
2025.2477416992	0.0540614761
2027.1765490722	0.0538743734
2029.1053564453	0.0537279621
2031.0341638183	0.0534469895
2032.9629711914	0.0532742292
2034.8917785644	0.0531906411
2036.8205859374	0.0530494675
2038.7493933105	0.0529635400
2040.6782006835	0.0525402017
2042.6070080566	0.0523001254
2044.5358154296	0.0523894243
2046.4646228027	0.0522333831
2048.3934301757	0.0520143285
2050.3222375488	0.0518858694
2052.2510449218	0.0517446920
2054.1798522949	0.0514801517
2056.1086596679	0.0513514914
2058.0374670410	0.0513734668
2059.9662744140	0.0511407182
2061.8950817871	0.0509851053
2063.8238891601	0.0506613851
2065.7526965331	0.0503566898
2067.6815039062	0.0505555645
2069.6103112792	0.0503856912
2071.5391186523	0.0501847193
2073.4679260253	0.0502512679
2075.3967333984	0.0500473082
2077.3255407714	0.0498517901
2079.2543481445	0.0497146398
2081.1831555175	0.0495618358
2083.1119628906	0.0494564623
2085.0407702636	0.0493881591
2086.9695776367	0.0492448136
2088.8983850097	0.0490211025
2090.8271923828	0.0489565730
2092.7559997558	0.0489330590
2094.6848071288	0.0488680191
2096.6136145019	0.0488409102
2098.5424218749	0.0486717634
2100.4712292480	0.0485142395
2102.4000366210	0.0484355986
2104.3288439941	0.0483059064
2106.2576513671	0.0482651442
2108.1864587402	0.0481531918
2110.1152661132	0.0480355062
2112.0440734863	0.0479334034
2113.9728808593	0.0477970541
2115.9016882324	0.0478177182
2117.8304956054	0.0476805903
2119.7593029785	0.0475032479
2121.6881103515	0.0475474671
2123.6169177245	0.0475297496
2125.5457250976	0.0473898426
2127.4745324706	0.0472195186
2129.4033398437	0.0471725203
2131.3321472167	0.0472333692
2133.2609545898	0.0471722558
2135.1897619628	0.0470591262
2137.1185693359	0.0469443277
2139.0473767089	0.0468864366
2140.9761840820	0.0468621925
2142.9049914550	0.0467439741
2144.8337988281	0.0467342623
2146.7626062011	0.0466218628
2148.6914135742	0.0465982370
2150.6202209472	0.0466929376
2152.5490283203	0.0465521291
2154.4778356933	0.0465330258
2156.4066430663	0.0463920683
2158.3354504394	0.0463565625
2160.2642578124	0.0464339368
2162.1930651855	0.0462531522
2164.1218725585	0.0461629853
2166.0506799316	0.0461255386
2167.9794873046	0.0460388139
2169.9082946777	0.0459366776
2171.8371020507	0.0461096987
2173.7659094238	0.0459737033
2175.6947167968	0.0457633510
2177.6235241699	0.0459156409
2179.5523315429	0.0458103120
2181.4811389160	0.0458307974
2183.4099462890	0.0457165167
2185.3387536620	0.0457319878
2187.2675610351	0.0456777103
2189.1963684081	0.0454500988
2191.1251757812	0.0456330851
2193.0539831542	0.0454393663
2194.9827905273	0.0454121195
2196.9115979003	0.0454832166
2198.8404052734	0.0453293100
2200.7692126464	0.0452130213
2202.6980200195	0.0451455787
2204.6268273925	0.0451934934
2206.5556347656	0.0450328812
2208.4844421386	0.0451806784
2210.4132495117	0.0451475605
2212.3420568847	0.0449324176
2214.2708642577	0.0449988395
2216.1996716308	0.0449545495
2218.1284790038	0.0448776782
2220.0572863769	0.0447777733
2221.9860937499	0.0448725000
2223.9149011230	0.0447147116
2225.8437084960	0.0445210002
2227.7725158691	0.0445531569
2229.7013232421	0.0444681458
2231.6301306152	0.0445019156
2233.5589379882	0.0444807708
2235.4877453613	0.0443801247
2237.4165527343	0.0442727469
2239.3453601074	0.0442351252
2241.2741674804	0.0441076942
2243.2029748534	0.0441228822
2245.1317822265	0.0441100970
2247.0605895995	0.0438525043
2248.9893969726	0.0439748392
2250.9182043456	0.0438761860
2252.8470117187	0.0436511636
2254.7758190917	0.0437104627
2256.7046264648	0.0436950102
2258.6334338378	0.0435902849
2260.5622412109	0.0435307696
2262.4910485839	0.0435611345
2264.4198559570	0.0434639826
2266.3486633300	0.0434249379
2268.2774707031	0.0433175191
2270.2062780761	0.0431861877
2272.1350854491	0.0432133228
2274.0638928222	0.0431699418
2275.9927001952	0.0430588275
2277.9215075683	0.0429917946
2279.8503149413	0.0430198982
2281.7791223144	0.0429352596
2283.7079296874	0.0428905860
2285.6367370605	0.0428335145
2287.5655444335	0.0427221917
2289.4943518066	0.0426468104
2291.4231591796	0.0425384492
2293.3519665527	0.0424264893
2295.2807739257	0.0422054790
2297.2095812988	0.0421275795
2299.1383886718	0.0419924110
2301.0671960449	0.0417637452
2302.9960034179	0.0415927544
2304.9248107909	0.0413416699
2306.8536181640	0.0411905386
2308.7824255370	0.0410195589
2310.7112329101	0.0406311937
2312.6400402831	0.0401429459
2314.5688476562	0.0398663580
2316.4976550292	0.0394665822
2318.4264624023	0.0388678610
2320.3552697753	0.0383918136
2322.2840771484	0.0379747823
2324.2128845214	0.0375236347
2326.1416918945	0.0370866358
2328.0704992675	0.0369001627
2329.9993066406	0.0363997295
2331.9281140136	0.0359641016
2333.8569213866	0.0359366946
2335.7857287597	0.0357885584
2337.7145361327	0.0357825533
2339.6433435058	0.0356681570
2341.5721508788	0.0358575955
2343.5009582519	0.0363611355
2345.4297656249	0.0369372964
2347.3585729980	0.0383480787
2349.2873803710	0.0392160192
2351.2161877441	0.0380319655
2353.1449951171	0.0362330563
2355.0738024902	0.0350881293
2357.0026098632	0.0341342352
2358.9314172363	0.0334861130
2360.8602246093	0.0332241990
2362.7890319823	0.0331053436
2364.7178393554	0.0332640260
2366.6466467284	0.0336501226
2368.5754541015	0.0342712849
2370.5042614745	0.0349368975
2372.4330688476	0.0357001126
2374.3618762206	0.0366445817
2376.2906835937	0.0375272334
2378.2194909667	0.0382126831
2380.1482983398	0.0387422554
2382.0771057128	0.0391654000
2384.0059130859	0.0393231511
2385.9347204589	0.0393491015
2387.8635278320	0.0394892655
2389.7923352050	0.0395537540
2391.7211425780	0.0393464938
2393.6499499511	0.0392569825
2395.5787573241	0.0392377973
2397.5075646972	0.0391473100
2399.4363720702	0.0391443446
2401.3651794433	0.0390527770
2403.2939868163	0.0389910825
2405.2227941894	0.0389267281
2407.1516015624	0.0388879441
2409.0804089355	0.0387705192
2411.0092163085	0.0386672541
2412.9380236816	0.0386812687
2414.8668310546	0.0386007130
2416.7956384277	0.0386159904
2418.7244458007	0.0384185128
2420.6532531738	0.0383564606
2422.5820605468	0.0383438021
2424.5108679198	0.0381306112
2426.4396752929	0.0381589010
2428.3684826659	0.0380834267
2430.2972900390	0.0381022841
2432.2260974120	0.0379940048
2434.1549047851	0.0378016010
2436.0837121581	0.0377330035
2438.0125195312	0.0375644565
2439.9413269042	0.0376086012
2441.8701342773	0.0375817940
2443.7989416503	0.0376196839
2445.7277490234	0.0375294387
2447.6565563964	0.0373087004
2449.5853637695	0.0374413505
2451.5141711425	0.0373052880
2453.4429785155	0.0371055156
2455.3717858886	0.0370685235
2457.3005932616	0.0369503573
2459.2294006347	0.0370852090
2461.1582080077	0.0370280221
2463.0870153808	0.0367983878
2465.0158227538	0.0368573368
2466.9446301269	0.0366879478
2468.8734374999	0.0365522839
2470.8022448730	0.0365509875
2472.7310522460	0.0365255922
2474.6598596191	0.0365519933
2476.5886669921	0.0363702215
2478.5174743652	0.0363444649
2480.4462817382	0.0362163335
2482.3750891112	0.0361224972
2484.3038964843	0.0361357778
2486.2327038573	0.0359546877
2488.1615112304	0.0359909125
2490.0903186034	0.0358606093
2492.0191259765	0.0357872546
2493.9479333495	0.0357115641
2495.8767407226	0.0355299227
2497.8055480956	0.0355915353
2499.7343554687	0.0355376303
2501.6631628417	0.0354970023
2503.5919702148	0.0353909582
2505.5207775878	0.0353186056
2507.4495849609	0.0352580026
2509.3783923339	0.0351436473
2511.3071997069	0.0351105928
2513.2360070800	0.0350218974
2515.1648144530	0.0349710137
2517.0936218261	0.0348354802
2519.0224291991	0.0348501131
2520.9512365722	0.0348509364
2522.8800439452	0.0347372554
2524.8088513183	0.0346322283
2526.7376586913	0.0343819261
2528.6664660644	0.0343756340
2530.5952734374	0.0343903750
2532.5240808105	0.0343294218
2534.4528881835	0.0342351645
2536.3816955566	0.0341156721
2538.3105029296	0.0341832116
2540.2393103027	0.0340794697
2542.1681176757	0.0339924395
2544.0969250487	0.0339421481
2546.0257324218	0.0338205062
2547.9545397948	0.0338317789
2549.8833471679	0.0336740091
2551.8121545409	0.0336097106
2553.7409619140	0.0335810110
2555.6697692870	0.0334150717
2557.5985766601	0.0334478691
2559.5273840331	0.0332823992
2561.4561914062	0.0332082547
2563.3849987792	0.0332675576
2565.3138061523	0.0331159979
2567.2426135253	0.0330947638
2569.1714208984	0.0329511911
2571.1002282714	0.0328160301
2573.0290356444	0.0327809602
2574.9578430175	0.0327965319
2576.8866503905	0.0327892751
2578.8154577636	0.0325539559
2580.7442651366	0.0324395820
2582.6730725097	0.0324031226
2584.6018798827	0.0323141366
2586.5306872558	0.0321694314
2588.4594946288	0.0322314240
2590.3883020019	0.0321816318
2592.3171093749	0.0319896117
2594.2459167480	0.0320762061
2596.1747241210	0.0319544151
2598.1035314941	0.0318509266
2600.0323388671	0.0316864960
2601.9611462401	0.0316473320
2603.8899536132	0.0316682830
2605.8187609862	0.0313980952
2607.7475683593	0.0314669460
2609.6763757323	0.0314230695
2611.6051831054	0.0313195363
2613.5339904784	0.0312225185
2615.4627978515	0.0311083682
2617.3916052245	0.0310982093
2619.3204125976	0.0309470780
2621.2492199706	0.0310164876
2623.1780273437	0.0309156515
2625.1068347167	0.0307470188
2627.0356420898	0.0307371411
2628.9644494628	0.0306548215
2630.8932568358	0.0305297151
2632.8220642089	0.0304531865
2634.7508715819	0.0304150246
2636.6796789550	0.0302057657
2638.6084863280	0.0302904453
2640.5372937011	0.0302541368
2642.4661010741	0.0299793147
2644.3949084472	0.0300298408
2646.3237158202	0.0299832784
2648.2525231933	0.0297760442
2650.1813305663	0.0296486337
2652.1101379394	0.0295799579
2654.0389453124	0.0294770077
2655.9677526855	0.0294900015
2657.8965600585	0.0294247791
2659.8253674315	0.0293121189
2661.7541748046	0.0292030089
2663.6829821776	0.0290416908
2665.6117895507	0.0291619692
2667.5405969237	0.0290913731
2669.4694042968	0.0289505757
2671.3982116698	0.0288860686
2673.3270190429	0.0287550464
2675.2558264159	0.0287493858
2677.1846337890	0.0286049694
2679.1134411620	0.0285088494
2681.0422485351	0.0284553356
2682.9710559081	0.0283133686
2684.8998632812	0.0282470807
2686.8286706542	0.0281900615
2688.7574780273	0.0280622002
2690.6862854003	0.0280637778
2692.6150927733	0.0280468818
2694.5439001464	0.0278532095
2696.4727075194	0.0278141890
2698.4015148925	0.0276559107
2700.3303222655	0.0275585335
2702.2591296386	0.0275457986
2704.1879370116	0.0273925439
2706.1167443847	0.0274393130
2708.0455517577	0.0273236576
2709.9743591308	0.0271928459
2711.9031665038	0.0272021368
2713.8319738769	0.0270781312
2715.7607812499	0.0270400289
2717.6895886230	0.0268935002
2719.6183959960	0.0267663412
2721.5472033690	0.0268773455
2723.4760107421	0.0266991779
2725.4048181151	0.0265436489
2727.3336254882	0.0265905708
2729.2624328612	0.0264009722
2731.1912402343	0.0262993425
2733.1200476073	0.0261894222
2735.0488549804	0.0260954313
2736.9776623534	0.0261051003
2738.9064697265	0.0259479471
2740.8352770995	0.0258065090
2742.7640844726	0.0257635247
2744.6928918456	0.0257715210
2746.6216992187	0.0256248415
2748.5505065917	0.0255906023
2750.4793139647	0.0254862905
2752.4081213378	0.0251938514
2754.3369287108	0.0252101757
2756.2657360839	0.0251578614
2758.1945434569	0.0250777788
2760.1233508300	0.0249747187
2762.0521582030	0.0248485859
2763.9809655761	0.0247962866
2765.9097729491	0.0246979427
2767.8385803222	0.0246367566
2769.7673876952	0.0244288351
2771.6961950683	0.0243848041
2773.6250024413	0.0243308600
2775.5538098144	0.0241946056
2777.4826171874	0.0242325626
2779.4114245604	0.0240623113
2781.3402319335	0.0239085332
2783.2690393065	0.0238533057
2785.1978466796	0.0236708857
2787.1266540526	0.0235581398
2789.0554614257	0.0236030631
2790.9842687987	0.0235238951
2792.9130761718	0.0233583599
2794.8418835448	0.0233136602
2796.7706909179	0.0232416876
2798.6994982909	0.0230843425
2800.6283056640	0.0229573660
2802.5571130370	0.0229017101
2804.4859204101	0.0227339268
2806.4147277831	0.0226246770
2808.3435351562	0.0226157308
2810.2723425292	0.0225088634
2812.2011499022	0.0224377997
2814.1299572753	0.0223596655
2816.0587646483	0.0222470053
2817.9875720214	0.0221526865
2819.9163793944	0.0219875723
2821.8451867675	0.0218168795
2823.7739941405	0.0218212567
2825.7028015136	0.0216967277
2827.6316088866	0.0215317532
2829.5604162597	0.0215186402
2831.4892236327	0.0214209743
2833.4180310058	0.0213268213
2835.3468383788	0.0211349577
2837.2756457519	0.0210988969
2839.2044531249	0.0209663678
2841.1332604979	0.0207020901
2843.0620678710	0.0207213163
2844.9908752440	0.0204745680
2846.9196826171	0.0202769004
2848.8484899901	0.0201528892
2850.7772973632	0.0200046301
2852.7061047362	0.0200391095
2854.6349121093	0.0198501907
2856.5637194823	0.0197547115
2858.4925268554	0.0197790116
2860.4213342284	0.0196513329
2862.3501416015	0.0195872672
2864.2789489745	0.0196123421
2866.2077563476	0.0195042416
2868.1365637206	0.0193912685
2870.0653710936	0.0193276927
2871.9941784667	0.0191268697
2873.9229858397	0.0189725384
2875.8517932128	0.0189148001
2877.7806005858	0.0188991036
2879.7094079589	0.0187912732
2881.6382153319	0.0186975133
2883.5670227050	0.0186998360
2885.4958300780	0.0186686423
2887.4246374511	0.0185655169
2889.3534448241	0.0183934066
2891.2822521972	0.0183405280
2893.2110595702	0.0181561895
2895.1398669433	0.0180549175
2897.0686743163	0.0180070177
2898.9974816893	0.0177574381
2900.9262890624	0.0177848637
2902.8550964354	0.0176560711
2904.7839038085	0.0174333677
2906.7127111815	0.0174228903
2908.6415185546	0.0172369666
2910.5703259276	0.0171126761
2912.4991333007	0.0169758983
2914.4279406737	0.0166981779
2916.3567480468	0.0166243650
2918.2855554198	0.0165705569
2920.2143627929	0.0163978748
2922.1431701659	0.0164277256
2924.0719775390	0.0164397880
2926.0007849120	0.0162350163
2927.9295922851	0.0161632132
2929.8583996581	0.0161899738
2931.7872070311	0.0161064696
2933.7160144042	0.0160146467
2935.6448217772	0.0159574524
2937.5736291503	0.0159714185
2939.5024365233	0.0158781800
2941.4312438964	0.0156357009
2943.3600512694	0.0157034472
2945.2888586425	0.0157086067
2947.2176660155	0.0155271301
2949.1464733886	0.0154530425
2951.0752807616	0.0153138870
2953.0040881347	0.0153707489
2954.9328955077	0.0153161883
2956.8617028808	0.0150848422
2958.7905102538	0.0149926981
2960.7193176268	0.0149359005
2962.6481249999	0.0149423545
2964.5769323729	0.0147990705
2966.5057397460	0.0147055928
2968.4345471190	0.0146874506
2970.3633544921	0.0146493558
2972.2921618651	0.0147059560
2974.2209692382	0.0146143418
2976.1497766112	0.0145236943
2978.0785839843	0.0144730341
2980.0073913573	0.0143721839
2981.9361987304	0.0143261496
2983.8650061034	0.0142146042
2985.7938134765	0.0141530773
2987.7226208495	0.0142458230
2989.6514282225	0.0141726285
2991.5802355956	0.0140233701
2993.5090429686	0.0139710549
2995.4378503417	0.0138586070
2997.3666577147	0.0138137806
2999.2954650878	0.0137672015
3001.2242724608	0.0136061199
3003.1530798339	0.0135573298
3005.0818872069	0.0135591868
3007.0106945800	0.0134192882
3008.9395019530	0.0133271813
3010.8683093261	0.0132652195
3012.7971166991	0.0131922215
3014.7259240722	0.0132188182
3016.6547314452	0.0130719766
3018.5835388182	0.0129716154
3020.5123461913	0.0129828639
3022.4411535643	0.0128906555
3024.3699609374	0.0128681958
3026.2987683104	0.0128225181
3028.2275756835	0.0127473548
3030.1563830565	0.0125893559
3032.0851904296	0.0124457572
3034.0139978026	0.0124442186
3035.9428051757	0.0123864431
3037.8716125487	0.0123494193
3039.8004199218	0.0123193283
3041.7292272948	0.0122201145
3043.6580346679	0.0121944211
3045.5868420409	0.0121376868
3047.5156494139	0.0120531898
3049.4444567870	0.0119981989
3051.3732641600	0.0118861506
3053.3020715331	0.0119701400
3055.2308789061	0.0119141517
3057.1596862792	0.0117518231
3059.0884936522	0.0117655825
3061.0173010253	0.0116440291
3062.9461083983	0.0116536068
3064.8749157714	0.0115518812
3066.8037231444	0.0114795435
3068.7325305175	0.0114747686
3070.6613378905	0.0113797039
3072.5901452636	0.0114631867
3074.5189526366	0.0112277959
3076.4477600097	0.0111578554
3078.3765673827	0.0112441964
3080.3053747557	0.0110825179
3082.2341821288	0.0109761423
3084.1629895018	0.0110079274
3086.0917968749	0.0110331858
3088.0206042479	0.0108834673
3089.9494116210	0.0109446943
3091.8782189940	0.0108074695
3093.8070263671	0.0107638743
3095.7358337401	0.0108122416
3097.6646411132	0.0106519256
3099.5934484862	0.0107664941
3101.5222558593	0.0105562508
3103.4510632323	0.0105078146
3105.3798706054	0.0105720963
3107.3086779784	0.0105120316
3109.2374853514	0.0105137406
3111.1662927245	0.0103756487
3113.0951000975	0.0104941670
3115.0239074706	0.0103568565
3116.9527148436	0.0102333445
3118.8815222167	0.0101510342
3120.8103295897	0.0100707281
3122.7391369628	0.0101945084
3124.6679443358	0.0100375041
3126.5967517089	0.0100229830
3128.5255590819	0.0099335872
3130.4543664550	0.0099141989
3132.3831738280	0.0099888267
3134.3119812011	0.0098967906
3136.2407885741	0.0099313259
3138.1695959471	0.0097699240
3140.0984033202	0.0097206095
3142.0272106932	0.0097742602
3143.9560180663	0.0096676424
3145.8848254393	0.0096545536
3147.8136328124	0.0096243247
3149.7424401854	0.0095793577
3151.6712475585	0.0096440548
3153.6000549315	0.0095241824
3155.5288623046	0.0094288671
3157.4576696776	0.0095868967
3159.3864770507	0.0094260247
3161.3152844237	0.0093430933
3163.2440917968	0.0094704684
3165.1728991698	0.0093930671
3167.1017065428	0.0093862098
3169.0305139159	0.0093347449
3170.9593212889	0.0092585078
3172.8881286620	0.0092581566
3174.8169360350	0.0091746971
3176.7457434081	0.0091433190
3178.6745507811	0.0091411732
3180.6033581542	0.0090964781
3182.5321655272	0.0091322046
3184.4609729003	0.0090908660
3186.3897802733	0.0091311559
3188.3185876464	0.0092029441
3190.2473950194	0.0091138426
3192.1762023925	0.0090785734
3194.1050097655	0.0089341011
3196.0338171386	0.0089735631
3197.9626245116	0.0090116700
3199.8914318846	0.0090302145
3201.8202392577	0.0091883726
3203.7490466307	0.0090094646
3205.6778540038	0.0090499958
3207.6066613768	0.0091028688
3209.5354687499	0.0090412041
3211.4642761229	0.0091149695
3213.3930834960	0.0090617668
3215.3218908690	0.0090677626
3217.2506982421	0.0090361871
3219.1795056151	0.0091008544
3221.1083129882	0.0090713482
3223.0371203612	0.0089378878
3224.9659277343	0.0090002995
3226.8947351073	0.0090120248
3228.8235424803	0.0089956373
3230.7523498534	0.0090692621
3232.6811572264	0.0090399571
3234.6099645995	0.0089361640
3236.5387719725	0.0090507232
3238.4675793456	0.0090160724
3240.3963867186	0.0090768915
3242.3251940917	0.0091848541
3244.2540014647	0.0090461513
3246.1828088378	0.0091342460
3248.1116162108	0.0090651754
3250.0404235839	0.0090985280
3251.9692309569	0.0091819456
3253.8980383300	0.0091053825
3255.8268457030	0.0092019197
3257.7556530760	0.0091627510
3259.6844604491	0.0092054345
3261.6132678221	0.0092796609
3263.5420751952	0.0093114823
3265.4708825682	0.0092549212
3267.3996899413	0.0091895498
3269.3284973143	0.0093114600
3271.2573046874	0.0092635630
3273.1861120604	0.0093018245
3275.1149194335	0.0093897143
3277.0437268065	0.0093326624
3278.9725341796	0.0093614422
3280.9013415526	0.0093926638
3282.8301489257	0.0094142295
3284.7589562987	0.0094308574
3286.6877636717	0.0094051529
3288.6165710448	0.0094709340
3290.5453784178	0.0094413590
3292.4741857909	0.0093364408
3294.4029931639	0.0094463099
3296.3318005370	0.0094122365
3298.2606079100	0.0093911747
3300.1894152831	0.0095268060
3302.1182226561	0.0095575387
3304.0470300292	0.0095681595
3305.9758374022	0.0095248688
3307.9046447753	0.0095945820
3309.8334521483	0.0095691755
3311.7622595214	0.0094940737
3313.6910668944	0.0096055744
3315.6198742675	0.0095781283
3317.5486816405	0.0095556639
3319.4774890135	0.0096317586
3321.4062963866	0.0096167773
3323.3351037596	0.0095972046
3325.2639111327	0.0096583590
3327.1927185057	0.0096575469
3329.1215258788	0.0096784402
3331.0503332518	0.0096487328
3332.9791406249	0.0095948623
3334.9079479979	0.0097455513
3336.8367553710	0.0097636096
3338.7655627440	0.0097943135
3340.6943701171	0.0098480750
3342.6231774901	0.0097897612
3344.5519848632	0.0098730251
3346.4807922362	0.0098682530
3348.4095996092	0.0098276176
3350.3384069823	0.0098974407
3352.2672143553	0.0099330898
3354.1960217284	0.0099772150
3356.1248291014	0.0100838598
3358.0536364745	0.0100422464
3359.9824438475	0.0100022051
3361.9112512206	0.0100945393
3363.8400585936	0.0100100916
3365.7688659667	0.0101091173
3367.6976733397	0.0102199093
3369.6264807128	0.0101426169
3371.5552880858	0.0102381706
3373.4840954589	0.0101949386
3375.4129028319	0.0102873063
3377.3417102049	0.0103750145
3379.2705175780	0.0102727879
3381.1993249510	0.0104138181
3383.1281323241	0.0104534244
3385.0569396971	0.0105414558
3386.9857470702	0.0105317514
3388.9145544432	0.0104986746
3390.8433618163	0.0106458981
3392.7721691893	0.0104795024
3394.7009765624	0.0106085734
3396.6297839354	0.0107614212
3398.5585913085	0.0106801046
3400.4873986815	0.0107933171
3402.4162060546	0.0108547928
3404.3450134276	0.0109288096
3406.2738208006	0.0109092705
3408.2026281737	0.0110258199
3410.1314355467	0.0111170337
3412.0602429198	0.0111294566
3413.9890502928	0.0111793056
3415.9178576659	0.0111244414
3417.8466650389	0.0113205947
3419.7754724120	0.0112474710
3421.7042797850	0.0112317782
3423.6330871581	0.0114666624
3425.5618945311	0.0114593729
3427.4907019042	0.0115445349
3429.4195092772	0.0115651945
3431.3483166503	0.0115679391
3433.2771240233	0.0116142789
3435.2059313963	0.0117532276
3437.1347387694	0.0118300496
3439.0635461424	0.0117921513
3440.9923535155	0.0118796388
3442.9211608885	0.0118897948
3444.8499682616	0.0119290445
3446.7787756346	0.0119151045
3448.7075830077	0.0119960383
3450.6363903807	0.0121821603
3452.5651977538	0.0122450972
3454.4940051268	0.0122893909
3456.4228124999	0.0123040713
3458.3516198729	0.0124417311
3460.2804272460	0.0125219785
3462.2092346190	0.0124854613
3464.1380419921	0.0125431372
3466.0668493651	0.0126106124
3467.9956567381	0.0125978682
3469.9244641112	0.0127087049
3471.8532714842	0.0128561426
3473.7820788573	0.0128325988
3475.7108862303	0.0128819216
3477.6396936034	0.0129763968
3479.5685009764	0.0130239809
3481.4973083495	0.0130730383
3483.4261157225	0.0131858941
3485.3549230956	0.0132137462
3487.2837304686	0.0133005045
3489.2125378417	0.0133963805
3491.1413452147	0.0133324219
3493.0701525878	0.0135121215
3494.9989599608	0.0135487337
3496.9277673338	0.0135539565
3498.8565747069	0.0137477927
3500.7853820799	0.0137294699
3502.7141894530	0.0135351494
3504.6429968260	0.0136575401
3506.5718041991	0.0139998784
3508.5006115721	0.0138509292
3510.4294189452	0.0139880702
3512.3582263182	0.0142130479
3514.2870336913	0.0142201111
3516.2158410643	0.0143436771
3518.1446484374	0.0142399967
3520.0734558104	0.0144244237
3522.0022631835	0.0143403709
3523.9310705565	0.0141866039
3525.8598779295	0.0144447424
3527.7886853026	0.0145223904
3529.7174926756	0.0146116838
3531.6463000487	0.0147241578
3533.5751074217	0.0149022918
3535.5039147948	0.0149037298
3537.4327221678	0.0149466675
3539.3615295409	0.0151330261
3541.2903369139	0.0151153244
3543.2191442870	0.0151598882
3545.1479516600	0.0150257535
3547.0767590331	0.0149179269
3549.0055664061	0.0153081659
3550.9343737792	0.0154440980
3552.8631811522	0.0152652729
3554.7919885252	0.0155512393
3556.7207958983	0.0157261193
3558.6496032713	0.0156692192
3560.5784106444	0.0156591851
3562.5072180174	0.0157649107
3564.4360253905	0.0158582795
3566.3648327635	0.0150939506
3568.2936401366	0.0148677621
3570.2224475096	0.0158834383
3572.1512548827	0.0163139440
3574.0800622557	0.0161577016
3576.0088696288	0.0163057223
3577.9376770018	0.0163188726
3579.8664843749	0.0162963066
3581.7952917479	0.0164412670
3583.7240991210	0.0165393259
3585.6529064940	0.0162889399
3587.5817138670	0.0152884275
3589.5105212401	0.0157584287
3591.4393286131	0.0169246085
3593.3681359862	0.0165121183
3595.2969433592	0.0163820982
3597.2257507323	0.0166569762
3599.1545581053	0.0168246813
3601.0833654784	0.0168269575
3603.0121728514	0.0169164855
3604.9409802245	0.0172613598
3606.8697875975	0.0169206150
3608.7985949706	0.0161915589
3610.7274023436	0.0164916571
3612.6562097167	0.0168050267
3614.5850170897	0.0165757723
3616.5138244627	0.0175661575
3618.4426318358	0.0165119600
3620.3714392088	0.0161700528
3622.3002465819	0.0178297330
3624.2290539549	0.0174972620
3626.1578613280	0.0182048455
3628.0866687010	0.0160112828
3630.0154760741	0.0150859002
3631.9442834471	0.0181220844
3633.8730908202	0.0177206732
3635.8018981932	0.0180599894
3637.7307055663	0.0183740444
3639.6595129393	0.0182201080
3641.5883203124	0.0185199305
3643.5171276854	0.0183942802
3645.4459350584	0.0186671019
3647.3747424315	0.0172560662
3649.3035498045	0.0162835717
3651.2323571776	0.0166928843
3653.1611645506	0.0190531723
3655.0899719237	0.0187700763
3657.0187792967	0.0174022857
3658.9475866698	0.0194793940
3660.8763940428	0.0192672480
3662.8052014159	0.0196903609
3664.7340087889	0.0195928589
3666.6628161620	0.0196119472
3668.5916235350	0.0192444101
3670.5204309081	0.0164463259
3672.4492382811	0.0191968605
3674.3780456541	0.0185404364
3676.3068530272	0.0162206441
3678.2356604002	0.0193664581
3680.1644677733	0.0196717530
3682.0932751463	0.0196909383
3684.0220825194	0.0202480126
3685.9508898924	0.0200436004
3687.8796972655	0.0184040032
3689.8085046385	0.0173660703
3691.7373120116	0.0192652121
3693.6661193846	0.0196482055
3695.5949267577	0.0200933740
3697.5237341307	0.0201291759
3699.4525415038	0.0199268721
3701.3813488768	0.0195207074
3703.3101562499	0.0189996250
3705.2389636229	0.0203620195
3707.1677709959	0.0195415244
3709.0965783690	0.0192094073
3711.0253857420	0.0182778146
3712.9541931151	0.0174829960
3714.8830004881	0.0197638087
3716.8118078612	0.0194273256
3718.7406152342	0.0194247700
3720.6694226073	0.0190371107
3722.5982299803	0.0185945909
3724.5270373534	0.0190759897
3726.4558447264	0.0179395713
3728.3846520995	0.0190938897
3730.3134594725	0.0188465007
3732.2422668456	0.0175828263
3734.1710742186	0.0172605962
3736.0998815916	0.0166202337
3738.0286889647	0.0172669403
3739.9574963377	0.0184012242
3741.8863037108	0.0189940557
3743.8151110838	0.0154357720
3745.7439184569	0.0148826363
3747.6727258299	0.0181023981
3749.6015332030	0.0160059836
3751.5303405760	0.0150922611
3753.4591479491	0.0167392641
3755.3879553221	0.0177296475
3757.3167626952	0.0182298608
3759.2455700682	0.0171510298
3761.1743774413	0.0176034942
3763.1031848143	0.0183454305
3765.0319921873	0.0174167156
3766.9607995604	0.0176104531
3768.8896069334	0.0173478201
3770.8184143065	0.0167509411
3772.7472216795	0.0177105814
3774.6760290526	0.0177012607
3776.6048364256	0.0176487565
3778.5336437987	0.0172559284
3780.4624511717	0.0168439895
3782.3912585448	0.0176002961
3784.3200659178	0.0172109138
3786.2488732909	0.0172323976
3788.1776806639	0.0175010283
3790.1064880370	0.0171953272
3792.0352954100	0.0170790609
3793.9641027830	0.0173953772
3795.8929101561	0.0165241733
3797.8217175291	0.0164517276
3799.7505249022	0.0169258192
3801.6793322752	0.0140819680
3803.6081396483	0.0159779564
3805.5369470213	0.0167904459
3807.4657543944	0.0144328922
3809.3945617674	0.0167588517
3811.3233691405	0.0165031701
3813.2521765135	0.0168602280
3815.1809838866	0.0153627498
3817.1097912596	0.0141158234
3819.0385986327	0.0167171173
3820.9674060057	0.0141558172
3822.8962133787	0.0148300678
3824.8250207518	0.0165231302
3826.7538281248	0.0153696705
3828.6826354979	0.0162347592
3830.6114428709	0.0156059563
3832.5402502440	0.0152810272
3834.4690576170	0.0155777037
3836.3978649901	0.0148068275
3838.3266723631	0.0136673367
3840.2554797362	0.0146495961
3842.1842871092	0.0154622765
3844.1130944823	0.0148576461
3846.0419018553	0.0157648474
3847.9707092284	0.0155160688
3849.8995166014	0.0154170766
3851.8283239745	0.0141186155
3853.7571313475	0.0112819839
3855.6859387205	0.0129207466
3857.6147460936	0.0155371446
3859.5435534666	0.0150035154
3861.4723608397	0.0149346190
3863.4011682127	0.0146681741
3865.3299755858	0.0137802586
3867.2587829588	0.0150898704
3869.1875903319	0.0139328558
3871.1163977049	0.0131288050
3873.0452050780	0.0148939807
3874.9740124510	0.0139777707
3876.9028198241	0.0149364080
3878.8316271971	0.0149775147
3880.7604345702	0.0133327693
3882.6892419432	0.0148221729
3884.6180493162	0.0139340311
3886.5468566893	0.0131230894
3888.4756640623	0.0147348195
3890.4044714354	0.0140186865
3892.3332788084	0.0134198461
3894.2620861815	0.0143614970
3896.1908935545	0.0145426281
3898.1197009276	0.0140367821
3900.0485083006	0.0133631555
3901.9773156737	0.0132369408
3903.9061230467	0.0131903421
3905.8349304198	0.0132421432
3907.7637377928	0.0141263083
3909.6925451659	0.0141748087
3911.6213525389	0.0139929168
3913.5501599119	0.0141997794
3915.4789672850	0.0138220135
3917.4077746580	0.0134589877
3919.3365820311	0.0134283835
3921.2653894041	0.0137333032
3923.1941967772	0.0136677977
3925.1230041502	0.0134788826
3927.0518115233	0.0136237945
3928.9806188963	0.0136783933
3930.9094262694	0.0134487376
3932.8382336424	0.0131234825
3934.7670410155	0.0134842619
3936.6958483885	0.0135391140
3938.6246557616	0.0133344531
3940.5534631346	0.0134464810
3942.4822705076	0.0131398989
3944.4110778807	0.0131815560
3946.3398852537	0.0132814320
3948.2686926268	0.0130860396
3950.1974999998	0.0131815262
3952.1263073729	0.0131913917
3954.0551147459	0.0131552182
3955.9839221190	0.0131309247
3957.9127294920	0.0130357277
3959.8415368651	0.0130324103
3961.7703442381	0.0129522607
3963.6991516112	0.0129157221
3965.6279589842	0.0130140176
3967.5567663573	0.0129694380
3969.4855737303	0.0129177552
3971.4143811034	0.0128639508
3973.3431884764	0.0127852950
3975.2719958494	0.0127769690
3977.2008032225	0.0127112577
3979.1296105955	0.0127152670
3981.0584179686	0.0126726804
3982.9872253416	0.0125846108
3984.9160327147	0.0126579031
3986.8448400877	0.0126228267
3988.7736474608	0.0124649312
3990.7024548338	0.0123882275
3992.6312622069	0.0123862214
3994.5600695799	0.0123911407
3996.4888769530	0.0123987626
3998.4176843260	0.0123942569
4000.3464916991	0.0123165362
4002.2752990721	0.0122975558
4004.2041064451	0.0123274857
4006.1329138182	0.0122318016
4008.0617211912	0.0121319909
4009.9905285643	0.0121405907
4011.9193359373	0.0121301794
4013.8481433104	0.0120610865
4015.7769506834	0.0120013850
4017.7057580565	0.0119831832
4019.6345654295	0.0120093422
4021.5633728026	0.0119721927
4023.4921801756	0.0118823275
4025.4209875487	0.0118199717
4027.3497949217	0.0118063632
4029.2786022948	0.0118433088
4031.2074096678	0.0117592756
4033.1362170408	0.0116961766
4035.0650244139	0.0117336977
4036.9938317869	0.0117200743
4038.9226391600	0.0117054917
4040.8514465330	0.0116424020
4042.7802539061	0.0116048567
4044.7090612791	0.0115511212
4046.6378686522	0.0114974659
4048.5666760252	0.0114845289
4050.4954833983	0.0114289885
4052.4242907713	0.0114457831
4054.3530981444	0.0113749169
4056.2819055174	0.0112915337
4058.2107128905	0.0113218222
4060.1395202635	0.0113323284
4062.0683276365	0.0113241766
4063.9971350096	0.0112771988
4065.9259423826	0.0112414006
4067.8547497557	0.0112163816
4069.7835571287	0.0111854896
4071.7123645018	0.0111017525
4073.6411718748	0.0110191284
4075.5699792479	0.0110757295
4077.4987866209	0.0111101959
4079.4275939940	0.0109648257
4081.3564013670	0.0109443050
4083.2852087401	0.0110531170
4085.2140161131	0.0109685939
4087.1428234862	0.0108092483
4089.0716308592	0.0106918998
4091.0004382323	0.0107940324
4092.9292456053	0.0108168758
4094.8580529783	0.0107020838
4096.7868603514	0.0107659884
4098.7156677244	0.0107331071
4100.6444750975	0.0106975343
4102.5732824705	0.0106140729
4104.5020898436	0.0105771720
4106.4308972166	0.0104944855
4108.3597045897	0.0104507543
4110.2885119627	0.0106082652
4112.2173193358	0.0104641020
4114.1461267088	0.0104952920
4116.0749340819	0.0104630738
4118.0037414549	0.0103645716
4119.9325488280	0.0104347318
4121.8613562010	0.0102652730
4123.7901635740	0.0103251487
4125.7189709471	0.0102994423
4127.6477783201	0.0102417208
4129.5765856932	0.0102736950
4131.5053930662	0.0102080209
4133.4342004393	0.0102479756
4135.3630078123	0.0101662278
4137.2918151854	0.0100940410
4139.2206225584	0.0100785140
4141.1494299315	0.0100948066
4143.0782373045	0.0100283418
4145.0070446776	0.0099748727
4146.9358520506	0.0099516455
4148.8646594237	0.0099264849
4150.7934667967	0.0099887233
4152.7222741697	0.0098906700
4154.6510815428	0.0099200709
4156.5798889158	0.0098828953
4158.5086962889	0.0098087490
4160.4375036619	0.0098259123
4162.3663110350	0.0097758081
4164.2951184080	0.0097698569
4166.2239257811	0.0096032638
4168.1527331541	0.0096812807
4170.0815405272	0.0097157415
4172.0103479002	0.0095483195
4173.9391552733	0.0096136238
4175.8679626463	0.0096409349
4177.7967700194	0.0096165659
4179.7255773924	0.0095237046
4181.6543847654	0.0094608404
4183.5831921385	0.0094556818
4185.5119995115	0.0094859097
4187.4408068846	0.0094853658
4189.3696142576	0.0094004590
4191.2984216307	0.0093809813
4193.2272290037	0.0093584266
4195.1560363768	0.0093117598
4197.0848437498	0.0092809573
4199.0136511229	0.0093598720
4200.9424584959	0.0093172379
4202.8712658690	0.0092135845
4204.8000732420	0.0091944840
4206.7288806151	0.0091544576
4208.6576879881	0.0091066379
4210.5864953611	0.0089779105
4212.5153027342	0.0090772845
4214.4441101072	0.0091233645
4216.3729174803	0.0089813173
4218.3017248533	0.0090058576
4220.2305322264	0.0090450402
4222.1593395994	0.0090064369
4224.0881469725	0.0089109205
4226.0169543455	0.0089353081
4227.9457617186	0.0089171194
4229.8745690916	0.0088669686
4231.8033764647	0.0088712089
4233.7321838377	0.0088334344
4235.6609912108	0.0088618901
4237.5897985838	0.0088324677
4239.5186059569	0.0087895375
4241.4474133299	0.0086899493
4243.3762207029	0.0086948397
4245.3050280760	0.0088078678
4247.2338354490	0.0087171486
4249.1626428221	0.0086659435
4251.0914501951	0.0086607775
4253.0202575682	0.0086097857
4254.9490649412	0.0085767824
4256.8778723143	0.0085265823
4258.8066796873	0.0085160565
4260.7354870604	0.0085555259
4262.6642944334	0.0085044168
4264.5931018065	0.0084307753
4266.5219091795	0.0083851404
4268.4507165526	0.0083085261
4270.3795239256	0.0083844773
4272.3083312986	0.0083889291
4274.2371386717	0.0082874587
4276.1659460447	0.0083693443
4278.0947534178	0.0083495360
4280.0235607908	0.0082184179
4281.9523681639	0.0082832612
4283.8811755369	0.0082916468
4285.8099829100	0.0081695579
4287.7387902830	0.0082177855
4289.6675976561	0.0082123168
4291.5964050291	0.0081172902
4293.5252124022	0.0081552612
4295.4540197752	0.0081565846
4297.3828271483	0.0080616614
4299.3116345213	0.0080649033
4301.2404418943	0.0080637150
4303.1692492674	0.0079352735
4305.0980566404	0.0080123674
4307.0268640135	0.0080769015
4308.9556713865	0.0079683270
4310.8844787596	0.0079545248
4312.8132861326	0.0079407357
4314.7420935057	0.0078926506
4316.6709008787	0.0078020128
4318.5997082518	0.0078474944
4320.5285156248	0.0078790411
4322.4573229979	0.0077780248
4324.3861303709	0.0077814362
4326.3149377440	0.0077802455
4328.2437451170	0.0077908346
4330.1725524900	0.0077226320
4332.1013598631	0.0077046356
4334.0301672361	0.0077555776
4335.9589746092	0.0076713059
4337.8877819822	0.0076669906
4339.8165893553	0.0076384246
4341.7453967283	0.0075799404
4343.6742041014	0.0075898576
4345.6030114744	0.0076101013
4347.5318188475	0.0075905244
4349.4606262205	0.0074826754
4351.3894335936	0.0074432082
4353.3182409666	0.0074543422
4355.2470483397	0.0074565271
4357.1758557127	0.0073772646
4359.1046630858	0.0073135765
4361.0334704588	0.0074241357
4362.9622778318	0.0074445326
4364.8910852049	0.0073569757
4366.8198925779	0.0072760154
4368.7486999510	0.0072515174
4370.6775073240	0.0073114154
4372.6063146971	0.0072741909
4374.5351220701	0.0072064362
4376.4639294432	0.0071728546
4378.3927368162	0.0071297279
4380.3215441893	0.0071442644
4382.2503515623	0.0071710208
4384.1791589354	0.0071536298
4386.1079663084	0.0071313884
4388.0367736815	0.0071434085
4389.9655810545	0.0071077091
4391.8943884275	0.0070549636
4393.8231958006	0.0070576086
4395.7520031736	0.0070352908
4397.6808105467	0.0069840848
4399.6096179197	0.0069572763
4401.5384252928	0.0069961054
4403.4672326658	0.0069927461
4405.3960400389	0.0069327028
4407.3248474119	0.0069446051
4409.2536547850	0.0069014868
4411.1824621580	0.0067926440
4413.1112695311	0.0068530249
4415.0400769041	0.0069198962
4416.9688842772	0.0067993011
4418.8976916502	0.0067249015
4420.8264990232	0.0067167003
4422.7553063963	0.0067228386
4424.6841137693	0.0067130700
4426.6129211424	0.0066843182
4428.5417285154	0.0066732280
4430.4705358885	0.0066467393
4432.3993432615	0.0066888630
4434.3281506346	0.0065864548
4436.2569580076	0.0065653063
4438.1857653807	0.0066782385
4440.1145727537	0.0065587857
4442.0433801268	0.0065699928
4443.9721874998	0.0065937992
4445.9009948729	0.0065112123
4447.8298022459	0.0065194601
4449.7586096189	0.0064851502
4451.6874169920	0.0064607011
4453.6162243650	0.0065219318
4455.5450317381	0.0064753359
4457.4738391111	0.0063377544
4459.4026464842	0.0064474996
4461.3314538572	0.0064340616
4463.2602612303	0.0063316589
4465.1890686033	0.0064106137
4467.1178759764	0.0063187685
4469.0466833494	0.0062940815
4470.9754907225	0.0063187853
4472.9042980955	0.0062455414
4474.8331054686	0.0062570898
4476.7619128416	0.0063012084
4478.6907202147	0.0062407171
4480.6195275877	0.0061946930
4482.5483349607	0.0062207403
4484.4771423338	0.0061771595
4486.4059497068	0.0062361686
4488.3347570799	0.0061810021
4490.2635644529	0.0060769217
4492.1923718260	0.0060880468
4494.1211791990	0.0060449606
4496.0499865721	0.0061220671
4497.9787939451	0.0060874717
4499.9076013182	0.0060298415
4501.8364086912	0.0060498253
4503.7652160643	0.0060122777
4505.6940234373	0.0060566855
4507.6228308104	0.0060323421
4509.5516381834	0.0059586009
4511.4804455564	0.0059341826
4513.4092529295	0.0059298705
4515.3380603025	0.0058866255
4517.2668676756	0.0058410680
4519.1956750486	0.0058303839
4521.1244824217	0.0058326321
4523.0532897947	0.0058182934
4524.9820971678	0.0057372591
4526.9109045408	0.0057567800
4528.8397119139	0.0057441541
4530.7685192869	0.0057119234
4532.6973266600	0.0057743248
4534.6261340330	0.0057159755
4536.5549414061	0.0057180347
4538.4837487791	0.0057604993
4540.4125561521	0.0056803045
4542.3413635252	0.0057021650
4544.2701708982	0.0057500163
4546.1989782713	0.0056696562
4548.1277856443	0.0056296578
4550.0565930174	0.0056197429
4551.9854003904	0.0055219224
4553.9142077635	0.0055363169
4555.8430151365	0.0056296326
4557.7718225096	0.0055206032
4559.7006298826	0.0054934137
4561.6294372557	0.0055390052
4563.5582446287	0.0054706531
4565.4870520018	0.0055285720
4567.4158593748	0.0054478738
4569.3446667478	0.0053708702
4571.2734741209	0.0054197619
4573.2022814939	0.0053534759
4575.1310888670	0.0054130591
4577.0598962400	0.0053932844
4578.9887036131	0.0053336164
4580.9175109861	0.0053784875
4582.8463183592	0.0053583002
4584.7751257322	0.0053232033
4586.7039331053	0.0053136647
4588.6327404783	0.0053228792
4590.5615478514	0.0052462481
4592.4903552244	0.0052639968
4594.4191625975	0.0052708425
4596.3479699705	0.0051661516
4598.2767773435	0.0051697348
4600.2055847166	0.0051781302
4602.1343920896	0.0051963697
4604.0631994627	0.0052151112
4605.9920068357	0.0052254032
4607.9208142088	0.0052060219
4609.8496215818	0.0051539829
4611.7784289549	0.0051417295
4613.7072363279	0.0051317746
4615.6360437010	0.0051016486
4617.5648510740	0.0050501022
4619.4936584471	0.0050262306
4621.4224658201	0.0050521228
4623.3512731932	0.0050408239
4625.2800805662	0.0049327994
4627.2088879393	0.0049879001
4629.1376953123	0.0050305156
4631.0665026853	0.0049071787
4632.9953100584	0.0048976112
4634.9241174314	0.0048788181
4636.8529248045	0.0049215495
4638.7817321775	0.0049496549
4640.7105395506	0.0048801778
4642.6393469236	0.0048621632
4644.5681542967	0.0049218121
4646.4969616697	0.0049229972
4648.4257690428	0.0048187613
4650.3545764158	0.0048699067
4652.2833837889	0.0048107365
4654.2121911619	0.0047307573
4656.1409985350	0.0047440026
4658.0698059080	0.0047390973
4659.9986132810	0.0047802604
4661.9274206541	0.0047437437
4663.8562280271	0.0047894204
4665.7850354002	0.0046914797
4667.7138427732	0.0047195144
4669.6426501463	0.0047749779
4671.5714575193	0.0045539304
4673.5002648924	0.0046563176
4675.4290722654	0.0046851914
4677.3578796385	0.0046612765
4679.2866870115	0.0046692351
4681.2154943846	0.0045166351
4683.1443017576	0.0045795552
4685.0731091307	0.0045942189
4687.0019165037	0.0045610219
4688.9307238767	0.0045827804
4690.8595312498	0.0045214184
4692.7883386228	0.0044786194
4694.7171459959	0.0044687912
4696.6459533689	0.0045135631
4698.5747607420	0.0045077559
4700.5035681150	0.0044290372
4702.4323754881	0.0044915006
4704.3611828611	0.0044952864
4706.2899902342	0.0044021839
4708.2187976072	0.0044595324
4710.1476049803	0.0044279126
4712.0764123533	0.0043960921
4714.0052197264	0.0044451673
4715.9340270994	0.0044200276
4717.8628344724	0.0043985271
4719.7916418455	0.0043811686
4721.7204492185	0.0043968065
4723.6492565916	0.0043812864
4725.5780639646	0.0043425402
4727.5068713377	0.0042891963
4729.4356787107	0.0042950753
4731.3644860838	0.0043235468
4733.2932934568	0.0043226178
4735.2221008299	0.0043122722
4737.1509082029	0.0041968343
4739.0797155760	0.0042977408
4741.0085229490	0.0043364423
4742.9373303221	0.0041813427
4744.8661376951	0.0042378297
4746.7949450682	0.0042345286
4748.7237524412	0.0041837385
4750.6525598142	0.0042260885
4752.5813671873	0.0042117615
4754.5101745603	0.0041536079
4756.4389819334	0.0042163106
4758.3677893064	0.0042370511
4760.2965966795	0.0040925895
4762.2254040525	0.0040569725
4764.1542114256	0.0041184220
4766.0830187986	0.0041305367
4768.0118261717	0.0040954365
4769.9406335447	0.0040545845
4771.8694409178	0.0040068384
4773.7982482908	0.0040599033
4775.7270556639	0.0040585063
4777.6558630369	0.0039769975
4779.5846704099	0.0039917650
4781.5134777830	0.0039728493
4783.4422851560	0.0040193545
4785.3710925291	0.0039741825
4787.2998999021	0.0038864552
4789.2287072752	0.0038912133
4791.1575146482	0.0038999147
4793.0863220213	0.0039368798
4795.0151293943	0.0038911381
4796.9439367674	0.0038984881
4798.8727441404	0.0038618101
4800.8015515135	0.0039283969
4802.7303588865	0.0039516706
4804.6591662596	0.0038114977
4806.5879736326	0.0038921209
4808.5167810056	0.0038276890
4810.4455883787	0.0038614152
4812.3743957517	0.0039215954
4814.3032031248	0.0037392629
4816.2320104978	0.0038153003
4818.1608178709	0.0038464959
4820.0896252439	0.0037247275
4822.0184326170	0.0037448606
4823.9472399900	0.0037573683
4825.8760473631	0.0037117938
4827.8048547361	0.0037658229
4829.7336621092	0.0037950114
4831.6624694822	0.0037361290
4833.5912768553	0.0037096385
4835.5200842283	0.0036686361
4837.4488916013	0.0035932553
4839.3776989744	0.0036153544
4841.3065063474	0.0037082625
4843.2353137205	0.0035915803
4845.1641210935	0.0035949142
4847.0929284666	0.0036677560
4849.0217358396	0.0035542687
4850.9505432127	0.0036319960
4852.8793505857	0.0036118822
4854.8081579588	0.0035156859
4856.7369653318	0.0035674553
4858.6657727049	0.0035275859
4860.5945800779	0.0035246694
4862.5233874510	0.0035761804
4864.4521948240	0.0034900878
4866.3810021971	0.0034649186
4868.3098095701	0.0035038334
4870.2386169431	0.0034341533
4872.1674243162	0.0035143103
4874.0962316892	0.0035165492
4876.0250390623	0.0034710458
4877.9538464353	0.0034737033
4879.8826538084	0.0033616964
4881.8114611814	0.0034066592
4883.7402685545	0.0033898889
4885.6690759275	0.0034437799
4887.5978833006	0.0034693535
4889.5266906736	0.0033524549
4891.4554980467	0.0033721654
4893.3843054197	0.0033699723
4895.3131127928	0.0034765126
4897.2419201658	0.0033560887
4899.1707275388	0.0032861480
4901.0995349119	0.0034003640
4903.0283422849	0.0032494438
4904.9571496580	0.0032924730
4906.8859570310	0.0032911170
4908.8147644041	0.0032440564
4910.7435717771	0.0033174152
4912.6723791502	0.0032458305
4914.6011865232	0.0032466382
4916.5299938963	0.0032746764
4918.4588012693	0.0032503561
4920.3876086424	0.0032253992
4922.3164160154	0.0032460792
4924.2452233885	0.0032275699
4926.1740307615	0.0031606078
4928.1028381345	0.0032149823
4930.0316455076	0.0032070894
4931.9604528806	0.0031320578
4933.8892602537	0.0031531388
4935.8180676267	0.0031195604
4937.7468749998	0.0031117119
4939.6756823728	0.0031627673
4941.6044897459	0.0030547106
4943.5332971189	0.0030856605
4945.4621044920	0.0031786768
4947.3909118650	0.0030627002
4949.3197192381	0.0030546850
4951.2485266111	0.0030694949
4953.1773339842	0.0030333423
4955.1061413572	0.0030781478
4957.0349487302	0.0030736909
4958.9637561033	0.0029475917
4960.8925634763	0.0029347721
4962.8213708494	0.0030327174
4964.7501782224	0.0029898665
4966.6789855955	0.0029826253
4968.6077929685	0.0029719751
4970.5366003416	0.0029824609
4972.4654077146	0.0030164425
4974.3942150877	0.0029064608
4976.3230224607	0.0029091695
4978.2518298338	0.0029281904
4980.1806372068	0.0029704627
4982.1094445799	0.0030102483
4984.0382519529	0.0029104957
4985.9670593259	0.0029531834
4987.8958666990	0.0029859082
4989.8246740720	0.0029427886
4991.7534814451	0.0029471819
4993.6822888181	0.0028920919
4995.6110961912	0.0028849104
4997.5399035642	0.0029326458
4999.4687109373	0.0028684512
5001.3975183103	0.0028380398
5003.3263256834	0.0028613228
5005.2551330564	0.0027902003
5007.1839404295	0.0027900622
5009.1127478025	0.0028390721
5011.0415551756	0.0028509342
5012.9703625486	0.0027793129
5014.8991699217	0.0027108868
5016.8279772947	0.0027212831
5018.7567846677	0.0027013125
5020.6855920408	0.0027773655
5022.6143994138	0.0027224743
5024.5432067869	0.0026727510
5026.4720141599	0.0027661058
5028.4008215330	0.0027142628
5030.3296289060	0.0027674355
5032.2584362791	0.0028075373
5034.1872436521	0.0027357086
5036.1160510252	0.0026613656
5038.0448583982	0.0026415105
5039.9736657713	0.0026697232
5041.9024731443	0.0026479368
5043.8312805174	0.0026986282
5045.7600878904	0.0026720427
5047.6888952634	0.0026710341
5049.6177026365	0.0027002005
5051.5465100095	0.0026672063
5053.4753173826	0.0026204991
5055.4041247556	0.0025451267
5057.3329321287	0.0026279364
5059.2617395017	0.0026441296
5061.1905468748	0.0026162860
5063.1193542478	0.0026169913
5065.0481616209	0.0026150029
5066.9769689939	0.0026334424
5068.9057763670	0.0025545850
5070.8345837400	0.0025263424
5072.7633911131	0.0024841556
5074.6921984861	0.0025155924
5076.6210058591	0.0025190250
5078.5498132322	0.0024923086
5080.4786206052	0.0025734599
5082.4074279783	0.0025188776
5084.3362353513	0.0024808296
5086.2650427244	0.0024444130
5088.1938500974	0.0024298979
5090.1226574705	0.0024355059
5092.0514648435	0.0024296129
5093.9802722166	0.0024896660
5095.9090795896	0.0024357606
5097.8378869627	0.0023665349
5099.7666943357	0.0023823513
5101.6955017088	0.0024378016
5103.6243090818	0.0024352372
5105.5531164548	0.0024420789
5107.4819238279	0.0024215027
5109.4107312009	0.0023744060
5111.3395385740	0.0024166647
5113.2683459470	0.0024102670
5115.1971533201	0.0024028341
5117.1259606931	0.0023272927
5119.0547680662	0.0023047160
5120.9835754392	0.0023209080
5122.9123828123	0.0023336723
5124.8411901853	0.0023848517
5126.7699975584	0.0023075375
5128.6988049314	0.0022973863
5130.6276123045	0.0022169868
5132.5564196775	0.0022537494
5134.4852270506	0.0023842917
5136.4140344236	0.0022662650
5138.3428417966	0.0022612901
5140.2716491697	0.0022883178
5142.2004565427	0.0022329232
5144.1292639158	0.0021912050
5146.0580712888	0.0022027860
5147.9868786619	0.0022522281
5149.9156860349	0.0022868828
5151.8444934080	0.0022664673
5153.7733007810	0.0022285101
5155.7021081541	0.0022567508
5157.6309155271	0.0022329213
5159.5597229002	0.0022633150
5161.4885302732	0.0022323905
5163.4173376463	0.0021857005
5165.3461450193	0.0021932009
5167.2749523923	0.0021851771
5169.2037597654	0.0022496709
5171.1325671384	0.0021448620
5173.0613745115	0.0021444131
5174.9901818845	0.0022389623
5176.9189892576	0.0022208197
5178.8477966306	0.0021934919
5180.7766040037	0.0020982479
5182.7054113767	0.0020838338
5184.6342187498	0.0020385978
5186.5630261228	0.0020479779
5188.4918334959	0.0021356840
5190.4206408689	0.0021456038
5192.3494482420	0.0021249927
5194.2782556150	0.0020707985
5196.2070629880	0.0020636925
5198.1358703611	0.0020255167
5200.0646777341	0.0020378241
5201.9934851072	0.0020839819
5203.9222924802	0.0020192633
5205.8510998533	0.0019911611
5207.7799072263	0.0020401664
5209.7087145994	0.0020658472
5211.6375219724	0.0020781853
5213.5663293455	0.0020882413
5215.4951367185	0.0020467294
5217.4239440916	0.0020139911
5219.3527514646	0.0020071454
5221.2815588377	0.0020560715
5223.2103662107	0.0020003445
5225.1391735837	0.0018988147
5227.0679809568	0.0020146370
5228.9967883298	0.0020330336
5230.9255957029	0.0019575078
5232.8544030759	0.0020075694
5234.7832104490	0.0020176747
5236.7120178220	0.0019885856
5238.6408251951	0.0019518888
5240.5696325681	0.0019068365
5242.4984399412	0.0019810507
5244.4272473142	0.0019637700
5246.3560546873	0.0018849343
5248.2848620603	0.0019001593
5250.2136694334	0.0018176746
5252.1424768064	0.0019109182
5254.0712841795	0.0019359735
5256.0000915525	0.0018344838
5257.9288989255	0.0019488649
5259.8577062986	0.0019433202
5261.7865136716	0.0019299826
5263.7153210447	0.0018834136
5265.6441284177	0.0018672643
5267.5729357908	0.0019243259
5269.5017431638	0.0018588321
5271.4305505369	0.0019108151
5273.3593579099	0.0018766378
5275.2881652830	0.0018162243
5277.2169726560	0.0018843800
5279.1457800291	0.0018295629
5281.0745874021	0.0018224893
5283.0033947752	0.0018763097
5284.9322021482	0.0017751397
5286.8610095212	0.0018345769
5288.7898168943	0.0018693757
5290.7186242673	0.0016845254
5292.6474316404	0.0017931580
5294.5762390134	0.0018186769
5296.5050463865	0.0017135645
5298.4338537595	0.0017267740
5300.3626611326	0.0017463414
5302.2914685056	0.0018335106
5304.2202758787	0.0017626759
5306.1490832517	0.0017663270
5308.0778906248	0.0017850352
5310.0066979978	0.0017339240
5311.9355053709	0.0017758359
5313.8643127439	0.0017878840
5315.7931201169	0.0018161463
5317.7219274900	0.0017710763
5319.6507348630	0.0017620460
5321.5795422361	0.0017659820
5323.5083496091	0.0017422265
5325.4371569822	0.0017101845
5327.3659643552	0.0016772277
5329.2947717283	0.0017139497
5331.2235791013	0.0017229781
5333.1523864744	0.0017164724
5335.0811938474	0.0016770447
5337.0100012205	0.0016980022
5338.9388085935	0.0016184840
5340.8676159666	0.0016201566
5342.7964233396	0.0016851609
5344.7252307126	0.0015651718
5346.6540380857	0.0016418775
5348.5828454587	0.0016571418
5350.5116528318	0.0016516484
5352.4404602048	0.0016453331
5354.3692675779	0.0016399790
5356.2980749509	0.0017280813
5358.2268823240	0.0016249404
5360.1556896970	0.0016595513
5362.0844970701	0.0016401277
5364.0133044431	0.0016287144
5365.9421118162	0.0016830019
5367.8709191892	0.0016076446
5369.7997265623	0.0016340581
5371.7285339353	0.0015685211
5373.6573413083	0.0016079732
5375.5861486814	0.0016214899
5377.5149560544	0.0015336021
5379.4437634275	0.0015406266
5381.3725708005	0.0015230939
5383.3013781736	0.0016374877
5385.2301855466	0.0016324073
5387.1589929197	0.0015278324
5389.0878002927	0.0015686241
5391.0166076658	0.0016164934
5392.9454150388	0.0015695177
5394.8742224119	0.0015359048
5396.8030297849	0.0016063412
5398.7318371580	0.0014987739
5400.6606445310	0.0014496539
5402.5894519041	0.0016012245
5404.5182592771	0.0015305479
5406.4470666501	0.0014792673
5408.3758740232	0.0015154361
5410.3046813962	0.0014955647
5412.2334887693	0.0015509021
5414.1622961423	0.0014882530
5416.0911035154	0.0015018540
5418.0199108884	0.0015310873
5419.9487182615	0.0014669395
5421.8775256345	0.0015311246
5423.8063330076	0.0014482872
5425.7351403806	0.0015028005
5427.6639477537	0.0014976403
5429.5927551267	0.0013492538
5431.5215624998	0.0015051152
5433.4503698728	0.0014258937
5435.3791772458	0.0013668328
5437.3079846189	0.0015009309
5439.2367919919	0.0014493000
5441.1655993650	0.0013920651
5443.0944067380	0.0013932954
5445.0232141111	0.0014266012
5446.9520214841	0.0014230781
5448.8808288572	0.0014093275
5450.8096362302	0.0013530393
5452.7384436033	0.0014154271
5454.6672509763	0.0014586415
5456.5960583494	0.0013820470
5458.5248657224	0.0014699808
5460.4536730955	0.0013976202
5462.3824804685	0.0013739914
5464.3112878415	0.0014166324
5466.2400952146	0.0013378169
5468.1689025876	0.0014480804
5470.0977099607	0.0014638472
5472.0265173337	0.0014563268
5473.9553247068	0.0014170178
5475.8841320798	0.0013015011
5477.8129394529	0.0013959929
5479.7417468259	0.0013518559
5481.6705541990	0.0012616958
5483.5993615720	0.0013573307
5485.5281689451	0.0013967084
5487.4569763181	0.0013839110
5489.3857836912	0.0013627073
5491.3145910642	0.0013534012
5493.2433984372	0.0013143726
5495.1722058103	0.0012795250
5497.1010131833	0.0013415485
5499.0298205564	0.0013164178
5500.9586279294	0.0012884727
5502.8874353025	0.0013595786
5504.8162426755	0.0013139220
5506.7450500486	0.0013170195
5508.6738574216	0.0013563009
5510.6026647947	0.0012507484
5512.5314721677	0.0012646118
5514.4602795408	0.0012836471
5516.3890869138	0.0012118991
5518.3178942869	0.0012853090
5520.2467016599	0.0013521193
5522.1755090330	0.0012829374
5524.1043164060	0.0011969062
5526.0331237790	0.0012609998
5527.9619311521	0.0013345948
5529.8907385251	0.0012725983
5531.8195458982	0.0012643562
5533.7483532712	0.0012694320
5535.6771606443	0.0013046454
5537.6059680173	0.0013118803
5539.5347753904	0.0012484343
5541.4635827634	0.0012712991
5543.3923901365	0.0011978757
5545.3211975095	0.0011557646
5547.2500048826	0.0012581174
5549.1788122556	0.0012358034
5551.1076196287	0.0012259963
5553.0364270017	0.0012866873
5554.9652343747	0.0012235695
5556.8940417478	0.0012351144
5558.8228491208	0.0013031771
5560.7516564939	0.0011854245
5562.6804638669	0.0011570937
5564.6092712400	0.0012030258
5566.5380786130	0.0012006988
5568.4668859861	0.0012293587
5570.3956933591	0.0011762115
5572.3245007322	0.0011466921
5574.2533081052	0.0011272837
5576.1821154783	0.0011587944
5578.1109228513	0.0012227332
5580.0397302244	0.0011718506
5581.9685375974	0.0012101645
5583.8973449704	0.0012195202
5585.8261523435	0.0011496835
5587.7549597165	0.0011460602
5589.6837670896	0.0011390013
5591.6125744626	0.0011787070
5593.5413818357	0.0011727954
5595.4701892087	0.0011323688
5597.3989965818	0.0011876575
5599.3278039548	0.0011450234
5601.2566113279	0.0010446114
5603.1854187009	0.0010788484
5605.1142260740	0.0011181292
5607.0430334470	0.0011071328
5608.9718408201	0.0011299581
5610.9006481931	0.0011342093
5612.8294555661	0.0010413474
5614.7582629392	0.0010421465
5616.6870703122	0.0011031874
5618.6158776853	0.0010176548
5620.5446850583	0.0010381180
5622.4734924314	0.0010516762
5624.4022998044	0.0010045019
5626.3311071775	0.0010992556
5628.2599145505	0.0010681746
5630.1887219236	0.0010294922
5632.1175292966	0.0010583171
5634.0463366697	0.0010475784
5635.9751440427	0.0010612953
5637.9039514158	0.0010157845
5639.8327587888	0.0010291408
5641.7615661619	0.0010484336
5643.6903735349	0.0010260801
5645.6191809079	0.0010302083
5647.5479882810	0.0010144413
5649.4767956540	0.0010395164
5651.4056030271	0.0010502897
5653.3344104001	0.0010606106
5655.2632177732	0.0010294010
5657.1920251462	0.0010354909
5659.1208325193	0.0011005837
5661.0496398923	0.0009990963
5662.9784472654	0.0009794433
5664.9072546384	0.0010184079
5666.8360620115	0.0009862294
5668.7648693845	0.0010269040
5670.6936767576	0.0009965509
5672.6224841306	0.0009553935
5674.5512915036	0.0009943158
5676.4800988767	0.0010350418
5678.4089062497	0.0010146338
5680.3377136228	0.0009540669
5682.2665209958	0.0009399528
5684.1953283689	0.0009407167
5686.1241357419	0.0009208542
5688.0529431150	0.0009033701
5689.9817504880	0.0009723457
5691.9105578611	0.0010096484
5693.8393652341	0.0009566543
5695.7681726072	0.0009240869
5697.6969799802	0.0009242642
5699.6257873533	0.0009435501
5701.5545947263	0.0009357124
5703.4834020993	0.0009566333
5705.4122094724	0.0009461403
5707.3410168454	0.0009501613
5709.2698242185	0.0009624622
5711.1986315915	0.0009149290
5713.1274389646	0.0009472156
5715.0562463376	0.0008897657
5716.9850537107	0.0008486470
5718.9138610837	0.0009267445
5720.8426684568	0.0009326767
5722.7714758298	0.0008934989
5724.7002832029	0.0008975141
5726.6290905759	0.0009679431
5728.5578979490	0.0009344124
5730.4867053220	0.0008857285
5732.4155126950	0.0008933536
5734.3443200681	0.0008693091
5736.2731274411	0.0008530434
5738.2019348142	0.0008839815
5740.1307421872	0.0008953718
5742.0595495603	0.0008482418
5743.9883569333	0.0009175965
5745.9171643064	0.0008694149
5747.8459716794	0.0008243017
5749.7747790525	0.0009162759
5751.7035864255	0.0008268122
5753.6323937986	0.0008044597
5755.5612011716	0.0008543384
5757.4900085447	0.0009076035
5759.4188159177	0.0008748345
5761.3476232907	0.0007806091
5763.2764306638	0.0008537231
5765.2052380368	0.0008612742
5767.1340454099	0.0008564946
5769.0628527829	0.0008516758
5770.9916601560	0.0008047130
5772.9204675290	0.0008108211
5774.8492749021	0.0008243284
5776.7780822751	0.0007709970
5778.7068896482	0.0007328176
5780.6356970212	0.0008736316
5782.5645043943	0.0008314738
5784.4933117673	0.0007315723
5786.4221191404	0.0008068968
5788.3509265134	0.0008287929
5790.2797338865	0.0008345443
5792.2085412595	0.0007487175
5794.1373486325	0.0007665114
5796.0661560056	0.0008201372
5797.9949633786	0.0007775313
5799.9237707517	0.0008278320
5801.8525781247	0.0007857438
5803.7813854978	0.0007763288
5805.7101928708	0.0008147859
5807.6390002439	0.0008000660
5809.5678076169	0.0007822280
5811.4966149900	0.0007323786
5813.4254223630	0.0007751240
5815.3542297361	0.0007874038
5817.2830371091	0.0007881849
5819.2118444822	0.0007768894
5821.1406518552	0.0007548736
5823.0694592282	0.0008363990
5824.9982666013	0.0008230791
5826.9270739743	0.0007943338
5828.8558813474	0.0007579236
5830.7846887204	0.0007520891
5832.7134960935	0.0007474216
5834.6423034665	0.0006701326
5836.5711108396	0.0007350209
5838.4999182126	0.0007470917
5840.4287255857	0.0007599948
5842.3575329587	0.0007589837
5844.2863403318	0.0007617464
5846.2151477048	0.0008354376
5848.1439550779	0.0007297227
5850.0727624509	0.0007263803
5852.0015698239	0.0007444386
5853.9303771970	0.0007122470
5855.8591845700	0.0006784303
5857.7879919431	0.0006776749
5859.7167993161	0.0007720875
5861.6456066892	0.0007207592
5863.5744140622	0.0007592542
5865.5032214353	0.0007027560
5867.4320288083	0.0006973468
5869.3608361814	0.0008173035
5871.2896435544	0.0006995330
5873.2184509275	0.0007062910
5875.1472583005	0.0006749806
5877.0760656736	0.0006947889
5879.0048730466	0.0007384985
5880.9336804196	0.0006596263
5882.8624877927	0.0006848196
5884.7912951657	0.0006523144
5886.7201025388	0.0007417281
5888.6489099118	0.0008043828
5890.5777172849	0.0007792701
5892.5065246579	0.0007292361
5894.4353320310	0.0006602593
5896.3641394040	0.0007014039
5898.2929467771	0.0006608523
5900.2217541501	0.0007419010
5902.1505615232	0.0007372826
5904.0793688962	0.0006304595
5906.0081762693	0.0006865376
5907.9369836423	0.0006011185
5909.8657910154	0.0006055383
5911.7945983884	0.0006965091
5913.7234057614	0.0006121835
5915.6522131345	0.0006076548
5917.5810205075	0.0006673398
5919.5098278806	0.0006041464
5921.4386352536	0.0006285359
5923.3674426267	0.0007188426
5925.2962499997	0.0006448175
5927.2250573728	0.0006197860
5929.1538647458	0.0006523971
5931.0826721189	0.0006265789
5933.0114794919	0.0006390979
5934.9402868650	0.0006300488
5936.8690942380	0.0006321324
5938.7979016111	0.0006343743
5940.7267089841	0.0005955636
5942.6555163571	0.0006446509
5944.5843237302	0.0006500490
5946.5131311032	0.0006189931
5948.4419384763	0.0006248005
5950.3707458493	0.0005693163
5952.2995532224	0.0006054194
5954.2283605954	0.0006210047
5956.1571679685	0.0005949774
5958.0859753415	0.0006256438
5960.0147827146	0.0005728649
5961.9435900876	0.0005873749
5963.8723974607	0.0006307612
5965.8012048337	0.0005894988
5967.7300122068	0.0005873059
5969.6588195798	0.0005915242
5971.5876269528	0.0005546681
5973.5164343259	0.0005603230
5975.4452416989	0.0005757329
5977.3740490720	0.0005557049
5979.3028564450	0.0005765370
5981.2316638181	0.0005778135
5983.1604711911	0.0005336179
5985.0892785642	0.0005262793
5987.0180859372	0.0006051179
5988.9468933103	0.0005653178
5990.8757006833	0.0004895265
5992.8045080564	0.0005977591
5994.7333154294	0.0005754281
5996.6621228025	0.0005337657
5998.5909301755	0.0005882493
6000.5197375485	0.0005844538
