399.2631262207	0.1683712453
401.1919335938	0.2683976889
403.1207409668	0.1021143794
405.0495483398	0.0237961560
406.9783557129	0.3251703978
408.9071630859	0.1210978925
410.8359704590	0.1386948824
412.7647778320	0.2042606473
414.6935852051	0.0013809617
416.6223925781	0.1756968647
418.5511999512	0.1865354180
420.4800073242	0.0311506335
422.4088146973	-0.0196356457
424.3376220703	0.0630338714
426.2664294434	0.2482549399
428.1952368164	0.0897882432
430.1240441895	-0.0203143992
432.0528515625	0.0788717940
433.9816589355	0.2401068360
435.9104663086	0.3140525222
437.8392736816	0.1402817518
439.7680810547	0.1630508304
441.6968884277	0.2577743530
443.6256958008	0.2875081599
445.5545031738	0.1111074239
447.4833105469	0.0612985007
449.4121179199	0.2368787229
451.3409252930	0.0330545120
453.2697326660	0.0696396828
455.1985400391	0.3117140234
457.1273474121	0.0996957049
459.0561547852	0.2168346047
460.9849621582	0.2857501507
462.9137695313	0.1913989931
464.8425769043	0.1647000909
466.7713842773	0.0774642602
468.7001916504	0.4515565932
470.6289990234	0.3316483796
472.5578063965	0.1576561779
474.4866137695	0.1600198895
476.4154211426	0.0789219886
478.3442285156	0.5091881752
480.2730358887	0.2166008651
482.2018432617	-0.0599356703
484.1306506348	-0.3172562718
486.0594580078	0.5561670065
487.9882653809	1.7799743414
489.9170727539	0.5053876638
491.8458801270	0.0004556272
493.7746875000	0.0968888029
495.7034948730	0.5016118288
497.6323022461	0.5293186307
499.5611096191	0.7742234468
501.4899169922	0.2916242480
503.4187243652	0.1268734336
505.3475317383	9.6085920334
507.2763391113	0.0872480497
509.2051464844	-1.4935829639
511.1339538574	-1.0795910358
513.0627612305	0.7634285688
514.9915686035	0.4287463725
516.9203759766	1.9857298136
518.8491833496	1.2690293789
520.7779907227	0.7278674841
522.7067980957	56.3373260498
524.6356054688	-0.1881462485
526.5644128418	0.0116210598
528.4932202148	-7.7795648575
530.4220275879	0.4498945475
532.3508349609	0.4498945475
534.2796423340	-1.9915132523
536.2084497070	0.4331150055
538.1372570801	0.7126101255
540.0660644531	0.9044219255
541.9948718262	0.7805809379
543.9236791992	1.6688407660
545.8524865723	56.5828857422
547.7812939453	1.1130436659
549.7101013184	0.9836601615
551.6389086914	2.5404918194
553.5677160645	0.8074021339
555.4965234375	0.5477180481
557.4253308105	1.2581740618
559.3541381836	0.3322791159
561.2829455566	2.0245754719
563.2117529297	1.0714652538
565.1405603027	0.5642858744
567.0693676758	-0.7985262275
568.9981750488	0.4639583230
570.9269824219	0.1061006039
572.8557897949	0.5231244564
574.7845971680	2.4877760410
576.7134045410	4.3661012650
578.6422119141	-0.4590406120
580.5710192871	0.2701560855
582.4998266602	0.1458085477
584.4286340332	0.2591898441
586.3574414063	0.2827752531
588.2862487793	4.4589042664
590.2150561523	1.2401760817
592.1438635254	0.3220042586
594.0726708984	-1.1979682446
596.0014782715	0.0389791615
597.9302856445	-5.3489646912
599.8590930176	-1.9821246862
601.7879003906	-0.0589953996
603.7167077637	4.9848976135
605.6455151367	-1.9196176529
607.5743225098	0.8553596139
609.5031298828	-0.0964501873
611.4319372559	0.6780312061
613.3607446289	0.3610167801
615.2895520020	-0.0170461610
617.2183593750	0.7103353739
619.1471667480	-0.6424651742
621.0759741211	0.4205932319
623.0047814941	-0.6782142520
624.9335888672	-1.9215443134
626.8623962402	2.2051682472
628.7912036133	2.0455427170
630.7200109863	0.0335912406
632.6488183594	0.0852110982
634.5776257324	0.1725747734
636.5064331055	0.1759521365
638.4352404785	0.2152333409
640.3640478516	0.1804711074
642.2928552246	0.3314490616
644.2216625977	0.2610251009
646.1504699707	0.1644485742
648.0792773438	0.2382442057
650.0080847168	0.1799641401
651.9368920898	0.2107214779
653.8656994629	0.2880497277
655.7945068359	0.2569207251
657.7233142090	0.2197250128
659.6521215820	0.2041929960
661.5809289551	0.2348579615
663.5097363281	0.2533948720
665.4385437012	0.2730786800
667.3673510742	0.2824425995
669.2961584473	0.2890987098
671.2249658203	0.2844977379
673.1537731934	0.2973934412
675.0825805664	0.3301577866
677.0113879395	0.2685816288
678.9401953125	0.2594563663
680.8690026855	0.2981921434
682.7978100586	0.2897244990
684.7266174316	0.3199885786
686.6554248047	0.2669792473
688.5842321777	0.3030714989
690.5130395508	0.3267189264
692.4418469238	0.2488869131
694.3706542969	0.3072355092
696.2994616699	0.2688114047
698.2282690430	0.2663059831
700.1570764160	0.2984751165
702.0858837891	0.2689988613
704.0146911621	0.2836765349
705.9434985352	0.2636325359
707.8723059082	0.2922540605
709.8011132813	0.2684636414
711.7299206543	0.2205891609
713.6587280273	0.3113342226
715.5875354004	0.2553608716
717.5163427734	0.6804048419
719.4451501465	0.6860111952
721.3739575195	0.7850903273
723.3027648926	0.6601111293
725.2315722656	-0.9954214096
727.1603796387	3.5955734253
729.0891870117	0.9501291513
731.0179943848	0.0519925505
732.9468017578	0.3104212582
734.8756091309	0.1457820237
736.8044165039	0.7383847833
738.7332238770	3.0327067375
740.6620312500	5.5544147491
742.5908386230	0.3127471805
744.5196459961	1.6151618958
746.4484533691	0.7822635174
748.3772607422	0.0916469023
750.3060681152	1.4355462790
752.2348754883	0.5104078054
754.1636828613	0.5445625186
756.0924902344	0.9929800630
758.0212976074	0.4269180000
759.9501049805	0.8488831520
761.8789123535	0.2381363213
763.8077197266	0.2724733949
765.7365270996	0.7984896898
767.6653344727	0.7593131065
769.5941418457	0.6445434690
771.5229492188	0.0434585139
773.4517565918	0.4460828602
775.3805639648	0.8191749454
777.3093713379	0.0040670764
779.2381787109	0.9568004012
781.1669860840	0.8022490144
783.0957934570	0.7131288052
785.0246008301	0.6983654499
786.9534082031	0.5000005364
788.8822155762	0.7324211597
790.8110229492	0.2232940942
792.7398303223	0.0459773205
794.6686376953	0.2164156139
796.5974450684	0.4709365368
798.5262524414	0.5215271115
800.4550598145	0.4512140155
802.3838671875	0.5280808806
804.3126745605	0.2535254359
806.2414819336	0.3955936730
808.1702893066	0.3956341743
810.0990966797	0.3383668959
812.0279040527	0.5351095200
813.9567114258	0.1399289966
815.8855187988	0.4906990826
817.8143261719	0.3031426668
819.7431335449	0.3141035140
821.6719409180	0.7310850024
823.6007482910	0.4540230632
825.5295556641	0.6722897291
827.4583630371	0.5218818784
829.3871704102	0.3569349349
831.3159777832	0.8358637691
833.2447851563	0.5431559086
835.1735925293	0.3133377135
837.1023999023	0.5079080462
839.0312072754	0.4298946559
840.9600146484	0.6022820473
842.8888220215	0.4337423146
844.8176293945	0.4416682720
846.7464367676	0.6698002219
848.6752441406	0.1458950639
850.6040515137	0.5823443532
852.5328588867	0.7487193346
854.4616662598	0.2471569628
856.3904736328	0.4267576933
858.3192810059	0.4514161646
860.2480883789	0.4107249677
862.1768957520	0.4721392691
864.1057031250	0.3872042596
866.0345104980	0.4723352492
867.9633178711	1.2346515656
869.8921252441	0.8314813972
871.8209326172	0.6427542567
873.7497399902	0.9907913208
875.6785473633	0.6528011560
877.6073547363	0.6733000875
879.5361621094	0.5788713694
881.4649694824	1.4621720314
883.3937768555	0.5140042901
885.3225842285	0.7563137412
887.2513916016	1.1513881683
889.1801989746	0.9605756998
891.1090063477	1.2110346556
893.0378137207	0.6106827855
894.9666210938	0.8812147975
896.8954284668	0.3677946329
898.8242358398	0.5334486961
900.7530432129	0.9051311612
902.6818505859	0.3464684486
904.6106579590	0.8412727714
906.5394653320	0.7499301434
908.4682727051	0.5764424205
910.3970800781	0.6277028322
912.3258874512	0.3613196015
914.2546948242	0.3907891512
916.1835021973	0.4338958561
918.1123095703	0.5401612520
920.0411169434	0.5811117887
921.9699243164	0.4321891665
923.8987316895	0.5530557632
925.8275390625	0.5427551866
927.7563464355	0.5081576705
929.6851538086	0.5542778373
931.6139611816	0.4694259167
933.5427685547	0.4551585615
935.4715759277	0.4989905357
937.4003833008	0.5040799379
939.3291906738	0.4855984151
941.2579980469	0.4964126945
943.1868054199	0.4904612899
945.1156127930	0.4232798219
947.0444201660	0.4476876259
948.9732275391	0.4433025718
950.9020349121	0.4035817683
952.8308422852	0.4694676101
954.7596496582	0.4347972274
956.6884570313	0.4916337430
958.6172644043	0.5790094733
960.5460717773	0.4543592930
962.4748791504	0.5423610210
964.4036865234	0.4941872656
966.3324938965	0.3645843565
968.2613012695	0.4426219165
970.1901086426	0.5031265020
972.1189160156	0.5752571821
974.0477233887	0.4545925260
975.9765307617	0.3921543360
977.9053381348	0.4691134989
979.8341455078	0.3903878331
981.7629528809	0.4522540569
983.6917602539	0.4521834254
985.6205676270	0.4053441286
987.5493750000	0.4807324708
989.4781823730	0.4187708497
991.4069897461	0.3929288387
993.3357971191	0.4341057539
995.2646044922	0.4328856766
997.1934118652	0.4262473285
999.1222192383	0.4220359921
1001.0510266113	0.4317359626
1002.9798339844	0.4181132615
1004.9086413574	0.4224534929
1006.8374487305	0.4390279353
1008.7662561035	0.4191782773
1010.6950634766	0.4141434729
1012.6238708496	0.4182077050
1014.5526782227	0.4031127393
1016.4814855957	0.4064624608
1018.4102929688	0.4187813997
1020.3391003418	0.3980575800
1022.2679077148	0.3942029178
1024.1967150879	0.4054950178
1026.1255224609	0.3982802927
1028.0543298340	0.4034519792
1029.9831372070	0.4068965316
1031.9119445801	0.4028394818
1033.8407519531	0.4040347040
1035.7695593262	0.4043356478
1037.6983666992	0.3998157084
1039.6271740723	0.3944025636
1041.5559814453	0.3955032825
1043.4847888184	0.3998348117
1045.4135961914	0.4039871991
1047.3424035645	0.3935557604
1049.2712109375	0.3924199045
1051.2000183105	0.3991865516
1053.1288256836	0.3871355057
1055.0576330566	0.3960678279
1056.9864404297	0.3990300894
1058.9152478027	0.3880289197
1060.8440551758	0.3993824124
1062.7728625488	0.3897361755
1064.7016699219	0.3829565942
1066.6304772949	0.3963079453
1068.5592846680	0.3884490430
1070.4880920410	0.3867226839
1072.4168994141	0.3838806152
1074.3457067871	0.3751423955
1076.2745141602	0.3852949739
1078.2033215332	0.3868795931
1080.1321289062	0.3902513087
1082.0609362793	0.3852564991
1083.9897436523	0.3797598779
1085.9185510254	0.3961583078
1087.8473583984	0.3880650401
1089.7761657715	0.3937931061
1091.7049731445	0.3853871226
1093.6337805176	0.3684216440
1095.5625878906	0.4016782939
1097.4913952637	0.3874934316
1099.4202026367	0.3865118921
1101.3490100098	0.4160579145
1103.2778173828	0.3961832225
1105.2066247559	0.3880674541
1107.1354321289	0.3965716958
1109.0642395019	0.4142431021
1110.9930468750	0.4081748724
1112.9218542480	0.3961803317
1114.8506616211	0.4037410617
1116.7794689941	0.3840627670
1118.7082763672	0.3838689923
1120.6370837402	0.3996222019
1122.5658911133	0.3970232308
1124.4946984863	0.3994408250
1126.4235058594	0.3922995031
1128.3523132324	0.3837951720
1130.2811206055	0.3932527602
1132.2099279785	0.3888927996
1134.1387353516	0.3835235536
1136.0675427246	0.3889959157
1137.9963500977	0.3789597154
1139.9251574707	0.3781409562
1141.8539648437	0.3802241981
1143.7827722168	0.3789289892
1145.7115795898	0.3883668482
1147.6403869629	0.3798014522
1149.5691943359	0.3687109649
1151.4980017090	0.3750355542
1153.4268090820	0.3764901459
1155.3556164551	0.3756822646
1157.2844238281	0.3664707243
1159.2132312012	0.3601316810
1161.1420385742	0.3729043603
1163.0708459473	0.3656752706
1164.9996533203	0.3582721651
1166.9284606934	0.3674472272
1168.8572680664	0.3601505458
1170.7860754394	0.3641014397
1172.7148828125	0.3707998991
1174.6436901855	0.3592128754
1176.5724975586	0.3592428863
1178.5013049316	0.3559915423
1180.4301123047	0.3439061344
1182.3589196777	0.3551386297
1184.2877270508	0.3631706536
1186.2165344238	0.3470751047
1188.1453417969	0.3457607329
1190.0741491699	0.3505005240
1192.0029565430	0.3487425745
1193.9317639160	0.3506788909
1195.8605712891	0.3457526565
1197.7893786621	0.3472860754
1199.7181860351	0.3502082527
1201.6469934082	0.3431845605
1203.5758007812	0.3414284289
1205.5046081543	0.3438964188
1207.4334155273	0.3445672095
1209.3622229004	0.3442298770
1211.2910302734	0.3441813588
1213.2198376465	0.3429842889
1215.1486450195	0.3425032794
1217.0774523926	0.3388947845
1219.0062597656	0.3367875814
1220.9350671387	0.3430611491
1222.8638745117	0.3425226808
1224.7926818848	0.3388988078
1226.7214892578	0.3382705748
1228.6502966308	0.3390389085
1230.5791040039	0.3405512869
1232.5079113769	0.3366545737
1234.4367187500	0.3362736404
1236.3655261230	0.3378681540
1238.2943334961	0.3359201252
1240.2231408691	0.3349353373
1242.1519482422	0.3364452422
1244.0807556152	0.3385875225
1246.0095629883	0.3387134671
1247.9383703613	0.3372009397
1249.8671777344	0.3345786929
1251.7959851074	0.3366259038
1253.7247924805	0.3371170461
1255.6535998535	0.3347583115
1257.5824072266	0.3347484171
1259.5112145996	0.3331617415
1261.4400219726	0.3348470926
1263.3688293457	0.3361514807
1265.2976367187	0.3379283845
1267.2264440918	0.3380294740
1269.1552514648	0.3344353437
1271.0840588379	0.3370417655
1273.0128662109	0.3380176127
1274.9416735840	0.3366411030
1276.8704809570	0.3366349936
1278.7992883301	0.3365936577
1280.7280957031	0.3385923207
1282.6569030762	0.3398553729
1284.5857104492	0.3375995755
1286.5145178223	0.3357810378
1288.4433251953	0.3346192241
1290.3721325683	0.3326737285
1292.3009399414	0.3371396065
1294.2297473144	0.3397427499
1296.1585546875	0.3368262649
1298.0873620605	0.3343006372
1300.0161694336	0.3374493718
1301.9449768066	0.3364702463
1303.8737841797	0.3284215033
1305.8025915527	0.3371146917
1307.7313989258	0.3359967470
1309.6602062988	0.3293745220
1311.5890136719	0.3369259238
1313.5178210449	0.3323853314
1315.4466284180	0.3310944140
1317.3754357910	0.3327644765
1319.3042431640	0.3316579163
1321.2330505371	0.3322930038
1323.1618579101	0.3282650411
1325.0906652832	0.3287535012
1327.0194726562	0.3278268874
1328.9482800293	0.3270268440
1330.8770874023	0.3293730319
1332.8058947754	0.3283636570
1334.7347021484	0.3273204267
1336.6635095215	0.3253761232
1338.5923168945	0.3233535290
1340.5211242676	0.3249108195
1342.4499316406	0.3259659410
1344.3787390137	0.3234423995
1346.3075463867	0.3255194724
1348.2363537597	0.3281995952
1350.1651611328	0.3253182769
1352.0939685058	0.3260863721
1354.0227758789	0.3269294500
1355.9515832519	0.3238277137
1357.8803906250	0.3250357807
1359.8091979980	0.3275798559
1361.7380053711	0.3240922987
1363.6668127441	0.3242010772
1365.5956201172	0.3253681958
1367.5244274902	0.3241391182
1369.4532348633	0.3271453083
1371.3820422363	0.3240745664
1373.3108496094	0.3226638734
1375.2396569824	0.3237543106
1377.1684643555	0.3214166462
1379.0972717285	0.3234031796
1381.0260791015	0.3218738139
1382.9548864746	0.3201375604
1384.8836938476	0.3203728199
1386.8125012207	0.3207439184
1388.7413085937	0.3214086890
1390.6701159668	0.3228200972
1392.5989233398	0.3224714994
1394.5277307129	0.3172238767
1396.4565380859	0.3226766586
1398.3853454590	0.3228711486
1400.3141528320	0.3184508085
1402.2429602051	0.3213960826
1404.1717675781	0.3173369467
1406.1005749512	0.3199326992
1408.0293823242	0.3214037120
1409.9581896972	0.3182807565
1411.8869970703	0.3202696741
1413.8158044433	0.3181253970
1415.7446118164	0.3203366399
1417.6734191894	0.3193212450
1419.6022265625	0.3156853020
1421.5310339355	0.3209144175
1423.4598413086	0.3188329637
1425.3886486816	0.3162478507
1427.3174560547	0.3194940090
1429.2462634277	0.3186589181
1431.1750708008	0.3208276033
1433.1038781738	0.3250792623
1435.0326855469	0.3210900426
1436.9614929199	0.3188411295
1438.8903002929	0.3225572407
1440.8191076660	0.3215241432
1442.7479150390	0.3215156496
1444.6767224121	0.3259987235
1446.6055297851	0.3275923133
1448.5343371582	0.3246030211
1450.4631445312	0.3194026947
1452.3919519043	0.3176520765
1454.3207592773	0.3223822117
1456.2495666504	0.3207013905
1458.1783740234	0.3172736466
1460.1071813965	0.3163167834
1462.0359887695	0.3146296442
1463.9647961426	0.3147369325
1465.8936035156	0.3106669486
1467.8224108886	0.3116952777
1469.7512182617	0.3114069700
1471.6800256347	0.3063010871
1473.6088330078	0.3069669306
1475.5376403808	0.3073824644
1477.4664477539	0.3071635067
1479.3952551269	0.3057941496
1481.3240625000	0.3055699766
1483.2528698730	0.3059821725
1485.1816772461	0.3038927913
1487.1104846191	0.3027118742
1489.0392919922	0.2993850112
1490.9680993652	0.2987120152
1492.8969067383	0.3020025492
1494.8257141113	0.2995854020
1496.7545214843	0.2962747812
1498.6833288574	0.2974708676
1500.6121362304	0.2975399792
1502.5409436035	0.2979844213
1504.4697509765	0.2949060500
1506.3985583496	0.2889725566
1508.3273657226	0.2928413451
1510.2561730957	0.2944212258
1512.1849804687	0.2947302461
1514.1137878418	0.2941074967
1516.0425952148	0.2905840278
1517.9714025879	0.2910722196
1519.9002099609	0.2900387645
1521.8290173340	0.2875999808
1523.7578247070	0.2888610959
1525.6866320801	0.2877876163
1527.6154394531	0.2877194583
1529.5442468261	0.2885685563
1531.4730541992	0.2862699926
1533.4018615722	0.2847206891
1535.3306689453	0.2857241929
1537.2594763183	0.2852250338
1539.1882836914	0.2830993831
1541.1170910644	0.2824855149
1543.0458984375	0.2828136086
1544.9747058105	0.2828964591
1546.9035131836	0.2841321230
1548.8323205566	0.2837139070
1550.7611279297	0.2825832069
1552.6899353027	0.2812708318
1554.6187426758	0.2789226174
1556.5475500488	0.2790344357
1558.4763574218	0.2741447985
1560.4051647949	0.2756694853
1562.3339721679	0.2804012001
1564.2627795410	0.2775860131
1566.1915869140	0.2779722214
1568.1203942871	0.2773789763
1570.0492016601	0.2745206952
1571.9780090332	0.2756424248
1573.9068164062	0.2744081914
1575.8356237793	0.2700064480
1577.7644311523	0.2716403902
1579.6932385254	0.2751382589
1581.6220458984	0.2715191245
1583.5508532715	0.2703924477
1585.4796606445	0.2718307972
1587.4084680175	0.2704553008
1589.3372753906	0.2701247931
1591.2660827636	0.2688095272
1593.1948901367	0.2693837285
1595.1236975097	0.2691844702
1597.0525048828	0.2675723732
1598.9813122558	0.2671912313
1600.9101196289	0.2671678662
1602.8389270019	0.2666967511
1604.7677343750	0.2652911544
1606.6965417480	0.2652120590
1608.6253491211	0.2642508745
1610.5541564941	0.2649486661
1612.4829638672	0.2662131190
1614.4117712402	0.2647935748
1616.3405786132	0.2637020648
1618.2693859863	0.2648115456
1620.1981933593	0.2681618035
1622.1270007324	0.2688530087
1624.0558081054	0.2677177787
1625.9846154785	0.2714536190
1627.9134228515	0.2736802101
1629.8422302246	0.2754375637
1631.7710375976	0.2792539001
1633.6998449707	0.2785141468
1635.6286523437	0.2790346444
1637.5574597168	0.2852976918
1639.4862670898	0.2896500826
1641.4150744629	0.2925369740
1643.3438818359	0.2953601480
1645.2726892090	0.2975063920
1647.2014965820	0.2991971672
1649.1303039550	0.3057524264
1651.0591113281	0.3077155948
1652.9879187011	0.3042408824
1654.9167260742	0.3141604960
1656.8455334472	0.3205751777
1658.7743408203	0.3222856522
1660.7031481933	0.3256794810
1662.6319555664	0.3279835880
1664.5607629394	0.3317713737
1666.4895703125	0.3367573321
1668.4183776855	0.3371464908
1670.3471850586	0.3390578926
1672.2759924316	0.3443958163
1674.2047998047	0.3462518752
1676.1336071777	0.3484226167
1678.0624145507	0.3529777229
1679.9912219238	0.3564754128
1681.9200292968	0.3575589061
1683.8488366699	0.3546446562
1685.7776440429	0.3588586450
1687.7064514160	0.3662348688
1689.6352587890	0.3652547598
1691.5640661621	0.3689960837
1693.4928735351	0.3707978129
1695.4216809082	0.3663020730
1697.3504882812	0.3716519773
1699.2792956543	0.3698434830
1701.2081030273	0.3700379133
1703.1369104004	0.3774612248
1705.0657177734	0.3761975765
1706.9945251464	0.3780247569
1708.9233325195	0.3806701005
1710.8521398925	0.3797689378
1712.7809472656	0.3817620575
1714.7097546386	0.3813448548
1716.6385620117	0.3779768944
1718.5673693847	0.3798851669
1720.4961767578	0.3823602796
1722.4249841308	0.3840390146
1724.3537915039	0.3842431903
1726.2825988769	0.3818723559
1728.2114062500	0.3823375404
1730.1402136230	0.3821552992
1732.0690209961	0.3799495399
1733.9978283691	0.3762311637
1735.9266357421	0.3794303238
1737.8554431152	0.3816580474
1739.7842504882	0.3780703247
1741.7130578613	0.3784786165
1743.6418652343	0.3784900308
1745.5706726074	0.3787039518
1747.4994799804	0.3782261908
1749.4282873535	0.3746954203
1751.3570947265	0.3745926023
1753.2859020996	0.3764435053
1755.2147094726	0.3758413494
1757.1435168457	0.3738533556
1759.0723242187	0.3753606379
1761.0011315918	0.3727553487
1762.9299389648	0.3721416891
1764.8587463379	0.3751984239
1766.7875537109	0.3712156415
1768.7163610839	0.3708622456
1770.6451684570	0.3697897792
1772.5739758300	0.3684627116
1774.5027832031	0.3708344400
1776.4315905761	0.3693907857
1778.3603979492	0.3695844412
1780.2892053222	0.3677678108
1782.2180126953	0.3669332564
1784.1468200683	0.3676875830
1786.0756274414	0.3661460876
1788.0044348144	0.3663857877
1789.9332421875	0.3655180335
1791.8620495605	0.3628675938
1793.7908569336	0.3618649542
1795.7196643066	0.3627204299
1797.6484716796	0.3626904488
1799.5772790527	0.3618141115
1801.5060864257	0.3604929149
1803.4348937988	0.3601442575
1805.3637011718	0.3607261479
1807.2925085449	0.3598622978
1809.2213159179	0.3583624065
1811.1501232910	0.3573361337
1813.0789306640	0.3588598073
1815.0077380371	0.3581143022
1816.9365454101	0.3565922678
1818.8653527832	0.3567599952
1820.7941601562	0.3548040390
1822.7229675293	0.3547582328
1824.6517749023	0.3545439839
1826.5805822753	0.3535874784
1828.5093896484	0.3526183665
1830.4381970214	0.3513149917
1832.3670043945	0.3518856466
1834.2958117675	0.3518268466
1836.2246191406	0.3511596024
1838.1534265136	0.3500119448
1840.0822338867	0.3498698175
1842.0110412597	0.3485513926
1843.9398486328	0.3471654952
1845.8686560058	0.3476887643
1847.7974633789	0.3473890126
1849.7262707519	0.3474945724
1851.6550781250	0.3466583490
1853.5838854980	0.3477895856
1855.5126928710	0.3462710977
1857.4415002441	0.3440610766
1859.3703076171	0.3466688395
1861.2991149902	0.3451040089
1863.2279223632	0.3430846930
1865.1567297363	0.3430807292
1867.0855371093	0.3422787189
1869.0143444824	0.3413164914
1870.9431518554	0.3414817750
1872.8719592285	0.3427816033
1874.8007666015	0.3411445618
1876.7295739746	0.3402735293
1878.6583813476	0.3408852220
1880.5871887207	0.3403318226
1882.5159960937	0.3397334814
1884.4448034667	0.3391259313
1886.3736108398	0.3386794329
1888.3024182128	0.3389471471
1890.2312255859	0.3382759988
1892.1600329589	0.3359781802
1894.0888403320	0.3367973864
1896.0176477050	0.3368906081
1897.9464550781	0.3357571363
1899.8752624511	0.3365465105
1901.8040698242	0.3345177174
1903.7328771972	0.3339102268
1905.6616845703	0.3342949748
1907.5904919433	0.3332114518
1909.5192993164	0.3335838318
1911.4481066894	0.3323125243
1913.3769140625	0.3321590126
1915.3057214355	0.3329337537
1917.2345288085	0.3306765854
1919.1633361816	0.3310430050
1921.0921435546	0.3316512704
1923.0209509277	0.3293640912
1924.9497583007	0.3292797208
1926.8785656738	0.3295514286
1928.8073730468	0.3296152651
1930.7361804199	0.3292615414
1932.6649877929	0.3277686536
1934.5937951660	0.3262468576
1936.5226025390	0.3255832791
1938.4514099121	0.3272300959
1940.3802172851	0.3264605403
1942.3090246582	0.3255290985
1944.2378320312	0.3261023164
1946.1666394042	0.3242578804
1948.0954467773	0.3233882785
1950.0242541503	0.3236428499
1951.9530615234	0.3237517178
1953.8818688964	0.3239434063
1955.8106762695	0.3243108094
1957.7394836425	0.3235575259
1959.6682910156	0.3229589760
1961.5970983886	0.3232795596
1963.5259057617	0.3230382502
1965.4547131347	0.3231719434
1967.3835205078	0.3210209608
1969.3123278808	0.3205389977
1971.2411352539	0.3212006092
1973.1699426269	0.3197997510
1975.0987499999	0.3198838830
1977.0275573730	0.3198092282
1978.9563647460	0.3199022114
1980.8851721191	0.3185353875
1982.8139794921	0.3182443380
1984.7427868652	0.3185309768
1986.6715942382	0.3172706068
1988.6004016113	0.3186236024
1990.5292089843	0.3171113133
1992.4580163574	0.3162257075
1994.3868237304	0.3168454766
1996.3156311035	0.3156481087
1998.2444384765	0.3172598183
2000.1732458496	0.3171347082
2002.1020532226	0.3163535297
2004.0308605956	0.3159439564
2005.9596679687	0.3143270016
2007.8884753417	0.3147424459
2009.8172827148	0.3143489361
2011.7460900878	0.3137061596
2013.6748974609	0.3139247298
2015.6037048339	0.3133041561
2017.5325122070	0.3141091466
2019.4613195800	0.3137773275
2021.3901269531	0.3122631907
2023.3189343261	0.3134030700
2025.2477416992	0.3126797676
2027.1765490722	0.3116710186
2029.1053564453	0.3126597106
2031.0341638183	0.3114336431
2032.9629711914	0.3105375171
2034.8917785644	0.3106357157
2036.8205859374	0.3106630445
2038.7493933105	0.3105161786
2040.6782006835	0.3105193973
2042.6070080566	0.3105269969
2044.5358154296	0.3103295565
2046.4646228027	0.3112487495
2048.3934301757	0.3101887703
2050.3222375488	0.3102830350
2052.2510449218	0.3103168011
2054.1798522949	0.3078629076
2056.1086596679	0.3094784915
2058.0374670410	0.3104179204
2059.9662744140	0.3096975386
2061.8950817871	0.3101983964
2063.8238891601	0.3094137311
2065.7526965331	0.3080150783
2067.6815039062	0.3076040149
2069.6103112792	0.3084563017
2071.5391186523	0.3074195981
2073.4679260253	0.3079800010
2075.3967333984	0.3098537922
2077.3255407714	0.3086298704
2079.2543481445	0.3080644608
2081.1831555175	0.3081251383
2083.1119628906	0.3078672290
2085.0407702636	0.3072362542
2086.9695776367	0.3075090051
2088.8983850097	0.3077624440
2090.8271923828	0.3068060279
2092.7559997558	0.3070415854
2094.6848071288	0.3064046502
2096.6136145019	0.3072134852
2098.5424218749	0.3085279763
2100.4712292480	0.3072373271
2102.4000366210	0.3079272509
2104.3288439941	0.3076285422
2106.2576513671	0.3053177893
2108.1864587402	0.3066140413
2110.1152661132	0.3074662387
2112.0440734863	0.3067271113
2113.9728808593	0.3075405955
2115.9016882324	0.3057407141
2117.8304956054	0.3052541018
2119.7593029785	0.3070055544
2121.6881103515	0.3055349290
2123.6169177245	0.3058890700
2125.5457250976	0.3073633909
2127.4745324706	0.3071289957
2129.4033398437	0.3068268597
2131.3321472167	0.3058133721
2133.2609545898	0.3066240847
2135.1897619628	0.3078643084
2137.1185693359	0.3055407405
2139.0473767089	0.3054271340
2140.9761840820	0.3075348735
2142.9049914550	0.3063106537
2144.8337988281	0.3058261871
2146.7626062011	0.3057961762
2148.6914135742	0.3077280819
2150.6202209472	0.3090754747
2152.5490283203	0.3055753112
2154.4778356933	0.3062558174
2156.4066430663	0.3076109886
2158.3354504394	0.3061148822
2160.2642578124	0.3051247597
2162.1930651855	0.3064174950
2164.1218725585	0.3072146475
2166.0506799316	0.3041950464
2167.9794873046	0.3059922755
2169.9082946777	0.3068960607
2171.8371020507	0.3065673113
2173.7659094238	0.3082074821
2175.6947167968	0.3055036068
2177.6235241699	0.3061487377
2179.5523315429	0.3065675795
2181.4811389160	0.3059633076
2183.4099462890	0.3070090711
2185.3387536620	0.3055427969
2187.2675610351	0.3068852127
2189.1963684081	0.3063710928
2191.1251757812	0.3053554893
2193.0539831542	0.3072181642
2194.9827905273	0.3053306937
2196.9115979003	0.3057209253
2198.8404052734	0.3069547415
2200.7692126464	0.3056382239
2202.6980200195	0.3071874678
2204.6268273925	0.3071311712
2206.5556347656	0.3055920005
2208.4844421386	0.3047619760
2210.4132495117	0.3056767583
2212.3420568847	0.3072851896
2214.2708642577	0.3052158058
2216.1996716308	0.3061468303
2218.1284790038	0.3072077036
2220.0572863769	0.3067573011
2221.9860937499	0.3081388175
2223.9149011230	0.3067780435
2225.8437084960	0.3061568141
2227.7725158691	0.3061824739
2229.7013232421	0.3059833646
2231.6301306152	0.3055237532
2233.5589379882	0.3061761856
2235.4877453613	0.3072703779
2237.4165527343	0.3055445850
2239.3453601074	0.3055274785
2241.2741674804	0.3052370250
2243.2029748534	0.3051539361
2245.1317822265	0.3049391210
2247.0605895995	0.3053733706
2248.9893969726	0.3062211275
2250.9182043456	0.3044494092
2252.8470117187	0.3058965504
2254.7758190917	0.3053535819
2256.7046264648	0.3048747182
2258.6334338378	0.3063003123
2260.5622412109	0.3056665659
2262.4910485839	0.3055371344
2264.4198559570	0.3040353358
2266.3486633300	0.3047767580
2268.2774707031	0.3046727479
2270.2062780761	0.3040511310
2272.1350854491	0.3046491444
2274.0638928222	0.3045221269
2275.9927001952	0.3053271174
2277.9215075683	0.3048711717
2279.8503149413	0.3051394522
2281.7791223144	0.3027188778
2283.7079296874	0.3031407595
2285.6367370605	0.3059324026
2287.5655444335	0.3030227125
2289.4943518066	0.3030297756
2291.4231591796	0.3038408756
2293.3519665527	0.3035140932
2295.2807739257	0.3034377098
2297.2095812988	0.3024815619
2299.1383886718	0.3021596074
2301.0671960449	0.3028915524
2302.9960034179	0.3034479320
2304.9248107909	0.3005225360
2306.8536181640	0.3002448380
2308.7824255370	0.3009132743
2310.7112329101	0.2986446023
2312.6400402831	0.2982551754
2314.5688476562	0.2980968952
2316.4976550292	0.2978673279
2318.4264624023	0.2977198660
2320.3552697753	0.2966696620
2322.2840771484	0.2952041030
2324.2128845214	0.2943778038
2326.1416918945	0.2938399911
2328.0704992675	0.2935336530
2329.9993066406	0.2931287289
2331.9281140136	0.2930968404
2333.8569213866	0.2931498885
2335.7857287597	0.2899639606
2337.7145361327	0.2901752591
2339.6433435058	0.2911787629
2341.5721508788	0.2895529866
2343.5009582519	0.2909886241
2345.4297656249	0.2914177775
2347.3585729980	0.2945493758
2349.2873803710	0.2970613539
2351.2161877441	0.2942084074
2353.1449951171	0.2917036712
2355.0738024902	0.2887115777
2357.0026098632	0.2862478197
2358.9314172363	0.2851495147
2360.8602246093	0.2864440084
2362.7890319823	0.2877938151
2364.7178393554	0.2862244248
2366.6466467284	0.2870773375
2368.5754541015	0.2883216739
2370.5042614745	0.2894000411
2372.4330688476	0.2909126282
2374.3618762206	0.2924603224
2376.2906835937	0.2937991917
2378.2194909667	0.2945645750
2380.1482983398	0.2961223722
2382.0771057128	0.2955979109
2384.0059130859	0.2972946465
2385.9347204589	0.2988042533
2387.8635278320	0.2968312800
2389.7923352050	0.2981525362
2391.7211425780	0.2971506715
2393.6499499511	0.2955047190
2395.5787573241	0.2963888645
2397.5075646972	0.2949717641
2399.4363720702	0.2958987355
2401.3651794433	0.2975818217
2403.2939868163	0.2968582213
2405.2227941894	0.2969493270
2407.1516015624	0.2968669236
2409.0804089355	0.2961749434
2411.0092163085	0.2957699001
2412.9380236816	0.2946946025
2414.8668310546	0.2951110899
2416.7956384277	0.2961814702
2418.7244458007	0.2954705954
2420.6532531738	0.2956263423
2422.5820605468	0.2953331172
2424.5108679198	0.2945871651
2426.4396752929	0.2942190170
2428.3684826659	0.2924749255
2430.2972900390	0.2929689288
2432.2260974120	0.2954982221
2434.1549047851	0.2952729762
2436.0837121581	0.2941615880
2438.0125195312	0.2934851348
2439.9413269042	0.2932014763
2441.8701342773	0.2946211696
2443.7989416503	0.2934294045
2445.7277490234	0.2930005491
2447.6565563964	0.2936676443
2449.5853637695	0.2916449010
2451.5141711425	0.2929845750
2453.4429785155	0.2925980389
2455.3717858886	0.2906959951
2457.3005932616	0.2910918891
2459.2294006347	0.2906790674
2461.1582080077	0.2910220623
2463.0870153808	0.2909680009
2465.0158227538	0.2916440070
2466.9446301269	0.2908450663
2468.8734374999	0.2903544009
2470.8022448730	0.2905331850
2472.7310522460	0.2900005877
2474.6598596191	0.2923831940
2476.5886669921	0.2910653651
2478.5174743652	0.2905262411
2480.4462817382	0.2919811606
2482.3750891112	0.2900978625
2484.3038964843	0.2897118628
2486.2327038573	0.2889790237
2488.1615112304	0.2885991335
2490.0903186034	0.2891700268
2492.0191259765	0.2885561585
2493.9479333495	0.2880773246
2495.8767407226	0.2879539728
2497.8055480956	0.2878630161
2499.7343554687	0.2882912755
2501.6631628417	0.2886239588
2503.5919702148	0.2880319655
2505.5207775878	0.2874361575
2507.4495849609	0.2863535881
2509.3783923339	0.2863684297
2511.3071997069	0.2870965898
2513.2360070800	0.2868303061
2515.1648144530	0.2855204344
2517.0936218261	0.2855333686
2519.0224291991	0.2867768407
2520.9512365722	0.2854837179
2522.8800439452	0.2855266929
2524.8088513183	0.2855587900
2526.7376586913	0.2853717208
2528.6664660644	0.2849401534
2530.5952734374	0.2831106186
2532.5240808105	0.2851064801
2534.4528881835	0.2849714756
2536.3816955566	0.2833085060
2538.3105029296	0.2836980522
2540.2393103027	0.2846248150
2542.1681176757	0.2854893804
2544.0969250487	0.2838718891
2546.0257324218	0.2837730646
2547.9545397948	0.2832937837
2549.8833471679	0.2821387351
2551.8121545409	0.2828204334
2553.7409619140	0.2832238376
2555.6697692870	0.2822360396
2557.5985766601	0.2825026214
2559.5273840331	0.2844625413
2561.4561914062	0.2817673087
2563.3849987792	0.2810157537
2565.3138061523	0.2815039158
2567.2426135253	0.2795171142
2569.1714208984	0.2814489901
2571.1002282714	0.2808831036
2573.0290356444	0.2800523937
2574.9578430175	0.2808848619
2576.8866503905	0.2792743146
2578.8154577636	0.2788990736
2580.7442651366	0.2782596946
2582.6730725097	0.2788385749
2584.6018798827	0.2805102468
2586.5306872558	0.2796438634
2588.4594946288	0.2788165510
2590.3883020019	0.2782815695
2592.3171093749	0.2767054141
2594.2459167480	0.2773289680
2596.1747241210	0.2789448202
2598.1035314941	0.2766911685
2600.0323388671	0.2747706771
2601.9611462401	0.2757878304
2603.8899536132	0.2770940959
2605.8187609862	0.2774177790
2607.7475683593	0.2766127586
2609.6763757323	0.2762590051
2611.6051831054	0.2740816176
2613.5339904784	0.2738956213
2615.4627978515	0.2754282057
2617.3916052245	0.2731734514
2619.3204125976	0.2746313214
2621.2492199706	0.2752925456
2623.1780273437	0.2734474242
2625.1068347167	0.2752199769
2627.0356420898	0.2739751935
2628.9644494628	0.2720798850
2630.8932568358	0.2709069252
2632.8220642089	0.2716887891
2634.7508715819	0.2742363214
2636.6796789550	0.2722910643
2638.6084863280	0.2720741928
2640.5372937011	0.2724911869
2642.4661010741	0.2702706158
2644.3949084472	0.2702327371
2646.3237158202	0.2708985507
2648.2525231933	0.2703314126
2650.1813305663	0.2702047527
2652.1101379394	0.2699580193
2654.0389453124	0.2689235210
2655.9677526855	0.2696408331
2657.8965600585	0.2698119879
2659.8253674315	0.2693433762
2661.7541748046	0.2695392370
2663.6829821776	0.2682064176
2665.6117895507	0.2675896883
2667.5405969237	0.2684834301
2669.4694042968	0.2692518234
2671.3982116698	0.2689510286
2673.3270190429	0.2679692507
2675.2558264159	0.2667437792
2677.1846337890	0.2662739456
2679.1134411620	0.2660939693
2681.0422485351	0.2668087780
2682.9710559081	0.2682161629
2684.8998632812	0.2662565410
2686.8286706542	0.2661037445
2688.7574780273	0.2664304376
2690.6862854003	0.2647388875
2692.6150927733	0.2652052939
2694.5439001464	0.2640850544
2696.4727075194	0.2643152177
2698.4015148925	0.2656289637
2700.3303222655	0.2647401094
2702.2591296386	0.2646914721
2704.1879370116	0.2644656301
2706.1167443847	0.2633455396
2708.0455517577	0.2635465860
2709.9743591308	0.2646940053
2711.9031665038	0.2624920309
2713.8319738769	0.2617376745
2715.7607812499	0.2639617324
2717.6895886230	0.2630358934
2719.6183959960	0.2614379227
2721.5472033690	0.2609487772
2723.4760107421	0.2618910074
2725.4048181151	0.2621101439
2727.3336254882	0.2608341873
2729.2624328612	0.2606401443
2731.1912402343	0.2614402175
2733.1200476073	0.2618130445
2735.0488549804	0.2592743933
2736.9776623534	0.2600581050
2738.9064697265	0.2617671192
2740.8352770995	0.2592998743
2742.7640844726	0.2613980472
2744.6928918456	0.2605432570
2746.6216992187	0.2570651770
2748.5505065917	0.2602345943
2750.4793139647	0.2591816187
2752.4081213378	0.2571373284
2754.3369287108	0.2579714954
2756.2657360839	0.2569939196
2758.1945434569	0.2575061321
2760.1233508300	0.2563650310
2762.0521582030	0.2564150989
2763.9809655761	0.2574293613
2765.9097729491	0.2570165694
2767.8385803222	0.2584387958
2769.7673876952	0.2567979693
2771.6961950683	0.2563478351
2773.6250024413	0.2566106915
2775.5538098144	0.2547225654
2777.4826171874	0.2555471659
2779.4114245604	0.2539670467
2781.3402319335	0.2541061342
2783.2690393065	0.2550692856
2785.1978466796	0.2523912489
2787.1266540526	0.2551657259
2789.0554614257	0.2556668520
2790.9842687987	0.2511663735
2792.9130761718	0.2528679967
2794.8418835448	0.2546345294
2796.7706909179	0.2519921064
2798.6994982909	0.2522706389
2800.6283056640	0.2538338006
2802.5571130370	0.2523159385
2804.4859204101	0.2511008680
2806.4147277831	0.2506242394
2808.3435351562	0.2513436973
2810.2723425292	0.2520539165
2812.2011499022	0.2498350441
2814.1299572753	0.2495014220
2816.0587646483	0.2508749068
2817.9875720214	0.2507396936
2819.9163793944	0.2493608296
2821.8451867675	0.2482404858
2823.7739941405	0.2488551587
2825.7028015136	0.2489612103
2827.6316088866	0.2483864874
2829.5604162597	0.2480773181
2831.4892236327	0.2476065010
2833.4180310058	0.2468277067
2835.3468383788	0.2467074394
2837.2756457519	0.2452292293
2839.2044531249	0.2439557165
2841.1332604979	0.2461763918
2843.0620678710	0.2475231588
2844.9908752440	0.2481878698
2846.9196826171	0.2464870363
2848.8484899901	0.2440375984
2850.7772973632	0.2440747768
2852.7061047362	0.2441756576
2854.6349121093	0.2442103773
2856.5637194823	0.2428387254
2858.4925268554	0.2444690317
2860.4213342284	0.2450135797
2862.3501416015	0.2444563508
2864.2789489745	0.2444381714
2866.2077563476	0.2421540767
2868.1365637206	0.2435303032
2870.0653710936	0.2421204150
2871.9941784667	0.2429480404
2873.9229858397	0.2437144816
2875.8517932128	0.2411757708
2877.7806005858	0.2434665114
2879.7094079589	0.2416824698
2881.6382153319	0.2422368377
2883.5670227050	0.2419908345
2885.4958300780	0.2403132170
2887.4246374511	0.2418891788
2889.3534448241	0.2398207486
2891.2822521972	0.2396439165
2893.2110595702	0.2373418212
2895.1398669433	0.2384278625
2897.0686743163	0.2407379150
2898.9974816893	0.2370476127
2900.9262890624	0.2376314402
2902.8550964354	0.2406705469
2904.7839038085	0.2402126938
2906.7127111815	0.2365574688
2908.6415185546	0.2376393825
2910.5703259276	0.2382964790
2912.4991333007	0.2373441011
2914.4279406737	0.2380060256
2916.3567480468	0.2362474501
2918.2855554198	0.2370570004
2920.2143627929	0.2356519550
2922.1431701659	0.2352368087
2924.0719775390	0.2363883406
2926.0007849120	0.2362431586
2927.9295922851	0.2366445214
2929.8583996581	0.2348087728
2931.7872070311	0.2348515540
2933.7160144042	0.2335042655
2935.6448217772	0.2346849740
2937.5736291503	0.2344083935
2939.5024365233	0.2320449501
2941.4312438964	0.2352646738
2943.3600512694	0.2333890349
2945.2888586425	0.2328575104
2947.2176660155	0.2335048467
2949.1464733886	0.2325494289
2951.0752807616	0.2342954129
2953.0040881347	0.2325048149
2954.9328955077	0.2318506837
2956.8617028808	0.2315115929
2958.7905102538	0.2319836915
2960.7193176268	0.2325029522
2962.6481249999	0.2307436913
2964.5769323729	0.2324638665
2966.5057397460	0.2309860140
2968.4345471190	0.2293009013
2970.3633544921	0.2307101488
2972.2921618651	0.2286586165
2974.2209692382	0.2278951257
2976.1497766112	0.2286147475
2978.0785839843	0.2280292958
2980.0073913573	0.2273294181
2981.9361987304	0.2280812562
2983.8650061034	0.2289508879
2985.7938134765	0.2264641523
2987.7226208495	0.2263704240
2989.6514282225	0.2279730886
2991.5802355956	0.2256853133
2993.5090429686	0.2245847285
2995.4378503417	0.2259627134
2997.3666577147	0.2265222967
2999.2954650878	0.2252732068
3001.2242724608	0.2252204120
3003.1530798339	0.2270316482
3005.0818872069	0.2244372368
3007.0106945800	0.2219826430
3008.9395019530	0.2248436660
3010.8683093261	0.2243582606
3012.7971166991	0.2222718745
3014.7259240722	0.2216519117
3016.6547314452	0.2198423445
3018.5835388182	0.2223746032
3020.5123461913	0.2228814065
3022.4411535643	0.2215983868
3024.3699609374	0.2234009355
3026.2987683104	0.2214451581
3028.2275756835	0.2214605510
3030.1563830565	0.2198528498
3032.0851904296	0.2186071724
3034.0139978026	0.2222191989
3035.9428051757	0.2194754481
3037.8716125487	0.2188527733
3039.8004199218	0.2203277797
3041.7292272948	0.2196825743
3043.6580346679	0.2200256437
3045.5868420409	0.2190507054
3047.5156494139	0.2207299322
3049.4444567870	0.2191674113
3051.3732641600	0.2166210413
3053.3020715331	0.2167932391
3055.2308789061	0.2162068933
3057.1596862792	0.2177081853
3059.0884936522	0.2155012190
3061.0173010253	0.2152101099
3062.9461083983	0.2168402821
3064.8749157714	0.2134072781
3066.8037231444	0.2138553858
3068.7325305175	0.2152154595
3070.6613378905	0.2163040489
3072.5901452636	0.2166102082
3074.5189526366	0.2137932330
3076.4477600097	0.2152365744
3078.3765673827	0.2141020894
3080.3053747557	0.2123858631
3082.2341821288	0.2150037438
3084.1629895018	0.2129631341
3086.0917968749	0.2117684931
3088.0206042479	0.2130351365
3089.9494116210	0.2143912613
3091.8782189940	0.2147077173
3093.8070263671	0.2107103318
3095.7358337401	0.2101178020
3097.6646411132	0.2102188170
3099.5934484862	0.2094479203
3101.5222558593	0.2112440467
3103.4510632323	0.2097594291
3105.3798706054	0.2090956718
3107.3086779784	0.2106177211
3109.2374853514	0.2104043812
3111.1662927245	0.2089162022
3113.0951000975	0.2096037567
3115.0239074706	0.2104676962
3116.9527148436	0.2077409625
3118.8815222167	0.2098692060
3120.8103295897	0.2108164728
3122.7391369628	0.2085336894
3124.6679443358	0.2093991190
3126.5967517089	0.2098509818
3128.5255590819	0.2119574696
3130.4543664550	0.2082330436
3132.3831738280	0.2072288394
3134.3119812011	0.2105421573
3136.2407885741	0.2049325407
3138.1695959471	0.2057219744
3140.0984033202	0.2079159766
3142.0272106932	0.2071435750
3143.9560180663	0.2101042569
3145.8848254393	0.2090873569
3147.8136328124	0.2079978883
3149.7424401854	0.2073999643
3151.6712475585	0.2076996863
3153.6000549315	0.2086500674
3155.5288623046	0.2084617019
3157.4576696776	0.2083747685
3159.3864770507	0.2068866938
3161.3152844237	0.2079661489
3163.2440917968	0.2081444263
3165.1728991698	0.2065921426
3167.1017065428	0.2066147029
3169.0305139159	0.2067228556
3170.9593212889	0.2082685232
3172.8881286620	0.2077960819
3174.8169360350	0.2077277005
3176.7457434081	0.2100234330
3178.6745507811	0.2084920108
3180.6033581542	0.2076881379
3182.5321655272	0.2088167667
3184.4609729003	0.2087863833
3186.3897802733	0.2088603675
3188.3185876464	0.2082484663
3190.2473950194	0.2103682756
3192.1762023925	0.2113530934
3194.1050097655	0.2099529505
3196.0338171386	0.2106407136
3197.9626245116	0.2117572874
3199.8914318846	0.2136477530
3201.8202392577	0.2130202055
3203.7490466307	0.2145854086
3205.6778540038	0.2150891721
3207.6066613768	0.2120643705
3209.5354687499	0.2149249315
3211.4642761229	0.2156317383
3213.3930834960	0.2151924521
3215.3218908690	0.2146340013
3217.2506982421	0.2129604667
3219.1795056151	0.2139916271
3221.1083129882	0.2146139592
3223.0371203612	0.2178127617
3224.9659277343	0.2183319032
3226.8947351073	0.2176421583
3228.8235424803	0.2179867625
3230.7523498534	0.2158335894
3232.6811572264	0.2189746797
3234.6099645995	0.2230636925
3236.5387719725	0.2209800333
3238.4675793456	0.2195803821
3240.3963867186	0.2212634683
3242.3251940917	0.2227138281
3244.2540014647	0.2249220163
3246.1828088378	0.2253647149
3248.1116162108	0.2254939377
3250.0404235839	0.2243550420
3251.9692309569	0.2226509750
3253.8980383300	0.2265253216
3255.8268457030	0.2294673920
3257.7556530760	0.2323510349
3259.6844604491	0.2295187265
3261.6132678221	0.2257281840
3263.5420751952	0.2297858596
3265.4708825682	0.2289506644
3267.3996899413	0.2314760089
3269.3284973143	0.2339708358
3271.2573046874	0.2306226641
3273.1861120604	0.2322916538
3275.1149194335	0.2339787334
3277.0437268065	0.2350464165
3278.9725341796	0.2385316491
3280.9013415526	0.2396055758
3282.8301489257	0.2375754565
3284.7589562987	0.2393344790
3286.6877636717	0.2400683612
3288.6165710448	0.2388093323
3290.5453784178	0.2394177914
3292.4741857909	0.2392901182
3294.4029931639	0.2420420051
3296.3318005370	0.2410183996
3298.2606079100	0.2408358157
3300.1894152831	0.2459917814
3302.1182226561	0.2442681342
3304.0470300292	0.2439601123
3305.9758374022	0.2499875426
3307.9046447753	0.2491663396
3309.8334521483	0.2451075613
3311.7622595214	0.2439517230
3313.6910668944	0.2443064153
3315.6198742675	0.2502587736
3317.5486816405	0.2506134808
3319.4774890135	0.2495555878
3321.4062963866	0.2535625398
3323.3351037596	0.2518654466
3325.2639111327	0.2528884113
3327.1927185057	0.2531733811
3329.1215258788	0.2529609501
3331.0503332518	0.2551072836
3332.9791406249	0.2554978430
3334.9079479979	0.2569315135
3336.8367553710	0.2566813827
3338.7655627440	0.2593713999
3340.6943701171	0.2590017617
3342.6231774901	0.2587344944
3344.5519848632	0.2617065907
3346.4807922362	0.2615519464
3348.4095996092	0.2636862397
3350.3384069823	0.2643328607
3352.2672143553	0.2652170062
3354.1960217284	0.2662154734
3356.1248291014	0.2683223784
3358.0536364745	0.2692599297
3359.9824438475	0.2693154216
3361.9112512206	0.2746264338
3363.8400585936	0.2748362720
3365.7688659667	0.2740505934
3367.6976733397	0.2746800780
3369.6264807128	0.2765105367
3371.5552880858	0.2777604163
3373.4840954589	0.2773201764
3375.4129028319	0.2819121778
3377.3417102049	0.2816632390
3379.2705175780	0.2812727094
3381.1993249510	0.2844386399
3383.1281323241	0.2867026627
3385.0569396971	0.2898207605
3386.9857470702	0.2925880253
3388.9145544432	0.2937226593
3390.8433618163	0.2935712636
3392.7721691893	0.2976670563
3394.7009765624	0.2988143265
3396.6297839354	0.2992641330
3398.5585913085	0.3008089066
3400.4873986815	0.3026524782
3402.4162060546	0.3078330159
3404.3450134276	0.3062062562
3406.2738208006	0.3080070317
3408.2026281737	0.3121816814
3410.1314355467	0.3140484095
3412.0602429198	0.3165142238
3413.9890502928	0.3171110451
3415.9178576659	0.3212118745
3417.8466650389	0.3214837611
3419.7754724120	0.3240585625
3421.7042797850	0.3262598515
3423.6330871581	0.3255814016
3425.5618945311	0.3289255798
3427.4907019042	0.3263862431
3429.4195092772	0.3300037086
3431.3483166503	0.3364321291
3433.2771240233	0.3363209665
3435.2059313963	0.3389673829
3437.1347387694	0.3421997428
3439.0635461424	0.3438916504
3440.9923535155	0.3430735469
3442.9211608885	0.3455468714
3444.8499682616	0.3492411673
3446.7787756346	0.3483482897
3448.7075830077	0.3517233729
3450.6363903807	0.3556944728
3452.5651977538	0.3551450074
3454.4940051268	0.3583998680
3456.4228124999	0.3609802425
3458.3516198729	0.3626295328
3460.2804272460	0.3667777777
3462.2092346190	0.3657681346
3464.1380419921	0.3682641089
3466.0668493651	0.3716734946
3467.9956567381	0.3701022863
3469.9244641112	0.3719567955
3471.8532714842	0.3765294254
3473.7820788573	0.3808086216
3475.7108862303	0.3798197508
3477.6396936034	0.3810764849
3479.5685009764	0.3845180273
3481.4973083495	0.3851642311
3483.4261157225	0.3865517676
3485.3549230956	0.3871816695
3487.2837304686	0.3924941719
3489.2125378417	0.3961196542
3491.1413452147	0.3965874612
3493.0701525878	0.3994470835
3494.9989599608	0.3998741806
3496.9277673338	0.3985714912
3498.8565747069	0.4011119604
3500.7853820799	0.4045972526
3502.7141894530	0.4047065675
3504.6429968260	0.4100824296
3506.5718041991	0.4114253223
3508.5006115721	0.4121020138
3510.4294189452	0.4175284505
3512.3582263182	0.4136790335
3514.2870336913	0.4177055359
3516.2158410643	0.4235651493
3518.1446484374	0.4194158614
3520.0734558104	0.4248745441
3522.0022631835	0.4313209355
3523.9310705565	0.4269038439
3525.8598779295	0.4281303883
3527.7886853026	0.4340698123
3529.7174926756	0.4346433282
3531.6463000487	0.4367487431
3533.5751074217	0.4377601743
3535.5039147948	0.4403021634
3537.4327221678	0.4420871437
3539.3615295409	0.4424030185
3541.2903369139	0.4478680789
3543.2191442870	0.4469583035
3545.1479516600	0.4473882616
3547.0767590331	0.4516030848
3549.0055664061	0.4515445530
3550.9343737792	0.4522158206
3552.8631811522	0.4551351964
3554.7919885252	0.4581253231
3556.7207958983	0.4591684341
3558.6496032713	0.4621714056
3560.5784106444	0.4612798393
3562.5072180174	0.4653729200
3564.4360253905	0.4721713960
3566.3648327635	0.4649702013
3568.2936401366	0.4647918940
3570.2224475096	0.4721727669
3572.1512548827	0.4734151959
3574.0800622557	0.4752203822
3576.0088696288	0.4758089781
3577.9376770018	0.4773042500
3579.8664843749	0.4803967476
3581.7952917479	0.4824677110
3583.7240991210	0.4840185046
3585.6529064940	0.4791640937
3587.5817138670	0.4792961776
3589.5105212401	0.4880588651
3591.4393286131	0.4862231910
3593.3681359862	0.4864231050
3595.2969433592	0.4886162281
3597.2257507323	0.4894658625
3599.1545581053	0.4923038483
3601.0833654784	0.4887588620
3603.0121728514	0.4934476614
3604.9409802245	0.5005767941
3606.8697875975	0.5022842288
3608.7985949706	0.5027649999
3610.7274023436	0.5009532571
3612.6562097167	0.5032311082
3614.5850170897	0.5026435852
3616.5138244627	0.5036002994
3618.4426318358	0.5073570013
3620.3714392088	0.5110402107
3622.3002465819	0.5124396682
3624.2290539549	0.5141281486
3626.1578613280	0.5185096264
3628.0866687010	0.5129995942
3630.0154760741	0.5148120522
3631.9442834471	0.5252041221
3633.8730908202	0.5260879993
3635.8018981932	0.5291754007
3637.7307055663	0.5298750401
3639.6595129393	0.5283567309
3641.5883203124	0.5340286493
3643.5171276854	0.5374277234
3645.4459350584	0.5354038477
3647.3747424315	0.5381556749
3649.3035498045	0.5366589427
3651.2323571776	0.5365179181
3653.1611645506	0.5486803651
3655.0899719237	0.5487183928
3657.0187792967	0.5468583107
3658.9475866698	0.5551592708
3660.8763940428	0.5583996773
3662.8052014159	0.5596799254
3664.7340087889	0.5629242063
3666.6628161620	0.5711730123
3668.5916235350	0.5679211020
3670.5204309081	0.5593581796
3672.4492382811	0.5711506605
3674.3780456541	0.5688850284
3676.3068530272	0.5621633530
3678.2356604002	0.5744466186
3680.1644677733	0.5746349692
3682.0932751463	0.5756602883
3684.0220825194	0.5818508863
3685.9508898924	0.5776088238
3687.8796972655	0.5714146495
3689.8085046385	0.5724495649
3691.7373120116	0.5754419565
3693.6661193846	0.5788500905
3695.5949267577	0.5797964334
3697.5237341307	0.5796936750
3699.4525415038	0.5846139789
3701.3813488768	0.5764340162
3703.3101562499	0.5732745528
3705.2389636229	0.5784745812
3707.1677709959	0.5710387230
3709.0965783690	0.5717037916
3711.0253857420	0.5673487186
3712.9541931151	0.5649722219
3714.8830004881	0.5727310181
3716.8118078612	0.5698577166
3718.7406152342	0.5689235926
3720.6694226073	0.5655795336
3722.5982299803	0.5629243851
3724.5270373534	0.5600506067
3726.4558447264	0.5552005768
3728.3846520995	0.5580683351
3730.3134594725	0.5596836209
3732.2422668456	0.5574877858
3734.1710742186	0.5512951612
3736.0998815916	0.5518076420
3738.0286889647	0.5518869758
3739.9574963377	0.5509193540
3741.8863037108	0.5526166558
3743.8151110838	0.5424112082
3745.7439184569	0.5431849957
3747.6727258299	0.5509252548
3749.6015332030	0.5389432907
3751.5303405760	0.5323167443
3753.4591479491	0.5389544368
3755.3879553221	0.5376094580
3757.3167626952	0.5383473635
3759.2455700682	0.5365418792
3761.1743774413	0.5355493426
3763.1031848143	0.5383133292
3765.0319921873	0.5324934125
3766.9607995604	0.5302519798
3768.8896069334	0.5315344334
3770.8184143065	0.5305923223
3772.7472216795	0.5283803344
3774.6760290526	0.5296321511
3776.6048364256	0.5310251713
3778.5336437987	0.5261484981
3780.4624511717	0.5282890797
3782.3912585448	0.5277137160
3784.3200659178	0.5293971896
3786.2488732909	0.5264705420
3788.1776806639	0.5208160281
3790.1064880370	0.5274953842
3792.0352954100	0.5203416944
3793.9641027830	0.5197575688
3795.8929101561	0.5200689435
3797.8217175291	0.5140666366
3799.7505249022	0.5151230693
3801.6793322752	0.5061156154
3803.6081396483	0.5121362805
3805.5369470213	0.5095207691
3807.4657543944	0.5090284944
3809.3945617674	0.5169208050
3811.3233691405	0.5105097890
3813.2521765135	0.5149914622
3815.1809838866	0.5061899424
3817.1097912596	0.5067616105
3819.0385986327	0.5127561688
3820.9674060057	0.4957532883
3822.8962133787	0.5055646300
3824.8250207518	0.5098024011
3826.7538281248	0.5031797886
3828.6826354979	0.5038400888
3830.6114428709	0.4988326132
3832.5402502440	0.5006399155
3834.4690576170	0.5000813007
3836.3978649901	0.4946572185
3838.3266723631	0.4921811223
3840.2554797362	0.4944483042
3842.1842871092	0.4973965883
3844.1130944823	0.4962902665
3846.0419018553	0.4930877686
3847.9707092284	0.4919686913
3849.8995166014	0.4971917570
3851.8283239745	0.4894075096
3853.7571313475	0.4740886986
3855.6859387205	0.4853862822
3857.6147460936	0.4930126965
3859.5435534666	0.4939241111
3861.4723608397	0.4889735579
3863.4011682127	0.4832608700
3865.3299755858	0.4873949289
3867.2587829588	0.4870393574
3869.1875903319	0.4828315377
3871.1163977049	0.4837510288
3873.0452050780	0.4815872312
3874.9740124510	0.4790401757
3876.9028198241	0.4848183692
3878.8316271971	0.4817566574
3880.7604345702	0.4751425683
3882.6892419432	0.4807471335
3884.6180493162	0.4778638780
3886.5468566893	0.4765599072
3888.4756640623	0.4805477262
3890.4044714354	0.4737133384
3892.3332788084	0.4735619724
3894.2620861815	0.4812035561
3896.1908935545	0.4786213636
3898.1197009276	0.4734074175
3900.0485083006	0.4756531417
3901.9773156737	0.4726670086
3903.9061230467	0.4704417288
3905.8349304198	0.4752481580
3907.7637377928	0.4742874503
3909.6925451659	0.4740158617
3911.6213525389	0.4723331332
3913.5501599119	0.4713182449
3915.4789672850	0.4699802697
3917.4077746580	0.4681641757
3919.3365820311	0.4711860418
3921.2653894041	0.4692780375
3923.1941967772	0.4697256386
3925.1230041502	0.4686226249
3927.0518115233	0.4666747451
3928.9806188963	0.4677419066
3930.9094262694	0.4663049579
3932.8382336424	0.4680626988
3934.7670410155	0.4678193927
3936.6958483885	0.4667765796
3938.6246557616	0.4636324048
3940.5534631346	0.4644839764
3942.4822705076	0.4652194381
3944.4110778807	0.4592671692
3946.3398852537	0.4609678090
3948.2686926268	0.4631012082
3950.1974999998	0.4649451971
3952.1263073729	0.4617485106
3954.0551147459	0.4575156868
3955.9839221190	0.4581158459
3957.9127294920	0.4580500424
3959.8415368651	0.4605840743
3961.7703442381	0.4560195208
3963.6991516112	0.4591849148
3965.6279589842	0.4646238089
3967.5567663573	0.4588889182
3969.4855737303	0.4558710754
3971.4143811034	0.4539979994
3973.3431884764	0.4570434093
3975.2719958494	0.4567587376
3977.2008032225	0.4538391531
3979.1296105955	0.4553413093
3981.0584179686	0.4574179351
3982.9872253416	0.4574470222
3984.9160327147	0.4560918510
3986.8448400877	0.4579191506
3988.7736474608	0.4516113400
3990.7024548338	0.4544061720
3992.6312622069	0.4568204284
3994.5600695799	0.4483932555
3996.4888769530	0.4558897316
3998.4176843260	0.4525346160
4000.3464916991	0.4499656260
4002.2752990721	0.4537312984
4004.2041064451	0.4485320151
4006.1329138182	0.4542586803
4008.0617211912	0.4485074580
4009.9905285643	0.4492811859
4011.9193359373	0.4556814134
4013.8481433104	0.4455549419
4015.7769506834	0.4482534230
4017.7057580565	0.4507645071
4019.6345654295	0.4487589300
4021.5633728026	0.4429403543
4023.4921801756	0.4430697858
4025.4209875487	0.4498743713
4027.3497949217	0.4459303319
4029.2786022948	0.4512264729
4031.2074096678	0.4470077157
4033.1362170408	0.4457808733
4035.0650244139	0.4516533315
4036.9938317869	0.4454071224
4038.9226391600	0.4478926659
4040.8514465330	0.4435659945
4042.7802539061	0.4464891255
4044.7090612791	0.4450165033
4046.6378686522	0.4362044334
4048.5666760252	0.4468042254
4050.4954833983	0.4450507462
4052.4242907713	0.4411039054
4054.3530981444	0.4415030479
4056.2819055174	0.4424324632
4058.2107128905	0.4454310536
4060.1395202635	0.4398756921
4062.0683276365	0.4380529523
4063.9971350096	0.4403819442
4065.9259423826	0.4415492117
4067.8547497557	0.4368481934
4069.7835571287	0.4354449511
4071.7123645018	0.4388633370
4073.6411718748	0.4390192628
4075.5699792479	0.4375313520
4077.4987866209	0.4360190928
4079.4275939940	0.4394914508
4081.3564013670	0.4398781955
4083.2852087401	0.4350139797
4085.2140161131	0.4324336946
4087.1428234862	0.4345794320
4089.0716308592	0.4359810352
4091.0004382323	0.4366110861
4092.9292456053	0.4330156446
4094.8580529783	0.4344512522
4096.7868603514	0.4418491721
4098.7156677244	0.4346133173
4100.6444750975	0.4322942197
4102.5732824705	0.4308393300
4104.5020898436	0.4341711998
4106.4308972166	0.4364410937
4108.3597045897	0.4261059165
4110.2885119627	0.4328943193
4112.2173193358	0.4314034879
4114.1461267088	0.4327016771
4116.0749340819	0.4359198809
4118.0037414549	0.4322206974
4119.9325488280	0.4379559159
4121.8613562010	0.4307117462
4123.7901635740	0.4318946004
4125.7189709471	0.4326311052
4127.6477783201	0.4358284473
4129.5765856932	0.4380316734
4131.5053930662	0.4264579415
4133.4342004393	0.4374543130
4135.3630078123	0.4368495345
4137.2918151854	0.4280710816
4139.2206225584	0.4310495853
4141.1494299315	0.4247604012
4143.0782373045	0.4287265837
4145.0070446776	0.4354053438
4146.9358520506	0.4285893440
4148.8646594237	0.4266058207
4150.7934667967	0.4302849472
4152.7222741697	0.4323979616
4154.6510815428	0.4339674115
4156.5798889158	0.4300668538
4158.5086962889	0.4315562248
4160.4375036619	0.4320338368
4162.3663110350	0.4314345121
4164.2951184080	0.4312951863
4166.2239257811	0.4249224365
4168.1527331541	0.4302656054
4170.0815405272	0.4291611612
4172.0103479002	0.4245392978
4173.9391552733	0.4299941957
4175.8679626463	0.4319864511
4177.7967700194	0.4276074767
4179.7255773924	0.4263967276
4181.6543847654	0.4297894239
4183.5831921385	0.4228633344
4185.5119995115	0.4260783792
4187.4408068846	0.4266183674
4189.3696142576	0.4233854413
4191.2984216307	0.4288379848
4193.2272290037	0.4247520566
4195.1560363768	0.4259330332
4197.0848437498	0.4215261936
4199.0136511229	0.4240221679
4200.9424584959	0.4289447367
4202.8712658690	0.4201031029
4204.8000732420	0.4207559824
4206.7288806151	0.4240804911
4208.6576879881	0.4262115061
4210.5864953611	0.4227871597
4212.5153027342	0.4232415259
4214.4441101072	0.4198847711
4216.3729174803	0.4149306417
4218.3017248533	0.4226925373
4220.2305322264	0.4235782027
4222.1593395994	0.4243626297
4224.0881469725	0.4217906594
4226.0169543455	0.4193828404
4227.9457617186	0.4199260473
4229.8745690916	0.4185162783
4231.8033764647	0.4243904054
4233.7321838377	0.4247153997
4235.6609912108	0.4195120335
4237.5897985838	0.4203616083
4239.5186059569	0.4164616764
4241.4474133299	0.4120354652
4243.3762207029	0.4224398434
4245.3050280760	0.4207761586
4247.2338354490	0.4169709086
4249.1626428221	0.4239159524
4251.0914501951	0.4201381207
4253.0202575682	0.4196074009
4254.9490649412	0.4187557399
4256.8778723143	0.4174940884
4258.8066796873	0.4175221026
4260.7354870604	0.4198490977
4262.6642944334	0.4209849238
4264.5931018065	0.4170014858
4266.5219091795	0.4173592329
4268.4507165526	0.4121854901
4270.3795239256	0.4167946279
4272.3083312986	0.4155653715
4274.2371386717	0.4092727005
4276.1659460447	0.4182811379
4278.0947534178	0.4175696075
4280.0235607908	0.4124547243
4281.9523681639	0.4126244187
4283.8811755369	0.4207342863
4285.8099829100	0.4183826745
4287.7387902830	0.4108901918
4289.6675976561	0.4136004150
4291.5964050291	0.4134908020
4293.5252124022	0.4159986675
4295.4540197752	0.4142422974
4297.3828271483	0.4197963774
4299.3116345213	0.4176967740
4301.2404418943	0.4059788287
4303.1692492674	0.4186519384
4305.0980566404	0.4187827706
4307.0268640135	0.4053163826
4308.9556713865	0.4140055180
4310.8844787596	0.4164954126
4312.8132861326	0.4049343169
4314.7420935057	0.4116040170
4316.6709008787	0.4140161872
4318.5997082518	0.4075405002
4320.5285156248	0.4139848650
4322.4573229979	0.4128349423
4324.3861303709	0.4110887945
4326.3149377440	0.4105045199
4328.2437451170	0.4082697332
4330.1725524900	0.4130784571
4332.1013598631	0.4095977545
4334.0301672361	0.4104700685
4335.9589746092	0.4165134430
4337.8877819822	0.4067117870
4339.8165893553	0.4011696279
4341.7453967283	0.4098289013
4343.6742041014	0.4145477116
4345.6030114744	0.4127899110
4347.5318188475	0.4068217874
4349.4606262205	0.4084823132
4351.3894335936	0.4172509909
4353.3182409666	0.4107635617
4355.2470483397	0.4069222212
4357.1758557127	0.4132501483
4359.1046630858	0.4071871042
4361.0334704588	0.4046175778
4362.9622778318	0.4044105411
4364.8910852049	0.4018822014
4366.8198925779	0.4097639024
4368.7486999510	0.4067938030
4370.6775073240	0.4039448500
4372.6063146971	0.4054755569
4374.5351220701	0.3995327652
4376.4639294432	0.4000865519
4378.3927368162	0.3966183960
4380.3215441893	0.3986897767
4382.2503515623	0.4050457478
4384.1791589354	0.4042367339
4386.1079663084	0.4007555246
4388.0367736815	0.3986274898
4389.9655810545	0.4050247967
4391.8943884275	0.4031104743
4393.8231958006	0.4046643376
4395.7520031736	0.4097193778
4397.6808105467	0.4068802297
4399.6096179197	0.4014623761
4401.5384252928	0.3989907205
4403.4672326658	0.4063366950
4405.3960400389	0.3993975818
4407.3248474119	0.3957300782
4409.2536547850	0.3989770412
4411.1824621580	0.3983571827
4413.1112695311	0.4056333601
4415.0400769041	0.3998918533
4416.9688842772	0.3962654471
4418.8976916502	0.4040009081
4420.8264990232	0.4053104222
4422.7553063963	0.3989371061
4424.6841137693	0.4019226432
4426.6129211424	0.4101168811
4428.5417285154	0.3999937773
4430.4705358885	0.3966607451
4432.3993432615	0.4022590220
4434.3281506346	0.3956304789
4436.2569580076	0.3961282372
4438.1857653807	0.4013839364
4440.1145727537	0.4000247121
4442.0433801268	0.4089792967
4443.9721874998	0.4061831534
4445.9009948729	0.3978359997
4447.8298022459	0.4076188803
4449.7586096189	0.4084179103
4451.6874169920	0.4043654203
4453.6162243650	0.4013283551
4455.5450317381	0.4028193951
4457.4738391111	0.3987936676
4459.4026464842	0.3986847997
4461.3314538572	0.4077484608
4463.2602612303	0.3972412050
4465.1890686033	0.3932907283
4467.1178759764	0.3889403641
4469.0466833494	0.3989176452
4470.9754907225	0.4040679038
4472.9042980955	0.3816595078
4474.8331054686	0.3902825117
4476.7619128416	0.3975275755
4478.6907202147	0.3985541463
4480.6195275877	0.4010826349
4482.5483349607	0.3964665234
4484.4771423338	0.3950844705
4486.4059497068	0.3928356469
4488.3347570799	0.4011637270
4490.2635644529	0.3964904547
4492.1923718260	0.3938120902
4494.1211791990	0.3968336582
4496.0499865721	0.3934430778
4497.9787939451	0.3899527192
4499.9076013182	0.3882118165
4501.8364086912	0.3974482417
4503.7652160643	0.3961078227
4505.6940234373	0.3947791755
4507.6228308104	0.3922915459
4509.5516381834	0.3905135691
4511.4804455564	0.3974422514
4513.4092529295	0.3964823186
4515.3380603025	0.3925240636
4517.2668676756	0.3942938745
4519.1956750486	0.3984860480
4521.1244824217	0.3909376562
4523.0532897947	0.4008610547
4524.9820971678	0.4019927382
4526.9109045408	0.3843874633
4528.8397119139	0.3891586065
4530.7685192869	0.3955166638
4532.6973266600	0.4026092887
4534.6261340330	0.3857680857
4536.5549414061	0.3839789033
4538.4837487791	0.4078943729
4540.4125561521	0.3947946727
4542.3413635252	0.3905543685
4544.2701708982	0.3917062879
4546.1989782713	0.3903739452
4548.1277856443	0.3972796202
4550.0565930174	0.3872763813
4551.9854003904	0.3860005438
4553.9142077635	0.3879737258
4555.8430151365	0.3920380473
4557.7718225096	0.4027330875
4559.7006298826	0.3958728015
4561.6294372557	0.3986189067
4563.5582446287	0.3986119926
4565.4870520018	0.3854762018
4567.4158593748	0.3902779222
4569.3446667478	0.3938677013
4571.2734741209	0.3955629468
4573.2022814939	0.3946608603
4575.1310888670	0.3964988291
4577.0598962400	0.3897805214
4578.9887036131	0.3840332329
4580.9175109861	0.3994242251
4582.8463183592	0.3899240494
4584.7751257322	0.3960879743
4586.7039331053	0.3952463269
4588.6327404783	0.3873373568
4590.5615478514	0.4077175260
4592.4903552244	0.3905101120
4594.4191625975	0.3936136365
4596.3479699705	0.3975089192
4598.2767773435	0.3853267729
4600.2055847166	0.3956616819
4602.1343920896	0.3877390921
4604.0631994627	0.3922259212
4605.9920068357	0.3987444639
4607.9208142088	0.3884602785
4609.8496215818	0.3799840808
4611.7784289549	0.3888235986
4613.7072363279	0.3917942643
4615.6360437010	0.3855883479
4617.5648510740	0.3931223750
4619.4936584471	0.3925344050
4621.4224658201	0.3985404074
4623.3512731932	0.3894251287
4625.2800805662	0.3949156702
4627.2088879393	0.4025871158
4629.1376953123	0.3915235102
4631.0665026853	0.4053309262
4632.9953100584	0.3809563518
4634.9241174314	0.3766679168
4636.8529248045	0.3908168375
4638.7817321775	0.3812237084
4640.7105395506	0.3958815932
4642.6393469236	0.3854767382
4644.5681542967	0.3891250193
4646.4969616697	0.3941123486
4648.4257690428	0.3766131401
4650.3545764158	0.3953046203
4652.2833837889	0.3927502930
4654.2121911619	0.3815333545
4656.1409985350	0.3897908032
4658.0698059080	0.3805624545
4659.9986132810	0.3877245188
4661.9274206541	0.3963814378
4663.8562280271	0.3916806281
4665.7850354002	0.3954942822
4667.7138427732	0.3835046589
4669.6426501463	0.3838276863
4671.5714575193	0.3910591006
4673.5002648924	0.3857425749
4675.4290722654	0.3917618990
4677.3578796385	0.3964157104
4679.2866870115	0.3946650624
4681.2154943846	0.3815951645
4683.1443017576	0.3926890790
4685.0731091307	0.4032578170
4687.0019165037	0.3826103806
4688.9307238767	0.3902521133
4690.8595312498	0.3859277368
4692.7883386228	0.3696477413
4694.7171459959	0.3849089742
4696.6459533689	0.3906876147
4698.5747607420	0.3852859437
4700.5035681150	0.3847050369
4702.4323754881	0.3763014078
4704.3611828611	0.3762877584
4706.2899902342	0.3895263672
4708.2187976072	0.3941284418
4710.1476049803	0.3962744176
4712.0764123533	0.3894006312
4714.0052197264	0.3796911240
4715.9340270994	0.3830455542
4717.8628344724	0.3878200948
4719.7916418455	0.3865084648
4721.7204492185	0.3798391819
4723.6492565916	0.3877036273
4725.5780639646	0.3918777406
4727.5068713377	0.3807982802
4729.4356787107	0.3767025173
4731.3644860838	0.3821113408
4733.2932934568	0.3858920038
4735.2221008299	0.3766997159
4737.1509082029	0.3716914952
4739.0797155760	0.3695894182
4741.0085229490	0.3679708540
4742.9373303221	0.3784117401
4744.8661376951	0.3910807669
4746.7949450682	0.3888036907
4748.7237524412	0.3850896657
4750.6525598142	0.3879476190
4752.5813671873	0.3846669495
4754.5101745603	0.3913246989
4756.4389819334	0.3833684027
4758.3677893064	0.3754028082
4760.2965966795	0.3811727166
4762.2254040525	0.3747479916
4764.1542114256	0.3854719102
4766.0830187986	0.3946048915
4768.0118261717	0.3954590559
4769.9406335447	0.3841090500
4771.8694409178	0.3763214946
4773.7982482908	0.3910026848
4775.7270556639	0.3777937591
4777.6558630369	0.3736156225
4779.5846704099	0.3752433062
4781.5134777830	0.3724092245
4783.4422851560	0.3864531815
4785.3710925291	0.3832372427
4787.2998999021	0.3838270009
4789.2287072752	0.3804038167
4791.1575146482	0.3831918836
4793.0863220213	0.3903671503
4795.0151293943	0.3742940724
4796.9439367674	0.3937192261
4798.8727441404	0.3991975784
4800.8015515135	0.3785078526
4802.7303588865	0.3957949281
4804.6591662596	0.3791847825
4806.5879736326	0.3607826829
4808.5167810056	0.3786092103
4810.4455883787	0.3768540025
4812.3743957517	0.3868479133
4814.3032031248	0.3873803020
4816.2320104978	0.3695670068
4818.1608178709	0.3770722747
4820.0896252439	0.3864708841
4822.0184326170	0.3825002611
4823.9472399900	0.3816069365
4825.8760473631	0.3829997182
4827.8048547361	0.3781332970
4829.7336621092	0.3805373311
4831.6624694822	0.3738749325
4833.5912768553	0.3750536740
4835.5200842283	0.3851558566
4837.4488916013	0.3693252206
4839.3776989744	0.3816855848
4841.3065063474	0.3908811212
4843.2353137205	0.3740585148
4845.1641210935	0.3761299253
4847.0929284666	0.3744041026
4849.0217358396	0.3752566576
4850.9505432127	0.3722507954
4852.8793505857	0.3718346655
4854.8081579588	0.3762610555
4856.7369653318	0.3659565449
4858.6657727049	0.3772861362
4860.5945800779	0.3838397861
4862.5233874510	0.3687907457
4864.4521948240	0.3797568977
4866.3810021971	0.3834831417
4868.3098095701	0.3617880046
4870.2386169431	0.3593662083
4872.1674243162	0.3746529818
4874.0962316892	0.3807842135
4876.0250390623	0.3734288812
4877.9538464353	0.3861391842
4879.8826538084	0.3924750686
4881.8114611814	0.3686421216
4883.7402685545	0.3640384972
4885.6690759275	0.3607434630
4887.5978833006	0.3640184402
4889.5266906736	0.3800391853
4891.4554980467	0.3809897006
4893.3843054197	0.3713509440
4895.3131127928	0.3593110442
4897.2419201658	0.3741782904
4899.1707275388	0.3768374026
4901.0995349119	0.3662734628
4903.0283422849	0.3724843264
4904.9571496580	0.3615480959
4906.8859570310	0.3694741428
4908.8147644041	0.3824090362
4910.7435717771	0.3690316975
4912.6723791502	0.3720243275
4914.6011865232	0.3689936101
4916.5299938963	0.3608339429
4918.4588012693	0.3796190917
4920.3876086424	0.3851949573
4922.3164160154	0.3779520392
4924.2452233885	0.3741056919
4926.1740307615	0.3779869080
4928.1028381345	0.4022571743
4930.0316455076	0.3883062005
4931.9604528806	0.3603559136
4933.8892602537	0.3589166403
4935.8180676267	0.3636463583
4937.7468749998	0.3703263998
4939.6756823728	0.3688998520
4941.6044897459	0.3777705431
4943.5332971189	0.3700524867
4945.4621044920	0.3616655469
4947.3909118650	0.3769465685
4949.3197192381	0.3713113368
4951.2485266111	0.3753492236
4953.1773339842	0.3748614788
4955.1061413572	0.3664996922
4957.0349487302	0.3745050132
4958.9637561033	0.3791905046
4960.8925634763	0.3850389719
4962.8213708494	0.3786760271
4964.7501782224	0.3652547598
4966.6789855955	0.3666374087
4968.6077929685	0.3766107261
4970.5366003416	0.3759577274
4972.4654077146	0.3671437204
4974.3942150877	0.3580366671
4976.3230224607	0.3637470603
4978.2518298338	0.3697365224
4980.1806372068	0.3635986447
4982.1094445799	0.3702837229
4984.0382519529	0.3650131822
4985.9670593259	0.3741157055
4987.8958666990	0.3725831807
4989.8246740720	0.3546285629
4991.7534814451	0.3775303662
4993.6822888181	0.3676286340
4995.6110961912	0.3669017553
4997.5399035642	0.3813156188
4999.4687109373	0.3725050092
5001.3975183103	0.3788352013
5003.3263256834	0.3617250025
5005.2551330564	0.3582501411
5007.1839404295	0.3593855202
5009.1127478025	0.3503748477
5011.0415551756	0.3629865050
5012.9703625486	0.3682263494
5014.8991699217	0.3759652674
5016.8279772947	0.3707841635
5018.7567846677	0.3627109230
5020.6855920408	0.3560992777
5022.6143994138	0.3557407558
5024.5432067869	0.3708291948
5026.4720141599	0.3642941117
5028.4008215330	0.3635259569
5030.3296289060	0.3659375012
5032.2584362791	0.3640463650
5034.1872436521	0.3811416328
5036.1160510252	0.3746708930
5038.0448583982	0.3569585383
5039.9736657713	0.3639584780
5041.9024731443	0.3581627011
5043.8312805174	0.3601393402
5045.7600878904	0.3776666522
5047.6888952634	0.3667152822
5049.6177026365	0.3638230562
5051.5465100095	0.3598684371
5053.4753173826	0.3584699631
5055.4041247556	0.3618128002
5057.3329321287	0.3516483307
5059.2617395017	0.3762723505
5061.1905468748	0.3812234402
5063.1193542478	0.3600333631
5065.0481616209	0.3681653738
5066.9769689939	0.3717024326
5068.9057763670	0.3464673758
5070.8345837400	0.3466954827
5072.7633911131	0.3920097649
5074.6921984861	0.3703774810
5076.6210058591	0.3402498364
5078.5498132322	0.3587817848
5080.4786206052	0.3553442061
5082.4074279783	0.3573975265
5084.3362353513	0.3603813946
5086.2650427244	0.3544985950
5088.1938500974	0.3518143296
5090.1226574705	0.3631638885
5092.0514648435	0.3647251725
5093.9802722166	0.3485512435
5095.9090795896	0.3632612824
5097.8378869627	0.3729631007
5099.7666943357	0.3690228760
5101.6955017088	0.3649018705
5103.6243090818	0.3590334654
5105.5531164548	0.3476691842
5107.4819238279	0.3428871632
5109.4107312009	0.3545281887
5111.3395385740	0.3523006737
5113.2683459470	0.3653767407
5115.1971533201	0.3583106101
5117.1259606931	0.3469170332
5119.0547680662	0.3663276732
5120.9835754392	0.3635555208
5122.9123828123	0.3717456758
5124.8411901853	0.3571867943
5126.7699975584	0.3386925459
5128.6988049314	0.3698601723
5130.6276123045	0.3827238381
5132.5564196775	0.3751258254
5134.4852270506	0.3750316203
5136.4140344236	0.3732331693
5138.3428417966	0.3609964550
5140.2716491697	0.3575292230
5142.2004565427	0.3715873361
5144.1292639158	0.3663368821
5146.0580712888	0.3508374393
5147.9868786619	0.3656528592
5149.9156860349	0.3724445701
5151.8444934080	0.3574304879
5153.7733007810	0.3572336435
5155.7021081541	0.3678468466
5157.6309155271	0.3687599599
5159.5597229002	0.3539787531
5161.4885302732	0.3707505763
5163.4173376463	0.3783754408
5165.3461450193	0.3763166368
5167.2749523923	0.3881975114
5169.2037597654	0.3650628924
5171.1325671384	0.3678311706
5173.0613745115	0.3526322544
5174.9901818845	0.3465712667
5176.9189892576	0.3749866486
5178.8477966306	0.3535334766
5180.7766040037	0.3506707549
5182.7054113767	0.3570900857
5184.6342187498	0.3619976342
5186.5630261228	0.3607734144
5188.4918334959	0.3566386402
5190.4206408689	0.3539965451
5192.3494482420	0.3638493717
5194.2782556150	0.3812507689
5196.2070629880	0.3476096094
5198.1358703611	0.3690594137
5200.0646777341	0.3610460162
5201.9934851072	0.3301519156
5203.9222924802	0.3694232404
5205.8510998533	0.3631488979
5207.7799072263	0.3619095385
5209.7087145994	0.3562579155
5211.6375219724	0.3640616238
5213.5663293455	0.3815042377
5215.4951367185	0.3691288233
5217.4239440916	0.3476079702
5219.3527514646	0.3323012590
5221.2815588377	0.3572066426
5223.2103662107	0.3420580924
5225.1391735837	0.3542304933
5227.0679809568	0.3603274226
5228.9967883298	0.3597830236
5230.9255957029	0.3856809139
5232.8544030759	0.3324558139
5234.7832104490	0.3486945331
5236.7120178220	0.3635393083
5238.6408251951	0.3368724883
5240.5696325681	0.3720756471
5242.4984399412	0.3683461845
5244.4272473142	0.3388096094
5246.3560546873	0.3507201672
5248.2848620603	0.3575423062
5250.2136694334	0.3345510066
5252.1424768064	0.3659893274
5254.0712841795	0.3600948155
5256.0000915525	0.3595239222
5257.9288989255	0.3917282224
5259.8577062986	0.3641737401
5261.7865136716	0.3923820555
5263.7153210447	0.3658797443
5265.6441284177	0.3413492739
5267.5729357908	0.3726252913
5269.5017431638	0.3442215025
5271.4305505369	0.3632184565
5273.3593579099	0.3765113354
5275.2881652830	0.3547905684
5277.2169726560	0.3520034254
5279.1457800291	0.3754832447
5281.0745874021	0.3831469417
5283.0033947752	0.3640986085
5284.9322021482	0.3560063541
5286.8610095212	0.3531792462
5288.7898168943	0.3621214032
5290.7186242673	0.3357714713
5292.6474316404	0.3533869088
5294.5762390134	0.3696435988
5296.5050463865	0.3431595266
5298.4338537595	0.3673475981
5300.3626611326	0.3678602874
5302.2914685056	0.3688587844
5304.2202758787	0.3568545282
5306.1490832517	0.3737011552
5308.0778906248	0.3937282264
5310.0066979978	0.3272176385
5311.9355053709	0.3448741436
5313.8643127439	0.3724436164
5315.7931201169	0.3688640594
5317.7219274900	0.3849636316
5319.6507348630	0.3672581613
5321.5795422361	0.3528763950
5323.5083496091	0.3507844210
5325.4371569822	0.3788121939
5327.3659643552	0.3729695380
5329.2947717283	0.3562684655
5331.2235791013	0.3719171584
5333.1523864744	0.3622954190
5335.0811938474	0.3773696125
5337.0100012205	0.3588511348
5338.9388085935	0.3365330100
5340.8676159666	0.3606429398
5342.7964233396	0.3676856756
5344.7252307126	0.3636142313
5346.6540380857	0.3335384429
5348.5828454587	0.3663180172
5350.5116528318	0.4015841782
5352.4404602048	0.3617117107
5354.3692675779	0.3479224741
5356.2980749509	0.3394944072
5358.2268823240	0.3575252891
5360.1556896970	0.3647935987
5362.0844970701	0.3589398861
5364.0133044431	0.3735635281
5365.9421118162	0.3630043864
5367.8709191892	0.3718450069
5369.7997265623	0.3504871130
5371.7285339353	0.3309962153
5373.6573413083	0.3300854862
5375.5861486814	0.3229427338
5377.5149560544	0.3682248592
5379.4437634275	0.3543407023
5381.3725708005	0.3328028321
5383.3013781736	0.3567739725
5385.2301855466	0.3547713161
5387.1589929197	0.3585373461
5389.0878002927	0.3529085815
5391.0166076658	0.3743507266
5392.9454150388	0.3839876652
5394.8742224119	0.3541976810
5396.8030297849	0.3639700115
5398.7318371580	0.3666996360
5400.6606445310	0.3735511601
5402.5894519041	0.3514407873
5404.5182592771	0.3104809821
5406.4470666501	0.3537137210
5408.3758740232	0.3703713417
5410.3046813962	0.3323689401
5412.2334887693	0.3444470763
5414.1622961423	0.3801136017
5416.0911035154	0.3857596517
5418.0199108884	0.3852330148
5419.9487182615	0.3765662611
5421.8775256345	0.3538285196
5423.8063330076	0.3446710408
5425.7351403806	0.3218467236
5427.6639477537	0.3601884246
5429.5927551267	0.3880559802
5431.5215624998	0.3381982744
5433.4503698728	0.3546819985
5435.3791772458	0.3393048942
5437.3079846189	0.3449655175
5439.2367919919	0.3906581104
5441.1655993650	0.3421136439
5443.0944067380	0.3426561654
5445.0232141111	0.3595845103
5446.9520214841	0.3383876681
5448.8808288572	0.3381679058
5450.8096362302	0.3331273496
5452.7384436033	0.3535969853
5454.6672509763	0.3622924984
5456.5960583494	0.3507034481
5458.5248657224	0.3595179319
5460.4536730955	0.3545242846
5462.3824804685	0.3634856641
5464.3112878415	0.3887333870
5466.2400952146	0.3796027005
5468.1689025876	0.3803986609
5470.0977099607	0.3591493070
5472.0265173337	0.3280562460
5473.9553247068	0.3256711066
5475.8841320798	0.3460188806
5477.8129394529	0.3947107196
5479.7417468259	0.3555244207
5481.6705541990	0.3279989660
5483.5993615720	0.3495847285
5485.5281689451	0.3584885597
5487.4569763181	0.3665673733
5489.3857836912	0.3385198712
5491.3145910642	0.3658274114
5493.2433984372	0.3624755442
5495.1722058103	0.3443064988
5497.1010131833	0.3420312405
5499.0298205564	0.3223423362
5500.9586279294	0.3785608411
5502.8874353025	0.3503597081
5504.8162426755	0.3213541210
5506.7450500486	0.3500705361
5508.6738574216	0.3339624703
5510.6026647947	0.3336634040
5512.5314721677	0.3456158936
5514.4602795408	0.3828211725
5516.3890869138	0.3690735698
5518.3178942869	0.3298183680
5520.2467016599	0.3402103782
5522.1755090330	0.3775797784
5524.1043164060	0.3754535913
5526.0331237790	0.3585673273
5527.9619311521	0.3649047911
5529.8907385251	0.3392082453
5531.8195458982	0.3790102303
5533.7483532712	0.3631173670
5535.6771606443	0.3030857146
5537.6059680173	0.3516711593
5539.5347753904	0.3508808911
5541.4635827634	0.3569696546
5543.3923901365	0.3613904715
5545.3211975095	0.3367263377
5547.2500048826	0.3512486815
5549.1788122556	0.3389763832
5551.1076196287	0.3360500038
5553.0364270017	0.3532892466
5554.9652343747	0.3883335590
5556.8940417478	0.3752954006
5558.8228491208	0.3165948093
5560.7516564939	0.3377352059
5562.6804638669	0.3395030797
5564.6092712400	0.3081724048
5566.5380786130	0.3132867813
5568.4668859861	0.3118911386
5570.3956933591	0.3473999798
5572.3245007322	0.3326673508
5574.2533081052	0.3049427569
5576.1821154783	0.3663874865
5578.1109228513	0.3653408885
5580.0397302244	0.3475281298
5581.9685375974	0.3349688053
5583.8973449704	0.3159210682
5585.8261523435	0.3237963021
5587.7549597165	0.3126610518
5589.6837670896	0.3390705585
5591.6125744626	0.3297758102
5593.5413818357	0.3240358233
5595.4701892087	0.3259326518
5597.3989965818	0.3156756163
5599.3278039548	0.3777425289
5601.2566113279	0.3526973426
5603.1854187009	0.3204706013
5605.1142260740	0.3495591879
5607.0430334470	0.3495906293
5608.9718408201	0.3739943802
5610.9006481931	0.3587410748
5612.8294555661	0.3498515785
5614.7582629392	0.3546185195
5616.6870703122	0.3176262081
5618.6158776853	0.3097591698
5620.5446850583	0.3175487518
5622.4734924314	0.3357250690
5624.4022998044	0.3359504938
5626.3311071775	0.3110793233
5628.2599145505	0.3279176056
5630.1887219236	0.3565022051
5632.1175292966	0.3870080411
5634.0463366697	0.3774875402
5635.9751440427	0.3402792513
5637.9039514158	0.3654696643
5639.8327587888	0.3710196614
5641.7615661619	0.3586699963
5643.6903735349	0.3693076670
5645.6191809079	0.3231536746
5647.5479882810	0.2906966507
5649.4767956540	0.3243870437
5651.4056030271	0.3247570693
5653.3344104001	0.3491325080
5655.2632177732	0.3672279119
5657.1920251462	0.3158005178
5659.1208325193	0.3684391379
5661.0496398923	0.3522866964
5662.9784472654	0.2868008018
5664.9072546384	0.3458036184
5666.8360620115	0.3027729988
5668.7648693845	0.2791943252
5670.6936767576	0.3436531126
5672.6224841306	0.3457960486
5674.5512915036	0.3513977826
5676.4800988767	0.3354345858
5678.4089062497	0.3219416142
5680.3377136228	0.3466328084
5682.2665209958	0.3532642424
5684.1953283689	0.3408860564
5686.1241357419	0.3291931450
5688.0529431150	0.3181185722
5689.9817504880	0.3394296169
5691.9105578611	0.3085221946
5693.8393652341	0.2863436341
5695.7681726072	0.3728694022
5697.6969799802	0.3805991113
5699.6257873533	0.3474097252
5701.5545947263	0.3264720738
5703.4834020993	0.3199703097
5705.4122094724	0.3272604644
5707.3410168454	0.2861253321
5709.2698242185	0.3329260051
5711.1986315915	0.3447146118
5713.1274389646	0.3159883320
5715.0562463376	0.3347780108
5716.9850537107	0.3230746984
5718.9138610837	0.3388186097
5720.8426684568	0.3405859172
5722.7714758298	0.3490100503
5724.7002832029	0.3509125710
5726.6290905759	0.3140985668
5728.5578979490	0.3228053153
5730.4867053220	0.3668931425
5732.4155126950	0.3495348394
5734.3443200681	0.3095945418
5736.2731274411	0.3742650151
5738.2019348142	0.3637843728
5740.1307421872	0.2906486988
5742.0595495603	0.3146474957
5743.9883569333	0.3675398827
5745.9171643064	0.3818915784
5747.8459716794	0.3443462849
5749.7747790525	0.3132028580
5751.7035864255	0.2765807807
5753.6323937986	0.2728244662
5755.5612011716	0.3315035105
5757.4900085447	0.3604815006
5759.4188159177	0.3152140975
5761.3476232907	0.3392912149
5763.2764306638	0.3592177927
5765.2052380368	0.3103456199
5767.1340454099	0.3615699112
5769.0628527829	0.3795172274
5770.9916601560	0.3083171844
5772.9204675290	0.3062670529
5774.8492749021	0.3256096542
5776.7780822751	0.2961643636
5778.7068896482	0.2913567722
5780.6356970212	0.3156800270
5782.5645043943	0.2939468622
5784.4933117673	0.3475378752
5786.4221191404	0.4173086584
5788.3509265134	0.3909032047
5790.2797338865	0.3669805527
5792.2085412595	0.3418824673
5794.1373486325	0.3171060681
5796.0661560056	0.3189489245
5797.9949633786	0.3214184046
5799.9237707517	0.2690502405
5801.8525781247	0.2714469433
5803.7813854978	0.3180768490
5805.7101928708	0.2791486979
5807.6390002439	0.3428675830
5809.5678076169	0.3752333522
5811.4966149900	0.3061329424
5813.4254223630	0.3412342966
5815.3542297361	0.3672550023
5817.2830371091	0.3365797698
5819.2118444822	0.2998833954
5821.1406518552	0.3077304363
5823.0694592282	0.3426429927
5824.9982666013	0.3841168582
5826.9270739743	0.3814244270
5828.8558813474	0.3283783197
5830.7846887204	0.3840485811
5832.7134960935	0.3331987560
5834.6423034665	0.3345891237
5836.5711108396	0.4217173457
5838.4999182126	0.3015548885
5840.4287255857	0.3865322471
5842.3575329587	0.4240440726
5844.2863403318	0.2930029333
5846.2151477048	0.3345556557
5848.1439550779	0.2591180205
5850.0727624509	0.3106719255
5852.0015698239	0.3510961533
5853.9303771970	0.2519664168
5855.8591845700	0.3568927050
5857.7879919431	0.3571138382
5859.7167993161	0.3238240182
5861.6456066892	0.3388211727
5863.5744140622	0.3285119534
5865.5032214353	0.3178091645
5867.4320288083	0.3063271642
5869.3608361814	0.3331687152
5871.2896435544	0.2797903419
5873.2184509275	0.3013463616
5875.1472583005	0.3578573167
5877.0760656736	0.3203814328
5879.0048730466	0.3235271275
5880.9336804196	0.3054348826
5882.8624877927	0.2848946750
5884.7912951657	0.3419270515
5886.7201025388	0.3508986235
5888.6489099118	0.2673470378
5890.5777172849	0.3056333959
5892.5065246579	0.3534812033
5894.4353320310	0.3605584204
5896.3641394040	0.3610719442
5898.2929467771	0.3105611503
5900.2217541501	0.3011332452
5902.1505615232	0.2557022870
5904.0793688962	0.3183442950
5906.0081762693	0.3419033289
5907.9369836423	0.3301617503
5909.8657910154	0.4300558865
5911.7945983884	0.3041983247
5913.7234057614	0.2533187568
5915.6522131345	0.3091845214
5917.5810205075	0.2684422135
5919.5098278806	0.3089230657
5921.4386352536	0.3786313534
5923.3674426267	0.3095090091
5925.2962499997	0.2681059241
5927.2250573728	0.3771601319
5929.1538647458	0.3480589390
5931.0826721189	0.2728464305
5933.0114794919	0.2920155525
5934.9402868650	0.3824831843
5936.8690942380	0.3477707803
5938.7979016111	0.2437916398
5940.7267089841	0.3662087023
5942.6555163571	0.3232819736
5944.5843237302	0.2573554814
5946.5131311032	0.3042330444
5948.4419384763	0.3037932217
5950.3707458493	0.3642135262
5952.2995532224	0.3410877585
5954.2283605954	0.3445051312
5956.1571679685	0.3378387094
5958.0859753415	0.2842204869
5960.0147827146	0.2355805933
5961.9435900876	0.2935853302
5963.8723974607	0.3969486356
5965.8012048337	0.2902987599
5967.7300122068	0.3032443523
5969.6588195798	0.3711142540
5971.5876269528	0.3390251100
5973.5164343259	0.3201677501
5975.4452416989	0.3179044127
5977.3740490720	0.2748273313
5979.3028564450	0.2472513616
5981.2316638181	0.3509955406
5983.1604711911	0.2842440903
5985.0892785642	0.3283386230
5987.0180859372	0.4169905782
5988.9468933103	0.2954155505
5990.8757006833	0.3854403794
5992.8045080564	0.3863795102
5994.7333154294	0.3242245018
5996.6621228025	0.3671106994
5998.5909301755	0.3315840065
6000.5197375485	0.2620997727
