399.2631262207	0.0903853700
401.1919335938	0.1644158065
403.1207409668	0.0494869798
405.0495483398	-0.0572486669
406.9783557129	0.0744354501
408.9071630859	0.0327478871
410.8359704590	0.2221095115
412.7647778320	0.2415525317
414.6935852051	0.1597481966
416.6223925781	0.2707874179
418.5511999512	0.0868772194
420.4800073242	0.1264249533
422.4088146973	0.1709510833
424.3376220703	0.1424464583
426.2664294434	0.1840923131
428.1952368164	0.0885067731
430.1240441895	0.0426939428
432.0528515625	0.1278421879
433.9816589355	0.3336904049
435.9104663086	0.2868878543
437.8392736816	0.1286851615
439.7680810547	0.2871205509
441.6968884277	0.2956089079
443.6256958008	0.2041310966
445.5545031738	0.2267042100
447.4833105469	0.1714264601
449.4121179199	0.0887057483
451.3409252930	0.0339975916
453.2697326660	0.1730985940
455.1985400391	0.3281850517
457.1273474121	0.0752387196
459.0561547852	0.0819968209
460.9849621582	0.1805521399
462.9137695313	0.2068338245
464.8425769043	0.4869681597
466.7713842773	-0.0387377515
468.7001916504	-0.0375669040
470.6289990234	0.0716435537
472.5578063965	0.0484411344
474.4866137695	0.4515225589
476.4154211426	-0.1227239296
478.3442285156	-0.0688743666
480.2730358887	0.8719772696
482.2018432617	0.6515064836
484.1306506348	0.0108642755
486.0594580078	0.2809342146
487.9882653809	0.5760108232
489.9170727539	-0.4134258032
491.8458801270	0.1924635470
493.7746875000	1.0106029510
495.7034948730	-0.2396503985
497.6323022461	5.4137182236
499.5611096191	0.2926245332
501.4899169922	-0.1879316568
503.4187243652	-0.0183983464
505.3475317383	0.1529613137
507.2763391113	-0.2386187911
509.2051464844	1.3731235266
511.1339538574	-0.3772278726
513.0627612305	0.0105975913
514.9915686035	3.6592628956
516.9203759766	-0.5394035578
518.8491833496	-0.1346722096
520.7779907227	0.0435250960
522.7067980957	0.7074692249
524.6356054688	0.3765497506
526.5644128418	0.2600163221
528.4932202148	1.6907386780
530.4220275879	-3.1229348183
532.3508349609	0.0453602709
534.2796423340	0.1263529211
536.2084497070	-0.5606920719
538.1372570801	0.6834318042
540.0660644531	0.5202451944
541.9948718262	1.0831006765
543.9236791992	1.3602801561
545.8524865723	0.6981452107
547.7812939453	11.9860191345
549.7101013184	1.0006777048
551.6389086914	0.0141968466
553.5677160645	0.3810276389
555.4965234375	0.0261591561
557.4253308105	0.1328515112
559.3541381836	0.4309701920
561.2829455566	0.2835841775
563.2117529297	0.4514653683
565.1405603027	-0.1845266670
567.0693676758	-0.4384890497
568.9981750488	0.4400060773
570.9269824219	0.0708030015
572.8557897949	2.5517382622
574.7845971680	0.1795080006
576.7134045410	-0.3667706847
578.6422119141	3.1953868866
580.5710192871	-0.1257404089
582.4998266602	0.1506721973
584.4286340332	0.9438687563
586.3574414063	-0.0170709696
588.2862487793	0.1250114292
590.2150561523	0.3515268266
592.1438635254	0.8175421357
594.0726708984	0.0789885744
596.0014782715	0.2274784893
597.9302856445	0.5294152498
599.8590930176	0.4773854017
601.7879003906	1.2514897585
603.7167077637	1.9540520906
605.6455151367	-0.1348705888
607.5743225098	0.6513602734
609.5031298828	-1.8713599443
611.4319372559	0.5106374621
613.3607446289	0.4756138623
615.2895520020	-21.0504779816
617.2183593750	1.4580832720
619.1471667480	0.7381509542
621.0759741211	-0.1129348725
623.0047814941	19.2499198914
624.9335888672	0.1264054477
626.8623962402	1.9463919401
628.7912036133	-9.1171751022
630.7200109863	-0.0348420367
632.6488183594	0.1300340444
634.5776257324	0.1716962010
636.5064331055	0.1300515980
638.4352404785	0.1509089619
640.3640478516	0.2671150863
642.2928552246	0.3549011946
644.2216625977	0.2893416286
646.1504699707	0.2323073745
648.0792773438	0.2056727856
650.0080847168	0.3015817106
651.9368920898	0.2783382833
653.8656994629	0.3263005912
655.7945068359	0.3239402771
657.7233142090	0.2539946139
659.6521215820	0.3685653210
661.5809289551	0.2765189111
663.5097363281	0.2632549703
665.4385437012	0.3649736941
667.3673510742	0.3194664419
669.2961584473	0.3426159918
671.2249658203	0.3397315741
673.1537731934	0.3209428191
675.0825805664	0.3354237080
677.0113879395	0.3644530177
678.9401953125	0.3354890645
680.8690026855	0.3039238155
682.7978100586	0.3425787091
684.7266174316	0.3654347360
686.6554248047	0.3635834754
688.5842321777	0.3247074485
690.5130395508	0.3054486811
692.4418469238	0.3240516484
694.3706542969	0.3758849800
696.2994616699	0.3761164248
698.2282690430	0.3430965245
700.1570764160	0.3513950109
702.0858837891	0.3427428901
704.0146911621	0.3763421476
705.9434985352	0.4056119323
707.8723059082	0.3745841980
709.8011132813	0.3557507098
711.7299206543	0.3823773861
713.6587280273	0.5229000449
715.5875354004	0.3282139301
717.5163427734	0.1526333839
719.4451501465	0.4460811913
721.3739575195	-0.0743305534
723.3027648926	-0.1066983491
725.2315722656	0.0351593532
727.1603796387	1.3564076424
729.0891870117	0.7063601017
731.0179943848	1.8699901104
732.9468017578	0.5447721481
734.8756091309	0.1627424508
736.8044165039	-2.4889485836
738.7332238770	0.2466033846
740.6620312500	-0.7620558143
742.5908386230	-0.7023258209
744.5196459961	-5.4922146797
746.4484533691	1.3690860271
748.3772607422	0.8359196782
750.3060681152	0.7077206969
752.2348754883	-0.1009928361
754.1636828613	1.4821143150
756.0924902344	1.5955133438
758.0212976074	18.8119544983
759.9501049805	5.1964740753
761.8789123535	0.0087343883
763.8077197266	-0.0195708070
765.7365270996	0.0655339286
767.6653344727	0.3928359449
769.5941418457	0.5613632202
771.5229492188	-0.0906408057
773.4517565918	0.6671152115
775.3805639648	0.1682360470
777.3093713379	0.3064486980
779.2381787109	0.3587804735
781.1669860840	0.3509189487
783.0957934570	0.7798751593
785.0246008301	0.0913394392
786.9534082031	0.1053375080
788.8822155762	0.6426980495
790.8110229492	0.3187416494
792.7398303223	0.4932424724
794.6686376953	0.7166227102
796.5974450684	0.1408915222
798.5262524414	0.3580888510
800.4550598145	0.5215908289
802.3838671875	0.6627696753
804.3126745605	0.8074815273
806.2414819336	0.4821266830
808.1702893066	0.5741750598
810.0990966797	0.4953327775
812.0279040527	0.4224933684
813.9567114258	1.8479534388
815.8855187988	1.2986676693
817.8143261719	0.9206104875
819.7431335449	0.8801929951
821.6719409180	0.2521630824
823.6007482910	0.4441326559
825.5295556641	0.6768616438
827.4583630371	0.7446239591
829.3871704102	0.4439664781
831.3159777832	0.5358185172
833.2447851563	0.8496629000
835.1735925293	0.6371493340
837.1023999023	0.5853292346
839.0312072754	0.6386293769
840.9600146484	0.5569329858
842.8888220215	0.5796542168
844.8176293945	0.7916448712
846.7464367676	0.8833754063
848.6752441406	0.6534625292
850.6040515137	0.6360821724
852.5328588867	0.5932750702
854.4616662598	0.6459083557
856.3904736328	0.5067257285
858.3192810059	0.3948724568
860.2480883789	0.6318827868
862.1768957520	0.2879242897
864.1057031250	0.2714382708
866.0345104980	0.5185951591
867.9633178711	0.9603029490
869.8921252441	0.9562458992
871.8209326172	0.4581206143
873.7497399902	0.4448697865
875.6785473633	0.3051052988
877.6073547363	1.0429148674
879.5361621094	1.2462007999
881.4649694824	0.7387340665
883.3937768555	1.4945620298
885.3225842285	0.5671505928
887.2513916016	0.5757671595
889.1801989746	1.1782059669
891.1090063477	0.1668865681
893.0378137207	0.6751396656
894.9666210938	1.5513527393
896.8954284668	0.0385907814
898.8242358398	0.1836905628
900.7530432129	0.6734393239
902.6818505859	0.7374945879
904.6106579590	1.0560387373
906.5394653320	0.3324851692
908.4682727051	0.4097283483
910.3970800781	0.9348363280
912.3258874512	0.9375985861
914.2546948242	0.5443058610
916.1835021973	0.8809075356
918.1123095703	0.6506934166
920.0411169434	0.4826546907
921.9699243164	0.9463070035
923.8987316895	0.7263625860
925.8275390625	0.6005988121
927.7563464355	0.6250215173
929.6851538086	0.5538960695
931.6139611816	0.7894338965
933.5427685547	0.6874140501
935.4715759277	0.6138148904
937.4003833008	0.7054705620
939.3291906738	0.7102714777
941.2579980469	0.7597510219
943.1868054199	0.6929152012
945.1156127930	0.6639560461
947.0444201660	0.6211804748
948.9732275391	0.6114202738
950.9020349121	0.6145617962
952.8308422852	0.5949193239
954.7596496582	0.6936451793
956.6884570313	0.6501148939
958.6172644043	0.6467565894
960.5460717773	0.6203198433
962.4748791504	0.5876261592
964.4036865234	0.7203361988
966.3324938965	0.6040619612
968.2613012695	0.6097434163
970.1901086426	0.6829431653
972.1189160156	0.6246750355
974.0477233887	0.6865876317
975.9765307617	0.6436936855
977.9053381348	0.6374677420
979.8341455078	0.6882792115
981.7629528809	0.6545437574
983.6917602539	0.6778534651
985.6205676270	0.7010278702
987.5493750000	0.7062313557
989.4781823730	0.6848334670
991.4069897461	0.6641464233
993.3357971191	0.6864921451
995.2646044922	0.6903464198
997.1934118652	0.6953679323
999.1222192383	0.7035593987
1001.0510266113	0.6610490084
1002.9798339844	0.6461830139
1004.9086413574	0.6811295152
1006.8374487305	0.6833190322
1008.7662561035	0.6735882163
1010.6950634766	0.6635468602
1012.6238708496	0.6685881019
1014.5526782227	0.6881169677
1016.4814855957	0.6766977310
1018.4102929688	0.6658872962
1020.3391003418	0.6614022851
1022.2679077148	0.6620632410
1024.1967150879	0.6697714925
1026.1255224609	0.6679041982
1028.0543298340	0.6628960967
1029.9831372070	0.6627410054
1031.9119445801	0.6629991531
1033.8407519531	0.6550977230
1035.7695593262	0.6621656418
1037.6983666992	0.6667536497
1039.6271740723	0.6586900353
1041.5559814453	0.6565571427
1043.4847888184	0.6564533710
1045.4135961914	0.6649939418
1047.3424035645	0.6579859257
1049.2712109375	0.6515500546
1051.2000183105	0.6623269320
1053.1288256836	0.6633801460
1055.0576330566	0.6587336063
1056.9864404297	0.6585825086
1058.9152478027	0.6606966853
1060.8440551758	0.6577356458
1062.7728625488	0.6553754210
1064.7016699219	0.6529434919
1066.6304772949	0.6606233120
1068.5592846680	0.6563595533
1070.4880920410	0.6482135653
1072.4168994141	0.6508941054
1074.3457067871	0.6438052058
1076.2745141602	0.6516524553
1078.2033215332	0.6374248862
1080.1321289062	0.6454455853
1082.0609362793	0.6490644813
1083.9897436523	0.6347685456
1085.9185510254	0.6630314589
1087.8473583984	0.6378174424
1089.7761657715	0.6405894160
1091.7049731445	0.6446405649
1093.6337805176	0.6578050256
1095.5625878906	0.6649572253
1097.4913952637	0.6075352430
1099.4202026367	0.6562667489
1101.3490100098	0.6339821815
1103.2778173828	0.6211594343
1105.2066247559	0.6714454889
1107.1354321289	0.6325979233
1109.0642395019	0.6433514357
1110.9930468750	0.6465062499
1112.9218542480	0.6536235213
1114.8506616211	0.6253459454
1116.7794689941	0.6078506112
1118.7082763672	0.6498372555
1120.6370837402	0.6128047109
1122.5658911133	0.6197919846
1124.4946984863	0.6551671028
1126.4235058594	0.6387910247
1128.3523132324	0.6285975575
1130.2811206055	0.6349129677
1132.2099279785	0.6351100206
1134.1387353516	0.6351904869
1136.0675427246	0.6392579079
1137.9963500977	0.6235185266
1139.9251574707	0.6281366944
1141.8539648437	0.6423727274
1143.7827722168	0.6352005601
1145.7115795898	0.6321187019
1147.6403869629	0.6314125061
1149.5691943359	0.6212123036
1151.4980017090	0.6199361682
1153.4268090820	0.6249942780
1155.3556164551	0.6153601408
1157.2844238281	0.6196686029
1159.2132312012	0.6286469102
1161.1420385742	0.6220459938
1163.0708459473	0.6233010292
1164.9996533203	0.6183580160
1166.9284606934	0.6157526970
1168.8572680664	0.6161236763
1170.7860754394	0.6063345075
1172.7148828125	0.6175438762
1174.6436901855	0.6229683161
1176.5724975586	0.6100043058
1178.5013049316	0.6103136539
1180.4301123047	0.6149997711
1182.3589196777	0.6166582704
1184.2877270508	0.6139904857
1186.2165344238	0.6140215397
1188.1453417969	0.6119737625
1190.0741491699	0.6108739972
1192.0029565430	0.6123570800
1193.9317639160	0.6069347858
1195.8605712891	0.6087862253
1197.7893786621	0.6068929434
1199.7181860351	0.6068907976
1201.6469934082	0.6094965339
1203.5758007812	0.6028403044
1205.5046081543	0.6053302884
1207.4334155273	0.6072068214
1209.3622229004	0.6080810428
1211.2910302734	0.6094627976
1213.2198376465	0.6035866141
1215.1486450195	0.6035881639
1217.0774523926	0.6055861115
1219.0062597656	0.6021800041
1220.9350671387	0.6011878848
1222.8638745117	0.6056102514
1224.7926818848	0.6042382717
1226.7214892578	0.6012557149
1228.6502966308	0.6054543853
1230.5791040039	0.6034487486
1232.5079113769	0.5991887450
1234.4367187500	0.6009583473
1236.3655261230	0.6000647545
1238.2943334961	0.5992802382
1240.2231408691	0.5979697704
1242.1519482422	0.5969786644
1244.0807556152	0.5998680592
1246.0095629883	0.5954076648
1247.9383703613	0.5958409905
1249.8671777344	0.5984209180
1251.7959851074	0.5937715769
1253.7247924805	0.5979974270
1255.6535998535	0.5966897607
1257.5824072266	0.5945742130
1259.5112145996	0.5984572172
1261.4400219726	0.5967035294
1263.3688293457	0.5971841216
1265.2976367187	0.5958683491
1267.2264440918	0.5950587392
1269.1552514648	0.5967115164
1271.0840588379	0.5970026851
1273.0128662109	0.5928663015
1274.9416735840	0.5922010541
1276.8704809570	0.5996719599
1278.7992883301	0.5976932645
1280.7280957031	0.5951228738
1282.6569030762	0.5966029763
1284.5857104492	0.5937384367
1286.5145178223	0.5900182128
1288.4433251953	0.5907080173
1290.3721325683	0.5966075659
1292.3009399414	0.5973917246
1294.2297473144	0.5944772363
1296.1585546875	0.5955394506
1298.0873620605	0.5941452384
1300.0161694336	0.5866284966
1301.9449768066	0.5893529654
1303.8737841797	0.5956662297
1305.8025915527	0.5918315053
1307.7313989258	0.5903327465
1309.6602062988	0.5905053020
1311.5890136719	0.5886811614
1313.5178210449	0.5912831426
1315.4466284180	0.5937777162
1317.3754357910	0.5883769989
1319.3042431640	0.5887399316
1321.2330505371	0.5913058519
1323.1618579101	0.5889742970
1325.0906652832	0.5905481577
1327.0194726562	0.5882497430
1328.9482800293	0.5864866972
1330.8770874023	0.5871872902
1332.8058947754	0.5866605639
1334.7347021484	0.5860453248
1336.6635095215	0.5861234665
1338.5923168945	0.5870692730
1340.5211242676	0.5846137404
1342.4499316406	0.5839667320
1344.3787390137	0.5834717155
1346.3075463867	0.5853167176
1348.2363537597	0.5863491297
1350.1651611328	0.5841842890
1352.0939685058	0.5845476985
1354.0227758789	0.5829338431
1355.9515832519	0.5836948156
1357.8803906250	0.5813860297
1359.8091979980	0.5816932321
1361.7380053711	0.5838296413
1363.6668127441	0.5787860155
1365.5956201172	0.5796800256
1367.5244274902	0.5799998045
1369.4532348633	0.5815416574
1371.3820422363	0.5820258260
1373.3108496094	0.5806970596
1375.2396569824	0.5822781920
1377.1684643555	0.5796386600
1379.0972717285	0.5810986757
1381.0260791015	0.5808722973
1382.9548864746	0.5774887800
1384.8836938476	0.5789521337
1386.8125012207	0.5790676475
1388.7413085937	0.5766941309
1390.6701159668	0.5763007402
1392.5989233398	0.5764865279
1394.5277307129	0.5761301517
1396.4565380859	0.5756703019
1398.3853454590	0.5742166042
1400.3141528320	0.5754405260
1402.2429602051	0.5730962753
1404.1717675781	0.5709666610
1406.1005749512	0.5728294849
1408.0293823242	0.5712952018
1409.9581896972	0.5728688240
1411.8869970703	0.5726758242
1413.8158044433	0.5710663795
1415.7446118164	0.5717865825
1417.6734191894	0.5725587010
1419.6022265625	0.5709272623
1421.5310339355	0.5664251447
1423.4598413086	0.5681614280
1425.3886486816	0.5694710016
1427.3174560547	0.5712722540
1429.2462634277	0.5696560740
1431.1750708008	0.5658171773
1433.1038781738	0.5695738792
1435.0326855469	0.5668567419
1436.9614929199	0.5702827573
1438.8903002929	0.5682803392
1440.8191076660	0.5606309175
1442.7479150390	0.5650945902
1444.6767224121	0.5617339015
1446.6055297851	0.5618081093
1448.5343371582	0.5647777915
1450.4631445312	0.5606204271
1452.3919519043	0.5606524944
1454.3207592773	0.5614021420
1456.2495666504	0.5659121871
1458.1783740234	0.5660199523
1460.1071813965	0.5607580543
1462.0359887695	0.5605925918
1463.9647961426	0.5599106550
1465.8936035156	0.5578669310
1467.8224108886	0.5598937869
1469.7512182617	0.5587719679
1471.6800256347	0.5558856726
1473.6088330078	0.5584434867
1475.5376403808	0.5565101504
1477.4664477539	0.5521299839
1479.3952551269	0.5515882969
1481.3240625000	0.5526450276
1483.2528698730	0.5517224669
1485.1816772461	0.5505254865
1487.1104846191	0.5499721169
1489.0392919922	0.5472287536
1490.9680993652	0.5482987165
1492.8969067383	0.5472415090
1494.8257141113	0.5440500379
1496.7545214843	0.5453487635
1498.6833288574	0.5435069799
1500.6121362304	0.5407759547
1502.5409436035	0.5395213366
1504.4697509765	0.5390872359
1506.3985583496	0.5407210588
1508.3273657226	0.5395401716
1510.2561730957	0.5365521312
1512.1849804687	0.5346642137
1514.1137878418	0.5334827304
1516.0425952148	0.5314828157
1517.9714025879	0.5313153863
1519.9002099609	0.5299087167
1521.8290173340	0.5286722779
1523.7578247070	0.5285492539
1525.6866320801	0.5257806778
1527.6154394531	0.5245732069
1529.5442468261	0.5223506093
1531.4730541992	0.5204223394
1533.4018615722	0.5208409429
1535.3306689453	0.5180166364
1537.2594763183	0.5154453516
1539.1882836914	0.5165393353
1541.1170910644	0.5165150166
1543.0458984375	0.5125536323
1544.9747058105	0.5109237432
1546.9035131836	0.5085890293
1548.8323205566	0.5049940348
1550.7611279297	0.5040761828
1552.6899353027	0.5027329922
1554.6187426758	0.5003853440
1556.5475500488	0.4988693297
1558.4763574218	0.5003444552
1560.4051647949	0.4985843003
1562.3339721679	0.4917080402
1564.2627795410	0.4885546565
1566.1915869140	0.4870892167
1568.1203942871	0.4842552245
1570.0492016601	0.4831392765
1571.9780090332	0.4791786671
1573.9068164062	0.4744178057
1575.8356237793	0.4733521938
1577.7644311523	0.4716541469
1579.6932385254	0.4679602683
1581.6220458984	0.4630219936
1583.5508532715	0.4593012333
1585.4796606445	0.4560351372
1587.4084680175	0.4517425299
1589.3372753906	0.4484276772
1591.2660827636	0.4449131191
1593.1948901367	0.4412827492
1595.1236975097	0.4372066557
1597.0525048828	0.4345573783
1598.9813122558	0.4303601682
1600.9101196289	0.4255326986
1602.8389270019	0.4224301279
1604.7677343750	0.4173473716
1606.6965417480	0.4138882160
1608.6253491211	0.4105108678
1610.5541564941	0.4072989225
1612.4829638672	0.4053876102
1614.4117712402	0.4018070102
1616.3405786132	0.3995267451
1618.2693859863	0.3976787329
1620.1981933593	0.3951866031
1622.1270007324	0.3944292068
1624.0558081054	0.3944799900
1625.9846154785	0.3953415453
1627.9134228515	0.3947892189
1629.8422302246	0.3946124911
1631.7710375976	0.3979546726
1633.6998449707	0.4017692506
1635.6286523437	0.4070842862
1637.5574597168	0.4085475206
1639.4862670898	0.4112178087
1641.4150744629	0.4158338606
1643.3438818359	0.4210404754
1645.2726892090	0.4278015792
1647.2014965820	0.4336687326
1649.1303039550	0.4391379058
1651.0591113281	0.4441078901
1652.9879187011	0.4544934630
1654.9167260742	0.4571394920
1656.8455334472	0.4613824785
1658.7743408203	0.4705000818
1660.7031481933	0.4763751924
1662.6319555664	0.4841976166
1664.5607629394	0.4885337949
1666.4895703125	0.4966463149
1668.4183776855	0.5051637292
1670.3471850586	0.5100573897
1672.2759924316	0.5165883899
1674.2047998047	0.5222825408
1676.1336071777	0.5299726129
1678.0624145507	0.5357104540
1679.9912219238	0.5429139733
1681.9200292968	0.5492494106
1683.8488366699	0.5572564006
1685.7776440429	0.5655929446
1687.7064514160	0.5680354238
1689.6352587890	0.5747631192
1691.5640661621	0.5821439028
1693.4928735351	0.5869755745
1695.4216809082	0.5928940177
1697.3504882812	0.5991020799
1699.2792956543	0.6035685539
1701.2081030273	0.6111614108
1703.1369104004	0.6136265397
1705.0657177734	0.6154201627
1706.9945251464	0.6230772734
1708.9233325195	0.6261504292
1710.8521398925	0.6292623878
1712.7809472656	0.6323495507
1714.7097546386	0.6369714737
1716.6385620117	0.6413147449
1718.5673693847	0.6447210312
1720.4961767578	0.6485786438
1722.4249841308	0.6477906108
1724.3537915039	0.6511356831
1726.2825988769	0.6528851390
1728.2114062500	0.6541886926
1730.1402136230	0.6581295133
1732.0690209961	0.6597207189
1733.9978283691	0.6640005112
1735.9266357421	0.6647354364
1737.8554431152	0.6639472246
1739.7842504882	0.6645109653
1741.7130578613	0.6660914421
1743.6418652343	0.6652193069
1745.5706726074	0.6668751836
1747.4994799804	0.6696067452
1749.4282873535	0.6689094901
1751.3570947265	0.6705449820
1753.2859020996	0.6704006791
1755.2147094726	0.6716459990
1757.1435168457	0.6728236079
1759.0723242187	0.6720503569
1761.0011315918	0.6740855575
1762.9299389648	0.6743406057
1764.8587463379	0.6730306149
1766.7875537109	0.6739073396
1768.7163610839	0.6755227447
1770.6451684570	0.6758393049
1772.5739758300	0.6773643494
1774.5027832031	0.6761139035
1776.4315905761	0.6740189791
1778.3603979492	0.6744694114
1780.2892053222	0.6745482087
1782.2180126953	0.6744353771
1784.1468200683	0.6740274429
1786.0756274414	0.6737128496
1788.0044348144	0.6735560894
1789.9332421875	0.6743813157
1791.8620495605	0.6754403114
1793.7908569336	0.6743121743
1795.7196643066	0.6724810600
1797.6484716796	0.6731994152
1799.5772790527	0.6746401191
1801.5060864257	0.6732973456
1803.4348937988	0.6735751033
1805.3637011718	0.6733238101
1807.2925085449	0.6721600294
1809.2213159179	0.6719965935
1811.1501232910	0.6724193096
1813.0789306640	0.6725092530
1815.0077380371	0.6704930067
1816.9365454101	0.6699454188
1818.8653527832	0.6697734594
1820.7941601562	0.6699656248
1822.7229675293	0.6696674824
1824.6517749023	0.6698198318
1826.5805822753	0.6706538796
1828.5093896484	0.6690723896
1830.4381970214	0.6692512631
1832.3670043945	0.6686499119
1834.2958117675	0.6677032113
1836.2246191406	0.6670612097
1838.1534265136	0.6666482687
1840.0822338867	0.6659111381
1842.0110412597	0.6644477844
1843.9398486328	0.6665469408
1845.8686560058	0.6652268767
1847.7974633789	0.6636376977
1849.7262707519	0.6643093228
1851.6550781250	0.6633216143
1853.5838854980	0.6634256840
1855.5126928710	0.6622792482
1857.4415002441	0.6616701484
1859.3703076171	0.6614673138
1861.2991149902	0.6614339948
1863.2279223632	0.6618110538
1865.1567297363	0.6610870957
1867.0855371093	0.6616390347
1869.0143444824	0.6602320075
1870.9431518554	0.6596271396
1872.8719592285	0.6609841585
1874.8007666015	0.6586573124
1876.7295739746	0.6573712230
1878.6583813476	0.6577430367
1880.5871887207	0.6565306187
1882.5159960937	0.6558321714
1884.4448034667	0.6550880671
1886.3736108398	0.6557315588
1888.3024182128	0.6560365558
1890.2312255859	0.6546469927
1892.1600329589	0.6541344523
1894.0888403320	0.6534910202
1896.0176477050	0.6537601948
1897.9464550781	0.6534726024
1899.8752624511	0.6516894102
1901.8040698242	0.6508193612
1903.7328771972	0.6506007314
1905.6616845703	0.6497966051
1907.5904919433	0.6501507163
1909.5192993164	0.6499224901
1911.4481066894	0.6472879648
1913.3769140625	0.6483201981
1915.3057214355	0.6480153203
1917.2345288085	0.6465405822
1919.1633361816	0.6480133533
1921.0921435546	0.6460481286
1923.0209509277	0.6452137232
1924.9497583007	0.6451221704
1926.8785656738	0.6440483928
1928.8073730468	0.6444274187
1930.7361804199	0.6432816982
1932.6649877929	0.6417227387
1934.5937951660	0.6412689686
1936.5226025390	0.6408454180
1938.4514099121	0.6402374506
1940.3802172851	0.6409811974
1942.3090246582	0.6406761408
1944.2378320312	0.6392202973
1946.1666394042	0.6390393972
1948.0954467773	0.6377570033
1950.0242541503	0.6368278861
1951.9530615234	0.6373919249
1953.8818688964	0.6362448931
1955.8106762695	0.6351147294
1957.7394836425	0.6358462572
1959.6682910156	0.6341755390
1961.5970983886	0.6327518225
1963.5259057617	0.6326699853
1965.4547131347	0.6315817833
1967.3835205078	0.6320547462
1969.3123278808	0.6316121817
1971.2411352539	0.6303116679
1973.1699426269	0.6298591495
1975.0987499999	0.6291467547
1977.0275573730	0.6281939149
1978.9563647460	0.6275274158
1980.8851721191	0.6263317466
1982.8139794921	0.6255527139
1984.7427868652	0.6255757213
1986.6715942382	0.6244485378
1988.6004016113	0.6253684759
1990.5292089843	0.6241166592
1992.4580163574	0.6217936277
1994.3868237304	0.6225637197
1996.3156311035	0.6207923293
1998.2444384765	0.6206439137
2000.1732458496	0.6211484075
2002.1020532226	0.6195334792
2004.0308605956	0.6188992262
2005.9596679687	0.6188210845
2007.8884753417	0.6190377474
2009.8172827148	0.6177308559
2011.7460900878	0.6165473461
2013.6748974609	0.6169844270
2015.6037048339	0.6166706085
2017.5325122070	0.6156886816
2019.4613195800	0.6151065826
2021.3901269531	0.6136903167
2023.3189343261	0.6135355234
2025.2477416992	0.6141251326
2027.1765490722	0.6118348241
2029.1053564453	0.6108270884
2031.0341638183	0.6117234230
2032.9629711914	0.6111161709
2034.8917785644	0.6108303666
2036.8205859374	0.6108819246
2038.7493933105	0.6093691587
2040.6782006835	0.6096318364
2042.6070080566	0.6091580987
2044.5358154296	0.6071511507
2046.4646228027	0.6078742743
2048.3934301757	0.6070538759
2050.3222375488	0.6060245633
2052.2510449218	0.6059484482
2054.1798522949	0.6059528589
2056.1086596679	0.6049115658
2058.0374670410	0.6038205028
2059.9662744140	0.6049461365
2061.8950817871	0.6035083532
2063.8238891601	0.6032947898
2065.7526965331	0.6039288044
2067.6815039062	0.6039401293
2069.6103112792	0.6028543115
2071.5391186523	0.6011438370
2073.4679260253	0.6016620994
2075.3967333984	0.6006893516
2077.3255407714	0.6017918587
2079.2543481445	0.6003459096
2081.1831555175	0.5997905731
2083.1119628906	0.6014038324
2085.0407702636	0.5998032689
2086.9695776367	0.6014051437
2088.8983850097	0.5994607210
2090.8271923828	0.5993881822
2092.7559997558	0.6007921696
2094.6848071288	0.5983484983
2096.6136145019	0.5995411873
2098.5424218749	0.5996000767
2100.4712292480	0.5979531407
2102.4000366210	0.5972995162
2104.3288439941	0.5984529853
2106.2576513671	0.5987077951
2108.1864587402	0.5988813639
2110.1152661132	0.6000962853
2112.0440734863	0.5999655128
2113.9728808593	0.5989912748
2115.9016882324	0.5973681808
2117.8304956054	0.5982953310
2119.7593029785	0.5983535647
2121.6881103515	0.5981088877
2123.6169177245	0.5983506441
2125.5457250976	0.5988030434
2127.4745324706	0.5988985300
2129.4033398437	0.5980584621
2131.3321472167	0.5999301076
2133.2609545898	0.5984947085
2135.1897619628	0.5979948044
2137.1185693359	0.5984243751
2139.0473767089	0.5980378985
2140.9761840820	0.5991235971
2142.9049914550	0.5985506177
2144.8337988281	0.6005769968
2146.7626062011	0.5998821855
2148.6914135742	0.6002017856
2150.6202209472	0.6012465954
2152.5490283203	0.5988801122
2154.4778356933	0.6011227369
2156.4066430663	0.6014186740
2158.3354504394	0.6000582576
2160.2642578124	0.6012932658
2162.1930651855	0.6016149521
2164.1218725585	0.6021643877
2166.0506799316	0.6027702689
2167.9794873046	0.6018998027
2169.9082946777	0.6029204130
2171.8371020507	0.6032417417
2173.7659094238	0.6024574637
2175.6947167968	0.6042670012
2177.6235241699	0.6035048962
2179.5523315429	0.6028490067
2181.4811389160	0.6022891402
2183.4099462890	0.6025593281
2185.3387536620	0.6036143899
2187.2675610351	0.6032634377
2189.1963684081	0.6048018932
2191.1251757812	0.6045914292
2193.0539831542	0.6058208346
2194.9827905273	0.6054406166
2196.9115979003	0.6059100032
2198.8404052734	0.6078492999
2200.7692126464	0.6059840918
2202.6980200195	0.6075208187
2204.6268273925	0.6065158844
2206.5556347656	0.6054666638
2208.4844421386	0.6057955027
2210.4132495117	0.6067691445
2212.3420568847	0.6089069843
2214.2708642577	0.6076332927
2216.1996716308	0.6088106632
2218.1284790038	0.6081417203
2220.0572863769	0.6082608700
2221.9860937499	0.6090047359
2223.9149011230	0.6082350612
2225.8437084960	0.6102566123
2227.7725158691	0.6103319526
2229.7013232421	0.6103633642
2231.6301306152	0.6094929576
2233.5589379882	0.6102100611
2235.4877453613	0.6115879416
2237.4165527343	0.6112690568
2239.3453601074	0.6119349003
2241.2741674804	0.6115897298
2243.2029748534	0.6130035520
2245.1317822265	0.6132652760
2247.0605895995	0.6126227379
2248.9893969726	0.6124456525
2250.9182043456	0.6128978133
2252.8470117187	0.6152387261
2254.7758190917	0.6136325598
2256.7046264648	0.6127550006
2258.6334338378	0.6146970987
2260.5622412109	0.6133977771
2262.4910485839	0.6127911806
2264.4198559570	0.6144834757
2266.3486633300	0.6148963571
2268.2774707031	0.6152456999
2270.2062780761	0.6151822209
2272.1350854491	0.6145636439
2274.0638928222	0.6158154607
2275.9927001952	0.6169555187
2277.9215075683	0.6158243418
2279.8503149413	0.6159756184
2281.7791223144	0.6173741817
2283.7079296874	0.6163541079
2285.6367370605	0.6158765554
2287.5655444335	0.6155936122
2289.4943518066	0.6164922714
2291.4231591796	0.6176288128
2293.3519665527	0.6172991395
2295.2807739257	0.6194002032
2297.2095812988	0.6184747815
2299.1383886718	0.6180984974
2301.0671960449	0.6192588210
2302.9960034179	0.6190012097
2304.9248107909	0.6204394102
2306.8536181640	0.6193627119
2308.7824255370	0.6197630167
2310.7112329101	0.6213092804
2312.6400402831	0.6220110655
2314.5688476562	0.6231938601
2316.4976550292	0.6255837679
2318.4264624023	0.6279807091
2320.3552697753	0.6268632412
2322.2840771484	0.6296798587
2324.2128845214	0.6316507459
2326.1416918945	0.6314229965
2328.0704992675	0.6334100962
2329.9993066406	0.6337426901
2331.9281140136	0.6347447634
2333.8569213866	0.6351494789
2335.7857287597	0.6363106966
2337.7145361327	0.6373492479
2339.6433435058	0.6367368102
2341.5721508788	0.6352098584
2343.5009582519	0.6349945068
2345.4297656249	0.6344659328
2347.3585729980	0.6278794408
2349.2873803710	0.6247459650
2351.2161877441	0.6276233196
2353.1449951171	0.6326367855
2355.0738024902	0.6381568909
2357.0026098632	0.6407186389
2358.9314172363	0.6418715119
2360.8602246093	0.6433292627
2362.7890319823	0.6433721781
2364.7178393554	0.6420415044
2366.6466467284	0.6408199668
2368.5754541015	0.6378576756
2370.5042614745	0.6349712610
2372.4330688476	0.6315920949
2374.3618762206	0.6289352179
2376.2906835937	0.6276363730
2378.2194909667	0.6235634685
2380.1482983398	0.6217166185
2382.0771057128	0.6209039688
2384.0059130859	0.6207784414
2385.9347204589	0.6210234165
2387.8635278320	0.6191301346
2389.7923352050	0.6198458672
2391.7211425780	0.6197124124
2393.6499499511	0.6199133992
2395.5787573241	0.6199597120
2397.5075646972	0.6193076372
2399.4363720702	0.6205359697
2401.3651794433	0.6192145944
2403.2939868163	0.6202552915
2405.2227941894	0.6206125021
2407.1516015624	0.6188390255
2409.0804089355	0.6202120781
2411.0092163085	0.6206514835
2412.9380236816	0.6204658151
2414.8668310546	0.6197664142
2416.7956384277	0.6203211546
2418.7244458007	0.6197820902
2420.6532531738	0.6178422570
2422.5820605468	0.6197760701
2424.5108679198	0.6207274199
2426.4396752929	0.6203078628
2428.3684826659	0.6193506122
2430.2972900390	0.6189219356
2432.2260974120	0.6196668148
2434.1549047851	0.6184194684
2436.0837121581	0.6178555489
2438.0125195312	0.6180083156
2439.9413269042	0.6180638075
2441.8701342773	0.6178021431
2443.7989416503	0.6180905700
2445.7277490234	0.6185382605
2447.6565563964	0.6177381873
2449.5853637695	0.6177096963
2451.5141711425	0.6173671484
2453.4429785155	0.6166188121
2455.3717858886	0.6162635684
2457.3005932616	0.6174613237
2459.2294006347	0.6170373559
2461.1582080077	0.6170404553
2463.0870153808	0.6189163923
2465.0158227538	0.6170026660
2466.9446301269	0.6181215048
2468.8734374999	0.6172118783
2470.8022448730	0.6146336198
2472.7310522460	0.6168778539
2474.6598596191	0.6153117418
2476.5886669921	0.6152854562
2478.5174743652	0.6167314649
2480.4462817382	0.6167890429
2482.3750891112	0.6169865727
2484.3038964843	0.6154564619
2486.2327038573	0.6144815087
2488.1615112304	0.6143783927
2490.0903186034	0.6153756380
2492.0191259765	0.6146926284
2493.9479333495	0.6143286824
2495.8767407226	0.6143425107
2497.8055480956	0.6141843796
2499.7343554687	0.6139431596
2501.6631628417	0.6122652888
2503.5919702148	0.6141079664
2505.5207775878	0.6136781573
2507.4495849609	0.6129493713
2509.3783923339	0.6149953604
2511.3071997069	0.6136848330
2513.2360070800	0.6123609543
2515.1648144530	0.6130118966
2517.0936218261	0.6138435006
2519.0224291991	0.6115546823
2520.9512365722	0.6116745472
2522.8800439452	0.6129063368
2524.8088513183	0.6107357740
2526.7376586913	0.6118965149
2528.6664660644	0.6121341586
2530.5952734374	0.6105825305
2532.5240808105	0.6110343337
2534.4528881835	0.6126134992
2536.3816955566	0.6128122807
2538.3105029296	0.6105787158
2540.2393103027	0.6095629334
2542.1681176757	0.6088691950
2544.0969250487	0.6095272303
2546.0257324218	0.6102547050
2547.9545397948	0.6090096831
2549.8833471679	0.6094780564
2551.8121545409	0.6092182398
2553.7409619140	0.6083486676
2555.6697692870	0.6086223125
2557.5985766601	0.6067175269
2559.5273840331	0.6068155766
2561.4561914062	0.6090208292
2563.3849987792	0.6079375148
2565.3138061523	0.6068430543
2567.2426135253	0.6065084934
2569.1714208984	0.6068082452
2571.1002282714	0.6069589257
2573.0290356444	0.6066894531
2574.9578430175	0.6071343422
2576.8866503905	0.6056652665
2578.8154577636	0.6046394706
2580.7442651366	0.6040971279
2582.6730725097	0.6046885252
2584.6018798827	0.6048586369
2586.5306872558	0.6035127640
2588.4594946288	0.6044667959
2590.3883020019	0.6040211916
2592.3171093749	0.6050088406
2594.2459167480	0.6046540141
2596.1747241210	0.6021629572
2598.1035314941	0.6035059690
2600.0323388671	0.6018929482
2601.9611462401	0.5998900533
2603.8899536132	0.6004579663
2605.8187609862	0.6018694043
2607.7475683593	0.6025511026
2609.6763757323	0.6008710265
2611.6051831054	0.6009592414
2613.5339904784	0.6002970934
2615.4627978515	0.5990536213
2617.3916052245	0.5987887979
2619.3204125976	0.5983093977
2621.2492199706	0.5981402397
2623.1780273437	0.5971590281
2625.1068347167	0.5970067382
2627.0356420898	0.5976600647
2628.9644494628	0.5963919759
2630.8932568358	0.5946846604
2632.8220642089	0.5963957310
2634.7508715819	0.5966540575
2636.6796789550	0.5949347019
2638.6084863280	0.5946123600
2640.5372937011	0.5920338035
2642.4661010741	0.5924680233
2644.3949084472	0.5928702950
2646.3237158202	0.5915424824
2648.2525231933	0.5933647156
2650.1813305663	0.5911701322
2652.1101379394	0.5907647014
2654.0389453124	0.5922903419
2655.9677526855	0.5896968842
2657.8965600585	0.5892455578
2659.8253674315	0.5897173285
2661.7541748046	0.5892941952
2663.6829821776	0.5874622464
2665.6117895507	0.5865799189
2667.5405969237	0.5870943666
2669.4694042968	0.5871631503
2671.3982116698	0.5878926516
2673.3270190429	0.5855782628
2675.2558264159	0.5844595432
2677.1846337890	0.5838088393
2679.1134411620	0.5828920603
2681.0422485351	0.5854750276
2682.9710559081	0.5834730268
2684.8998632812	0.5811454654
2686.8286706542	0.5815219879
2688.7574780273	0.5808801055
2690.6862854003	0.5809218884
2692.6150927733	0.5797403455
2694.5439001464	0.5788465738
2696.4727075194	0.5793750882
2698.4015148925	0.5815927386
2700.3303222655	0.5801232457
2702.2591296386	0.5763917565
2704.1879370116	0.5775689483
2706.1167443847	0.5769157410
2708.0455517577	0.5753692389
2709.9743591308	0.5757228732
2711.9031665038	0.5755971670
2713.8319738769	0.5743957162
2715.7607812499	0.5729945302
2717.6895886230	0.5730478168
2719.6183959960	0.5717092752
2721.5472033690	0.5710405707
2723.4760107421	0.5701813698
2725.4048181151	0.5694985986
2727.3336254882	0.5695360899
2729.2624328612	0.5672773719
2731.1912402343	0.5670408010
2733.1200476073	0.5663769245
2735.0488549804	0.5659378767
2736.9776623534	0.5666074753
2738.9064697265	0.5647104979
2740.8352770995	0.5646273494
2742.7640844726	0.5640215278
2744.6928918456	0.5613396764
2746.6216992187	0.5613000393
2748.5505065917	0.5609933734
2750.4793139647	0.5598765612
2752.4081213378	0.5602940321
2754.3369287108	0.5586194396
2756.2657360839	0.5584967732
2758.1945434569	0.5585783720
2760.1233508300	0.5555932522
2762.0521582030	0.5557374358
2763.9809655761	0.5540046692
2765.9097729491	0.5520270467
2767.8385803222	0.5532284975
2769.7673876952	0.5528876185
2771.6961950683	0.5515616536
2773.6250024413	0.5506006479
2775.5538098144	0.5503991246
2777.4826171874	0.5485383868
2779.4114245604	0.5484709144
2781.3402319335	0.5476495028
2783.2690393065	0.5451538563
2785.1978466796	0.5450978875
2787.1266540526	0.5453950167
2789.0554614257	0.5460284352
2790.9842687987	0.5423976183
2792.9130761718	0.5405756235
2794.8418835448	0.5402606726
2796.7706909179	0.5383941531
2798.6994982909	0.5397122502
2800.6283056640	0.5384299159
2802.5571130370	0.5375936031
2804.4859204101	0.5363990664
2806.4147277831	0.5347543359
2808.3435351562	0.5342349410
2810.2723425292	0.5329670906
2812.2011499022	0.5330142379
2814.1299572753	0.5318539143
2816.0587646483	0.5302453041
2817.9875720214	0.5281382799
2819.9163793944	0.5275075436
2821.8451867675	0.5243227482
2823.7739941405	0.5227257609
2825.7028015136	0.5253717899
2827.6316088866	0.5217670798
2829.5604162597	0.5204823017
2831.4892236327	0.5204169154
2833.4180310058	0.5186237097
2835.3468383788	0.5181642175
2837.2756457519	0.5166209340
2839.2044531249	0.5148634315
2841.1332604979	0.5119602680
2843.0620678710	0.5117982030
2844.9908752440	0.5113870502
2846.9196826171	0.5093733072
2848.8484899901	0.5075120330
2850.7772973632	0.5061852336
2852.7061047362	0.5045071244
2854.6349121093	0.5018582940
2856.5637194823	0.5020213127
2858.4925268554	0.5015330911
2860.4213342284	0.5027071834
2862.3501416015	0.5016659498
2864.2789489745	0.4982856810
2866.2077563476	0.4977636039
2868.1365637206	0.4963221848
2870.0653710936	0.4957638681
2871.9941784667	0.4926462471
2873.9229858397	0.4915956557
2875.8517932128	0.4918644130
2877.7806005858	0.4897361994
2879.7094079589	0.4905411899
2881.6382153319	0.4864150882
2883.5670227050	0.4818435013
2885.4958300780	0.4837830067
2887.4246374511	0.4820303023
2889.3534448241	0.4779161513
2891.2822521972	0.4791631103
2893.2110595702	0.4778898954
2895.1398669433	0.4748403430
2897.0686743163	0.4749594033
2898.9974816893	0.4712253511
2900.9262890624	0.4683369398
2902.8550964354	0.4694412947
2904.7839038085	0.4679620564
2906.7127111815	0.4636022151
2908.6415185546	0.4635696411
2910.5703259276	0.4645952284
2912.4991333007	0.4607165158
2914.4279406737	0.4582031369
2916.3567480468	0.4558340907
2918.2855554198	0.4530760348
2920.2143627929	0.4519701302
2922.1431701659	0.4522111118
2924.0719775390	0.4511519969
2926.0007849120	0.4477520585
2927.9295922851	0.4458373487
2929.8583996581	0.4437150657
2931.7872070311	0.4433758557
2933.7160144042	0.4416234791
2935.6448217772	0.4397760034
2937.5736291503	0.4409662187
2939.5024365233	0.4380509555
2941.4312438964	0.4374541938
2943.3600512694	0.4366598725
2945.2888586425	0.4322632253
2947.2176660155	0.4319355190
2949.1464733886	0.4286775887
2951.0752807616	0.4262514710
2953.0040881347	0.4273838997
2954.9328955077	0.4231191576
2956.8617028808	0.4223198295
2958.7905102538	0.4212868512
2960.7193176268	0.4167864621
2962.6481249999	0.4176315367
2964.5769323729	0.4149047732
2966.5057397460	0.4134224057
2968.4345471190	0.4146833122
2970.3633544921	0.4097703397
2972.2921618651	0.4072453976
2974.2209692382	0.4074969888
2976.1497766112	0.4047737420
2978.0785839843	0.4028919339
2980.0073913573	0.4022180438
2981.9361987304	0.3974042833
2983.8650061034	0.3961751461
2985.7938134765	0.3963563442
2987.7226208495	0.3913807869
2989.6514282225	0.3917660415
2991.5802355956	0.3908379972
2993.5090429686	0.3869469464
2995.4378503417	0.3852857053
2997.3666577147	0.3823810220
2999.2954650878	0.3826632500
3001.2242724608	0.3823339045
3003.1530798339	0.3780297339
3005.0818872069	0.3753372133
3007.0106945800	0.3759459555
3008.9395019530	0.3745398223
3010.8683093261	0.3716497421
3012.7971166991	0.3701683581
3014.7259240722	0.3664638996
3016.6547314452	0.3651570976
3018.5835388182	0.3641616702
3020.5123461913	0.3608843684
3022.4411535643	0.3596869409
3024.3699609374	0.3572893441
3026.2987683104	0.3553662002
3028.2275756835	0.3528466225
3030.1563830565	0.3515582979
3032.0851904296	0.3522865176
3034.0139978026	0.3482611477
3035.9428051757	0.3465314806
3037.8716125487	0.3449395895
3039.8004199218	0.3427098989
3041.7292272948	0.3433957696
3043.6580346679	0.3383709490
3045.5868420409	0.3360453844
3047.5156494139	0.3372592330
3049.4444567870	0.3335547149
3051.3732641600	0.3315765560
3053.3020715331	0.3311658204
3055.2308789061	0.3288704157
3057.1596862792	0.3272314966
3059.0884936522	0.3248950541
3061.0173010253	0.3224324882
3062.9461083983	0.3217408061
3064.8749157714	0.3181850314
3066.8037231444	0.3167816699
3068.7325305175	0.3170036674
3070.6613378905	0.3155039251
3072.5901452636	0.3161967695
3074.5189526366	0.3129146397
3076.4477600097	0.3097123504
3078.3765673827	0.3083986342
3080.3053747557	0.3074418604
3082.2341821288	0.3061098158
3084.1629895018	0.3021683991
3086.0917968749	0.3019588590
3088.0206042479	0.3018351197
3089.9494116210	0.3004731834
3091.8782189940	0.2987326682
3093.8070263671	0.2976936102
3095.7358337401	0.2961138487
3097.6646411132	0.2948484719
3099.5934484862	0.2947593927
3101.5222558593	0.2907150984
3103.4510632323	0.2902446091
3105.3798706054	0.2859435976
3107.3086779784	0.2827493846
3109.2374853514	0.2866109908
3111.1662927245	0.2854302526
3113.0951000975	0.2836574912
3115.0239074706	0.2801293731
3116.9527148436	0.2800122201
3118.8815222167	0.2801236212
3120.8103295897	0.2788451314
3122.7391369628	0.2785295844
3124.6679443358	0.2754122615
3126.5967517089	0.2771006823
3128.5255590819	0.2743784189
3130.4543664550	0.2727501094
3132.3831738280	0.2728916109
3134.3119812011	0.2697432935
3136.2407885741	0.2723127902
3138.1695959471	0.2687265873
3140.0984033202	0.2668957710
3142.0272106932	0.2708826661
3143.9560180663	0.2680834234
3145.8848254393	0.2661723495
3147.8136328124	0.2651642859
3149.7424401854	0.2644893527
3151.6712475585	0.2669310868
3153.6000549315	0.2650411129
3155.5288623046	0.2643190920
3157.4576696776	0.2640234232
3159.3864770507	0.2604884207
3161.3152844237	0.2630178332
3163.2440917968	0.2617532611
3165.1728991698	0.2606196404
3167.1017065428	0.2630901039
3169.0305139159	0.2594590485
3170.9593212889	0.2607232034
3172.8881286620	0.2617531419
3174.8169360350	0.2597638667
3176.7457434081	0.2603253424
3178.6745507811	0.2569996715
3180.6033581542	0.2558083236
3182.5321655272	0.2590302825
3184.4609729003	0.2583310902
3186.3897802733	0.2565895915
3188.3185876464	0.2570626438
3190.2473950194	0.2599141896
3192.1762023925	0.2614799142
3194.1050097655	0.2576716840
3196.0338171386	0.2584741414
3197.9626245116	0.2587764561
3199.8914318846	0.2590844929
3201.8202392577	0.2608826756
3203.7490466307	0.2571423352
3205.6778540038	0.2592468858
3207.6066613768	0.2584594190
3209.5354687499	0.2585058808
3211.4642761229	0.2602804899
3213.3930834960	0.2571433187
3215.3218908690	0.2606885135
3217.2506982421	0.2603365183
3219.1795056151	0.2585519850
3221.1083129882	0.2597308159
3223.0371203612	0.2642814219
3224.9659277343	0.2640369534
3226.8947351073	0.2593973577
3228.8235424803	0.2648243308
3230.7523498534	0.2617301047
3232.6811572264	0.2618345916
3234.6099645995	0.2672892511
3236.5387719725	0.2645247281
3238.4675793456	0.2667245865
3240.3963867186	0.2669098377
3242.3251940917	0.2671540678
3244.2540014647	0.2685214579
3246.1828088378	0.2707727849
3248.1116162108	0.2719283700
3250.0404235839	0.2674685717
3251.9692309569	0.2713389993
3253.8980383300	0.2742792070
3255.8268457030	0.2723913789
3257.7556530760	0.2726773918
3259.6844604491	0.2706876397
3261.6132678221	0.2721670270
3263.5420751952	0.2723104358
3265.4708825682	0.2731391788
3267.3996899413	0.2789892256
3269.3284973143	0.2791311741
3271.2573046874	0.2788834274
3273.1861120604	0.2787554562
3275.1149194335	0.2789146006
3277.0437268065	0.2808923423
3278.9725341796	0.2811914384
3280.9013415526	0.2828598320
3282.8301489257	0.2815739214
3284.7589562987	0.2840538323
3286.6877636717	0.2843891680
3288.6165710448	0.2815452516
3290.5453784178	0.2866751850
3292.4741857909	0.2847630680
3294.4029931639	0.2845714986
3296.3318005370	0.2885631025
3298.2606079100	0.2871617675
3300.1894152831	0.2901229262
3302.1182226561	0.2904756069
3304.0470300292	0.2893168628
3305.9758374022	0.2937757075
3307.9046447753	0.2941934764
3309.8334521483	0.2932185829
3311.7622595214	0.2955240905
3313.6910668944	0.2959284186
3315.6198742675	0.2978473008
3317.5486816405	0.2968900800
3319.4774890135	0.2966092825
3321.4062963866	0.3004193604
3323.3351037596	0.2994662225
3325.2639111327	0.3005188107
3327.1927185057	0.3016907871
3329.1215258788	0.3045297861
3331.0503332518	0.3043940067
3332.9791406249	0.3013490140
3334.9079479979	0.3057894409
3336.8367553710	0.3049892187
3338.7655627440	0.3050073683
3340.6943701171	0.3070097566
3342.6231774901	0.3088062704
3344.5519848632	0.3124720156
3346.4807922362	0.3107081950
3348.4095996092	0.3120488524
3350.3384069823	0.3152511418
3352.2672143553	0.3173118532
3354.1960217284	0.3167840242
3356.1248291014	0.3153437078
3358.0536364745	0.3190464079
3359.9824438475	0.3207079470
3361.9112512206	0.3199085295
3363.8400585936	0.3230132163
3365.7688659667	0.3248676658
3367.6976733397	0.3235824108
3369.6264807128	0.3272013664
3371.5552880858	0.3294600844
3373.4840954589	0.3298328817
3375.4129028319	0.3326360881
3377.3417102049	0.3346217871
3379.2705175780	0.3368163109
3381.1993249510	0.3389106095
3383.1281323241	0.3408478498
3385.0569396971	0.3422094584
3386.9857470702	0.3451214433
3388.9145544432	0.3448536694
3390.8433618163	0.3482027650
3392.7721691893	0.3537132442
3394.7009765624	0.3521351814
3396.6297839354	0.3542014062
3398.5585913085	0.3549346328
3400.4873986815	0.3581612110
3402.4162060546	0.3611200452
3404.3450134276	0.3618757725
3406.2738208006	0.3661360741
3408.2026281737	0.3679071963
3410.1314355467	0.3708180785
3412.0602429198	0.3698514700
3413.9890502928	0.3747632802
3415.9178576659	0.3789377511
3417.8466650389	0.3802861869
3419.7754724120	0.3856431842
3421.7042797850	0.3839048743
3423.6330871581	0.3891195059
3425.5618945311	0.3913590014
3427.4907019042	0.3930851519
3429.4195092772	0.3973434567
3431.3483166503	0.3969114721
3433.2771240233	0.4006555080
3435.2059313963	0.4003885686
3437.1347387694	0.4060043991
3439.0635461424	0.4103043973
3440.9923535155	0.4133625627
3442.9211608885	0.4171069562
3444.8499682616	0.4155682325
3446.7787756346	0.4223632216
3448.7075830077	0.4223073125
3450.6363903807	0.4225703478
3452.5651977538	0.4282848835
3454.4940051268	0.4305329025
3456.4228124999	0.4335504472
3458.3516198729	0.4364645481
3460.2804272460	0.4417991936
3462.2092346190	0.4437024891
3464.1380419921	0.4468293190
3466.0668493651	0.4474085867
3467.9956567381	0.4488256276
3469.9244641112	0.4560018778
3471.8532714842	0.4558106065
3473.7820788573	0.4576343298
3475.7108862303	0.4627297819
3477.6396936034	0.4665778279
3479.5685009764	0.4672735929
3481.4973083495	0.4673775733
3483.4261157225	0.4737136364
3485.3549230956	0.4795888662
3487.2837304686	0.4800693095
3489.2125378417	0.4795890749
3491.1413452147	0.4860756695
3493.0701525878	0.4904337227
3494.9989599608	0.4917615056
3496.9277673338	0.4945660233
3498.8565747069	0.4981643260
3500.7853820799	0.5037217736
3502.7141894530	0.5025628209
3504.6429968260	0.5050324202
3506.5718041991	0.5107211471
3508.5006115721	0.5123129487
3510.4294189452	0.5161068439
3512.3582263182	0.5187587142
3514.2870336913	0.5202400684
3516.2158410643	0.5218725801
3518.1446484374	0.5293918848
3520.0734558104	0.5342514515
3522.0022631835	0.5337374210
3523.9310705565	0.5387351513
3525.8598779295	0.5428645611
3527.7886853026	0.5455133915
3529.7174926756	0.5469685793
3531.6463000487	0.5515100956
3533.5751074217	0.5562825203
3535.5039147948	0.5577116609
3537.4327221678	0.5614631176
3539.3615295409	0.5613337159
3541.2903369139	0.5634092689
3543.2191442870	0.5668364763
3545.1479516600	0.5704716444
3547.0767590331	0.5773808360
3549.0055664061	0.5785121918
3550.9343737792	0.5829477906
3552.8631811522	0.5863213539
3554.7919885252	0.5859624147
3556.7207958983	0.5928261876
3558.6496032713	0.5962241292
3560.5784106444	0.5978865027
3562.5072180174	0.6009812355
3564.4360253905	0.6039649248
3566.3648327635	0.6105384827
3568.2936401366	0.6093231440
3570.2224475096	0.6108967662
3572.1512548827	0.6180124283
3574.0800622557	0.6182423830
3576.0088696288	0.6234704256
3577.9376770018	0.6293933988
3579.8664843749	0.6302605271
3581.7952917479	0.6341225505
3583.7240991210	0.6383311749
3585.6529064940	0.6385902762
3587.5817138670	0.6394367218
3589.5105212401	0.6444535851
3591.4393286131	0.6463733912
3593.3681359862	0.6517660618
3595.2969433592	0.6572158337
3597.2257507323	0.6571295857
3599.1545581053	0.6573542953
3601.0833654784	0.6605327129
3603.0121728514	0.6700260639
3604.9409802245	0.6719735265
3606.8697875975	0.6731217504
3608.7985949706	0.6762045026
3610.7274023436	0.6759949923
3612.6562097167	0.6826213598
3614.5850170897	0.6855508685
3616.5138244627	0.6859753728
3618.4426318358	0.6900103688
3620.3714392088	0.6973600984
3622.3002465819	0.6975351572
3624.2290539549	0.6978086829
3626.1578613280	0.7033848763
3628.0866687010	0.7057431936
3630.0154760741	0.7183409333
3631.9442834471	0.7154045105
3633.8730908202	0.7160292268
3635.8018981932	0.7269750237
3637.7307055663	0.7229510546
3639.6595129393	0.7319213152
3641.5883203124	0.7375178933
3643.5171276854	0.7375791073
3645.4459350584	0.7457556725
3647.3747424315	0.7487049103
3649.3035498045	0.7542768717
3651.2323571776	0.7580605149
3653.1611645506	0.7647990584
3655.0899719237	0.7705991864
3657.0187792967	0.7721967697
3658.9475866698	0.7768492699
3660.8763940428	0.7807505727
3662.8052014159	0.7845757008
3664.7340087889	0.7898236513
3666.6628161620	0.7969773412
3668.5916235350	0.8030885458
3670.5204309081	0.8070609570
3672.4492382811	0.8064988852
3674.3780456541	0.8145048022
3676.3068530272	0.8250131011
3678.2356604002	0.8244243264
3680.1644677733	0.8287416697
3682.0932751463	0.8275520205
3684.0220825194	0.8312148452
3685.9508898924	0.8407737613
3687.8796972655	0.8413801789
3689.8085046385	0.8416110873
3691.7373120116	0.8436506391
3693.6661193846	0.8459599018
3695.5949267577	0.8470292687
3697.5237341307	0.8485104442
3699.4525415038	0.8490871787
3701.3813488768	0.8528705239
3703.3101562499	0.8589572906
3705.2389636229	0.8549650908
3707.1677709959	0.8527732491
3709.0965783690	0.8540395498
3711.0253857420	0.8561628461
3712.9541931151	0.8550741076
3714.8830004881	0.8526785374
3716.8118078612	0.8600533605
3718.7406152342	0.8585809469
3720.6694226073	0.8525836468
3722.5982299803	0.8549609780
3724.5270373534	0.8511569500
3726.4558447264	0.8507027626
3728.3846520995	0.8560740948
3730.3134594725	0.8521530032
3732.2422668456	0.8492073417
3734.1710742186	0.8515470028
3736.0998815916	0.8517563343
3738.0286889647	0.8590665460
3739.9574963377	0.8569582105
3741.8863037108	0.8456274867
3743.8151110838	0.8514408469
3745.7439184569	0.8554334044
3747.6727258299	0.8484467268
3749.6015332030	0.8519607186
3751.5303405760	0.8524016142
3753.4591479491	0.8464778662
3755.3879553221	0.8476355076
3757.3167626952	0.8477817774
3759.2455700682	0.8425288796
3761.1743774413	0.8472912908
3763.1031848143	0.8471003175
3765.0319921873	0.8430821896
3766.9607995604	0.8484587073
3768.8896069334	0.8430067301
3770.8184143065	0.8399188519
3772.7472216795	0.8418214917
3774.6760290526	0.8393909335
3776.6048364256	0.8396502733
3778.5336437987	0.8380566835
3780.4624511717	0.8422018290
3782.3912585448	0.8422245383
3784.3200659178	0.8367578387
3786.2488732909	0.8379084468
3788.1776806639	0.8370822668
3790.1064880370	0.8359891772
3792.0352954100	0.8376953602
3793.9641027830	0.8338837028
3795.8929101561	0.8316085339
3797.8217175291	0.8331060410
3799.7505249022	0.8318348527
3801.6793322752	0.8420559764
3803.6081396483	0.8415442109
3805.5369470213	0.8315033913
3807.4657543944	0.8374922872
3809.3945617674	0.8352375031
3811.3233691405	0.8299537897
3813.2521765135	0.8304995894
3815.1809838866	0.8300084472
3817.1097912596	0.8323174119
3819.0385986327	0.8310204744
3820.9674060057	0.8311284184
3822.8962133787	0.8294827342
3824.8250207518	0.8282202482
3826.7538281248	0.8280706406
3828.6826354979	0.8258521557
3830.6114428709	0.8263271451
3832.5402502440	0.8247076273
3834.4690576170	0.8236870170
3836.3978649901	0.8239351511
3838.3266723631	0.8259378076
3840.2554797362	0.8279042244
3842.1842871092	0.8245800138
3844.1130944823	0.8255595565
3846.0419018553	0.8215226531
3847.9707092284	0.8159015179
3849.8995166014	0.8222994804
3851.8283239745	0.8238786459
3853.7571313475	0.8281925917
3855.6859387205	0.8293372393
3857.6147460936	0.8200370073
3859.5435534666	0.8208513856
3861.4723608397	0.8182358742
3863.4011682127	0.8162781596
3865.3299755858	0.8187043667
3867.2587829588	0.8145013452
3869.1875903319	0.8193719387
3871.1163977049	0.8220142126
3873.0452050780	0.8152483106
3874.9740124510	0.8146439791
3876.9028198241	0.8176921010
3878.8316271971	0.8192263246
3880.7604345702	0.8190488219
3882.6892419432	0.8147598505
3884.6180493162	0.8135707974
3886.5468566893	0.8152151108
3888.4756640623	0.8111928701
3890.4044714354	0.8105219007
3892.3332788084	0.8072078824
3894.2620861815	0.8081345558
3896.1908935545	0.8131073117
3898.1197009276	0.8108819127
3900.0485083006	0.8130198717
3901.9773156737	0.8080849051
3903.9061230467	0.8098294735
3905.8349304198	0.8148494363
3907.7637377928	0.8071165085
3909.6925451659	0.8056944013
3911.6213525389	0.8050832748
3913.5501599119	0.8059191108
3915.4789672850	0.8052995801
3917.4077746580	0.8076089025
3919.3365820311	0.8061463237
3921.2653894041	0.8014188409
3923.1941967772	0.8081426620
3925.1230041502	0.8063188791
3927.0518115233	0.8061985373
3928.9806188963	0.8050390482
3930.9094262694	0.7998967171
3932.8382336424	0.8049554229
3934.7670410155	0.8044515252
3936.6958483885	0.8035035133
3938.6246557616	0.8065347075
3940.5534631346	0.8067225814
3942.4822705076	0.8051072955
3944.4110778807	0.8055579662
3946.3398852537	0.8034238815
3948.2686926268	0.8006772399
3950.1974999998	0.8025013804
3952.1263073729	0.7994669080
3954.0551147459	0.7989794612
3955.9839221190	0.8032101393
3957.9127294920	0.8020684719
3959.8415368651	0.7986912727
3961.7703442381	0.7990029454
3963.6991516112	0.7977199554
3965.6279589842	0.7972922921
3967.5567663573	0.7989335060
3969.4855737303	0.7982254028
3971.4143811034	0.7993382812
3973.3431884764	0.7977374792
3975.2719958494	0.7982989550
3977.2008032225	0.7991610765
3979.1296105955	0.7973617315
3981.0584179686	0.7965923548
3982.9872253416	0.7951490879
3984.9160327147	0.7938655615
3986.8448400877	0.7931259274
3988.7736474608	0.7999316454
3990.7024548338	0.7991217375
3992.6312622069	0.7944425344
3994.5600695799	0.7919254899
3996.4888769530	0.7892016768
3998.4176843260	0.7949734330
4000.3464916991	0.7932085395
4002.2752990721	0.7957410216
4004.2041064451	0.7944198847
4006.1329138182	0.7913936973
4008.0617211912	0.8002666831
4009.9905285643	0.7926664352
4011.9193359373	0.7911220789
4013.8481433104	0.7984603643
4015.7769506834	0.7930963039
4017.7057580565	0.7905888557
4019.6345654295	0.7941175103
4021.5633728026	0.7936037183
4023.4921801756	0.7939414978
4025.4209875487	0.7933723330
4027.3497949217	0.7888011932
4029.2786022948	0.7873055339
4031.2074096678	0.7826941609
4033.1362170408	0.7900832295
4035.0650244139	0.7938274145
4036.9938317869	0.7909291983
4038.9226391600	0.7966303825
4040.8514465330	0.7874525785
4042.7802539061	0.7900317907
4044.7090612791	0.7912559509
4046.6378686522	0.7861425281
4048.5666760252	0.7966674566
4050.4954833983	0.7901490331
4052.4242907713	0.7840618491
4054.3530981444	0.7892280221
4056.2819055174	0.7906599641
4058.2107128905	0.7906138897
4060.1395202635	0.7910144329
4062.0683276365	0.7910281420
4063.9971350096	0.7901281714
4065.9259423826	0.7888782620
4067.8547497557	0.7842332721
4069.7835571287	0.7892887592
4071.7123645018	0.7918520570
4073.6411718748	0.7857442498
4075.5699792479	0.7852659822
4077.4987866209	0.7859626412
4079.4275939940	0.7864782810
4081.3564013670	0.7821224928
4083.2852087401	0.7810876369
4085.2140161131	0.7855576873
4087.1428234862	0.7860147953
4089.0716308592	0.7838401794
4091.0004382323	0.7869588137
4092.9292456053	0.7915437222
4094.8580529783	0.7866708636
4096.7868603514	0.7878336906
4098.7156677244	0.7886547446
4100.6444750975	0.7847166657
4102.5732824705	0.7842539549
4104.5020898436	0.7796079516
4106.4308972166	0.7831693888
4108.3597045897	0.7862747312
4110.2885119627	0.7867376804
4112.2173193358	0.7908362150
4114.1461267088	0.7867107987
4116.0749340819	0.7824688554
4118.0037414549	0.7796894312
4119.9325488280	0.7835317850
4121.8613562010	0.7858334780
4123.7901635740	0.7835678458
4125.7189709471	0.7845348120
4127.6477783201	0.7803943157
4129.5765856932	0.7836653590
4131.5053930662	0.7840381265
4133.4342004393	0.7860184312
4135.3630078123	0.7881938815
4137.2918151854	0.7787556648
4139.2206225584	0.7845329642
4141.1494299315	0.7827001214
4143.0782373045	0.7795854807
4145.0070446776	0.7842215300
4146.9358520506	0.7804191709
4148.8646594237	0.7870395780
4150.7934667967	0.7883349061
4152.7222741697	0.7842758298
4154.6510815428	0.7806411386
4156.5798889158	0.7784209251
4158.5086962889	0.7797957659
4160.4375036619	0.7794808149
4162.3663110350	0.7848374844
4164.2951184080	0.7843880057
4166.2239257811	0.7817566991
4168.1527331541	0.7789081931
4170.0815405272	0.7795289755
4172.0103479002	0.7828557491
4173.9391552733	0.7799667716
4175.8679626463	0.7816116214
4177.7967700194	0.7766563296
4179.7255773924	0.7734559774
4181.6543847654	0.7823883295
4183.5831921385	0.7857579589
4185.5119995115	0.7817143202
4187.4408068846	0.7810350657
4189.3696142576	0.7826339006
4191.2984216307	0.7841451168
4193.2272290037	0.7890051603
4195.1560363768	0.7862067819
4197.0848437498	0.7792527080
4199.0136511229	0.7745877504
4200.9424584959	0.7760225534
4202.8712658690	0.7804970145
4204.8000732420	0.7769986987
4206.7288806151	0.7778553963
4208.6576879881	0.7829050422
4210.5864953611	0.7810729146
4212.5153027342	0.7792692184
4214.4441101072	0.7828992009
4216.3729174803	0.7810438275
4218.3017248533	0.7823956013
4220.2305322264	0.7818201184
4222.1593395994	0.7711053491
4224.0881469725	0.7747472525
4226.0169543455	0.7764965892
4227.9457617186	0.7751876116
4229.8745690916	0.7782326937
4231.8033764647	0.7754978538
4233.7321838377	0.7778936028
4235.6609912108	0.7753724456
4237.5897985838	0.7740730643
4239.5186059569	0.7791248560
4241.4474133299	0.7776256800
4243.3762207029	0.7787684798
4245.3050280760	0.7800342441
4247.2338354490	0.7767673135
4249.1626428221	0.7759661674
4251.0914501951	0.7747145891
4253.0202575682	0.7771003246
4254.9490649412	0.7749659419
4256.8778723143	0.7763316631
4258.8066796873	0.7872418761
4260.7354870604	0.7779260874
4262.6642944334	0.7756372094
4264.5931018065	0.7732463479
4266.5219091795	0.7691119909
4268.4507165526	0.7802230716
4270.3795239256	0.7726126313
4272.3083312986	0.7765648961
4274.2371386717	0.7784672976
4276.1659460447	0.7755275965
4278.0947534178	0.7755081058
4280.0235607908	0.7686789036
4281.9523681639	0.7815306783
4283.8811755369	0.7709629536
4285.8099829100	0.7684927583
4287.7387902830	0.7809792757
4289.6675976561	0.7790389657
4291.5964050291	0.7808118463
4293.5252124022	0.7730541825
4295.4540197752	0.7756003737
4297.3828271483	0.7666980624
4299.3116345213	0.7672907710
4301.2404418943	0.7765944004
4303.1692492674	0.7671353221
4305.0980566404	0.7776732445
4307.0268640135	0.7739903927
4308.9556713865	0.7701597214
4310.8844787596	0.7797080874
4312.8132861326	0.7729133368
4314.7420935057	0.7709572911
4316.6709008787	0.7707586884
4318.5997082518	0.7686787248
4320.5285156248	0.7733606696
4322.4573229979	0.7728053331
4324.3861303709	0.7669527531
4326.3149377440	0.7728701234
4328.2437451170	0.7779275775
4330.1725524900	0.7748790383
4332.1013598631	0.7712290287
4334.0301672361	0.7735526562
4335.9589746092	0.7748798132
4337.8877819822	0.7681264281
4339.8165893553	0.7722199559
4341.7453967283	0.7730983496
4343.6742041014	0.7728246450
4345.6030114744	0.7763951421
4347.5318188475	0.7760972381
4349.4606262205	0.7763643861
4351.3894335936	0.7707312107
4353.3182409666	0.7724637985
4355.2470483397	0.7721357942
4357.1758557127	0.7685903311
4359.1046630858	0.7741578221
4361.0334704588	0.7808930278
4362.9622778318	0.7768515348
4364.8910852049	0.7637528181
4366.8198925779	0.7654742002
4368.7486999510	0.7706541419
4370.6775073240	0.7676320672
4372.6063146971	0.7676457167
4374.5351220701	0.7719957829
4376.4639294432	0.7665104866
4378.3927368162	0.7626981139
4380.3215441893	0.7745580673
4382.2503515623	0.7660326362
4384.1791589354	0.7605050206
4386.1079663084	0.7756722569
4388.0367736815	0.7712733150
4389.9655810545	0.7659279704
4391.8943884275	0.7717860341
4393.8231958006	0.7691302299
4395.7520031736	0.7750811577
4397.6808105467	0.7748297453
4399.6096179197	0.7630255818
4401.5384252928	0.7743210196
4403.4672326658	0.7721721530
4405.3960400389	0.7656943202
4407.3248474119	0.7706671953
4409.2536547850	0.7621725798
4411.1824621580	0.7696776390
4413.1112695311	0.7702046633
4415.0400769041	0.7625538111
4416.9688842772	0.7693150043
4418.8976916502	0.7725130916
4420.8264990232	0.7694124579
4422.7553063963	0.7619659305
4424.6841137693	0.7696951032
4426.6129211424	0.7752242684
4428.5417285154	0.7644494772
4430.4705358885	0.7583067417
4432.3993432615	0.7657884359
4434.3281506346	0.7705826759
4436.2569580076	0.7605695724
4438.1857653807	0.7618646622
4440.1145727537	0.7646886110
4442.0433801268	0.7695326805
4443.9721874998	0.7654967904
4445.9009948729	0.7530584931
4447.8298022459	0.7724854946
4449.7586096189	0.7707844973
4451.6874169920	0.7598322034
4453.6162243650	0.7740669847
4455.5450317381	0.7649016380
4457.4738391111	0.7626535296
4459.4026464842	0.7744083405
4461.3314538572	0.7676929235
4463.2602612303	0.7654754519
4465.1890686033	0.7703375816
4467.1178759764	0.7697907090
4469.0466833494	0.7673366666
4470.9754907225	0.7609931231
4472.9042980955	0.7646325827
4474.8331054686	0.7736781240
4476.7619128416	0.7657746673
4478.6907202147	0.7691529989
4480.6195275877	0.7733394504
4482.5483349607	0.7628872395
4484.4771423338	0.7673025131
4486.4059497068	0.7692752481
4488.3347570799	0.7710997462
4490.2635644529	0.7738988996
4492.1923718260	0.7671762109
4494.1211791990	0.7693257332
4496.0499865721	0.7697639465
4497.9787939451	0.7672995925
4499.9076013182	0.7681093216
4501.8364086912	0.7620618343
4503.7652160643	0.7616546154
4505.6940234373	0.7667452097
4507.6228308104	0.7577559352
4509.5516381834	0.7618995905
4511.4804455564	0.7660791278
4513.4092529295	0.7536420226
4515.3380603025	0.7685783505
4517.2668676756	0.7705122232
4519.1956750486	0.7598969340
4521.1244824217	0.7675075531
4523.0532897947	0.7649590373
4524.9820971678	0.7648208141
4526.9109045408	0.7629621029
4528.8397119139	0.7697743773
4530.7685192869	0.7776323557
4532.6973266600	0.7669496536
4534.6261340330	0.7641340494
4536.5549414061	0.7709818482
4538.4837487791	0.7726083994
4540.4125561521	0.7596781254
4542.3413635252	0.7569959164
4544.2701708982	0.7658475041
4546.1989782713	0.7689477205
4548.1277856443	0.7695068121
4550.0565930174	0.7708284259
4551.9854003904	0.7715307474
4553.9142077635	0.7640513778
4555.8430151365	0.7650452256
4557.7718225096	0.7675129175
4559.7006298826	0.7591513395
4561.6294372557	0.7504838109
4563.5582446287	0.7600544691
4565.4870520018	0.7711542845
4567.4158593748	0.7651436925
4569.3446667478	0.7654339075
4571.2734741209	0.7586742043
4573.2022814939	0.7637373209
4575.1310888670	0.7676224709
4577.0598962400	0.7566571236
4578.9887036131	0.7644885182
4580.9175109861	0.7651067376
4582.8463183592	0.7681389451
4584.7751257322	0.7650105953
4586.7039331053	0.7521714568
4588.6327404783	0.7563742995
4590.5615478514	0.7619565725
4592.4903552244	0.7621469498
4594.4191625975	0.7585916519
4596.3479699705	0.7591871619
4598.2767773435	0.7594567537
4600.2055847166	0.7614165545
4602.1343920896	0.7652467489
4604.0631994627	0.7710169554
4605.9920068357	0.7689872384
4607.9208142088	0.7638124228
4609.8496215818	0.7690690756
4611.7784289549	0.7616677880
4613.7072363279	0.7646511197
4615.6360437010	0.7638669610
4617.5648510740	0.7555478811
4619.4936584471	0.7646816373
4621.4224658201	0.7688791156
4623.3512731932	0.7656703591
4625.2800805662	0.7527717352
4627.2088879393	0.7560883164
4629.1376953123	0.7595077157
4631.0665026853	0.7578185797
4632.9953100584	0.7649642825
4634.9241174314	0.7585190535
4636.8529248045	0.7605636120
4638.7817321775	0.7612023950
4640.7105395506	0.7612672448
4642.6393469236	0.7582650781
4644.5681542967	0.7619230151
4646.4969616697	0.7740614414
4648.4257690428	0.7641029358
4650.3545764158	0.7670049071
4652.2833837889	0.7661170363
4654.2121911619	0.7611264586
4656.1409985350	0.7577760816
4658.0698059080	0.7486394644
4659.9986132810	0.7614275217
4661.9274206541	0.7683878541
4663.8562280271	0.7665733099
4665.7850354002	0.7648723722
4667.7138427732	0.7639078498
4669.6426501463	0.7551894784
4671.5714575193	0.7525325418
4673.5002648924	0.7714160681
4675.4290722654	0.7701444030
4677.3578796385	0.7649673223
4679.2866870115	0.7570846677
4681.2154943846	0.7518426776
4683.1443017576	0.7635192275
4685.0731091307	0.7572000027
4687.0019165037	0.7539027929
4688.9307238767	0.7617245913
4690.8595312498	0.7629005909
4692.7883386228	0.7618634701
4694.7171459959	0.7675285339
4696.6459533689	0.7664417624
4698.5747607420	0.7673605680
4700.5035681150	0.7704876661
4702.4323754881	0.7499858737
4704.3611828611	0.7600511909
4706.2899902342	0.7647439837
4708.2187976072	0.7496194839
4710.1476049803	0.7659888864
4712.0764123533	0.7562606931
4714.0052197264	0.7538288236
4715.9340270994	0.7614374757
4717.8628344724	0.7495856285
4719.7916418455	0.7533698678
4721.7204492185	0.7498281598
4723.6492565916	0.7480961084
4725.5780639646	0.7586194873
4727.5068713377	0.7676568031
4729.4356787107	0.7660616636
4731.3644860838	0.7637531757
4733.2932934568	0.7540887594
4735.2221008299	0.7546486259
4737.1509082029	0.7736525536
4739.0797155760	0.7451160550
4741.0085229490	0.7467693090
4742.9373303221	0.7683727741
4744.8661376951	0.7584528923
4746.7949450682	0.7717128396
4748.7237524412	0.7498123646
4750.6525598142	0.7512152791
4752.5813671873	0.7742215395
4754.5101745603	0.7550535202
4756.4389819334	0.7533104420
4758.3677893064	0.7452332377
4760.2965966795	0.7529746890
4762.2254040525	0.7640037537
4764.1542114256	0.7522627711
4766.0830187986	0.7576941252
4768.0118261717	0.7511007786
4769.9406335447	0.7446895838
4771.8694409178	0.7579609156
4773.7982482908	0.7680612803
4775.7270556639	0.7578722835
4777.6558630369	0.7520019412
4779.5846704099	0.7652875185
4781.5134777830	0.7515612245
4783.4422851560	0.7401617169
4785.3710925291	0.7527643442
4787.2998999021	0.7556822896
4789.2287072752	0.7609362006
4791.1575146482	0.7640756369
4793.0863220213	0.7640208602
4795.0151293943	0.7625529766
4796.9439367674	0.7531343699
4798.8727441404	0.7556667328
4800.8015515135	0.7619599104
4802.7303588865	0.7617421746
4804.6591662596	0.7528774738
4806.5879736326	0.7548522353
4808.5167810056	0.7620597482
4810.4455883787	0.7487982512
4812.3743957517	0.7506263256
4814.3032031248	0.7502143979
4816.2320104978	0.7504709363
4818.1608178709	0.7653781176
4820.0896252439	0.7605958581
4822.0184326170	0.7643365264
4823.9472399900	0.7585230470
4825.8760473631	0.7492318749
4827.8048547361	0.7583716512
4829.7336621092	0.7502745390
4831.6624694822	0.7519319057
4833.5912768553	0.7617419362
4835.5200842283	0.7672626972
4837.4488916013	0.7717015147
4839.3776989744	0.7659657598
4841.3065063474	0.7639262676
4843.2353137205	0.7428123355
4845.1641210935	0.7375459671
4847.0929284666	0.7624440789
4849.0217358396	0.7549377084
4850.9505432127	0.7519032955
4852.8793505857	0.7573456168
4854.8081579588	0.7472903728
4856.7369653318	0.7559006810
4858.6657727049	0.7640469074
4860.5945800779	0.7521876693
4862.5233874510	0.7406334281
4864.4521948240	0.7438336015
4866.3810021971	0.7485879660
4868.3098095701	0.7487387657
4870.2386169431	0.7530083060
4872.1674243162	0.7535172701
4874.0962316892	0.7447978258
4876.0250390623	0.7434017062
4877.9538464353	0.7592383623
4879.8826538084	0.7490084171
4881.8114611814	0.7323628068
4883.7402685545	0.7454324961
4885.6690759275	0.7527618408
4887.5978833006	0.7519227862
4889.5266906736	0.7492249608
4891.4554980467	0.7421481609
4893.3843054197	0.7384589314
4895.3131127928	0.7438269258
4897.2419201658	0.7515719533
4899.1707275388	0.7522892356
4901.0995349119	0.7408012152
4903.0283422849	0.7435132265
4904.9571496580	0.7689588666
4906.8859570310	0.7620832324
4908.8147644041	0.7477487922
4910.7435717771	0.7510991096
4912.6723791502	0.7602558136
4914.6011865232	0.7561148405
4916.5299938963	0.7487201691
4918.4588012693	0.7632727027
4920.3876086424	0.7550856471
4922.3164160154	0.7584363222
4924.2452233885	0.7558729053
4926.1740307615	0.7472012639
4928.1028381345	0.7666675448
4930.0316455076	0.7484459877
4931.9604528806	0.7442345023
4933.8892602537	0.7617453933
4935.8180676267	0.7647348046
4937.7468749998	0.7500525117
4939.6756823728	0.7462542057
4941.6044897459	0.7733357549
4943.5332971189	0.7662134171
4945.4621044920	0.7550523877
4947.3909118650	0.7497001290
4949.3197192381	0.7592229843
4951.2485266111	0.7621968389
4953.1773339842	0.7367644310
4955.1061413572	0.7542911768
4957.0349487302	0.7601754069
4958.9637561033	0.7436493039
4960.8925634763	0.7462028265
4962.8213708494	0.7400518656
4964.7501782224	0.7333634496
4966.6789855955	0.7420625687
4968.6077929685	0.7472368479
4970.5366003416	0.7436743975
4972.4654077146	0.7419065833
4974.3942150877	0.7503347993
4976.3230224607	0.7648137212
4978.2518298338	0.7488312125
4980.1806372068	0.7538276315
4982.1094445799	0.7622911334
4984.0382519529	0.7416526675
4985.9670593259	0.7561706305
4987.8958666990	0.7519732714
4989.8246740720	0.7480026484
4991.7534814451	0.7594810724
4993.6822888181	0.7412008643
4995.6110961912	0.7461007833
4997.5399035642	0.7551490068
4999.4687109373	0.7427662015
5001.3975183103	0.7414476871
5003.3263256834	0.7466301322
5005.2551330564	0.7505214810
5007.1839404295	0.7587244511
5009.1127478025	0.7534251809
5011.0415551756	0.7419018149
5012.9703625486	0.7487388253
5014.8991699217	0.7581387758
5016.8279772947	0.7603422403
5018.7567846677	0.7657654881
5020.6855920408	0.7505587339
5022.6143994138	0.7351045609
5024.5432067869	0.7516276240
5026.4720141599	0.7414960265
5028.4008215330	0.7474459410
5030.3296289060	0.7626245618
5032.2584362791	0.7452541590
5034.1872436521	0.7557306290
5036.1160510252	0.7606852651
5038.0448583982	0.7434253097
5039.9736657713	0.7236232758
5041.9024731443	0.7398824096
5043.8312805174	0.7482633591
5045.7600878904	0.7487819791
5047.6888952634	0.7702243924
5049.6177026365	0.7360231280
5051.5465100095	0.7448207140
5053.4753173826	0.7658898234
5055.4041247556	0.7634137273
5057.3329321287	0.7637705207
5059.2617395017	0.7335365415
5061.1905468748	0.7499023080
5063.1193542478	0.7573723793
5065.0481616209	0.7503404617
5066.9769689939	0.7351094484
5068.9057763670	0.7411040068
5070.8345837400	0.7739617229
5072.7633911131	0.7583514452
5074.6921984861	0.7609148026
5076.6210058591	0.7343818545
5078.5498132322	0.7362594604
5080.4786206052	0.7645972371
5082.4074279783	0.7326003313
5084.3362353513	0.7431558967
5086.2650427244	0.7545849681
5088.1938500974	0.7427935004
5090.1226574705	0.7542759180
5092.0514648435	0.7540740967
5093.9802722166	0.7328218818
5095.9090795896	0.7446459532
5097.8378869627	0.7576889992
5099.7666943357	0.7408294678
5101.6955017088	0.7434327602
5103.6243090818	0.7394713759
5105.5531164548	0.7304682136
5107.4819238279	0.7338343263
5109.4107312009	0.7576292157
5111.3395385740	0.7450941801
5113.2683459470	0.7341760993
5115.1971533201	0.7563062310
5117.1259606931	0.7275153995
5119.0547680662	0.7480697036
5120.9835754392	0.7645683885
5122.9123828123	0.7317423820
5124.8411901853	0.7418602109
5126.7699975584	0.7414411902
5128.6988049314	0.7330736518
5130.6276123045	0.7426565886
5132.5564196775	0.7673268318
5134.4852270506	0.7532372475
5136.4140344236	0.7389574051
5138.3428417966	0.7487665415
5140.2716491697	0.7417215109
5142.2004565427	0.7627746463
5144.1292639158	0.7445231080
5146.0580712888	0.7279034257
5147.9868786619	0.7623481750
5149.9156860349	0.7395948768
5151.8444934080	0.7207439542
5153.7733007810	0.7418088317
5155.7021081541	0.7454482913
5157.6309155271	0.7595978379
5159.5597229002	0.7556432486
5161.4885302732	0.7347689271
5163.4173376463	0.7539350986
5165.3461450193	0.7522202730
5167.2749523923	0.7483585477
5169.2037597654	0.7545819879
5171.1325671384	0.7427043319
5173.0613745115	0.7518860698
5174.9901818845	0.7353274822
5176.9189892576	0.7279493809
5178.8477966306	0.7447643876
5180.7766040037	0.7271355987
5182.7054113767	0.7178917527
5184.6342187498	0.7424100041
5186.5630261228	0.7629199624
5188.4918334959	0.7413424850
5190.4206408689	0.7481045723
5192.3494482420	0.7695887089
5194.2782556150	0.7485809922
5196.2070629880	0.7380712628
5198.1358703611	0.7470937371
5200.0646777341	0.7589343786
5201.9934851072	0.7389153242
5203.9222924802	0.7470821142
5205.8510998533	0.7749900818
5207.7799072263	0.7524741888
5209.7087145994	0.7461932898
5211.6375219724	0.7376962304
5213.5663293455	0.7520671487
5215.4951367185	0.7561469674
5217.4239440916	0.7156098485
5219.3527514646	0.7386813760
5221.2815588377	0.7618204355
5223.2103662107	0.7401792407
5225.1391735837	0.7370724082
5227.0679809568	0.7507321239
5228.9967883298	0.7550334930
5230.9255957029	0.7577838302
5232.8544030759	0.7484411001
5234.7832104490	0.7194082141
5236.7120178220	0.7261312008
5238.6408251951	0.7352181673
5240.5696325681	0.7281888127
5242.4984399412	0.7235310674
5244.4272473142	0.7335571647
5246.3560546873	0.7594501972
5248.2848620603	0.7609202266
5250.2136694334	0.7568733096
5252.1424768064	0.7307727337
5254.0712841795	0.7315638661
5256.0000915525	0.7558810711
5257.9288989255	0.7483157516
5259.8577062986	0.7594733834
5261.7865136716	0.7512880564
5263.7153210447	0.7379608750
5265.6441284177	0.7426757216
5267.5729357908	0.7459931970
5269.5017431638	0.7532641888
5271.4305505369	0.7556058168
5273.3593579099	0.7500447631
5275.2881652830	0.7526593804
5277.2169726560	0.7686291337
5279.1457800291	0.7485613227
5281.0745874021	0.7512105107
5283.0033947752	0.7724626064
5284.9322021482	0.7523211241
5286.8610095212	0.7439649701
5288.7898168943	0.7553637028
5290.7186242673	0.7479934096
5292.6474316404	0.7428897619
5294.5762390134	0.7842152715
5296.5050463865	0.7642571926
5298.4338537595	0.7413110137
5300.3626611326	0.7648417354
5302.2914685056	0.7485378981
5304.2202758787	0.7603211999
5306.1490832517	0.7465403676
5308.0778906248	0.7309903502
5310.0066979978	0.7618559003
5311.9355053709	0.7585532069
5313.8643127439	0.7298322916
5315.7931201169	0.7510522008
5317.7219274900	0.7725686431
5319.6507348630	0.7278016210
5321.5795422361	0.7516216040
5323.5083496091	0.7525357604
5325.4371569822	0.7293027639
5327.3659643552	0.7775017023
5329.2947717283	0.7640003562
5331.2235791013	0.7583317161
5333.1523864744	0.7868663669
5335.0811938474	0.7578493357
5337.0100012205	0.7300022840
5338.9388085935	0.7656993270
5340.8676159666	0.7566539645
5342.7964233396	0.7549669743
5344.7252307126	0.7903645635
5346.6540380857	0.7465499043
5348.5828454587	0.7675871849
5350.5116528318	0.7599458098
5352.4404602048	0.7504674792
5354.3692675779	0.7961479425
5356.2980749509	0.7502924204
5358.2268823240	0.7634621263
5360.1556896970	0.7655068636
5362.0844970701	0.7456832528
5364.0133044431	0.7626883984
5365.9421118162	0.7431387305
5367.8709191892	0.7490855455
5369.7997265623	0.7313606739
5371.7285339353	0.7294257283
5373.6573413083	0.7618545890
5375.5861486814	0.7377672195
5377.5149560544	0.7367885113
5379.4437634275	0.7639288306
5381.3725708005	0.7439764738
5383.3013781736	0.7444101572
5385.2301855466	0.7553140521
5387.1589929197	0.7486780882
5389.0878002927	0.7649215460
5391.0166076658	0.7386745214
5392.9454150388	0.7204627991
5394.8742224119	0.7469348311
5396.8030297849	0.7457219362
5398.7318371580	0.7608749866
5400.6606445310	0.7838903666
5402.5894519041	0.7804909945
5404.5182592771	0.7826915979
5406.4470666501	0.7637906075
5408.3758740232	0.7504904270
5410.3046813962	0.7619586587
5412.2334887693	0.7499286532
5414.1622961423	0.7633098960
5416.0911035154	0.7463746071
5418.0199108884	0.7355757356
5419.9487182615	0.7874922156
5421.8775256345	0.7523382306
5423.8063330076	0.7366291285
5425.7351403806	0.7698189616
5427.6639477537	0.7683414817
5429.5927551267	0.7718876600
5431.5215624998	0.7432925701
5433.4503698728	0.7269034982
5435.3791772458	0.7508586645
5437.3079846189	0.7809864283
5439.2367919919	0.7830537558
5441.1655993650	0.7622857690
5443.0944067380	0.7438344955
5445.0232141111	0.7619906068
5446.9520214841	0.7726311684
5448.8808288572	0.7364001274
5450.8096362302	0.7536808848
5452.7384436033	0.7657414079
5454.6672509763	0.7699381113
5456.5960583494	0.7639082670
5458.5248657224	0.7252497673
5460.4536730955	0.7398886681
5462.3824804685	0.7391100526
5464.3112878415	0.7363449931
5466.2400952146	0.7563322186
5468.1689025876	0.7902004123
5470.0977099607	0.7819799781
5472.0265173337	0.7107360363
5473.9553247068	0.7507855296
5475.8841320798	0.7900816202
5477.8129394529	0.7561216354
5479.7417468259	0.7648367286
5481.6705541990	0.7774007320
5483.5993615720	0.7727289200
5485.5281689451	0.7242298126
5487.4569763181	0.7334030867
5489.3857836912	0.7613965869
5491.3145910642	0.7324814200
5493.2433984372	0.7381257415
5495.1722058103	0.7384762764
5497.1010131833	0.7628571987
5499.0298205564	0.7687996030
5500.9586279294	0.7832781076
5502.8874353025	0.8226854801
5504.8162426755	0.7586221099
5506.7450500486	0.7587161660
5508.6738574216	0.7879925966
5510.6026647947	0.7671071887
5512.5314721677	0.7297796607
5514.4602795408	0.7224540710
5516.3890869138	0.7986389399
5518.3178942869	0.7673819065
5520.2467016599	0.7445191145
5522.1755090330	0.7475382686
5524.1043164060	0.7202655673
5526.0331237790	0.7657481432
5527.9619311521	0.7697880864
5529.8907385251	0.7891522050
5531.8195458982	0.7781877518
5533.7483532712	0.7368191481
5535.6771606443	0.7419787645
5537.6059680173	0.7309082747
5539.5347753904	0.7269136310
5541.4635827634	0.7366845608
5543.3923901365	0.7782932520
5545.3211975095	0.7540333271
5547.2500048826	0.7590348721
5549.1788122556	0.8025925159
5551.1076196287	0.7336407304
5553.0364270017	0.7150242925
5554.9652343747	0.7382614017
5556.8940417478	0.7560623884
5558.8228491208	0.7561169863
5560.7516564939	0.7482050657
5562.6804638669	0.7821028233
5564.6092712400	0.7673181295
5566.5380786130	0.7448960543
5568.4668859861	0.7571632266
5570.3956933591	0.7400434017
5572.3245007322	0.7326482534
5574.2533081052	0.7586998940
5576.1821154783	0.7506924868
5578.1109228513	0.7096022367
5580.0397302244	0.6850014329
5581.9685375974	0.7197053432
5583.8973449704	0.7404204011
5585.8261523435	0.7388276458
5587.7549597165	0.7643958330
5589.6837670896	0.7325243950
5591.6125744626	0.7466959953
5593.5413818357	0.7619810700
5595.4701892087	0.7295864224
5597.3989965818	0.7571924925
5599.3278039548	0.7498103976
5601.2566113279	0.7513210177
5603.1854187009	0.7629342079
5605.1142260740	0.7336175442
5607.0430334470	0.7355155945
5608.9718408201	0.7518724799
5610.9006481931	0.7472636700
5612.8294555661	0.7653964758
5614.7582629392	0.7883177996
5616.6870703122	0.7434736490
5618.6158776853	0.7233146429
5620.5446850583	0.7535343170
5622.4734924314	0.7506057024
5624.4022998044	0.7163597345
5626.3311071775	0.7489120364
5628.2599145505	0.7642189860
5630.1887219236	0.7282451987
5632.1175292966	0.7467264533
5634.0463366697	0.7322443724
5635.9751440427	0.7626956105
5637.9039514158	0.7572392821
5639.8327587888	0.7093015909
5641.7615661619	0.7759215832
5643.6903735349	0.7563468218
5645.6191809079	0.7257401943
5647.5479882810	0.7699637413
5649.4767956540	0.7494150996
5651.4056030271	0.7216531634
5653.3344104001	0.7497134805
5655.2632177732	0.7444318533
5657.1920251462	0.7503361702
5659.1208325193	0.7432253957
5661.0496398923	0.6945255995
5662.9784472654	0.7996836901
5664.9072546384	0.7842560410
5666.8360620115	0.7214896083
5668.7648693845	0.7863368392
5670.6936767576	0.7356188297
5672.6224841306	0.7455978990
5674.5512915036	0.7374515533
5676.4800988767	0.7187866569
5678.4089062497	0.7793439031
5680.3377136228	0.7532522678
5682.2665209958	0.7510828972
5684.1953283689	0.7642014027
5686.1241357419	0.7332383990
5688.0529431150	0.7199786901
5689.9817504880	0.7535755038
5691.9105578611	0.7292764187
5693.8393652341	0.7592964172
5695.7681726072	0.7821499705
5697.6969799802	0.7043349147
5699.6257873533	0.7986688018
5701.5545947263	0.7832783461
5703.4834020993	0.6949251294
5705.4122094724	0.7487431169
5707.3410168454	0.7236979604
5709.2698242185	0.7455974817
5711.1986315915	0.7673415542
5713.1274389646	0.7130702734
5715.0562463376	0.7203372717
5716.9850537107	0.7517179251
5718.9138610837	0.7375483513
5720.8426684568	0.7201146483
5722.7714758298	0.7462173104
5724.7002832029	0.7673391700
5726.6290905759	0.7852121592
5728.5578979490	0.7658001184
5730.4867053220	0.7445023060
5732.4155126950	0.7353276610
5734.3443200681	0.7054409981
5736.2731274411	0.7569067478
5738.2019348142	0.7886528373
5740.1307421872	0.7669309974
5742.0595495603	0.7580630779
5743.9883569333	0.7385823727
5745.9171643064	0.7509781122
5747.8459716794	0.7433819771
5749.7747790525	0.7562454939
5751.7035864255	0.7837057114
5753.6323937986	0.7344728112
5755.5612011716	0.7227652073
5757.4900085447	0.7222933769
5759.4188159177	0.7228862047
5761.3476232907	0.7286665440
5763.2764306638	0.7206364870
5765.2052380368	0.7534125447
5767.1340454099	0.7392492294
5769.0628527829	0.7355034947
5770.9916601560	0.7800821662
5772.9204675290	0.7768495083
5774.8492749021	0.7541431785
5776.7780822751	0.7641960979
5778.7068896482	0.7949413657
5780.6356970212	0.7556434870
5782.5645043943	0.7520764470
5784.4933117673	0.7489110827
5786.4221191404	0.7118353248
5788.3509265134	0.7233024240
5790.2797338865	0.7135885358
5792.2085412595	0.7587516308
5794.1373486325	0.7302595377
5796.0661560056	0.7300592065
5797.9949633786	0.8402891159
5799.9237707517	0.7656518817
5801.8525781247	0.7671722174
5803.7813854978	0.7679693103
5805.7101928708	0.7091768980
5807.6390002439	0.7778473496
5809.5678076169	0.7290921211
5811.4966149900	0.7403181195
5813.4254223630	0.7790093422
5815.3542297361	0.7608916759
5817.2830371091	0.7611767650
5819.2118444822	0.6851559281
5821.1406518552	0.7548570633
5823.0694592282	0.7851693034
5824.9982666013	0.7285434604
5826.9270739743	0.7940843105
5828.8558813474	0.7602157593
5830.7846887204	0.7242842913
5832.7134960935	0.7758680582
5834.6423034665	0.7637720108
5836.5711108396	0.7632870078
5838.4999182126	0.8155227304
5840.4287255857	0.7383949161
5842.3575329587	0.6645359397
5844.2863403318	0.6904291511
5846.2151477048	0.7292506695
5848.1439550779	0.7576749325
5850.0727624509	0.7775608301
5852.0015698239	0.8745492697
5853.9303771970	0.7704582214
5855.8591845700	0.6597121358
5857.7879919431	0.7306157947
5859.7167993161	0.7341561913
5861.6456066892	0.8088144064
5863.5744140622	0.7735136747
5865.5032214353	0.7047990561
5867.4320288083	0.7370183468
5869.3608361814	0.7490462065
5871.2896435544	0.7798871994
5873.2184509275	0.7043768764
5875.1472583005	0.7693864703
5877.0760656736	0.7690361738
5879.0048730466	0.7082544565
5880.9336804196	0.8085033894
5882.8624877927	0.7800028920
5884.7912951657	0.7484125495
5886.7201025388	0.7135261893
5888.6489099118	0.7617883682
5890.5777172849	0.7467721105
5892.5065246579	0.6686717868
5894.4353320310	0.8028642535
5896.3641394040	0.8204407096
5898.2929467771	0.7826954722
5900.2217541501	0.7332327962
5902.1505615232	0.7267975807
5904.0793688962	0.8021762371
5906.0081762693	0.7067474723
5907.9369836423	0.7263998985
5909.8657910154	0.7720940113
5911.7945983884	0.7410746813
5913.7234057614	0.7788804770
5915.6522131345	0.8091041446
5917.5810205075	0.7804186940
5919.5098278806	0.6887753606
5921.4386352536	0.7285933495
5923.3674426267	0.7606684566
5925.2962499997	0.7000441551
5927.2250573728	0.7785279751
5929.1538647458	0.7478400469
5931.0826721189	0.6775029898
5933.0114794919	0.7339892387
5934.9402868650	0.7247065902
5936.8690942380	0.7390264869
5938.7979016111	0.7672712803
5940.7267089841	0.7599738836
5942.6555163571	0.7724804878
5944.5843237302	0.7449714541
5946.5131311032	0.7628688216
5948.4419384763	0.7381179929
5950.3707458493	0.7217143774
5952.2995532224	0.7460621595
5954.2283605954	0.6614944339
5956.1571679685	0.6901125908
5958.0859753415	0.7481113672
5960.0147827146	0.7560428977
5961.9435900876	0.8517653942
5963.8723974607	0.7848228216
5965.8012048337	0.7298407555
5967.7300122068	0.8077415824
5969.6588195798	0.7778287530
5971.5876269528	0.7789637446
5973.5164343259	0.7982726097
5975.4452416989	0.7580276132
5977.3740490720	0.7666936517
5979.3028564450	0.7531067729
5981.2316638181	0.7136517763
5983.1604711911	0.7199224830
5985.0892785642	0.7322218418
5987.0180859372	0.7183398604
5988.9468933103	0.6875361204
5990.8757006833	0.6853061914
5992.8045080564	0.7136051655
5994.7333154294	0.7086753249
5996.6621228025	0.7824149132
5998.5909301755	0.8063320518
6000.5197375485	0.7329304814
