399.26312622,0.00022974
401.19193359,0.00014824
403.12074097,-0.00012340
405.04954834,-0.00000382
406.97835571,0.00024718
408.90716309,0.00016936
410.83597046,0.00002777
412.76477783,0.00015322
414.69358521,0.00018351
416.62239258,0.00007592
418.55119995,0.00024165
420.48000732,0.00031835
422.40881470,0.00021114
424.33762207,0.00013561
426.26642944,0.00010724
428.19523682,0.00015770
430.12404419,-0.00019268
432.05285156,-0.00011457
433.98165894,0.00035880
435.91046631,0.00016127
437.83927368,0.00031916
439.76808105,0.00025892
441.69688843,0.00006956
443.62569580,0.00053595
445.55450317,0.00032373
447.48331055,-0.00002434
449.41211792,0.00040318
451.34092529,0.00018981
453.26973267,0.00004327
455.19854004,0.00024974
457.12734741,0.00011698
459.05615479,-0.00000844
460.98496216,0.00000342
462.91376953,0.00037808
464.84257690,-0.00000604
466.77138428,0.00024914
468.70019165,0.00009884
470.62899902,-0.00028357
472.55780640,0.00033731
474.48661377,-0.00002428
476.41542114,0.00019816
478.34422852,0.00047387
480.27303589,0.00013044
482.20184326,0.00003734
484.13065063,0.00036601
486.05945801,0.00026681
487.98826538,-0.00006769
489.91707275,0.00019083
491.84588013,0.00028332
493.77468750,0.00037970
495.70349487,0.00047845
497.63230225,0.00039361
499.56110962,0.00023591
501.48991699,0.00022102
503.41872437,0.00035115
505.34753174,0.00003733
507.27633911,0.00007502
509.20514648,0.00033883
511.13395386,0.00001536
513.06276123,-0.00008716
514.99156860,0.00011883
516.92037598,0.00002847
518.84918335,0.00000029
520.77799072,0.00010632
522.70679810,-0.00004473
524.63560547,0.00008265
526.56441284,0.00017791
528.49322021,0.00025876
530.42202759,0.00045869
532.35083496,0.00019199
534.27964233,0.00007360
536.20844971,0.00011525
538.13725708,0.00018563
540.06606445,0.00004486
541.99487183,0.00027537
543.92367920,0.00004458
545.85248657,0.00006057
547.78129395,0.00023812
549.71010132,0.00008236
551.63890869,0.00003120
553.56771606,0.00007669
555.49652344,0.00030801
557.42533081,0.00013341
559.35413818,0.00015986
561.28294556,0.00027291
563.21175293,0.00021804
565.14056030,0.00006810
567.06936768,-0.00008527
568.99817505,0.00022725
570.92698242,0.00025672
572.85578979,0.00037857
574.78459717,0.00018486
576.71340454,0.00018194
578.64221191,0.00044875
580.57101929,0.00001349
582.49982666,0.00023098
584.42863403,0.00029619
586.35744141,0.00022753
588.28624878,0.00038595
590.21505615,0.00028544
592.14386353,0.00031692
594.07267090,0.00018554
596.00147827,0.00025845
597.93028564,0.00022118
599.85909302,0.00017876
601.78790039,0.00022238
603.71670776,0.00022384
605.64551514,0.00019631
607.57432251,-0.00006430
609.50312988,0.00015661
611.43193726,0.00027103
613.36074463,0.00030148
615.28955200,0.00029535
617.21835938,0.00013955
619.14716675,0.00030216
621.07597412,0.00007844
623.00478149,0.00016235
624.93358887,0.00012459
626.86239624,-0.00013542
628.79120361,0.00009421
630.72001099,0.00014505
632.64881836,0.00014173
634.57762573,-0.00002817
636.50643311,0.00013850
638.43524048,0.00015953
640.36404785,0.00008223
642.29285522,0.00017270
644.22166260,0.00016749
646.15046997,0.00014569
648.07927734,0.00002049
650.00808472,0.00037063
651.93689209,0.00045148
653.86569946,0.00045651
655.79450684,0.00035291
657.72331421,0.00008526
659.65212158,0.00039352
661.58092896,0.00022371
663.50973633,0.00006932
665.43854370,0.00013067
667.36735107,0.00011661
669.29615845,-0.00000494
671.22496582,-0.00005003
673.15377319,0.00016721
675.08258057,-0.00009499
677.01138794,0.00016441
678.94019531,0.00036017
680.86900269,0.00020848
682.79781006,0.00042620
684.72661743,0.00030696
686.65542480,0.00039490
688.58423218,0.00038435
690.51303955,0.00025869
692.44184692,0.00025907
694.37065430,0.00012637
696.29946167,0.00012249
698.22826904,0.00012013
700.15707642,0.00024120
702.08588379,0.00047199
704.01469116,0.00058079
705.94349854,0.00034366
707.87230591,0.00047706
709.80111328,0.00040992
711.72992065,-0.00008868
713.65872803,0.00026940
715.58753540,0.00045612
717.51634277,0.00023615
719.44515015,0.00011235
721.37395752,0.00016098
723.30276489,0.00012882
725.23157227,-0.00018792
727.16037964,0.00006816
729.08918701,0.00011808
731.01799438,-0.00010943
732.94680176,0.00021646
734.87560913,0.00033429
736.80441650,-0.00002075
738.73322388,0.00003835
740.66203125,0.00041405
742.59083862,0.00030295
744.51964600,0.00007402
746.44845337,0.00017796
748.37726074,0.00024260
750.30606812,0.00023505
752.23487549,0.00024686
754.16368286,0.00012323
756.09249023,0.00017141
758.02129761,0.00014605
759.95010498,0.00001628
761.87891235,0.00010005
763.80771973,0.00021242
765.73652710,0.00033017
767.66533447,0.00020192
769.59414185,0.00020518
771.52294922,0.00017858
773.45175659,0.00018798
775.38056396,0.00039605
777.30937134,0.00023058
779.23817871,0.00031123
781.16698608,0.00013879
783.09579346,-0.00002612
785.02460083,0.00016431
786.95340820,0.00008962
788.88221558,0.00024136
790.81102295,0.00014647
792.73983032,0.00014297
794.66863770,0.00003219
796.59744507,-0.00011627
798.52625244,0.00029375
800.45505981,0.00008793
802.38386719,0.00007322
804.31267456,0.00022268
806.24148193,0.00011836
808.17028931,0.00043956
810.09909668,0.00027256
812.02790405,0.00030629
813.95671143,0.00054330
815.88551880,0.00018772
817.81432617,0.00017698
819.74313354,0.00005587
821.67194092,-0.00001707
823.60074829,0.00055250
825.52955566,0.00043727
827.45836304,0.00009738
829.38717041,0.00033594
831.31597778,0.00032795
833.24478516,0.00039953
835.17359253,0.00043932
837.10239990,0.00028800
839.03120728,0.00036630
840.96001465,0.00031321
842.88882202,0.00035833
844.81762939,0.00032789
846.74643677,0.00026565
848.67524414,0.00022564
850.60405151,0.00011528
852.53285889,0.00041047
854.46166626,0.00053926
856.39047363,0.00011001
858.31928101,-0.00012425
860.24808838,0.00024551
862.17689575,0.00022909
864.10570313,0.00015040
866.03451050,0.00032349
867.96331787,0.00020712
869.89212524,0.00037189
871.82093262,0.00020989
873.74973999,0.00004833
875.67854736,0.00024737
877.60735474,0.00034731
879.53616211,0.00048478
881.46496948,0.00021935
883.39377686,0.00021333
885.32258423,0.00052599
887.25139160,0.00066377
889.18019897,0.00046019
891.10900635,0.00017693
893.03781372,0.00040878
894.96662109,0.00042545
896.89542847,0.00036946
898.82423584,0.00037550
900.75304321,0.00041886
902.68185059,0.00049974
904.61065796,0.00025174
906.53946533,0.00032884
908.46827271,0.00034187
910.39708008,0.00022814
912.32588745,0.00043886
914.25469482,0.00036180
916.18350220,0.00010601
918.11230957,0.00016518
920.04111694,0.00019105
921.96992432,0.00009449
923.89873169,0.00024802
925.82753906,0.00028096
927.75634644,0.00035227
929.68515381,0.00039931
931.61396118,0.00027594
933.54276855,0.00036299
935.47157593,0.00036806
937.40038330,0.00051584
939.32919067,0.00042515
941.25799805,0.00024314
943.18680542,0.00031949
945.11561279,0.00026565
947.04442017,0.00063033
948.97322754,0.00055232
950.90203491,0.00021105
952.83084229,0.00040218
954.75964966,0.00028812
956.68845703,0.00036698
958.61726440,0.00058621
960.54607178,0.00060173
962.47487915,0.00059296
964.40368652,0.00040089
966.33249390,0.00042462
968.26130127,0.00047033
970.19010864,0.00032156
972.11891602,0.00032480
974.04772339,0.00043868
975.97653076,0.00051569
977.90533813,0.00067955
979.83414551,0.00060922
981.76295288,0.00033616
983.69176025,0.00045628
985.62056763,0.00057655
987.54937500,0.00062634
989.47818237,0.00084097
991.40698975,0.00089397
993.33579712,0.00084532
995.26460449,0.00100518
997.19341187,0.00111466
999.12221924,0.00102959
1001.05102661,0.00107400
1002.97983398,0.00105503
1004.90864136,0.00107461
1006.83744873,0.00122147
1008.76625610,0.00137452
1010.69506348,0.00141970
1012.62387085,0.00136599
1014.55267822,0.00150753
1016.48148560,0.00151149
1018.41029297,0.00154272
1020.33910034,0.00169905
1022.26790771,0.00172117
1024.19671509,0.00157911
1026.12552246,0.00156644
1028.05432983,0.00176790
1029.98313721,0.00178167
1031.91194458,0.00203885
1033.84075195,0.00207859
1035.76955933,0.00198623
1037.69836670,0.00215953
1039.62717407,0.00203336
1041.55598145,0.00203440
1043.48478882,0.00209932
1045.41359619,0.00211691
1047.34240356,0.00200632
1049.27121094,0.00199768
1051.20001831,0.00201937
1053.12882568,0.00188820
1055.05763306,0.00194994
1056.98644043,0.00187996
1058.91524780,0.00199381
1060.84405518,0.00169669
1062.77286255,0.00163297
1064.70166992,0.00183550
1066.63047729,0.00148540
1068.55928467,0.00178272
1070.48809204,0.00161165
1072.41689941,0.00145528
1074.34570679,0.00149990
1076.27451416,0.00128122
1078.20332153,0.00155863
1080.13212891,0.00124314
1082.06093628,0.00128812
1083.98974365,0.00129763
1085.91855103,0.00099866
1087.84735840,0.00106627
1089.77616577,0.00095257
1091.70497314,0.00117371
1093.63378052,0.00103380
1095.56258789,0.00097381
1097.49139526,0.00106898
1099.42020264,0.00090791
1101.34901001,0.00088024
1103.27781738,0.00095314
1105.20662476,0.00107998
1107.13543213,0.00068884
1109.06423950,0.00080699
1110.99304687,0.00097303
1112.92185425,0.00088608
1114.85066162,0.00105298
1116.77946899,0.00088894
1118.70827637,0.00102164
1120.63708374,0.00093796
1122.56589111,0.00097599
1124.49469849,0.00097943
1126.42350586,0.00086892
1128.35231323,0.00125991
1130.28112061,0.00106898
1132.20992798,0.00107047
1134.13873535,0.00105954
1136.06754272,0.00097526
1137.99635010,0.00125040
1139.92515747,0.00112400
1141.85396484,0.00129596
1143.78277222,0.00145277
1145.71157959,0.00131882
1147.64038696,0.00136759
1149.56919434,0.00148481
1151.49800171,0.00145788
1153.42680908,0.00143494
1155.35561646,0.00165529
1157.28442383,0.00166521
1159.21323120,0.00168882
1161.14203857,0.00164457
1163.07084595,0.00154348
1164.99965332,0.00189211
1166.92846069,0.00200983
1168.85726807,0.00189618
1170.78607544,0.00202016
1172.71488281,0.00219401
1174.64369019,0.00227107
1176.57249756,0.00225305
1178.50130493,0.00232770
1180.43011230,0.00223482
1182.35891968,0.00218477
1184.28772705,0.00252028
1186.21653442,0.00265205
1188.14534180,0.00286781
1190.07414917,0.00301125
1192.00295654,0.00280507
1193.93176392,0.00310588
1195.86057129,0.00337183
1197.78937866,0.00324575
1199.71818604,0.00333724
1201.64699341,0.00367727
1203.57580078,0.00385094
1205.50460815,0.00383395
1207.43341553,0.00406458
1209.36222290,0.00409907
1211.29103027,0.00416236
1213.21983765,0.00455969
1215.14864502,0.00461155
1217.07745239,0.00460664
1219.00625977,0.00473426
1220.93506714,0.00478992
1222.86387451,0.00486088
1224.79268188,0.00480293
1226.72148926,0.00474159
1228.65029663,0.00491194
1230.57910400,0.00503612
1232.50791138,0.00499633
1234.43671875,0.00492939
1236.36552612,0.00496072
1238.29433350,0.00509116
1240.22314087,0.00502350
1242.15194824,0.00493173
1244.08075562,0.00503001
1246.00956299,0.00508119
1247.93837036,0.00482294
1249.86717773,0.00465285
1251.79598511,0.00486942
1253.72479248,0.00476274
1255.65359985,0.00460494
1257.58240723,0.00468095
1259.51121460,0.00458291
1261.44002197,0.00462689
1263.36882935,0.00472046
1265.29763672,0.00458567
1267.22644409,0.00448971
1269.15525146,0.00448428
1271.08405884,0.00442031
1273.01286621,0.00437223
1274.94167358,0.00422660
1276.87048096,0.00415890
1278.79928833,0.00414318
1280.72809570,0.00396381
1282.65690308,0.00397971
1284.58571045,0.00389337
1286.51451782,0.00395319
1288.44332520,0.00395235
1290.37213257,0.00357815
1292.30093994,0.00365901
1294.22974731,0.00362258
1296.15855469,0.00363100
1298.08736206,0.00371314
1300.01616943,0.00356743
1301.94497681,0.00380116
1303.87378418,0.00370290
1305.80259155,0.00368697
1307.73139893,0.00388944
1309.66020630,0.00372729
1311.58901367,0.00390875
1313.51782104,0.00409642
1315.44662842,0.00407999
1317.37543579,0.00411027
1319.30424316,0.00423689
1321.23305054,0.00447475
1323.16185791,0.00446195
1325.09066528,0.00458323
1327.01947266,0.00481059
1328.94828003,0.00476103
1330.87708740,0.00489168
1332.80589478,0.00505455
1334.73470215,0.00512530
1336.66350952,0.00531125
1338.59231689,0.00524612
1340.52112427,0.00521010
1342.44993164,0.00534529
1344.37873901,0.00531071
1346.30754639,0.00542498
1348.23635376,0.00538357
1350.16516113,0.00532373
1352.09396851,0.00547374
1354.02277588,0.00517216
1355.95158325,0.00519729
1357.88039062,0.00533308
1359.80919800,0.00508459
1361.73800537,0.00511211
1363.66681274,0.00497585
1365.59562012,0.00511465
1367.52442749,0.00519441
1369.45323486,0.00492126
1371.38204224,0.00501753
1373.31084961,0.00484493
1375.23965698,0.00484598
1377.16846436,0.00503215
1379.09727173,0.00489464
1381.02607910,0.00479084
1382.95488647,0.00487451
1384.88369385,0.00495431
1386.81250122,0.00465482
1388.74130859,0.00483252
1390.67011597,0.00525133
1392.59892334,0.00503687
1394.52773071,0.00486241
1396.45653809,0.00498437
1398.38534546,0.00493837
1400.31415283,0.00497591
1402.24296021,0.00519132
1404.17176758,0.00503955
1406.10057495,0.00516719
1408.02938232,0.00527355
1409.95818970,0.00527357
1411.88699707,0.00525666
1413.81580444,0.00490789
1415.74461182,0.00515746
1417.67341919,0.00469967
1419.60222656,0.00431910
1421.53103394,0.00485857
1423.45984131,0.00460624
1425.38864868,0.00445673
1427.31745605,0.00449983
1429.24626343,0.00440151
1431.17507080,0.00421353
1433.10387817,0.00423790
1435.03268555,0.00407902
1436.96149292,0.00353899
1438.89030029,0.00393573
1440.81910767,0.00387439
1442.74791504,0.00355925
1444.67672241,0.00382272
1446.60552979,0.00361066
1448.53433716,0.00355622
1450.46314453,0.00365283
1452.39195190,0.00383497
1454.32075928,0.00398735
1456.24956665,0.00337004
1458.17837402,0.00326601
1460.10718140,0.00424724
1462.03598877,0.00462153
1463.96479614,0.00460507
1465.89360352,0.00487222
1467.82241089,0.00536789
1469.75121826,0.00560286
1471.68002563,0.00506774
1473.60883301,0.00536874
1475.53764038,0.00596663
1477.46644775,0.00644334
1479.39525513,0.00699481
1481.32406250,0.00698663
1483.25286987,0.00750904
1485.18167725,0.00761043
1487.11048462,0.00752990
1489.03929199,0.00745046
1490.96809937,0.00743076
1492.89690674,0.00873477
1494.82571411,0.00849751
1496.75452148,0.00769960
1498.68332886,0.00856235
1500.61213623,0.00889310
1502.54094360,0.00947243
1504.46975098,0.00885964
1506.39855835,0.00677320
1508.32736572,0.00811854
1510.25617310,0.00934199
1512.18498047,0.00895377
1514.11378784,0.00959472
1516.04259521,0.00874323
1517.97140259,0.00900218
1519.90020996,0.00865633
1521.82901733,0.00764360
1523.75782471,0.00932847
1525.68663208,0.00917261
1527.61543945,0.00911396
1529.54424683,0.00990041
1531.47305420,0.00958022
1533.40186157,0.00888347
1535.33066895,0.00921112
1537.25947632,0.00977119
1539.18828369,0.00725758
1541.11709106,0.00750958
1543.04589844,0.00868270
1544.97470581,0.00848535
1546.90351318,0.00993906
1548.83232056,0.00920741
1550.76112793,0.00957536
1552.68993530,0.00937332
1554.61874268,0.00845144
1556.54755005,0.00904079
1558.47635742,0.00663914
1560.40516479,0.00710232
1562.33397217,0.00966414
1564.26277954,0.00920803
1566.19158691,0.00934604
1568.12039429,0.00907941
1570.04920166,0.00831272
1571.97800903,0.00966455
1573.90681641,0.00954344
1575.83562378,0.00762046
1577.76443115,0.00844594
1579.69323853,0.00929855
1581.62204590,0.00901072
1583.55085327,0.00926918
1585.47966064,0.00906731
1587.40846802,0.00902971
1589.33727539,0.00884703
1591.26608276,0.00875706
1593.19489014,0.00880239
1595.12369751,0.00867208
1597.05250488,0.00866144
1598.98131226,0.00864655
1600.91011963,0.00865469
1602.83892700,0.00842845
1604.76773437,0.00849096
1606.69654175,0.00837893
1608.62534912,0.00834443
1610.55415649,0.00836293
1612.48296387,0.00851581
1614.41177124,0.00831919
1616.34057861,0.00687992
1618.26938599,0.00768747
1620.19819336,0.00878475
1622.12700073,0.00794371
1624.05580811,0.00801282
1625.98461548,0.00834619
1627.91342285,0.00823941
1629.84223022,0.00822536
1631.77103760,0.00901958
1633.69984497,0.00833359
1635.62865234,0.00695760
1637.55745972,0.00825774
1639.48626709,0.00903780
1641.41507446,0.00876639
1643.34388184,0.00912749
1645.27268921,0.00855663
1647.20149658,0.00771285
1649.13030396,0.00934936
1651.05911133,0.00902184
1652.98791870,0.00615322
1654.91672607,0.00827596
1656.84553345,0.01028716
1658.77434082,0.00996018
1660.70314819,0.01039363
1662.63195557,0.00934506
1664.56076294,0.01004768
1666.48957031,0.01090987
1668.41837769,0.00959548
1670.34718506,0.00963296
1672.27599243,0.01077332
1674.20479980,0.01019664
1676.13360718,0.00989251
1678.06241455,0.01131698
1679.99122192,0.01108501
1681.92002930,0.01104221
1683.84883667,0.00940852
1685.77764404,0.00927845
1687.70645142,0.01262402
1689.63525879,0.01116268
1691.56406616,0.01215297
1693.49287354,0.01256084
1695.42168091,0.00943582
1697.35048828,0.01169042
1699.27929565,0.01038005
1701.20810303,0.00968805
1703.13691040,0.01311365
1705.06571777,0.01204444
1706.99452515,0.01212937
1708.92333252,0.01314018
1710.85213989,0.01296343
1712.78094727,0.01334968
1714.70975464,0.01255904
1716.63856201,0.01131309
1718.56736938,0.01123370
1720.49617676,0.01338053
1722.42498413,0.01374755
1724.35379150,0.01301049
1726.28259888,0.01425248
1728.21140625,0.01325768
1730.14021362,0.01340327
1732.06902100,0.01312258
1733.99782837,0.01026811
1735.92663574,0.01267361
1737.85544312,0.01395497
1739.78425049,0.01244615
1741.71305786,0.01355053
1743.64186523,0.01372224
1745.57067261,0.01395384
1747.49947998,0.01409589
1749.42828735,0.01329721
1751.35709473,0.01295126
1753.28590210,0.01443519
1755.21470947,0.01505862
1757.14351685,0.01393460
1759.07232422,0.01514637
1761.00113159,0.01405299
1762.92993896,0.01391308
1764.85874634,0.01589970
1766.78755371,0.01426423
1768.71636108,0.01449684
1770.64516846,0.01432579
1772.57397583,0.01313305
1774.50278320,0.01463467
1776.43159058,0.01535017
1778.36039795,0.01494765
1780.28920532,0.01470722
1782.21801270,0.01509795
1784.14682007,0.01495236
1786.07562744,0.01494629
1788.00443481,0.01577450
1789.93324219,0.01492015
1791.86204956,0.01362039
1793.79085693,0.01449768
1795.71966431,0.01542528
1797.64847168,0.01511545
1799.57727905,0.01500617
1801.50608643,0.01470560
1803.43489380,0.01513566
1805.36370117,0.01544340
1807.29250854,0.01527016
1809.22131592,0.01532484
1811.15012329,0.01494195
1813.07893066,0.01552225
1815.00773804,0.01549900
1816.93654541,0.01538662
1818.86535278,0.01538642
1820.79416016,0.01531239
1822.72296753,0.01573238
1824.65177490,0.01473736
1826.58058228,0.01523685
1828.50938965,0.01511016
1830.43819702,0.01440980
1832.36700439,0.01553921
1834.29581177,0.01527437
1836.22461914,0.01547199
1838.15342651,0.01526233
1840.08223389,0.01538857
1842.01104126,0.01552469
1843.93984863,0.01385114
1845.86865601,0.01476014
1847.79746338,0.01550105
1849.72627075,0.01506355
1851.65507812,0.01549164
1853.58388550,0.01524715
1855.51269287,0.01527797
1857.44150024,0.01532385
1859.37030762,0.01526860
1861.29911499,0.01530096
1863.22792236,0.01517584
1865.15672974,0.01527118
1867.08553711,0.01479750
1869.01434448,0.01416457
1870.94315186,0.01455574
1872.87195923,0.01509677
1874.80076660,0.01502082
1876.72957397,0.01514525
1878.65838135,0.01505759
1880.58718872,0.01493020
1882.51599609,0.01517342
1884.44480347,0.01491435
1886.37361084,0.01501912
1888.30241821,0.01482062
1890.23122559,0.01438454
1892.16003296,0.01498365
1894.08884033,0.01481337
1896.01764771,0.01464901
1897.94645508,0.01486194
1899.87526245,0.01467417
1901.80406982,0.01488605
1903.73287720,0.01466236
1905.66168457,0.01458459
1907.59049194,0.01463945
1909.51929932,0.01452621
1911.44810669,0.01451504
1913.37691406,0.01453125
1915.30572144,0.01478033
1917.23452881,0.01403395
1919.16333618,0.01405602
1921.09214355,0.01453384
1923.02095093,0.01408681
1924.94975830,0.01447358
1926.87856567,0.01447018
1928.80737305,0.01443329
1930.73618042,0.01452431
1932.66498779,0.01423385
1934.59379517,0.01437013
1936.52260254,0.01427012
1938.45140991,0.01445799
1940.38021729,0.01432448
1942.30902466,0.01384007
1944.23783203,0.01406596
1946.16663940,0.01419762
1948.09544678,0.01421494
1950.02425415,0.01428501
1951.95306152,0.01413455
1953.88186890,0.01412379
1955.81067627,0.01421179
1957.73948364,0.01407035
1959.66829102,0.01406769
1961.59709839,0.01401973
1963.52590576,0.01405625
1965.45471313,0.01402667
1967.38352051,0.01366918
1969.31232788,0.01384572
1971.24113525,0.01387400
1973.16994263,0.01385024
1975.09875000,0.01400559
1977.02755737,0.01373522
1978.95636475,0.01371078
1980.88517212,0.01376469
1982.81397949,0.01377722
1984.74278687,0.01374240
1986.67159424,0.01362523
1988.60040161,0.01377095
1990.52920898,0.01363869
1992.45801636,0.01339660
1994.38682373,0.01361440
1996.31563110,0.01360019
1998.24443848,0.01342570
2000.17324585,0.01352834
2002.10205322,0.01338199
2004.03086060,0.01332591
2005.95966797,0.01336174
2007.88847534,0.01333785
2009.81728271,0.01338557
2011.74609009,0.01327172
2013.67489746,0.01329065
2015.60370483,0.01310169
2017.53251221,0.01294787
2019.46131958,0.01313341
2021.39012695,0.01310460
2023.31893433,0.01304866
2025.24774170,0.01303481
2027.17654907,0.01286740
2029.10535645,0.01282112
2031.03416382,0.01294212
2032.96297119,0.01279406
2034.89177856,0.01278692
2036.82058594,0.01272085
2038.74939331,0.01253533
2040.67820068,0.01278375
2042.60700806,0.01275889
2044.53581543,0.01266192
2046.46462280,0.01258959
2048.39343018,0.01251127
2050.32223755,0.01264570
2052.25104492,0.01266216
2054.17985229,0.01269275
2056.10865967,0.01262956
2058.03746704,0.01249405
2059.96627441,0.01235342
2061.89508179,0.01246175
2063.82388916,0.01244167
2065.75269653,0.01229105
2067.68150391,0.01244646
2069.61031128,0.01228172
2071.53911865,0.01230703
2073.46792603,0.01226489
2075.39673340,0.01208890
2077.32554077,0.01224631
2079.25434814,0.01210584
2081.18315552,0.01216482
2083.11196289,0.01222945
2085.04077026,0.01206056
2086.96957764,0.01208967
2088.89838501,0.01204734
2090.82719238,0.01205132
2092.75599976,0.01211256
2094.68480713,0.01194032
2096.61361450,0.01192951
2098.54242187,0.01205014
2100.47122925,0.01192383
2102.40003662,0.01197196
2104.32884399,0.01186946
2106.25765137,0.01184648
2108.18645874,0.01212374
2110.11526611,0.01200966
2112.04407349,0.01185386
2113.97288086,0.01166267
2115.90168823,0.01169661
2117.83049561,0.01185684
2119.75930298,0.01180719
2121.68811035,0.01186228
2123.61691772,0.01178167
2125.54572510,0.01183793
2127.47453247,0.01183347
2129.40333984,0.01170309
2131.33214722,0.01177161
2133.26095459,0.01175888
2135.18976196,0.01177800
2137.11856934,0.01184254
2139.04737671,0.01187705
2140.97618408,0.01174429
2142.90499146,0.01165600
2144.83379883,0.01173398
2146.76260620,0.01161241
2148.69141357,0.01166147
2150.62022095,0.01181605
2152.54902832,0.01162199
2154.47783569,0.01156884
2156.40664307,0.01171207
2158.33545044,0.01175093
2160.26425781,0.01176659
2162.19306519,0.01169177
2164.12187256,0.01172982
2166.05067993,0.01163939
2167.97948730,0.01148418
2169.90829468,0.01164812
2171.83710205,0.01162668
2173.76590942,0.01165311
2175.69471680,0.01176128
2177.62352417,0.01173769
2179.55233154,0.01171079
2181.48113892,0.01161482
2183.40994629,0.01175592
2185.33875366,0.01179007
2187.26756104,0.01169407
2189.19636841,0.01175109
2191.12517578,0.01167775
2193.05398315,0.01166685
2194.98279053,0.01171220
2196.91159790,0.01173592
2198.84040527,0.01174750
2200.76921265,0.01161790
2202.69802002,0.01165363
2204.62682739,0.01170625
2206.55563477,0.01161206
2208.48444214,0.01174457
2210.41324951,0.01171495
2212.34205688,0.01160936
2214.27086426,0.01172706
2216.19967163,0.01167090
2218.12847900,0.01165094
2220.05728638,0.01168840
2221.98609375,0.01167001
2223.91490112,0.01169972
2225.84370850,0.01178293
2227.77251587,0.01168706
2229.70132324,0.01159161
2231.63013062,0.01174336
2233.55893799,0.01159259
2235.48774536,0.01164198
2237.41655273,0.01168809
2239.34536011,0.01149906
2241.27416748,0.01171230
2243.20297485,0.01165248
2245.13178223,0.01155404
2247.06058960,0.01156670
2248.98939697,0.01157922
2250.91820435,0.01160815
2252.84701172,0.01145983
2254.77581909,0.01156680
2256.70462646,0.01149854
2258.63343384,0.01152805
2260.56224121,0.01166374
2262.49104858,0.01145478
2264.41985596,0.01148650
2266.34866333,0.01160194
2268.27747070,0.01166040
2270.20627808,0.01160129
2272.13508545,0.01153836
2274.06389282,0.01153236
2275.99270020,0.01144468
2277.92150757,0.01153697
2279.85031494,0.01154747
2281.77912231,0.01150088
2283.70792969,0.01152080
2285.63673706,0.01149075
2287.56554443,0.01148927
2289.49435181,0.01145375
2291.42315918,0.01144210
2293.35196655,0.01139634
2295.28077393,0.01136164
2297.20958130,0.01142011
2299.13838867,0.01134238
2301.06719604,0.01132776
2302.99600342,0.01142052
2304.92481079,0.01129112
2306.85361816,0.01117962
2308.78242554,0.01109067
2310.71123291,0.01098082
2312.64004028,0.01098240
2314.56884766,0.01083726
2316.49765503,0.01072927
2318.42646240,0.01066764
2320.35526978,0.01044374
2322.28407715,0.01028129
2324.21288452,0.01021881
2326.14169189,0.01008675
2328.07049927,0.00995839
2329.99930664,0.00999902
2331.92811401,0.01000921
2333.85692139,0.00999229
2335.78572876,0.00989616
2337.71453613,0.00981261
2339.64334351,0.00988752
2341.57215088,0.00977746
2343.50095825,0.00991376
2345.42976562,0.01031408
2347.35857300,0.01065711
2349.28738037,0.01090985
2351.21618774,0.01056222
2353.14499512,0.01005201
2355.07380249,0.00970119
2357.00260986,0.00937817
2358.93141724,0.00927883
2360.86022461,0.00912724
2362.78903198,0.00904970
2364.71783936,0.00915497
2366.64664673,0.00926296
2368.57545410,0.00952982
2370.50426147,0.00977834
2372.43306885,0.00999941
2374.36187622,0.01030307
2376.29068359,0.01045304
2378.21949097,0.01059923
2380.14829834,0.01086526
2382.07710571,0.01106401
2384.00591309,0.01109636
2385.93472046,0.01107366
2387.86352783,0.01115543
2389.79233521,0.01111555
2391.72114258,0.01103539
2393.64994995,0.01107856
2395.57875732,0.01104543
2397.50756470,0.01109692
2399.43637207,0.01118666
2401.36517944,0.01110495
2403.29398682,0.01102636
2405.22279419,0.01100706
2407.15160156,0.01096760
2409.08040894,0.01104840
2411.00921631,0.01111074
2412.93802368,0.01091903
2414.86683105,0.01087050
2416.79563843,0.01092367
2418.72444580,0.01092646
2420.65325317,0.01098610
2422.58206055,0.01086601
2424.51086792,0.01086256
2426.43967529,0.01093869
2428.36848267,0.01094269
2430.29729004,0.01110165
2432.22609741,0.01100569
2434.15490479,0.01080933
2436.08371216,0.01081357
2438.01251953,0.01084509
2439.94132690,0.01088079
2441.87013428,0.01075079
2443.79894165,0.01077646
2445.72774902,0.01094310
2447.65655640,0.01074194
2449.58536377,0.01071517
2451.51417114,0.01088272
2453.44297852,0.01070009
2455.37178589,0.01067966
2457.30059326,0.01084057
2459.22940063,0.01080791
2461.15820801,0.01075163
2463.08701538,0.01070862
2465.01582275,0.01067837
2466.94463013,0.01066810
2468.87343750,0.01075728
2470.80224487,0.01068540
2472.73105225,0.01052392
2474.65985962,0.01066055
2476.58866699,0.01066106
2478.51747437,0.01059227
2480.44628174,0.01058666
2482.37508911,0.01056232
2484.30389648,0.01059371
2486.23270386,0.01054025
2488.16151123,0.01059314
2490.09031860,0.01055615
2492.01912598,0.01049687
2493.94793335,0.01049675
2495.87674072,0.01039586
2497.80554810,0.01045964
2499.73435547,0.01046717
2501.66316284,0.01050790
2503.59197021,0.01052095
2505.52077759,0.01043099
2507.44958496,0.01039166
2509.37839233,0.01022371
2511.30719971,0.01040114
2513.23600708,0.01058037
2515.16481445,0.01036018
2517.09362183,0.01033083
2519.02242920,0.01033976
2520.95123657,0.01022804
2522.88004395,0.01024655
2524.80885132,0.01033442
2526.73765869,0.01028373
2528.66646606,0.01021665
2530.59527344,0.01027862
2532.52408081,0.01027738
2534.45288818,0.01018565
2536.38169556,0.01012452
2538.31050293,0.01015974
2540.23931030,0.01026173
2542.16811768,0.01020714
2544.09692505,0.01010045
2546.02573242,0.01009956
2547.95453979,0.01000157
2549.88334717,0.01000640
2551.81215454,0.01004682
2553.74096191,0.00997941
2555.66976929,0.01003784
2557.59857666,0.01001839
2559.52738403,0.01003054
2561.45619141,0.01006808
2563.38499878,0.01000143
2565.31380615,0.00996897
2567.24261353,0.00993327
2569.17142090,0.01000797
2571.10022827,0.00999959
2573.02903564,0.00993322
2574.95784302,0.00991661
2576.88665039,0.00986194
2578.81545776,0.00994436
2580.74426514,0.00992379
2582.67307251,0.00978760
2584.60187988,0.00978928
2586.53068726,0.00977562
2588.45949463,0.00973641
2590.38830200,0.00974605
2592.31710937,0.00968847
2594.24591675,0.00964302
2596.17472412,0.00965198
2598.10353149,0.00961495
2600.03233887,0.00963036
2601.96114624,0.00965150
2603.88995361,0.00956320
2605.81876099,0.00954625
2607.74756836,0.00969923
2609.67637573,0.00959571
2611.60518311,0.00948216
2613.53399048,0.00959048
2615.46279785,0.00949094
2617.39160522,0.00955266
2619.32041260,0.00948386
2621.24921997,0.00939142
2623.17802734,0.00953912
2625.10683472,0.00938332
2627.03564209,0.00946445
2628.96444946,0.00945129
2630.89325684,0.00940533
2632.82206421,0.00950975
2634.75087158,0.00921303
2636.67967895,0.00924609
2638.60848633,0.00934272
2640.53729370,0.00928281
2642.46610107,0.00931327
2644.39490845,0.00923052
2646.32371582,0.00919186
2648.25252319,0.00918731
2650.18133057,0.00925149
2652.11013794,0.00915197
2654.03894531,0.00912635
2655.96775269,0.00915586
2657.89656006,0.00907318
2659.82536743,0.00917008
2661.75417480,0.00902509
2663.68298218,0.00897974
2665.61178955,0.00907417
2667.54059692,0.00893458
2669.46940430,0.00886647
2671.39821167,0.00882572
2673.32701904,0.00891594
2675.25582642,0.00894718
2677.18463379,0.00893744
2679.11344116,0.00896160
2681.04224854,0.00880195
2682.97105591,0.00879414
2684.89986328,0.00880833
2686.82867065,0.00882682
2688.75747803,0.00882993
2690.68628540,0.00867182
2692.61509277,0.00874592
2694.54390015,0.00875293
2696.47270752,0.00866504
2698.40151489,0.00870100
2700.33032227,0.00862114
2702.25912964,0.00866604
2704.18793701,0.00868402
2706.11674438,0.00851662
2708.04555176,0.00846344
2709.97435913,0.00849934
2711.90316650,0.00852606
2713.83197388,0.00849942
2715.76078125,0.00851129
2717.68958862,0.00854026
2719.61839600,0.00843989
2721.54720337,0.00828288
2723.47601074,0.00825224
2725.40481812,0.00830243
2727.33362549,0.00826715
2729.26243286,0.00823347
2731.19124023,0.00819636
2733.12004761,0.00817394
2735.04885498,0.00816488
2736.97766235,0.00815062
2738.90646973,0.00813802
2740.83527710,0.00801824
2742.76408447,0.00809769
2744.69289185,0.00818212
2746.62169922,0.00800714
2748.55050659,0.00800464
2750.47931396,0.00801919
2752.40812134,0.00791830
2754.33692871,0.00783575
2756.26573608,0.00786118
2758.19454346,0.00800223
2760.12335083,0.00791512
2762.05215820,0.00781443
2763.98096558,0.00783205
2765.90977295,0.00781620
2767.83858032,0.00786351
2769.76738770,0.00775527
2771.69619507,0.00775607
2773.62500244,0.00786574
2775.55380981,0.00771501
2777.48261719,0.00771092
2779.41142456,0.00769726
2781.34023193,0.00756961
2783.26903931,0.00756593
2785.19784668,0.00752934
2787.12665405,0.00756296
2789.05546143,0.00748613
2790.98426880,0.00740158
2792.91307617,0.00747187
2794.84188354,0.00733119
2796.77069092,0.00737023
2798.69949829,0.00747232
2800.62830566,0.00723214
2802.55711304,0.00727345
2804.48592041,0.00724899
2806.41472778,0.00703923
2808.34353516,0.00721423
2810.27234253,0.00713878
2812.20114990,0.00703707
2814.12995728,0.00711999
2816.05876465,0.00702675
2817.98757202,0.00712416
2819.91637939,0.00705811
2821.84518677,0.00693452
2823.77399414,0.00696814
2825.70280151,0.00693817
2827.63160889,0.00693646
2829.56041626,0.00680435
2831.48922363,0.00681417
2833.41803101,0.00682829
2835.34683838,0.00675285
2837.27564575,0.00680724
2839.20445312,0.00679429
2841.13326050,0.00677267
2843.06206787,0.00663558
2844.99087524,0.00659552
2846.91968262,0.00667839
2848.84848999,0.00656945
2850.77729736,0.00653034
2852.70610474,0.00654456
2854.63491211,0.00651365
2856.56371948,0.00655449
2858.49252686,0.00643291
2860.42133423,0.00628635
2862.35014160,0.00638321
2864.27894897,0.00632449
2866.20775635,0.00629957
2868.13656372,0.00628859
2870.06537109,0.00619168
2871.99417847,0.00631207
2873.92298584,0.00620565
2875.85179321,0.00620520
2877.78060059,0.00621093
2879.70940796,0.00609345
2881.63821533,0.00624337
2883.56702270,0.00607616
2885.49583008,0.00598202
2887.42463745,0.00599205
2889.35344482,0.00595130
2891.28225220,0.00608702
2893.21105957,0.00601159
2895.13986694,0.00597036
2897.06867432,0.00594718
2898.99748169,0.00588810
2900.92628906,0.00582360
2902.85509644,0.00581284
2904.78390381,0.00586087
2906.71271118,0.00572949
2908.64151855,0.00576390
2910.57032593,0.00577985
2912.49913330,0.00572559
2914.42794067,0.00573317
2916.35674805,0.00561191
2918.28555542,0.00557148
2920.21436279,0.00554721
2922.14317017,0.00550071
2924.07197754,0.00544241
2926.00078491,0.00537378
2927.92959229,0.00544487
2929.85839966,0.00551808
2931.78720703,0.00543311
2933.71601440,0.00537469
2935.64482178,0.00539305
2937.57362915,0.00534120
2939.50243652,0.00536761
2941.43124390,0.00535599
2943.36005127,0.00526161
2945.28885864,0.00523124
2947.21766602,0.00523703
2949.14647339,0.00526212
2951.07528076,0.00521237
2953.00408813,0.00529151
2954.93289551,0.00530546
2956.86170288,0.00513330
2958.79051025,0.00516428
2960.71931763,0.00515807
2962.64812500,0.00515063
2964.57693237,0.00521791
2966.50573975,0.00502810
2968.43454712,0.00494002
2970.36335449,0.00514905
2972.29216187,0.00517931
2974.22096924,0.00501941
2976.14977661,0.00503949
2978.07858398,0.00504847
2980.00739136,0.00494436
2981.93619873,0.00506566
2983.86500610,0.00505848
2985.79381348,0.00484831
2987.72262085,0.00492118
2989.65142822,0.00501374
2991.58023560,0.00496555
2993.50904297,0.00493928
2995.43785034,0.00494904
2997.36665771,0.00485098
2999.29546509,0.00478309
3001.22427246,0.00492545
3003.15307983,0.00484187
3005.08188721,0.00477331
3007.01069458,0.00485052
3008.93950195,0.00474167
3010.86830933,0.00469641
3012.79711670,0.00481431
3014.72592407,0.00483210
3016.65473145,0.00460520
3018.58353882,0.00468719
3020.51234619,0.00477162
3022.44115356,0.00457628
3024.36996094,0.00470731
3026.29876831,0.00470142
3028.22757568,0.00461484
3030.15638306,0.00453856
3032.08519043,0.00443730
3034.01399780,0.00457669
3035.94280518,0.00449847
3037.87161255,0.00450876
3039.80041992,0.00453938
3041.72922729,0.00435715
3043.65803467,0.00446999
3045.58684204,0.00452149
3047.51564941,0.00441384
3049.44445679,0.00450325
3051.37326416,0.00451697
3053.30207153,0.00442862
3055.23087891,0.00443627
3057.15968628,0.00442764
3059.08849365,0.00443200
3061.01730103,0.00436073
3062.94610840,0.00431217
3064.87491577,0.00440796
3066.80372314,0.00438940
3068.73253052,0.00434342
3070.66133789,0.00433722
3072.59014526,0.00434275
3074.51895264,0.00426081
3076.44776001,0.00420124
3078.37656738,0.00426461
3080.30537476,0.00425723
3082.23418213,0.00427399
3084.16298950,0.00418684
3086.09179687,0.00416127
3088.02060425,0.00424306
3089.94941162,0.00419497
3091.87821899,0.00421120
3093.80702637,0.00419962
3095.73583374,0.00417996
3097.66464111,0.00418497
3099.59344849,0.00420486
3101.52225586,0.00422576
3103.45106323,0.00417405
3105.37987061,0.00421245
3107.30867798,0.00418477
3109.23748535,0.00410583
3111.16629272,0.00416264
3113.09510010,0.00414251
3115.02390747,0.00403679
3116.95271484,0.00405857
3118.88152222,0.00412026
3120.81032959,0.00409938
3122.73913696,0.00407627
3124.66794434,0.00409619
3126.59675171,0.00402661
3128.52555908,0.00400235
3130.45436645,0.00412242
3132.38317383,0.00401992
3134.31198120,0.00398120
3136.24078857,0.00405065
3138.16959595,0.00395182
3140.09840332,0.00393029
3142.02721069,0.00396259
3143.95601807,0.00401377
3145.88482544,0.00392753
3147.81363281,0.00399211
3149.74244019,0.00406369
3151.67124756,0.00393099
3153.60005493,0.00408124
3155.52886230,0.00403338
3157.45766968,0.00400780
3159.38647705,0.00404758
3161.31528442,0.00388026
3163.24409180,0.00396222
3165.17289917,0.00392774
3167.10170654,0.00391008
3169.03051392,0.00406227
3170.95932129,0.00403242
3172.88812866,0.00392811
3174.81693604,0.00396045
3176.74574341,0.00401141
3178.67455078,0.00394340
3180.60335815,0.00394074
3182.53216553,0.00396487
3184.46097290,0.00395677
3186.38978027,0.00391672
3188.31858765,0.00390284
3190.24739502,0.00381301
3192.17620239,0.00386633
3194.10500977,0.00400039
3196.03381714,0.00388114
3197.96262451,0.00398110
3199.89143188,0.00395518
3201.82023926,0.00389541
3203.74904663,0.00398793
3205.67785400,0.00396070
3207.60666138,0.00405060
3209.53546875,0.00391389
3211.46427612,0.00389113
3213.39308350,0.00394752
3215.32189087,0.00392645
3217.25069824,0.00406555
3219.17950562,0.00399668
3221.10831299,0.00397320
3223.03712036,0.00403264
3224.96592773,0.00405227
3226.89473511,0.00399900
3228.82354248,0.00403735
3230.75234985,0.00417015
3232.68115723,0.00405147
3234.60996460,0.00398591
3236.53877197,0.00400877
3238.46757935,0.00402096
3240.39638672,0.00405576
3242.32519409,0.00409741
3244.25400146,0.00407610
3246.18280884,0.00406763
3248.11161621,0.00412335
3250.04042358,0.00405983
3251.96923096,0.00406110
3253.89803833,0.00403956
3255.82684570,0.00403981
3257.75565308,0.00415315
3259.68446045,0.00414950
3261.61326782,0.00414104
3263.54207520,0.00420377
3265.47088257,0.00416087
3267.39968994,0.00413191
3269.32849731,0.00424735
3271.25730469,0.00414316
3273.18611206,0.00415243
3275.11491943,0.00430810
3277.04372681,0.00425974
3278.97253418,0.00425779
3280.90134155,0.00421628
3282.83014893,0.00425382
3284.75895630,0.00428750
3286.68776367,0.00424895
3288.61657104,0.00427240
3290.54537842,0.00429994
3292.47418579,0.00429912
3294.40299316,0.00428072
3296.33180054,0.00432803
3298.26060791,0.00426551
3300.18941528,0.00433821
3302.11822266,0.00437095
3304.04703003,0.00428363
3305.97583740,0.00437009
3307.90464478,0.00442789
3309.83345215,0.00447135
3311.76225952,0.00435970
3313.69106689,0.00440665
3315.61987427,0.00447775
3317.54868164,0.00436088
3319.47748901,0.00436729
3321.40629639,0.00440584
3323.33510376,0.00448909
3325.26391113,0.00443188
3327.19271851,0.00450096
3329.12152588,0.00452334
3331.05033325,0.00443073
3332.97914062,0.00448526
3334.90794800,0.00442415
3336.83675537,0.00452074
3338.76556274,0.00454988
3340.69437012,0.00447728
3342.62317749,0.00449899
3344.55198486,0.00455693
3346.48079224,0.00455133
3348.40959961,0.00449504
3350.33840698,0.00458874
3352.26721436,0.00454429
3354.19602173,0.00460853
3356.12482910,0.00466519
3358.05363647,0.00461453
3359.98244385,0.00466924
3361.91125122,0.00464565
3363.84005859,0.00469807
3365.76886597,0.00465958
3367.69767334,0.00462395
3369.62648071,0.00471637
3371.55528809,0.00477187
3373.48409546,0.00475925
3375.41290283,0.00477783
3377.34171020,0.00478577
3379.27051758,0.00478485
3381.19932495,0.00489661
3383.12813232,0.00481249
3385.05693970,0.00478584
3386.98574707,0.00482118
3388.91455444,0.00487715
3390.84336182,0.00494496
3392.77216919,0.00487819
3394.70097656,0.00494169
3396.62978394,0.00491021
3398.55859131,0.00501295
3400.48739868,0.00500165
3402.41620605,0.00489538
3404.34501343,0.00504582
3406.27382080,0.00503369
3408.20262817,0.00501428
3410.13143555,0.00498263
3412.06024292,0.00505466
3413.98905029,0.00509099
3415.91785767,0.00512974
3417.84666504,0.00517611
3419.77547241,0.00504885
3421.70427979,0.00506678
3423.63308716,0.00505593
3425.56189453,0.00518649
3427.49070190,0.00521761
3429.41950928,0.00519273
3431.34831665,0.00523118
3433.27712402,0.00520261
3435.20593140,0.00530045
3437.13473877,0.00526046
3439.06354614,0.00541373
3440.99235352,0.00536200
3442.92116089,0.00525092
3444.84996826,0.00530569
3446.77877563,0.00519765
3448.70758301,0.00539964
3450.63639038,0.00538643
3452.56519775,0.00538565
3454.49400513,0.00547082
3456.42281250,0.00538354
3458.35161987,0.00541220
3460.28042725,0.00535975
3462.20923462,0.00549170
3464.13804199,0.00559952
3466.06684937,0.00552394
3467.99565674,0.00547780
3469.92446411,0.00553416
3471.85327148,0.00553724
3473.78207886,0.00545254
3475.71088623,0.00555029
3477.63969360,0.00565033
3479.56850098,0.00563687
3481.49730835,0.00553691
3483.42611572,0.00563933
3485.35492310,0.00574240
3487.28373047,0.00565198
3489.21253784,0.00566941
3491.14134521,0.00571927
3493.07015259,0.00574235
3494.99895996,0.00565216
3496.92776733,0.00568307
3498.85657471,0.00580996
3500.78538208,0.00576694
3502.71418945,0.00569145
3504.64299683,0.00580093
3506.57180420,0.00589345
3508.50061157,0.00578099
3510.42941895,0.00581284
3512.35822632,0.00586914
3514.28703369,0.00591683
3516.21584106,0.00586508
3518.14464844,0.00583680
3520.07345581,0.00598541
3522.00226318,0.00587386
3523.93107056,0.00580105
3525.85987793,0.00587227
3527.78868530,0.00592563
3529.71749268,0.00594614
3531.64630005,0.00601081
3533.57510742,0.00611289
3535.50391479,0.00609645
3537.43272217,0.00614860
3539.36152954,0.00616671
3541.29033691,0.00608370
3543.21914429,0.00600028
3545.14795166,0.00591523
3547.07675903,0.00592263
3549.00556641,0.00621331
3550.93437378,0.00620637
3552.86318115,0.00600202
3554.79198853,0.00620310
3556.72079590,0.00622514
3558.64960327,0.00626862
3560.57841064,0.00618737
3562.50721802,0.00622886
3564.43602539,0.00636619
3566.36483276,0.00585590
3568.29364014,0.00586729
3570.22244751,0.00624597
3572.15125488,0.00635146
3574.08006226,0.00637191
3576.00886963,0.00636367
3577.93767700,0.00637648
3579.86648437,0.00635010
3581.79529175,0.00639697
3583.72409912,0.00643579
3585.65290649,0.00630973
3587.58171387,0.00576509
3589.51052124,0.00602737
3591.43932861,0.00656597
3593.36813599,0.00632991
3595.29694336,0.00640381
3597.22575073,0.00640547
3599.15455811,0.00649659
3601.08336548,0.00648733
3603.01217285,0.00647235
3604.94098022,0.00670308
3606.86978760,0.00636673
3608.79859497,0.00610498
3610.72740234,0.00628995
3612.65620972,0.00634747
3614.58501709,0.00627125
3616.51382446,0.00668232
3618.44263184,0.00621898
3620.37143921,0.00609193
3622.30024658,0.00681634
3624.22905395,0.00656651
3626.15786133,0.00694734
3628.08666870,0.00598198
3630.01547607,0.00546258
3631.94428345,0.00685032
3633.87309082,0.00666877
3635.80189819,0.00682718
3637.73070557,0.00696196
3639.65951294,0.00692763
3641.58832031,0.00709457
3643.51712769,0.00701487
3645.44593506,0.00708519
3647.37474243,0.00641058
3649.30354980,0.00590241
3651.23235718,0.00598053
3653.16116455,0.00722399
3655.08997192,0.00709522
3657.01877930,0.00638549
3658.94758667,0.00750423
3660.87639404,0.00735426
3662.80520142,0.00749677
3664.73400879,0.00751080
3666.66281616,0.00745072
3668.59162354,0.00726011
3670.52043091,0.00607922
3672.44923828,0.00731318
3674.37804565,0.00692861
3676.30685303,0.00590247
3678.23566040,0.00737003
3680.16446777,0.00762124
3682.09327515,0.00759899
3684.02208252,0.00780034
3685.95088989,0.00777249
3687.87969727,0.00690645
3689.80850464,0.00645057
3691.73731201,0.00739447
3693.66611938,0.00766530
3695.59492676,0.00789808
3697.52373413,0.00778525
3699.45254150,0.00779544
3701.38134888,0.00763414
3703.31015625,0.00739545
3705.23896362,0.00802390
3707.16777100,0.00764155
3709.09657837,0.00760856
3711.02538574,0.00703626
3712.95419312,0.00664504
3714.88300049,0.00777994
3716.81180786,0.00766028
3718.74061523,0.00779622
3720.66942261,0.00754169
3722.59822998,0.00731655
3724.52703735,0.00757221
3726.45584473,0.00702664
3728.38465210,0.00762361
3730.31345947,0.00746164
3732.24226685,0.00686344
3734.17107422,0.00675418
3736.09988159,0.00643138
3738.02868896,0.00673579
3739.95749634,0.00725110
3741.88630371,0.00756509
3743.81511108,0.00595135
3745.74391846,0.00566696
3747.67272583,0.00724298
3749.60153320,0.00620729
3751.53034058,0.00571875
3753.45914795,0.00659047
3755.38795532,0.00704412
3757.31676270,0.00737287
3759.24557007,0.00685534
3761.17437744,0.00706982
3763.10318481,0.00752241
3765.03199219,0.00689842
3766.96079956,0.00709006
3768.88960693,0.00711431
3770.81841431,0.00668117
3772.74722168,0.00716617
3774.67602905,0.00727214
3776.60483643,0.00725553
3778.53364380,0.00696987
3780.46245117,0.00668753
3782.39125854,0.00710760
3784.32006592,0.00702684
3786.24887329,0.00694550
3788.17768066,0.00706499
3790.10648804,0.00702909
3792.03529541,0.00692347
3793.96410278,0.00718015
3795.89291016,0.00670959
3797.82171753,0.00657260
3799.75052490,0.00692398
3801.67933228,0.00548903
3803.60813965,0.00651095
3805.53694702,0.00697150
3807.46575439,0.00567940
3809.39456177,0.00690610
3811.32336914,0.00681844
3813.25217651,0.00696749
3815.18098389,0.00625886
3817.10979126,0.00560953
3819.03859863,0.00690944
3820.96740601,0.00558196
3822.89621338,0.00596597
3824.82502075,0.00690860
3826.75382812,0.00620344
3828.68263550,0.00674634
3830.61144287,0.00649324
3832.54025024,0.00614469
3834.46905762,0.00630262
3836.39786499,0.00598405
3838.32667236,0.00551748
3840.25547974,0.00601728
3842.18428711,0.00633900
3844.11309448,0.00599401
3846.04190186,0.00647578
3847.97070923,0.00646890
3849.89951660,0.00638248
3851.82832397,0.00567937
3853.75713135,0.00437564
3855.68593872,0.00522822
3857.61474609,0.00643734
3859.54355347,0.00619062
3861.47236084,0.00611562
3863.40116821,0.00598648
3865.32997559,0.00569164
3867.25878296,0.00623332
3869.18759033,0.00562874
3871.11639770,0.00528207
3873.04520508,0.00621361
3874.97401245,0.00577766
3876.90281982,0.00616612
3878.83162720,0.00634376
3880.76043457,0.00544363
3882.68924194,0.00612613
3884.61804932,0.00578039
3886.54685669,0.00525080
3888.47566406,0.00614464
3890.40447144,0.00582155
3892.33327881,0.00553734
3894.26208618,0.00605117
3896.19089355,0.00607791
3898.11970093,0.00575821
3900.04850830,0.00538734
3901.97731567,0.00547689
3903.90612305,0.00539044
3905.83493042,0.00544694
3907.76373779,0.00604245
3909.69254517,0.00596652
3911.62135254,0.00585004
3913.55015991,0.00598896
3915.47896728,0.00589041
3917.40777466,0.00559830
3919.33658203,0.00554768
3921.26538940,0.00581211
3923.19419678,0.00566918
3925.12300415,0.00566120
3927.05181152,0.00580176
3928.98061890,0.00575407
3930.90942627,0.00562334
3932.83823364,0.00546905
3934.76704102,0.00564570
3936.69584839,0.00566936
3938.62465576,0.00567664
3940.55346313,0.00571625
3942.48227051,0.00543315
3944.41107788,0.00544580
3946.33988525,0.00562016
3948.26869263,0.00553092
3950.19750000,0.00547617
3952.12630737,0.00549277
3954.05511475,0.00556722
3955.98392212,0.00559596
3957.91272949,0.00550694
3959.84153687,0.00558432
3961.77034424,0.00547102
3963.69915161,0.00543204
3965.62795898,0.00557544
3967.55676636,0.00545137
3969.48557373,0.00550912
3971.41438110,0.00550605
3973.34318848,0.00549029
3975.27199585,0.00545418
3977.20080322,0.00531206
3979.12961060,0.00537532
3981.05841797,0.00533435
3982.98722534,0.00539919
3984.91603271,0.00541153
3986.84484009,0.00537077
3988.77364746,0.00532096
3990.70245483,0.00523570
3992.63126221,0.00535369
3994.56006958,0.00528474
3996.48887695,0.00526836
3998.41768433,0.00527023
4000.34649170,0.00526584
4002.27529907,0.00527387
4004.20410645,0.00515521
4006.13291382,0.00525791
4008.06172119,0.00524138
4009.99052856,0.00517712
4011.91933594,0.00521725
4013.84814331,0.00519512
4015.77695068,0.00516058
4017.70575806,0.00514411
4019.63456543,0.00521232
4021.56337280,0.00508495
4023.49218018,0.00500514
4025.42098755,0.00511892
4027.34979492,0.00503389
4029.27860229,0.00505422
4031.20740967,0.00515571
4033.13621704,0.00499358
4035.06502441,0.00503569
4036.99383179,0.00509219
4038.92263916,0.00495369
4040.85144653,0.00507579
4042.78025391,0.00508282
4044.70906128,0.00495154
4046.63786865,0.00493632
4048.56667603,0.00497990
4050.49548340,0.00497800
4052.42429077,0.00489084
4054.35309814,0.00496091
4056.28190552,0.00497176
4058.21071289,0.00492427
4060.13952026,0.00488146
4062.06832764,0.00485313
4063.99713501,0.00488295
4065.92594238,0.00481261
4067.85474976,0.00481451
4069.78355713,0.00479946
4071.71236450,0.00479733
4073.64117187,0.00478969
4075.56997925,0.00473483
4077.49878662,0.00483725
4079.42759399,0.00481194
4081.35640137,0.00473823
4083.28520874,0.00480136
4085.21401611,0.00475821
4087.14282349,0.00474231
4089.07163086,0.00476415
4091.00043823,0.00464938
4092.92924561,0.00467575
4094.85805298,0.00468939
4096.78686035,0.00461779
4098.71566772,0.00468990
4100.64447510,0.00466224
4102.57328247,0.00461869
4104.50208984,0.00458818
4106.43089722,0.00454931
4108.35970459,0.00456211
4110.28851196,0.00457336
4112.21731934,0.00457977
4114.14612671,0.00456714
4116.07493408,0.00459517
4118.00374145,0.00452941
4119.93254883,0.00451846
4121.86135620,0.00450005
4123.79016357,0.00448253
4125.71897095,0.00456918
4127.64777832,0.00451096
4129.57658569,0.00450879
4131.50539307,0.00446309
4133.43420044,0.00443907
4135.36300781,0.00445911
4137.29181519,0.00441275
4139.22062256,0.00444952
4141.14942993,0.00440811
4143.07823730,0.00437261
4145.00704468,0.00434454
4146.93585205,0.00441070
4148.86465942,0.00445372
4150.79346680,0.00438367
4152.72227417,0.00435045
4154.65108154,0.00434035
4156.57988892,0.00439058
4158.50869629,0.00429353
4160.43750366,0.00430672
4162.36631103,0.00427403
4164.29511841,0.00418440
4166.22392578,0.00432093
4168.15273315,0.00428220
4170.08154053,0.00422834
4172.01034790,0.00417896
4173.93915527,0.00420846
4175.86796265,0.00425365
4177.79677002,0.00417542
4179.72557739,0.00419558
4181.65438477,0.00415538
4183.58319214,0.00417381
4185.51199951,0.00417259
4187.44080688,0.00412490
4189.36961426,0.00415577
4191.29842163,0.00416718
4193.22722900,0.00412251
4195.15603638,0.00408961
4197.08484375,0.00416383
4199.01365112,0.00412901
4200.94245850,0.00408098
4202.87126587,0.00407910
4204.80007324,0.00409641
4206.72888062,0.00409294
4208.65768799,0.00404808
4210.58649536,0.00407770
4212.51530273,0.00402859
4214.44411011,0.00408948
4216.37291748,0.00405637
4218.30172485,0.00394529
4220.23053223,0.00401813
4222.15933960,0.00396463
4224.08814697,0.00400750
4226.01695435,0.00399707
4227.94576172,0.00390151
4229.87456909,0.00399165
4231.80337646,0.00394707
4233.73218384,0.00392244
4235.66099121,0.00398364
4237.58979858,0.00392506
4239.51860596,0.00389154
4241.44741333,0.00388092
4243.37622070,0.00386253
4245.30502808,0.00384731
4247.23383545,0.00388083
4249.16264282,0.00397892
4251.09145020,0.00395062
4253.02025757,0.00392021
4254.94906494,0.00387487
4256.87787231,0.00379738
4258.80667969,0.00383034
4260.73548706,0.00377375
4262.66429443,0.00383820
4264.59310181,0.00384947
4266.52190918,0.00369736
4268.45071655,0.00378803
4270.37952393,0.00376822
4272.30833130,0.00368817
4274.23713867,0.00373092
4276.16594604,0.00373153
4278.09475342,0.00376636
4280.02356079,0.00372274
4281.95236816,0.00367397
4283.88117554,0.00367863
4285.80998291,0.00365004
4287.73879028,0.00367626
4289.66759766,0.00371332
4291.59640503,0.00371237
4293.52521240,0.00365879
4295.45401978,0.00362679
4297.38282715,0.00367334
4299.31163452,0.00363961
4301.24044189,0.00366833
4303.16924927,0.00369677
4305.09805664,0.00356251
4307.02686401,0.00353237
4308.95567139,0.00354522
4310.88447876,0.00361172
4312.81328613,0.00365405
4314.74209351,0.00355229
4316.67090088,0.00353930
4318.59970825,0.00352615
4320.52851562,0.00349222
4322.45732300,0.00348392
4324.38613037,0.00349100
4326.31493774,0.00351695
4328.24374512,0.00351227
4330.17255249,0.00348598
4332.10135986,0.00346014
4334.03016724,0.00345907
4335.95897461,0.00345740
4337.88778198,0.00348509
4339.81658936,0.00343812
4341.74539673,0.00342746
4343.67420410,0.00347105
4345.60301147,0.00340932
4347.53181885,0.00336868
4349.46062622,0.00335562
4351.38943359,0.00342310
4353.31824097,0.00340740
4355.24704834,0.00340148
4357.17585571,0.00343640
4359.10466309,0.00334487
4361.03347046,0.00337100
4362.96227783,0.00332406
4364.89108520,0.00336882
4366.81989258,0.00343180
4368.74869995,0.00325401
4370.67750732,0.00326323
4372.60631470,0.00331993
4374.53512207,0.00329988
4376.46392944,0.00327656
4378.39273682,0.00326614
4380.32154419,0.00329182
4382.25035156,0.00325863
4384.17915894,0.00321645
4386.10796631,0.00321135
4388.03677368,0.00321405
4389.96558105,0.00321442
4391.89438843,0.00325500
4393.82319580,0.00322415
4395.75200317,0.00320844
4397.68081055,0.00319186
4399.60961792,0.00312256
4401.53842529,0.00316320
4403.46723267,0.00312853
4405.39604004,0.00317732
4407.32484741,0.00323097
4409.25365478,0.00311718
4411.18246216,0.00317113
4413.11126953,0.00317109
4415.04007690,0.00311848
4416.96888428,0.00317922
4418.89769165,0.00309853
4420.82649902,0.00306905
4422.75530640,0.00320502
4424.68411377,0.00318316
4426.61292114,0.00301542
4428.54172852,0.00298611
4430.47053589,0.00309001
4432.39934326,0.00305753
4434.32815063,0.00304648
4436.25695801,0.00314340
4438.18576538,0.00305303
4440.11457275,0.00301335
4442.04338013,0.00310309
4443.97218750,0.00308703
4445.90099487,0.00300940
4447.82980225,0.00301092
4449.75860962,0.00300409
4451.68741699,0.00293449
4453.61622437,0.00307809
4455.54503174,0.00305829
4457.47383911,0.00289656
4459.40264648,0.00297182
4461.33145386,0.00292228
4463.26026123,0.00289745
4465.18906860,0.00295255
4467.11787598,0.00293565
4469.04668335,0.00290000
4470.97549072,0.00283361
4472.90429810,0.00287877
4474.83310547,0.00291647
4476.76191284,0.00289202
4478.69072021,0.00291344
4480.61952759,0.00294359
4482.54833496,0.00290575
4484.47714233,0.00282032
4486.40594971,0.00282462
4488.33475708,0.00285977
4490.26356445,0.00282194
4492.19237183,0.00285259
4494.12117920,0.00287674
4496.04998657,0.00279154
4497.97879395,0.00281483
4499.90760132,0.00281643
4501.83640869,0.00277619
4503.76521606,0.00281332
4505.69402344,0.00280031
4507.62283081,0.00274964
4509.55163818,0.00272166
4511.48044556,0.00276946
4513.40925293,0.00275257
4515.33806030,0.00273414
4517.26686768,0.00274485
4519.19567505,0.00276009
4521.12448242,0.00280373
4523.05328979,0.00269553
4524.98209717,0.00273800
4526.91090454,0.00278067
4528.83971191,0.00264948
4530.76851929,0.00264431
4532.69732666,0.00262879
4534.62613403,0.00262590
4536.55494141,0.00267417
4538.48374878,0.00269535
4540.41255615,0.00266940
4542.34136353,0.00266531
4544.27017090,0.00264562
4546.19897827,0.00265064
4548.12778564,0.00270932
4550.05659302,0.00263125
4551.98540039,0.00262439
4553.91420776,0.00262899
4555.84301514,0.00264172
4557.77182251,0.00264758
4559.70062988,0.00252730
4561.62943726,0.00257364
4563.55824463,0.00256484
4565.48705200,0.00254796
4567.41585937,0.00262499
4569.34466675,0.00257238
4571.27347412,0.00259742
4573.20228149,0.00264753
4575.13108887,0.00259777
4577.05989624,0.00256625
4578.98870361,0.00253374
4580.91751099,0.00247595
4582.84631836,0.00247745
4584.77512573,0.00250041
4586.70393311,0.00251251
4588.63274048,0.00249054
4590.56154785,0.00247518
4592.49035522,0.00255352
4594.41916260,0.00255608
4596.34796997,0.00246982
4598.27677734,0.00242116
4600.20558472,0.00243731
4602.13439209,0.00239690
4604.06319946,0.00236330
4605.99200684,0.00244416
4607.92081421,0.00242889
4609.84962158,0.00243520
4611.77842895,0.00248368
4613.70723633,0.00240771
4615.63604370,0.00234521
4617.56485107,0.00238683
4619.49365845,0.00239330
4621.42246582,0.00234603
4623.35127319,0.00237869
4625.28008057,0.00240605
4627.20888794,0.00240997
4629.13769531,0.00239453
4631.06650269,0.00236616
4632.99531006,0.00232773
4634.92411743,0.00234054
4636.85292480,0.00238834
4638.78173218,0.00234473
4640.71053955,0.00243799
4642.63934692,0.00244615
4644.56815430,0.00230001
4646.49696167,0.00231284
4648.42576904,0.00232307
4650.35457642,0.00226406
4652.28338379,0.00227266
4654.21219116,0.00234773
4656.14099853,0.00227670
4658.06980591,0.00227526
4659.99861328,0.00232795
4661.92742065,0.00227693
4663.85622803,0.00229373
4665.78503540,0.00225690
4667.71384277,0.00230467
4669.64265015,0.00227591
4671.57145752,0.00225745
4673.50026489,0.00233652
4675.42907227,0.00223383
4677.35787964,0.00225688
4679.28668701,0.00224704
4681.21549438,0.00221977
4683.14430176,0.00222126
4685.07310913,0.00215240
4687.00191650,0.00219873
4688.93072388,0.00218698
4690.85953125,0.00223784
4692.78833862,0.00224696
4694.71714600,0.00210396
4696.64595337,0.00210989
4698.57476074,0.00216243
4700.50356812,0.00211221
4702.43237549,0.00213965
4704.36118286,0.00219893
4706.28999023,0.00210744
4708.21879761,0.00208990
4710.14760498,0.00204900
4712.07641235,0.00200590
4714.00521973,0.00211894
4715.93402710,0.00209971
4717.86283447,0.00209372
4719.79164185,0.00214917
4721.72044922,0.00204802
4723.64925659,0.00200878
4725.57806396,0.00209438
4727.50687134,0.00203066
4729.43567871,0.00197113
4731.36448608,0.00204773
4733.29329346,0.00208667
4735.22210083,0.00208727
4737.15090820,0.00202779
4739.07971558,0.00199991
4741.00852295,0.00198917
4742.93733032,0.00203448
4744.86613770,0.00211870
4746.79494507,0.00204978
4748.72375244,0.00202633
4750.65255981,0.00202394
4752.58136719,0.00195717
4754.51017456,0.00194471
4756.43898193,0.00200879
4758.36778931,0.00204502
4760.29659668,0.00201527
4762.22540405,0.00197192
4764.15421143,0.00194408
4766.08301880,0.00205305
4768.01182617,0.00198947
4769.94063354,0.00187465
4771.86944092,0.00198130
4773.79824829,0.00199651
4775.72705566,0.00199151
4777.65586304,0.00192360
4779.58467041,0.00189582
4781.51347778,0.00195073
4783.44228516,0.00193529
4785.37109253,0.00196769
4787.29989990,0.00187673
4789.22870728,0.00186018
4791.15751465,0.00197327
4793.08632202,0.00189966
4795.01512939,0.00181187
4796.94393677,0.00185808
4798.87274414,0.00191755
4800.80155151,0.00189904
4802.73035889,0.00188044
4804.65916626,0.00188743
4806.58797363,0.00188674
4808.51678101,0.00189128
4810.44558838,0.00191326
4812.37439575,0.00184139
4814.30320312,0.00171208
4816.23201050,0.00177382
4818.16081787,0.00185333
4820.08962524,0.00182555
4822.01843262,0.00184859
4823.94723999,0.00187931
4825.87604736,0.00185231
4827.80485474,0.00184354
4829.73366211,0.00180737
4831.66246948,0.00173049
4833.59127686,0.00176949
4835.52008423,0.00180810
4837.44889160,0.00182712
4839.37769897,0.00182146
4841.30650635,0.00173818
4843.23531372,0.00173452
4845.16412109,0.00178053
4847.09292847,0.00183059
4849.02173584,0.00177757
4850.95054321,0.00173208
4852.87935059,0.00176859
4854.80815796,0.00175692
4856.73696533,0.00178458
4858.66577270,0.00174881
4860.59458008,0.00170819
4862.52338745,0.00169086
4864.45219482,0.00172468
4866.38100220,0.00180457
4868.30980957,0.00174538
4870.23861694,0.00172658
4872.16742432,0.00167459
4874.09623169,0.00169093
4876.02503906,0.00176927
4877.95384644,0.00167669
4879.88265381,0.00172641
4881.81146118,0.00174109
4883.74026855,0.00163417
4885.66907593,0.00167703
4887.59788330,0.00167619
4889.52669067,0.00164061
4891.45549805,0.00170179
4893.38430542,0.00165387
4895.31311279,0.00160248
4897.24192017,0.00169249
4899.17072754,0.00164468
4901.09953491,0.00158949
4903.02834228,0.00163426
4904.95714966,0.00159813
4906.88595703,0.00158888
4908.81476440,0.00166725
4910.74357178,0.00164827
4912.67237915,0.00157972
4914.60118652,0.00164649
4916.52999390,0.00159828
4918.45880127,0.00159894
4920.38760864,0.00170091
4922.31641602,0.00159987
4924.24522339,0.00159383
4926.17403076,0.00161289
4928.10283813,0.00155794
4930.03164551,0.00152794
4931.96045288,0.00152785
4933.88926025,0.00156870
4935.81806763,0.00155696
4937.74687500,0.00159876
4939.67568237,0.00155396
4941.60448975,0.00151626
4943.53329712,0.00159615
4945.46210449,0.00157069
4947.39091187,0.00155023
4949.31971924,0.00154222
4951.24852661,0.00152302
4953.17733398,0.00153303
4955.10614136,0.00154914
4957.03494873,0.00152460
4958.96375610,0.00149234
4960.89256348,0.00154741
4962.82137085,0.00156583
4964.75017822,0.00144976
4966.67898560,0.00144294
4968.60779297,0.00160711
4970.53660034,0.00151146
4972.46540771,0.00138911
4974.39421509,0.00152391
4976.32302246,0.00152238
4978.25182983,0.00144616
4980.18063721,0.00150110
4982.10944458,0.00155526
4984.03825195,0.00150099
4985.96705933,0.00149295
4987.89586670,0.00151402
4989.82467407,0.00150902
4991.75348145,0.00148539
4993.68228882,0.00137689
4995.61109619,0.00141642
4997.53990356,0.00145191
4999.46871094,0.00139851
5001.39751831,0.00141485
5003.32632568,0.00140875
5005.25513306,0.00140499
5007.18394043,0.00141506
5009.11274780,0.00147093
5011.04155518,0.00140377
5012.97036255,0.00133340
5014.89916992,0.00140441
5016.82797729,0.00136030
5018.75678467,0.00134881
5020.68559204,0.00136571
5022.61439941,0.00131206
5024.54320679,0.00132251
5026.47201416,0.00132179
5028.40082153,0.00131235
5030.32962891,0.00141146
5032.25843628,0.00142433
5034.18724365,0.00137360
5036.11605103,0.00142917
5038.04485840,0.00138971
5039.97366577,0.00140592
5041.90247314,0.00144517
5043.83128052,0.00135672
5045.76008789,0.00138216
5047.68889526,0.00140255
5049.61770264,0.00135791
5051.54651001,0.00132783
5053.47531738,0.00131503
5055.40412476,0.00133185
5057.33293213,0.00134499
5059.26173950,0.00137965
5061.19054687,0.00139513
5063.11935425,0.00135242
5065.04816162,0.00133313
5066.97696899,0.00134114
5068.90577637,0.00129252
5070.83458374,0.00130414
5072.76339111,0.00134017
5074.69219849,0.00130514
5076.62100586,0.00130093
5078.54981323,0.00126194
5080.47862061,0.00120494
5082.40742798,0.00126597
5084.33623535,0.00135432
5086.26504272,0.00129385
5088.19385010,0.00126995
5090.12265747,0.00131084
5092.05146484,0.00124081
5093.98027222,0.00125557
5095.90907959,0.00130710
5097.83788696,0.00127561
5099.76669434,0.00125980
5101.69550171,0.00125023
5103.62430908,0.00123978
5105.55311645,0.00125236
5107.48192383,0.00120931
5109.41073120,0.00118492
5111.33953857,0.00125269
5113.26834595,0.00121476
5115.19715332,0.00119794
5117.12596069,0.00121630
5119.05476807,0.00118592
5120.98357544,0.00116726
5122.91238281,0.00113328
5124.84119019,0.00118371
5126.76999756,0.00117715
5128.69880493,0.00117659
5130.62761230,0.00118593
5132.55641968,0.00115943
5134.48522705,0.00120820
5136.41403442,0.00115840
5138.34284180,0.00119006
5140.27164917,0.00118848
5142.20045654,0.00109256
5144.12926392,0.00117416
5146.05807129,0.00117424
5147.98687866,0.00112265
5149.91568603,0.00120200
5151.84449341,0.00118152
5153.77330078,0.00108031
5155.70210815,0.00112124
5157.63091553,0.00111451
5159.55972290,0.00110127
5161.48853027,0.00116887
5163.41733765,0.00112732
5165.34614502,0.00109048
5167.27495239,0.00109915
5169.20375977,0.00109686
5171.13256714,0.00106019
5173.06137451,0.00118601
5174.99018188,0.00127162
5176.91898926,0.00110302
5178.84779663,0.00110692
5180.77660400,0.00111228
5182.70541138,0.00110494
5184.63421875,0.00115067
5186.56302612,0.00111179
5188.49183350,0.00115322
5190.42064087,0.00111038
5192.34944824,0.00104857
5194.27825562,0.00108073
5196.20706299,0.00108191
5198.13587036,0.00107064
5200.06467773,0.00109323
5201.99348511,0.00106192
5203.92229248,0.00100901
5205.85109985,0.00106198
5207.77990723,0.00104423
5209.70871460,0.00103179
5211.63752197,0.00102767
5213.56632935,0.00102551
5215.49513672,0.00108155
5217.42394409,0.00101498
5219.35275146,0.00107053
5221.28155884,0.00109130
5223.21036621,0.00099259
5225.13917358,0.00107913
5227.06798096,0.00104192
5228.99678833,0.00101154
5230.92559570,0.00110461
5232.85440308,0.00105656
5234.78321045,0.00105617
5236.71201782,0.00104750
5238.64082520,0.00100768
5240.56963257,0.00099756
5242.49843994,0.00096215
5244.42724731,0.00102864
5246.35605469,0.00103316
5248.28486206,0.00100779
5250.21366943,0.00100291
5252.14247681,0.00102971
5254.07128418,0.00106093
5256.00009155,0.00088582
5257.92889893,0.00099541
5259.85770630,0.00112195
5261.78651367,0.00094935
5263.71532104,0.00102828
5265.64412842,0.00103992
5267.57293579,0.00093979
5269.50174316,0.00093317
5271.43055054,0.00097369
5273.35935791,0.00105369
5275.28816528,0.00094483
5277.21697266,0.00094421
5279.14578003,0.00106802
5281.07458740,0.00101358
5283.00339478,0.00101136
5284.93220215,0.00100892
5286.86100952,0.00097176
5288.78981689,0.00102706
5290.71862427,0.00095088
5292.64743164,0.00089888
5294.57623901,0.00096163
5296.50504639,0.00099224
5298.43385376,0.00103429
5300.36266113,0.00094440
5302.29146851,0.00094208
5304.22027588,0.00096600
5306.14908325,0.00087491
5308.07789062,0.00093857
5310.00669800,0.00091760
5311.93550537,0.00089101
5313.86431274,0.00095585
5315.79312012,0.00092670
5317.72192749,0.00090671
5319.65073486,0.00097725
5321.57954224,0.00101708
5323.50834961,0.00088517
5325.43715698,0.00087154
5327.36596436,0.00094926
5329.29477173,0.00094373
5331.22357910,0.00092286
5333.15238647,0.00086507
5335.08119385,0.00092684
5337.01000122,0.00094009
5338.93880859,0.00087774
5340.86761597,0.00091015
5342.79642334,0.00086176
5344.72523071,0.00082045
5346.65403809,0.00086247
5348.58284546,0.00091176
5350.51165283,0.00094508
5352.44046020,0.00088095
5354.36926758,0.00084036
5356.29807495,0.00089882
5358.22688232,0.00092169
5360.15568970,0.00090194
5362.08449707,0.00088736
5364.01330444,0.00088449
5365.94211182,0.00083700
5367.87091919,0.00079295
5369.79972656,0.00080113
5371.72853394,0.00081530
5373.65734131,0.00085411
5375.58614868,0.00081113
5377.51495605,0.00080577
5379.44376343,0.00086010
5381.37257080,0.00087788
5383.30137817,0.00091797
5385.23018555,0.00083107
5387.15899292,0.00082411
5389.08780029,0.00085552
5391.01660767,0.00077558
5392.94541504,0.00082015
5394.87422241,0.00087436
5396.80302978,0.00086009
5398.73183716,0.00076381
5400.66064453,0.00076694
5402.58945190,0.00086805
5404.51825928,0.00084411
5406.44706665,0.00086702
5408.37587402,0.00085261
5410.30468140,0.00082470
5412.23348877,0.00085195
5414.16229614,0.00076380
5416.09110352,0.00078024
5418.01991089,0.00086920
5419.94871826,0.00080956
5421.87752563,0.00082066
5423.80633301,0.00084565
5425.73514038,0.00078148
5427.66394775,0.00075849
5429.59275513,0.00070800
5431.52156250,0.00075794
5433.45036987,0.00081382
5435.37917725,0.00072842
5437.30798462,0.00075339
5439.23679199,0.00081165
5441.16559936,0.00075856
5443.09440674,0.00073853
5445.02321411,0.00079402
5446.95202148,0.00077585
5448.88082886,0.00074653
5450.80963623,0.00073652
5452.73844360,0.00075543
5454.66725098,0.00080449
5456.59605835,0.00072988
5458.52486572,0.00075813
5460.45367310,0.00079632
5462.38248047,0.00076643
5464.31128784,0.00081817
5466.24009521,0.00080087
5468.16890259,0.00081479
5470.09770996,0.00077472
5472.02651733,0.00072233
5473.95532471,0.00072442
5475.88413208,0.00068626
5477.81293945,0.00074622
5479.74174683,0.00078239
5481.67055420,0.00079709
5483.59936157,0.00079554
5485.52816895,0.00071398
5487.45697632,0.00069575
5489.38578369,0.00073982
5491.31459106,0.00071040
5493.24339844,0.00066881
5495.17220581,0.00071338
5497.10101318,0.00072145
5499.02982056,0.00075993
5500.95862793,0.00071898
5502.88743530,0.00065236
5504.81624268,0.00077051
5506.74505005,0.00075882
5508.67385742,0.00068811
5510.60266479,0.00070401
5512.53147217,0.00073122
5514.46027954,0.00076573
5516.38908691,0.00074861
5518.31789429,0.00072173
5520.24670166,0.00067902
5522.17550903,0.00068608
5524.10431641,0.00069965
5526.03312378,0.00066644
5527.96193115,0.00067334
5529.89073853,0.00068202
5531.81954590,0.00068558
5533.74835327,0.00067141
5535.67716064,0.00068528
5537.60596802,0.00072489
5539.53477539,0.00069081
5541.46358276,0.00062206
5543.39239014,0.00061189
5545.32119751,0.00070666
5547.25000488,0.00075369
5549.17881226,0.00067793
5551.10761963,0.00065440
5553.03642700,0.00066769
5554.96523437,0.00069161
5556.89404175,0.00068621
5558.82284912,0.00060600
5560.75165649,0.00067988
5562.68046387,0.00072241
5564.60927124,0.00066012
5566.53807861,0.00069206
5568.46688599,0.00059484
5570.39569336,0.00058674
5572.32450073,0.00069701
5574.25330811,0.00066443
5576.18211548,0.00066945
5578.11092285,0.00063760
5580.03973022,0.00059929
5581.96853760,0.00061222
5583.89734497,0.00060064
5585.82615234,0.00063813
5587.75495972,0.00064902
5589.68376709,0.00062313
5591.61257446,0.00060455
5593.54138184,0.00059170
5595.47018921,0.00061955
5597.39899658,0.00069111
5599.32780395,0.00069682
5601.25661133,0.00062494
5603.18541870,0.00061836
5605.11422607,0.00063408
5607.04303345,0.00060898
5608.97184082,0.00063814
5610.90064819,0.00069240
5612.82945557,0.00060173
5614.75826294,0.00056342
5616.68707031,0.00065699
5618.61587769,0.00064168
5620.54468506,0.00063762
5622.47349243,0.00066029
5624.40229980,0.00064045
5626.33110718,0.00057047
5628.25991455,0.00055023
5630.18872192,0.00065913
5632.11752930,0.00062811
5634.04633667,0.00055413
5635.97514404,0.00055308
5637.90395142,0.00058800
5639.83275879,0.00062567
5641.76156616,0.00060230
5643.69037353,0.00060529
5645.61918091,0.00058517
5647.54798828,0.00066560
5649.47679565,0.00065306
5651.40560303,0.00054160
5653.33441040,0.00060043
5655.26321777,0.00055604
5657.19202515,0.00057768
5659.12083252,0.00061553
5661.04963989,0.00056374
5662.97844727,0.00060588
5664.90725464,0.00056346
5666.83606201,0.00056863
5668.76486938,0.00060824
5670.69367676,0.00056187
5672.62248413,0.00051777
5674.55129150,0.00052246
5676.48009888,0.00055920
5678.40890625,0.00051504
5680.33771362,0.00051420
5682.26652100,0.00058092
5684.19532837,0.00055949
5686.12413574,0.00055680
5688.05294311,0.00062748
5689.98175049,0.00057659
5691.91055786,0.00052665
5693.83936523,0.00055150
5695.76817261,0.00050414
5697.69697998,0.00055868
5699.62578735,0.00059157
5701.55459473,0.00048954
5703.48340210,0.00047020
5705.41220947,0.00051605
5707.34101685,0.00053481
5709.26982422,0.00053388
5711.19863159,0.00055409
5713.12743896,0.00054145
5715.05624634,0.00052332
5716.98505371,0.00050098
5718.91386108,0.00048612
5720.84266846,0.00053876
5722.77147583,0.00054039
5724.70028320,0.00052478
5726.62909058,0.00054295
5728.55789795,0.00055949
5730.48670532,0.00056896
5732.41551270,0.00055143
5734.34432007,0.00052039
5736.27312744,0.00054839
5738.20193481,0.00055269
5740.13074219,0.00046230
5742.05954956,0.00049165
5743.98835693,0.00053114
5745.91716431,0.00052998
5747.84597168,0.00053108
5749.77477905,0.00044191
5751.70358643,0.00044611
5753.63239380,0.00046278
5755.56120117,0.00048173
5757.49000854,0.00054163
5759.41881592,0.00051828
5761.34762329,0.00050398
5763.27643066,0.00052898
5765.20523804,0.00053064
5767.13404541,0.00044964
5769.06285278,0.00042994
5770.99166016,0.00044566
5772.92046753,0.00043498
5774.84927490,0.00045245
5776.77808228,0.00040759
5778.70688965,0.00045707
5780.63569702,0.00050756
5782.56450439,0.00048688
5784.49331177,0.00049446
5786.42211914,0.00047383
5788.35092651,0.00053888
5790.27973389,0.00054824
5792.20854126,0.00049793
5794.13734863,0.00048150
5796.06615601,0.00041564
5797.99496338,0.00044465
5799.92377075,0.00045491
5801.85257812,0.00044320
5803.78138550,0.00051009
5805.71019287,0.00048418
5807.63900024,0.00048226
5809.56780762,0.00049210
5811.49661499,0.00044291
5813.42542236,0.00047381
5815.35422974,0.00050535
5817.28303711,0.00050885
5819.21184448,0.00048455
5821.14065186,0.00042668
5823.06945923,0.00045087
5824.99826660,0.00049874
5826.92707397,0.00046345
5828.85588135,0.00043007
5830.78468872,0.00044447
5832.71349609,0.00047936
5834.64230347,0.00047584
5836.57111084,0.00041766
5838.49991821,0.00045381
5840.42872559,0.00044665
5842.35753296,0.00041823
5844.28634033,0.00051273
5846.21514770,0.00048190
5848.14395508,0.00042494
5850.07276245,0.00042842
5852.00156982,0.00043943
5853.93037720,0.00044409
5855.85918457,0.00042022
5857.78799194,0.00041823
5859.71679932,0.00042755
5861.64560669,0.00050074
5863.57441406,0.00038198
5865.50322144,0.00035653
5867.43202881,0.00054136
5869.36083618,0.00043423
5871.28964355,0.00039095
5873.21845093,0.00042203
5875.14725830,0.00037769
5877.07606567,0.00036691
5879.00487305,0.00038676
5880.93368042,0.00046149
5882.86248779,0.00039803
5884.79129517,0.00042412
5886.72010254,0.00044148
5888.64890991,0.00036804
5890.57771728,0.00045580
5892.50652466,0.00041490
5894.43533203,0.00035552
5896.36413940,0.00043601
5898.29294678,0.00041894
5900.22175415,0.00035092
5902.15056152,0.00035486
5904.07936890,0.00040550
5906.00817627,0.00039620
5907.93698364,0.00034087
5909.86579102,0.00038574
5911.79459839,0.00038579
5913.72340576,0.00034856
5915.65221313,0.00040688
5917.58102051,0.00037409
5919.50982788,0.00039751
5921.43863525,0.00043828
5923.36744263,0.00039839
5925.29625000,0.00041608
5927.22505737,0.00038275
5929.15386475,0.00038748
5931.08267212,0.00038496
5933.01147949,0.00037586
5934.94028686,0.00037585
5936.86909424,0.00035174
5938.79790161,0.00041417
5940.72670898,0.00038043
5942.65551636,0.00036231
5944.58432373,0.00043146
5946.51313110,0.00042421
5948.44193848,0.00040396
5950.37074585,0.00039715
5952.29955322,0.00039574
5954.22836060,0.00039083
5956.15716797,0.00037892
5958.08597534,0.00035955
5960.01478271,0.00036460
5961.94359009,0.00036067
5963.87239746,0.00035684
5965.80120483,0.00035534
5967.73001221,0.00036852
5969.65881958,0.00038375
5971.58762695,0.00033121
5973.51643433,0.00034098
5975.44524170,0.00030655
5977.37404907,0.00030464
5979.30285645,0.00040286
5981.23166382,0.00037668
5983.16047119,0.00033368
5985.08927856,0.00034435
5987.01808594,0.00038413
5988.94689331,0.00033919
5990.87570068,0.00030350
5992.80450806,0.00034450
5994.73331543,0.00036919
5996.66212280,0.00041059
5998.59093018,0.00036919
6000.51973755,0.00034882
