399.26312622,0.00002467
401.19193359,0.00005798
403.12074097,0.00016714
405.04954834,0.00010641
406.97835571,0.00011997
408.90716309,0.00020580
410.83597046,0.00006311
412.76477783,0.00002926
414.69358521,0.00011588
416.62239258,0.00025940
418.55119995,0.00030512
420.48000732,0.00009522
422.40881470,0.00019124
424.33762207,0.00028386
426.26642944,0.00016797
428.19523682,0.00023128
430.12404419,0.00022680
432.05285156,0.00018050
433.98165894,0.00029209
435.91046631,0.00026329
437.83927368,0.00020478
439.76808105,0.00009293
441.69688843,0.00009342
443.62569580,0.00018463
445.55450317,0.00000040
447.48331055,0.00036897
449.41211792,0.00025341
451.34092529,-0.00007878
453.26973267,0.00034104
455.19854004,0.00008878
457.12734741,-0.00007877
459.05615479,-0.00006520
460.98496216,0.00007206
462.91376953,0.00033403
464.84257690,0.00018451
466.77138428,0.00028520
468.70019165,0.00006954
470.62899902,0.00002495
472.55780640,0.00033247
474.48661377,0.00015890
476.41542114,-0.00002144
478.34422852,0.00010338
480.27303589,0.00021525
482.20184326,0.00012364
484.13065063,0.00028183
486.05945801,0.00026564
487.98826538,-0.00003654
489.91707275,-0.00003181
491.84588013,0.00031443
493.77468750,0.00035141
495.70349487,0.00007699
497.63230225,0.00020058
499.56110962,0.00006727
501.48991699,0.00008634
503.41872437,0.00020884
505.34753174,0.00028491
507.27633911,0.00033547
509.20514648,0.00001345
511.13395386,0.00036748
513.06276123,0.00013943
514.99156860,-0.00004851
516.92037598,0.00030364
518.84918335,0.00013710
520.77799072,0.00025472
522.70679810,0.00011512
524.63560547,0.00038553
526.56441284,0.00020548
528.49322021,-0.00017090
530.42202759,0.00034033
532.35083496,-0.00005047
534.27964233,-0.00023131
536.20844971,0.00017932
538.13725708,0.00017683
540.06606445,0.00012545
541.99487183,0.00010951
543.92367920,0.00017430
545.85248657,0.00024311
547.78129395,0.00017617
549.71010132,0.00008996
551.63890869,0.00021989
553.56771606,0.00022118
555.49652344,0.00002508
557.42533081,0.00002928
559.35413818,0.00016302
561.28294556,0.00022938
563.21175293,0.00012502
565.14056030,0.00003736
567.06936768,0.00001252
568.99817505,0.00008291
570.92698242,0.00027382
572.85578979,0.00027653
574.78459717,0.00024572
576.71340454,0.00013067
578.64221191,0.00002919
580.57101929,0.00012712
582.49982666,-0.00001735
584.42863403,0.00006623
586.35744141,0.00003549
588.28624878,-0.00002765
590.21505615,0.00010026
592.14386353,-0.00013420
594.07267090,0.00003496
596.00147827,0.00000025
597.93028564,0.00018033
599.85909302,0.00037691
601.78790039,0.00002921
603.71670776,0.00007643
605.64551514,0.00006819
607.57432251,-0.00006858
609.50312988,0.00014731
611.43193726,0.00020780
613.36074463,0.00024648
615.28955200,0.00013678
617.21835938,-0.00000312
619.14716675,0.00024503
621.07597412,0.00019916
623.00478149,0.00003086
624.93358887,0.00008608
626.86239624,0.00021653
628.79120361,0.00027275
630.72001099,0.00017925
632.64881836,0.00022428
634.57762573,0.00031153
636.50643311,0.00027132
638.43524048,0.00001286
640.36404785,-0.00001168
642.29285522,0.00017101
644.22166260,0.00006532
646.15046997,0.00018182
648.07927734,0.00025987
650.00808472,0.00014583
651.93689209,0.00013694
653.86569946,0.00003283
655.79450684,0.00009989
657.72331421,0.00024400
659.65212158,0.00022160
661.58092896,0.00021520
663.50973633,0.00014159
665.43854370,0.00007986
667.36735107,0.00023817
669.29615845,0.00004376
671.22496582,0.00023596
673.15377319,0.00014328
675.08258057,0.00002859
677.01138794,0.00044738
678.94019531,0.00000687
680.86900269,0.00004575
682.79781006,0.00014147
684.72661743,0.00015838
686.65542480,0.00022049
688.58423218,-0.00000164
690.51303955,0.00020628
692.44184692,0.00010321
694.37065430,0.00007542
696.29946167,0.00017691
698.22826904,0.00012444
700.15707642,0.00016306
702.08588379,0.00003365
704.01469116,-0.00005013
705.94349854,0.00027000
707.87230591,0.00031596
709.80111328,0.00025644
711.72992065,0.00026713
713.65872803,0.00000943
715.58753540,0.00004794
717.51634277,-0.00002647
719.44515015,0.00013047
721.37395752,0.00011961
723.30276489,0.00013943
725.23157227,0.00038913
727.16037964,-0.00003255
729.08918701,0.00016803
731.01799438,0.00021152
732.94680176,-0.00011944
734.87560913,-0.00012333
736.80441650,0.00006075
738.73322388,0.00023976
740.66203125,-0.00000409
742.59083862,0.00010280
744.51964600,0.00017251
746.44845337,0.00020029
748.37726074,0.00018592
750.30606812,0.00002637
752.23487549,0.00006412
754.16368286,0.00001848
756.09249023,0.00010182
758.02129761,0.00012656
759.95010498,0.00031670
761.87891235,0.00034440
763.80771973,0.00000253
765.73652710,0.00014482
767.66533447,0.00017560
769.59414185,0.00011870
771.52294922,0.00016211
773.45175659,0.00010838
775.38056396,0.00019581
777.30937134,0.00025753
779.23817871,0.00009197
781.16698608,-0.00000550
783.09579346,0.00016911
785.02460083,0.00016782
786.95340820,0.00022201
788.88221558,0.00019160
790.81102295,0.00008821
792.73983032,0.00009913
794.66863770,-0.00006106
796.59744507,0.00010186
798.52625244,0.00024450
800.45505981,0.00026711
802.38386719,0.00008716
804.31267456,-0.00003195
806.24148193,0.00035091
808.17028931,0.00028419
810.09909668,-0.00001636
812.02790405,-0.00003568
813.95671143,0.00024130
815.88551880,0.00030341
817.81432617,0.00015200
819.74313354,0.00018753
821.67194092,0.00012961
823.60074829,0.00021408
825.52955566,0.00013617
827.45836304,0.00012585
829.38717041,0.00033156
831.31597778,0.00027929
833.24478516,0.00011137
835.17359253,0.00003738
837.10239990,0.00032432
839.03120728,0.00034314
840.96001465,0.00014609
842.88882202,0.00016844
844.81762939,0.00018436
846.74643677,0.00027383
848.67524414,0.00020267
850.60405151,0.00020434
852.53285889,0.00022501
854.46166626,0.00000341
856.39047363,-0.00002099
858.31928101,0.00014322
860.24808838,0.00024778
862.17689575,0.00028924
864.10570313,0.00019181
866.03451050,0.00009073
867.96331787,0.00011703
869.89212524,0.00007887
871.82093262,0.00026813
873.74973999,0.00025606
875.67854736,0.00011795
877.60735474,0.00040207
879.53616211,0.00020852
881.46496948,0.00013007
883.39377686,0.00026443
885.32258423,0.00005219
887.25139160,0.00010614
889.18019897,0.00001676
891.10900635,0.00005407
893.03781372,0.00034313
894.96662109,0.00031350
896.89542847,0.00038695
898.82423584,0.00033211
900.75304321,0.00010111
902.68185059,0.00016876
904.61065796,0.00018773
906.53946533,0.00015966
908.46827271,0.00019115
910.39708008,0.00006638
912.32588745,0.00007800
914.25469482,0.00019035
916.18350220,0.00009234
918.11230957,0.00006326
920.04111694,0.00020505
921.96992432,0.00031797
923.89873169,0.00018377
925.82753906,0.00005121
927.75634644,0.00021548
929.68515381,0.00017735
931.61396118,0.00019039
933.54276855,0.00014145
935.47157593,0.00003488
937.40038330,0.00031754
939.32919067,0.00025928
941.25799805,0.00026194
943.18680542,0.00032487
945.11561279,0.00021767
947.04442017,0.00037167
948.97322754,0.00021849
950.90203491,0.00010259
952.83084229,0.00028720
954.75964966,0.00031694
956.68845703,0.00025094
958.61726440,0.00017904
960.54607178,0.00016336
962.47487915,0.00027377
964.40368652,0.00036409
966.33249390,0.00020029
968.26130127,0.00018826
970.19010864,0.00027245
972.11891602,0.00019590
974.04772339,0.00017124
975.97653076,0.00026369
977.90533813,0.00048651
979.83414551,0.00045716
981.76295288,0.00040688
983.69176025,0.00034688
985.62056763,0.00024666
987.54937500,0.00032221
989.47818237,0.00038326
991.40698975,0.00032281
993.33579712,0.00011469
995.26460449,0.00025833
997.19341187,0.00029078
999.12221924,0.00021118
1001.05102661,0.00029683
1002.97983398,0.00030827
1004.90864136,0.00049451
1006.83744873,0.00046518
1008.76625610,0.00046266
1010.69506348,0.00043839
1012.62387085,0.00043559
1014.55267822,0.00056851
1016.48148560,0.00052698
1018.41029297,0.00055141
1020.33910034,0.00059412
1022.26790771,0.00071170
1024.19671509,0.00063685
1026.12552246,0.00064797
1028.05432983,0.00075961
1029.98313721,0.00063310
1031.91194458,0.00068127
1033.84075195,0.00060310
1035.76955933,0.00054333
1037.69836670,0.00067379
1039.62717407,0.00049462
1041.55598145,0.00044698
1043.48478882,0.00068024
1045.41359619,0.00047552
1047.34240356,0.00056467
1049.27121094,0.00086715
1051.20001831,0.00060850
1053.12882568,0.00063409
1055.05763306,0.00071900
1056.98644043,0.00062876
1058.91524780,0.00050832
1060.84405518,0.00055396
1062.77286255,0.00072005
1064.70166992,0.00055388
1066.63047729,0.00058111
1068.55928467,0.00059527
1070.48809204,0.00066933
1072.41689941,0.00055706
1074.34570679,0.00034682
1076.27451416,0.00063610
1078.20332153,0.00060943
1080.13212891,0.00052754
1082.06093628,0.00046814
1083.98974365,0.00049822
1085.91855103,0.00053655
1087.84735840,0.00049361
1089.77616577,0.00060803
1091.70497314,0.00035715
1093.63378052,0.00049638
1095.56258789,0.00054293
1097.49139526,0.00036563
1099.42020264,0.00044452
1101.34901001,0.00035088
1103.27781738,0.00049947
1105.20662476,0.00043655
1107.13543213,0.00050162
1109.06423950,0.00041656
1110.99304687,0.00029295
1112.92185425,0.00059314
1114.85066162,0.00039202
1116.77946899,0.00057811
1118.70827637,0.00056950
1120.63708374,0.00033711
1122.56589111,0.00061808
1124.49469849,0.00044746
1126.42350586,0.00041692
1128.35231323,0.00046281
1130.28112061,0.00037878
1132.20992798,0.00047806
1134.13873535,0.00046697
1136.06754272,0.00058064
1137.99635010,0.00059609
1139.92515747,0.00044299
1141.85396484,0.00052214
1143.78277222,0.00054660
1145.71157959,0.00063450
1147.64038696,0.00076649
1149.56919434,0.00062846
1151.49800171,0.00071502
1153.42680908,0.00064845
1155.35561646,0.00053050
1157.28442383,0.00059046
1159.21323120,0.00057986
1161.14203857,0.00079844
1163.07084595,0.00064278
1164.99965332,0.00066203
1166.92846069,0.00086913
1168.85726807,0.00082786
1170.78607544,0.00099933
1172.71488281,0.00087613
1174.64369019,0.00081454
1176.57249756,0.00071929
1178.50130493,0.00071987
1180.43011230,0.00086380
1182.35891968,0.00074169
1184.28772705,0.00102526
1186.21653442,0.00107550
1188.14534180,0.00094992
1190.07414917,0.00111712
1192.00295654,0.00111541
1193.93176392,0.00096631
1195.86057129,0.00106017
1197.78937866,0.00133577
1199.71818604,0.00115243
1201.64699341,0.00120980
1203.57580078,0.00132753
1205.50460815,0.00113828
1207.43341553,0.00135390
1209.36222290,0.00138156
1211.29103027,0.00128686
1213.21983765,0.00128579
1215.14864502,0.00144505
1217.07745239,0.00168110
1219.00625977,0.00147801
1220.93506714,0.00147890
1222.86387451,0.00165839
1224.79268188,0.00158415
1226.72148926,0.00149230
1228.65029663,0.00156453
1230.57910400,0.00154329
1232.50791138,0.00152739
1234.43671875,0.00167348
1236.36552612,0.00143425
1238.29433350,0.00151823
1240.22314087,0.00171989
1242.15194824,0.00148685
1244.08075562,0.00158559
1246.00956299,0.00162282
1247.93837036,0.00162585
1249.86717773,0.00174159
1251.79598511,0.00177951
1253.72479248,0.00174322
1255.65359985,0.00161290
1257.58240723,0.00164165
1259.51121460,0.00164877
1261.44002197,0.00158386
1263.36882935,0.00139036
1265.29763672,0.00141088
1267.22644409,0.00163380
1269.15525146,0.00159387
1271.08405884,0.00149410
1273.01286621,0.00152277
1274.94167358,0.00160686
1276.87048096,0.00128970
1278.79928833,0.00126387
1280.72809570,0.00149299
1282.65690308,0.00141072
1284.58571045,0.00151524
1286.51451782,0.00135643
1288.44332520,0.00130820
1290.37213257,0.00140687
1292.30093994,0.00136245
1294.22974731,0.00147091
1296.15855469,0.00142294
1298.08736206,0.00137812
1300.01616943,0.00128167
1301.94497681,0.00134613
1303.87378418,0.00145396
1305.80259155,0.00135778
1307.73139893,0.00139708
1309.66020630,0.00152213
1311.58901367,0.00162752
1313.51782104,0.00148465
1315.44662842,0.00145659
1317.37543579,0.00159285
1319.30424316,0.00168946
1321.23305054,0.00163255
1323.16185791,0.00150368
1325.09066528,0.00178344
1327.01947266,0.00183879
1328.94828003,0.00177151
1330.87708740,0.00188053
1332.80589478,0.00177531
1334.73470215,0.00177844
1336.66350952,0.00196932
1338.59231689,0.00191449
1340.52112427,0.00179417
1342.44993164,0.00201424
1344.37873901,0.00198471
1346.30754639,0.00193097
1348.23635376,0.00193719
1350.16516113,0.00177900
1352.09396851,0.00199615
1354.02277588,0.00208745
1355.95158325,0.00201703
1357.88039062,0.00193552
1359.80919800,0.00194630
1361.73800537,0.00197836
1363.66681274,0.00182883
1365.59562012,0.00194626
1367.52442749,0.00184277
1369.45323486,0.00177635
1371.38204224,0.00189467
1373.31084961,0.00188593
1375.23965698,0.00199245
1377.16846436,0.00194718
1379.09727173,0.00199537
1381.02607910,0.00190180
1382.95488647,0.00175470
1384.88369385,0.00191986
1386.81250122,0.00194183
1388.74130859,0.00196811
1390.67011597,0.00190174
1392.59892334,0.00178947
1394.52773071,0.00192564
1396.45653809,0.00199043
1398.38534546,0.00200130
1400.31415283,0.00203738
1402.24296021,0.00192153
1404.17176758,0.00196818
1406.10057495,0.00206939
1408.02938232,0.00201769
1409.95818970,0.00214694
1411.88699707,0.00208638
1413.81580444,0.00207693
1415.74461182,0.00208898
1417.67341919,0.00174819
1419.60222656,0.00178404
1421.53103394,0.00182191
1423.45984131,0.00180001
1425.38864868,0.00186411
1427.31745605,0.00178420
1429.24626343,0.00185800
1431.17507080,0.00171470
1433.10387817,0.00175967
1435.03268555,0.00174455
1436.96149292,0.00148296
1438.89030029,0.00178397
1440.81910767,0.00177129
1442.74791504,0.00158947
1444.67672241,0.00163628
1446.60552979,0.00154447
1448.53433716,0.00161036
1450.46314453,0.00163515
1452.39195190,0.00174324
1454.32075928,0.00167737
1456.24956665,0.00143073
1458.17837402,0.00161949
1460.10718140,0.00185165
1462.03598877,0.00194177
1463.96479614,0.00191323
1465.89360352,0.00198163
1467.82241089,0.00227009
1469.75121826,0.00224109
1471.68002563,0.00204968
1473.60883301,0.00215882
1475.53764038,0.00240343
1477.46644775,0.00263352
1479.39525513,0.00278787
1481.32406250,0.00284223
1483.25286987,0.00298080
1485.18167725,0.00301378
1487.11048462,0.00292745
1489.03929199,0.00278162
1490.96809937,0.00285764
1492.89690674,0.00345690
1494.82571411,0.00340964
1496.75452148,0.00309711
1498.68332886,0.00347532
1500.61213623,0.00360156
1502.54094360,0.00375800
1504.46975098,0.00353690
1506.39855835,0.00277738
1508.32736572,0.00326304
1510.25617310,0.00377176
1512.18498047,0.00362420
1514.11378784,0.00384215
1516.04259521,0.00365370
1517.97140259,0.00370219
1519.90020996,0.00365190
1521.82901733,0.00325704
1523.75782471,0.00360398
1525.68663208,0.00364425
1527.61543945,0.00370034
1529.54424683,0.00383544
1531.47305420,0.00368531
1533.40186157,0.00365388
1535.33066895,0.00389583
1537.25947632,0.00398420
1539.18828369,0.00293170
1541.11709106,0.00317064
1543.04589844,0.00376223
1544.97470581,0.00340758
1546.90351318,0.00402753
1548.83232056,0.00391576
1550.76112793,0.00403932
1552.68993530,0.00414626
1554.61874268,0.00380675
1556.54755005,0.00398007
1558.47635742,0.00290178
1560.40516479,0.00318102
1562.33397217,0.00430669
1564.26277954,0.00406541
1566.19158691,0.00417923
1568.12039429,0.00404812
1570.04920166,0.00385451
1571.97800903,0.00431679
1573.90681641,0.00426917
1575.83562378,0.00355866
1577.76443115,0.00391979
1579.69323853,0.00464809
1581.62204590,0.00435425
1583.55085327,0.00425998
1585.47966064,0.00436522
1587.40846802,0.00427873
1589.33727539,0.00424453
1591.26608276,0.00431515
1593.19489014,0.00427776
1595.12369751,0.00425890
1597.05250488,0.00434786
1598.98131226,0.00430340
1600.91011963,0.00433280
1602.83892700,0.00429863
1604.76773437,0.00437497
1606.69654175,0.00431953
1608.62534912,0.00427642
1610.55415649,0.00429455
1612.48296387,0.00437095
1614.41177124,0.00450803
1616.34057861,0.00392750
1618.26938599,0.00424262
1620.19819336,0.00467217
1622.12700073,0.00428978
1624.05580811,0.00454068
1625.98461548,0.00458442
1627.91342285,0.00466061
1629.84223022,0.00474916
1631.77103760,0.00500654
1633.69984497,0.00488774
1635.62865234,0.00397051
1637.55745972,0.00449991
1639.48626709,0.00512276
1641.41507446,0.00490753
1643.34388184,0.00504042
1645.27268921,0.00456453
1647.20149658,0.00422000
1649.13030396,0.00517712
1651.05911133,0.00478304
1652.98791870,0.00349490
1654.91672607,0.00446440
1656.84553345,0.00530900
1658.77434082,0.00529882
1660.70314819,0.00533341
1662.63195557,0.00491211
1664.56076294,0.00517627
1666.48957031,0.00523157
1668.41837769,0.00471068
1670.34718506,0.00474753
1672.27599243,0.00519835
1674.20479980,0.00492258
1676.13360718,0.00474755
1678.06241455,0.00532223
1679.99122192,0.00522179
1681.92002930,0.00514841
1683.84883667,0.00425043
1685.77764404,0.00426789
1687.70645142,0.00551063
1689.63525879,0.00472785
1691.56406616,0.00535491
1693.49287354,0.00535937
1695.42168091,0.00387084
1697.35048828,0.00489320
1699.27929565,0.00450047
1701.20810303,0.00398232
1703.13691040,0.00514798
1705.06571777,0.00490921
1706.99452515,0.00483051
1708.92333252,0.00513775
1710.85213989,0.00493418
1712.78094727,0.00487432
1714.70975464,0.00475134
1716.63856201,0.00424779
1718.56736938,0.00413671
1720.49617676,0.00494735
1722.42498413,0.00500552
1724.35379150,0.00483694
1726.28259888,0.00519514
1728.21140625,0.00467433
1730.14021362,0.00476357
1732.06902100,0.00457624
1733.99782837,0.00363207
1735.92663574,0.00458755
1737.85544312,0.00481749
1739.78425049,0.00428202
1741.71305786,0.00474715
1743.64186523,0.00468913
1745.57067261,0.00479638
1747.49947998,0.00479937
1749.42828735,0.00456882
1751.35709473,0.00457339
1753.28590210,0.00493756
1755.21470947,0.00506760
1757.14351685,0.00460736
1759.07232422,0.00503636
1761.00113159,0.00478032
1762.92993896,0.00471081
1764.85874634,0.00526487
1766.78755371,0.00462232
1768.71636108,0.00484923
1770.64516846,0.00477231
1772.57397583,0.00432001
1774.50278320,0.00492647
1776.43159058,0.00511110
1778.36039795,0.00497176
1780.28920532,0.00493006
1782.21801270,0.00513520
1784.14682007,0.00499942
1786.07562744,0.00477514
1788.00443481,0.00507270
1789.93324219,0.00497221
1791.86204956,0.00456854
1793.79085693,0.00477454
1795.71966431,0.00509209
1797.64847168,0.00491639
1799.57727905,0.00497666
1801.50608643,0.00492372
1803.43489380,0.00505848
1805.36370117,0.00514190
1807.29250854,0.00478831
1809.22131592,0.00501448
1811.15012329,0.00493090
1813.07893066,0.00499917
1815.00773804,0.00521409
1816.93654541,0.00499361
1818.86535278,0.00498701
1820.79416016,0.00505591
1822.72296753,0.00507943
1824.65177490,0.00476453
1826.58058228,0.00506217
1828.50938965,0.00511086
1830.43819702,0.00472766
1832.36700439,0.00508416
1834.29581177,0.00506226
1836.22461914,0.00507633
1838.15342651,0.00504126
1840.08223389,0.00506751
1842.01104126,0.00504247
1843.93984863,0.00461618
1845.86865601,0.00484690
1847.79746338,0.00498412
1849.72627075,0.00499362
1851.65507812,0.00510391
1853.58388550,0.00508489
1855.51269287,0.00502367
1857.44150024,0.00507688
1859.37030762,0.00526019
1861.29911499,0.00509995
1863.22792236,0.00505006
1865.15672974,0.00502079
1867.08553711,0.00493951
1869.01434448,0.00479859
1870.94315186,0.00487927
1872.87195923,0.00519346
1874.80076660,0.00503306
1876.72957397,0.00504760
1878.65838135,0.00506757
1880.58718872,0.00505861
1882.51599609,0.00506701
1884.44480347,0.00505327
1886.37361084,0.00518372
1888.30241821,0.00494162
1890.23122559,0.00505195
1892.16003296,0.00512232
1894.08884033,0.00494868
1896.01764771,0.00508568
1897.94645508,0.00507238
1899.87526245,0.00509092
1901.80406982,0.00501088
1903.73287720,0.00499865
1905.66168457,0.00502557
1907.59049194,0.00487305
1909.51929932,0.00495236
1911.44810669,0.00496553
1913.37691406,0.00500557
1915.30572144,0.00512936
1917.23452881,0.00491676
1919.16333618,0.00484710
1921.09214355,0.00500917
1923.02095093,0.00497763
1924.94975830,0.00491198
1926.87856567,0.00495242
1928.80737305,0.00507880
1930.73618042,0.00495928
1932.66498779,0.00491957
1934.59379517,0.00510598
1936.52260254,0.00501211
1938.45140991,0.00504098
1940.38021729,0.00499178
1942.30902466,0.00491512
1944.23783203,0.00499160
1946.16663940,0.00499952
1948.09544678,0.00505925
1950.02425415,0.00493932
1951.95306152,0.00506281
1953.88186890,0.00511086
1955.81067627,0.00493153
1957.73948364,0.00498946
1959.66829102,0.00497239
1961.59709839,0.00501750
1963.52590576,0.00495053
1965.45471313,0.00486347
1967.38352051,0.00488314
1969.31232788,0.00488902
1971.24113525,0.00501975
1973.16994263,0.00499001
1975.09875000,0.00486276
1977.02755737,0.00497616
1978.95636475,0.00515240
1980.88517212,0.00505757
1982.81397949,0.00504522
1984.74278687,0.00501135
1986.67159424,0.00492137
1988.60040161,0.00506996
1990.52920898,0.00497139
1992.45801636,0.00493915
1994.38682373,0.00502391
1996.31563110,0.00501954
1998.24443848,0.00512997
2000.17324585,0.00497185
2002.10205322,0.00488869
2004.03086060,0.00505828
2005.95966797,0.00496328
2007.88847534,0.00495390
2009.81728271,0.00505583
2011.74609009,0.00496460
2013.67489746,0.00491464
2015.60370483,0.00484306
2017.53251221,0.00501158
2019.46131958,0.00507020
2021.39012695,0.00482703
2023.31893433,0.00496435
2025.24774170,0.00493785
2027.17654907,0.00485602
2029.10535645,0.00490264
2031.03416382,0.00482845
2032.96297119,0.00490237
2034.89177856,0.00492075
2036.82058594,0.00494081
2038.74939331,0.00493276
2040.67820068,0.00491730
2042.60700806,0.00491616
2044.53581543,0.00487489
2046.46462280,0.00482743
2048.39343018,0.00489179
2050.32223755,0.00499543
2052.25104492,0.00479116
2054.17985229,0.00482821
2056.10865967,0.00492140
2058.03746704,0.00486558
2059.96627441,0.00486923
2061.89508179,0.00479765
2063.82388916,0.00488851
2065.75269653,0.00491483
2067.68150391,0.00487601
2069.61031128,0.00471332
2071.53911865,0.00475731
2073.46792603,0.00493993
2075.39673340,0.00480868
2077.32554077,0.00481068
2079.25434814,0.00481716
2081.18315552,0.00489409
2083.11196289,0.00483768
2085.04077026,0.00476338
2086.96957764,0.00483652
2088.89838501,0.00481997
2090.82719238,0.00486941
2092.75599976,0.00472623
2094.68480713,0.00483854
2096.61361450,0.00490604
2098.54242187,0.00482459
2100.47122925,0.00488825
2102.40003662,0.00469387
2104.32884399,0.00467854
2106.25765137,0.00478802
2108.18645874,0.00486174
2110.11526611,0.00482779
2112.04407349,0.00483730
2113.97288086,0.00479359
2115.90168823,0.00469087
2117.83049561,0.00485774
2119.75930298,0.00476324
2121.68811035,0.00475943
2123.61691772,0.00469214
2125.54572510,0.00459149
2127.47453247,0.00475326
2129.40333984,0.00461832
2131.33214722,0.00462938
2133.26095459,0.00469934
2135.18976196,0.00468405
2137.11856934,0.00473060
2139.04737671,0.00476144
2140.97618408,0.00477850
2142.90499146,0.00479597
2144.83379883,0.00482215
2146.76260620,0.00466697
2148.69141357,0.00468494
2150.62022095,0.00473233
2152.54902832,0.00468599
2154.47783569,0.00470791
2156.40664307,0.00469456
2158.33545044,0.00468775
2160.26425781,0.00459828
2162.19306519,0.00462279
2164.12187256,0.00469818
2166.05067993,0.00476779
2167.97948730,0.00478241
2169.90829468,0.00478293
2171.83710205,0.00475401
2173.76590942,0.00462756
2175.69471680,0.00476870
2177.62352417,0.00470013
2179.55233154,0.00458236
2181.48113892,0.00474260
2183.40994629,0.00476198
2185.33875366,0.00476320
2187.26756104,0.00470070
2189.19636841,0.00462686
2191.12517578,0.00467103
2193.05398315,0.00473629
2194.98279053,0.00466284
2196.91159790,0.00467245
2198.84040527,0.00480297
2200.76921265,0.00478232
2202.69802002,0.00481394
2204.62682739,0.00479214
2206.55563477,0.00470639
2208.48444214,0.00466471
2210.41324951,0.00473459
2212.34205688,0.00481635
2214.27086426,0.00469639
2216.19967163,0.00460040
2218.12847900,0.00460500
2220.05728638,0.00464798
2221.98609375,0.00465451
2223.91490112,0.00472872
2225.84370850,0.00464745
2227.77251587,0.00458591
2229.70132324,0.00475484
2231.63013062,0.00460976
2233.55893799,0.00462347
2235.48774536,0.00469617
2237.41655273,0.00459650
2239.34536011,0.00468008
2241.27416748,0.00466472
2243.20297485,0.00468942
2245.13178223,0.00461945
2247.06058960,0.00457379
2248.98939697,0.00468527
2250.91820435,0.00459304
2252.84701172,0.00455627
2254.77581909,0.00449214
2256.70462646,0.00449521
2258.63343384,0.00469093
2260.56224121,0.00462873
2262.49104858,0.00456002
2264.41985596,0.00462218
2266.34866333,0.00457859
2268.27747070,0.00456380
2270.20627808,0.00459848
2272.13508545,0.00470136
2274.06389282,0.00462215
2275.99270020,0.00445184
2277.92150757,0.00454112
2279.85031494,0.00452481
2281.77912231,0.00456855
2283.70792969,0.00464654
2285.63673706,0.00453889
2287.56554443,0.00450089
2289.49435181,0.00449331
2291.42315918,0.00461630
2293.35196655,0.00461444
2295.28077393,0.00451565
2297.20958130,0.00450704
2299.13838867,0.00446495
2301.06719604,0.00447069
2302.99600342,0.00442447
2304.92481079,0.00448574
2306.85361816,0.00442369
2308.78242554,0.00438599
2310.71123291,0.00447983
2312.64004028,0.00426466
2314.56884766,0.00429567
2316.49765503,0.00430416
2318.42646240,0.00411002
2320.35526978,0.00418675
2322.28407715,0.00417588
2324.21288452,0.00404181
2326.14169189,0.00406296
2328.07049927,0.00415817
2329.99930664,0.00396873
2331.92811401,0.00394616
2333.85692139,0.00406954
2335.78572876,0.00385580
2337.71453613,0.00388663
2339.64334351,0.00392648
2341.57215088,0.00396571
2343.50095825,0.00408859
2345.42976562,0.00400245
2347.35857300,0.00423426
2349.28738037,0.00434183
2351.21618774,0.00412704
2353.14499512,0.00404115
2355.07380249,0.00392768
2357.00260986,0.00378017
2358.93141724,0.00366859
2360.86022461,0.00366550
2362.78903198,0.00363568
2364.71783936,0.00367914
2366.64664673,0.00382426
2368.57545410,0.00384126
2370.50426147,0.00390164
2372.43306885,0.00400669
2374.36187622,0.00414618
2376.29068359,0.00426730
2378.21949097,0.00431316
2380.14829834,0.00424621
2382.07710571,0.00420604
2384.00591309,0.00449415
2385.93472046,0.00452221
2387.86352783,0.00426315
2389.79233521,0.00431642
2391.72114258,0.00435138
2393.64994995,0.00437128
2395.57875732,0.00448308
2397.50756470,0.00442873
2399.43637207,0.00444935
2401.36517944,0.00439094
2403.29398682,0.00427763
2405.22279419,0.00442467
2407.15160156,0.00441434
2409.08040894,0.00439285
2411.00921631,0.00441226
2412.93802368,0.00431162
2414.86683105,0.00432194
2416.79563843,0.00430433
2418.72444580,0.00437184
2420.65325317,0.00440798
2422.58206055,0.00433933
2424.51086792,0.00435880
2426.43967529,0.00437711
2428.36848267,0.00431539
2430.29729004,0.00424080
2432.22609741,0.00441695
2434.15490479,0.00439169
2436.08371216,0.00415124
2438.01251953,0.00418122
2439.94132690,0.00426283
2441.87013428,0.00427354
2443.79894165,0.00425988
2445.72774902,0.00434130
2447.65655640,0.00431471
2449.58536377,0.00430699
2451.51417114,0.00433888
2453.44297852,0.00424260
2455.37178589,0.00431685
2457.30059326,0.00426486
2459.22940063,0.00424753
2461.15820801,0.00423324
2463.08701538,0.00408301
2465.01582275,0.00419692
2466.94463013,0.00424726
2468.87343750,0.00422185
2470.80224487,0.00420357
2472.73105225,0.00423328
2474.65985962,0.00434657
2476.58866699,0.00423910
2478.51747437,0.00412112
2480.44628174,0.00424142
2482.37508911,0.00427315
2484.30389648,0.00416314
2486.23270386,0.00419311
2488.16151123,0.00415112
2490.09031860,0.00422376
2492.01912598,0.00429327
2493.94793335,0.00412601
2495.87674072,0.00420039
2497.80554810,0.00420309
2499.73435547,0.00414025
2501.66316284,0.00417960
2503.59197021,0.00419095
2505.52077759,0.00423129
2507.44958496,0.00419231
2509.37839233,0.00418479
2511.30719971,0.00411419
2513.23600708,0.00411630
2515.16481445,0.00419352
2517.09362183,0.00421557
2519.02242920,0.00425876
2520.95123657,0.00420592
2522.88004395,0.00424199
2524.80885132,0.00421760
2526.73765869,0.00414516
2528.66646606,0.00414411
2530.59527344,0.00410686
2532.52408081,0.00415091
2534.45288818,0.00412163
2536.38169556,0.00410690
2538.31050293,0.00415546
2540.23931030,0.00414440
2542.16811768,0.00414414
2544.09692505,0.00415600
2546.02573242,0.00414800
2547.95453979,0.00415164
2549.88334717,0.00416936
2551.81215454,0.00408259
2553.74096191,0.00407112
2555.66976929,0.00412885
2557.59857666,0.00413042
2559.52738403,0.00413090
2561.45619141,0.00409745
2563.38499878,0.00411202
2565.31380615,0.00414128
2567.24261353,0.00418988
2569.17142090,0.00412695
2571.10022827,0.00407059
2573.02903564,0.00410650
2574.95784302,0.00399799
2576.88665039,0.00405225
2578.81545776,0.00403966
2580.74426514,0.00394999
2582.67307251,0.00406178
2584.60187988,0.00403743
2586.53068726,0.00409945
2588.45949463,0.00416181
2590.38830200,0.00406736
2592.31710937,0.00402858
2594.24591675,0.00402078
2596.17472412,0.00406849
2598.10353149,0.00403400
2600.03233887,0.00401127
2601.96114624,0.00402731
2603.88995361,0.00397382
2605.81876099,0.00396004
2607.74756836,0.00399399
2609.67637573,0.00402754
2611.60518311,0.00398448
2613.53399048,0.00396999
2615.46279785,0.00391778
2617.39160522,0.00387760
2619.32041260,0.00398700
2621.24921997,0.00397095
2623.17802734,0.00393652
2625.10683472,0.00401107
2627.03564209,0.00402183
2628.96444946,0.00396382
2630.89325684,0.00393315
2632.82206421,0.00393044
2634.75087158,0.00398585
2636.67967895,0.00405875
2638.60848633,0.00398004
2640.53729370,0.00392914
2642.46610107,0.00394773
2644.39490845,0.00396917
2646.32371582,0.00392269
2648.25252319,0.00388367
2650.18133057,0.00401916
2652.11013794,0.00398852
2654.03894531,0.00394354
2655.96775269,0.00395405
2657.89656006,0.00393139
2659.82536743,0.00400959
2661.75417480,0.00393900
2663.68298218,0.00386414
2665.61178955,0.00385734
2667.54059692,0.00387178
2669.46940430,0.00385779
2671.39821167,0.00383953
2673.32701904,0.00392042
2675.25582642,0.00389697
2677.18463379,0.00392026
2679.11344116,0.00391308
2681.04224854,0.00388534
2682.97105591,0.00392569
2684.89986328,0.00386172
2686.82867065,0.00380578
2688.75747803,0.00380087
2690.68628540,0.00389001
2692.61509277,0.00382684
2694.54390015,0.00375464
2696.47270752,0.00387795
2698.40151489,0.00381167
2700.33032227,0.00372566
2702.25912964,0.00379501
2704.18793701,0.00378681
2706.11674438,0.00375634
2708.04555176,0.00383551
2709.97435913,0.00377719
2711.90316650,0.00375743
2713.83197388,0.00383297
2715.76078125,0.00381646
2717.68958862,0.00388775
2719.61839600,0.00376616
2721.54720337,0.00374518
2723.47601074,0.00384464
2725.40481812,0.00368515
2727.33362549,0.00369301
2729.26243286,0.00375221
2731.19124023,0.00374231
2733.12004761,0.00374287
2735.04885498,0.00373681
2736.97766235,0.00375391
2738.90646973,0.00372078
2740.83527710,0.00368963
2742.76408447,0.00367013
2744.69289185,0.00364838
2746.62169922,0.00365145
2748.55050659,0.00371904
2750.47931396,0.00373977
2752.40812134,0.00374215
2754.33692871,0.00373512
2756.26573608,0.00370836
2758.19454346,0.00365153
2760.12335083,0.00359282
2762.05215820,0.00365845
2763.98096558,0.00359754
2765.90977295,0.00363238
2767.83858032,0.00360675
2769.76738770,0.00356138
2771.69619507,0.00377404
2773.62500244,0.00368904
2775.55380981,0.00364559
2777.48261719,0.00356096
2779.41142456,0.00355027
2781.34023193,0.00369695
2783.26903931,0.00358313
2785.19784668,0.00370778
2787.12665405,0.00362078
2789.05546143,0.00349869
2790.98426880,0.00354971
2792.91307617,0.00347284
2794.84188354,0.00358196
2796.77069092,0.00352065
2798.69949829,0.00351828
2800.62830566,0.00356197
2802.55711304,0.00347608
2804.48592041,0.00355789
2806.41472778,0.00359532
2808.34353516,0.00347495
2810.27234253,0.00342807
2812.20114990,0.00355512
2814.12995728,0.00348050
2816.05876465,0.00343610
2817.98757202,0.00350720
2819.91637939,0.00344703
2821.84518677,0.00347321
2823.77399414,0.00346012
2825.70280151,0.00347598
2827.63160889,0.00356760
2829.56041626,0.00353625
2831.48922363,0.00344245
2833.41803101,0.00348570
2835.34683838,0.00350814
2837.27564575,0.00342422
2839.20445312,0.00340903
2841.13326050,0.00338290
2843.06206787,0.00344661
2844.99087524,0.00335714
2846.91968262,0.00325529
2848.84848999,0.00336965
2850.77729736,0.00335060
2852.70610474,0.00337787
2854.63491211,0.00334719
2856.56371948,0.00334260
2858.49252686,0.00339358
2860.42133423,0.00330629
2862.35014160,0.00340740
2864.27894897,0.00339808
2866.20775635,0.00329408
2868.13656372,0.00336095
2870.06537109,0.00333354
2871.99417847,0.00335231
2873.92298584,0.00333855
2875.85179321,0.00325668
2877.78060059,0.00335561
2879.70940796,0.00334068
2881.63821533,0.00325267
2883.56702270,0.00326145
2885.49583008,0.00326280
2887.42463745,0.00328203
2889.35344482,0.00327285
2891.28225220,0.00333088
2893.21105957,0.00327272
2895.13986694,0.00320898
2897.06867432,0.00331394
2898.99748169,0.00325318
2900.92628906,0.00322820
2902.85509644,0.00327969
2904.78390381,0.00325234
2906.71271118,0.00313006
2908.64151855,0.00308926
2910.57032593,0.00322691
2912.49913330,0.00322095
2914.42794067,0.00319132
2916.35674805,0.00315372
2918.28555542,0.00307812
2920.21436279,0.00311163
2922.14317017,0.00317942
2924.07197754,0.00319566
2926.00078491,0.00317247
2927.92959229,0.00315484
2929.85839966,0.00309913
2931.78720703,0.00316234
2933.71601440,0.00319827
2935.64482178,0.00312851
2937.57362915,0.00311150
2939.50243652,0.00305507
2941.43124390,0.00306802
2943.36005127,0.00312614
2945.28885864,0.00314967
2947.21766602,0.00316983
2949.14647339,0.00316161
2951.07528076,0.00310580
2953.00408813,0.00314331
2954.93289551,0.00313844
2956.86170288,0.00304857
2958.79051025,0.00313987
2960.71931763,0.00308391
2962.64812500,0.00303212
2964.57693237,0.00309268
2966.50573975,0.00306838
2968.43454712,0.00307436
2970.36335449,0.00304560
2972.29216187,0.00307957
2974.22096924,0.00307281
2976.14977661,0.00308008
2978.07858398,0.00302561
2980.00739136,0.00301029
2981.93619873,0.00311360
2983.86500610,0.00306359
2985.79381348,0.00310104
2987.72262085,0.00296317
2989.65142822,0.00296197
2991.58023560,0.00308732
2993.50904297,0.00297157
2995.43785034,0.00311468
2997.36665771,0.00313451
2999.29546509,0.00301586
3001.22427246,0.00296569
3003.15307983,0.00296806
3005.08188721,0.00303663
3007.01069458,0.00300080
3008.93950195,0.00304300
3010.86830933,0.00303626
3012.79711670,0.00296927
3014.72592407,0.00297386
3016.65473145,0.00301150
3018.58353882,0.00299463
3020.51234619,0.00295848
3022.44115356,0.00288301
3024.36996094,0.00291580
3026.29876831,0.00308825
3028.22757568,0.00299333
3030.15638306,0.00298002
3032.08519043,0.00292326
3034.01399780,0.00288793
3035.94280518,0.00302577
3037.87161255,0.00293982
3039.80041992,0.00293469
3041.72922729,0.00284904
3043.65803467,0.00293433
3045.58684204,0.00295827
3047.51564941,0.00286924
3049.44445679,0.00310133
3051.37326416,0.00295124
3053.30207153,0.00297112
3055.23087891,0.00301671
3057.15968628,0.00279668
3059.08849365,0.00287660
3061.01730103,0.00284128
3062.94610840,0.00290547
3064.87491577,0.00293532
3066.80372314,0.00281163
3068.73253052,0.00287607
3070.66133789,0.00284488
3072.59014526,0.00281931
3074.51895264,0.00288555
3076.44776001,0.00283344
3078.37656738,0.00281386
3080.30537476,0.00286523
3082.23418213,0.00282849
3084.16298950,0.00282635
3086.09179687,0.00282611
3088.02060425,0.00285505
3089.94941162,0.00286975
3091.87821899,0.00281934
3093.80702637,0.00290268
3095.73583374,0.00288037
3097.66464111,0.00288075
3099.59344849,0.00287813
3101.52225586,0.00272851
3103.45106323,0.00286277
3105.37987061,0.00288363
3107.30867798,0.00272295
3109.23748535,0.00283394
3111.16629272,0.00282264
3113.09510010,0.00275020
3115.02390747,0.00281033
3116.95271484,0.00280613
3118.88152222,0.00288648
3120.81032959,0.00288949
3122.73913696,0.00281984
3124.66794434,0.00279497
3126.59675171,0.00275140
3128.52555908,0.00281616
3130.45436645,0.00284359
3132.38317383,0.00286708
3134.31198120,0.00282940
3136.24078857,0.00281325
3138.16959595,0.00288263
3140.09840332,0.00280144
3142.02721069,0.00274748
3143.95601807,0.00267239
3145.88482544,0.00272271
3147.81363281,0.00287001
3149.74244019,0.00285052
3151.67124756,0.00275536
3153.60005493,0.00271827
3155.52886230,0.00280120
3157.45766968,0.00279498
3159.38647705,0.00277675
3161.31528442,0.00268390
3163.24409180,0.00275966
3165.17289917,0.00288007
3167.10170654,0.00275173
3169.03051392,0.00282490
3170.95932129,0.00272501
3172.88812866,0.00274553
3174.81693604,0.00286435
3176.74574341,0.00276392
3178.67455078,0.00285422
3180.60335815,0.00277520
3182.53216553,0.00275243
3184.46097290,0.00278475
3186.38978027,0.00283283
3188.31858765,0.00285515
3190.24739502,0.00267395
3192.17620239,0.00276560
3194.10500977,0.00276919
3196.03381714,0.00270251
3197.96262451,0.00276748
3199.89143188,0.00277709
3201.82023926,0.00272997
3203.74904663,0.00269026
3205.67785400,0.00274789
3207.60666138,0.00271241
3209.53546875,0.00277480
3211.46427612,0.00275080
3213.39308350,0.00271080
3215.32189087,0.00285458
3217.25069824,0.00281701
3219.17950562,0.00279918
3221.10831299,0.00281381
3223.03712036,0.00287423
3224.96592773,0.00283536
3226.89473511,0.00272865
3228.82354248,0.00281793
3230.75234985,0.00280117
3232.68115723,0.00283092
3234.60996460,0.00284979
3236.53877197,0.00278743
3238.46757935,0.00282326
3240.39638672,0.00281757
3242.32519409,0.00284126
3244.25400146,0.00285322
3246.18280884,0.00285196
3248.11161621,0.00287133
3250.04042358,0.00289995
3251.96923096,0.00292231
3253.89803833,0.00285616
3255.82684570,0.00285994
3257.75565308,0.00287291
3259.68446045,0.00288421
3261.61326782,0.00290126
3263.54207520,0.00282594
3265.47088257,0.00293667
3267.39968994,0.00298891
3269.32849731,0.00288782
3271.25730469,0.00296222
3273.18611206,0.00294820
3275.11491943,0.00294412
3277.04372681,0.00302713
3278.97253418,0.00299790
3280.90134155,0.00297718
3282.83014893,0.00299919
3284.75895630,0.00304752
3286.68776367,0.00296655
3288.61657104,0.00290109
3290.54537842,0.00301482
3292.47418579,0.00300338
3294.40299316,0.00289829
3296.33180054,0.00295267
3298.26060791,0.00305444
3300.18941528,0.00303576
3302.11822266,0.00306490
3304.04703003,0.00308292
3305.97583740,0.00303076
3307.90464478,0.00300604
3309.83345215,0.00296026
3311.76225952,0.00298283
3313.69106689,0.00293127
3315.61987427,0.00298780
3317.54868164,0.00316301
3319.47748901,0.00304232
3321.40629639,0.00300985
3323.33510376,0.00310585
3325.26391113,0.00311089
3327.19271851,0.00309806
3329.12152588,0.00303246
3331.05033325,0.00309315
3332.97914062,0.00313709
3334.90794800,0.00310183
3336.83675537,0.00310257
3338.76556274,0.00303712
3340.69437012,0.00306540
3342.62317749,0.00312644
3344.55198486,0.00308863
3346.48079224,0.00309342
3348.40959961,0.00313073
3350.33840698,0.00316992
3352.26721436,0.00314121
3354.19602173,0.00308618
3356.12482910,0.00318151
3358.05363647,0.00316980
3359.98244385,0.00305593
3361.91125122,0.00313951
3363.84005859,0.00314266
3365.76886597,0.00313372
3367.69767334,0.00321090
3369.62648071,0.00318772
3371.55528809,0.00318773
3373.48409546,0.00318324
3375.41290283,0.00327995
3377.34171020,0.00326072
3379.27051758,0.00320590
3381.19932495,0.00330924
3383.12813232,0.00318904
3385.05693970,0.00323716
3386.98574707,0.00324657
3388.91455444,0.00318732
3390.84336182,0.00333156
3392.77216919,0.00326058
3394.70097656,0.00331036
3396.62978394,0.00324032
3398.55859131,0.00318039
3400.48739868,0.00332744
3402.41620605,0.00319355
3404.34501343,0.00325488
3406.27382080,0.00337233
3408.20262817,0.00331450
3410.13143555,0.00333727
3412.06024292,0.00337171
3413.98905029,0.00335670
3415.91785767,0.00333389
3417.84666504,0.00337019
3419.77547241,0.00340053
3421.70427979,0.00336430
3423.63308716,0.00329837
3425.56189453,0.00338287
3427.49070190,0.00329987
3429.41950928,0.00325833
3431.34831665,0.00341391
3433.27712402,0.00331734
3435.20593140,0.00338341
3437.13473877,0.00336066
3439.06354614,0.00334788
3440.99235352,0.00345203
3442.92116089,0.00330555
3444.84996826,0.00341981
3446.77877563,0.00341769
3448.70758301,0.00333969
3450.63639038,0.00344013
3452.56519775,0.00335490
3454.49400513,0.00336384
3456.42281250,0.00342718
3458.35161987,0.00333976
3460.28042725,0.00333326
3462.20923462,0.00339124
3464.13804199,0.00333556
3466.06684937,0.00343775
3467.99565674,0.00345060
3469.92446411,0.00334582
3471.85327148,0.00340027
3473.78207886,0.00332306
3475.71088623,0.00340175
3477.63969360,0.00349562
3479.56850098,0.00340436
3481.49730835,0.00337659
3483.42611572,0.00338556
3485.35492310,0.00337216
3487.28373047,0.00333512
3489.21253784,0.00342962
3491.14134521,0.00342812
3493.07015259,0.00339854
3494.99895996,0.00337394
3496.92776733,0.00329216
3498.85657471,0.00333763
3500.78538208,0.00334304
3502.71418945,0.00332960
3504.64299683,0.00332249
3506.57180420,0.00339182
3508.50061157,0.00337327
3510.42941895,0.00339380
3512.35822632,0.00347284
3514.28703369,0.00333564
3516.21584106,0.00340280
3518.14464844,0.00337261
3520.07345581,0.00329309
3522.00226318,0.00336903
3523.93107056,0.00333584
3525.85987793,0.00332339
3527.78868530,0.00325613
3529.71749268,0.00335329
3531.64630005,0.00341855
3533.57510742,0.00339649
3535.50391479,0.00339664
3537.43272217,0.00325560
3539.36152954,0.00331773
3541.29033691,0.00340361
3543.21914429,0.00334114
3545.14795166,0.00326328
3547.07675903,0.00330155
3549.00556641,0.00336766
3550.93437378,0.00330978
3552.86318115,0.00333406
3554.79198853,0.00330030
3556.72079590,0.00331041
3558.64960327,0.00335525
3560.57841064,0.00325346
3562.50721802,0.00328645
3564.43602539,0.00328326
3566.36483276,0.00304326
3568.29364014,0.00298611
3570.22244751,0.00322171
3572.15125488,0.00329665
3574.08006226,0.00325835
3576.00886963,0.00333523
3577.93767700,0.00330996
3579.86648437,0.00322710
3581.79529175,0.00329543
3583.72409912,0.00328749
3585.65290649,0.00309257
3587.58171387,0.00297093
3589.51052124,0.00299869
3591.43932861,0.00319323
3593.36813599,0.00319521
3595.29694336,0.00303920
3597.22575073,0.00316197
3599.15455811,0.00313604
3601.08336548,0.00311737
3603.01217285,0.00323124
3604.94098022,0.00320323
3606.86978760,0.00315116
3608.79859497,0.00295684
3610.72740234,0.00302340
3612.65620972,0.00299800
3614.58501709,0.00288587
3616.51382446,0.00315344
3618.44263184,0.00292104
3620.37143921,0.00290176
3622.30024658,0.00313047
3624.22905395,0.00308273
3626.15786133,0.00320717
3628.08666870,0.00267618
3630.01547607,0.00254815
3631.94428345,0.00304043
3633.87309082,0.00296142
3635.80189819,0.00307429
3637.73070557,0.00313125
3639.65951294,0.00301318
3641.58832031,0.00301018
3643.51712769,0.00305169
3645.44593506,0.00304243
3647.37474243,0.00274849
3649.30354980,0.00254246
3651.23235718,0.00262209
3653.16116455,0.00298128
3655.08997192,0.00288046
3657.01877930,0.00274940
3658.94758667,0.00302976
3660.87639404,0.00292056
3662.80520142,0.00300619
3664.73400879,0.00301356
3666.66281616,0.00302716
3668.59162354,0.00285011
3670.52043091,0.00239702
3672.44923828,0.00286947
3674.37804565,0.00271377
3676.30685303,0.00236460
3678.23566040,0.00277129
3680.16446777,0.00275192
3682.09327515,0.00281562
3684.02208252,0.00286399
3685.95088989,0.00282952
3687.87969727,0.00254664
3689.80850464,0.00236651
3691.73731201,0.00273473
3693.66611938,0.00272983
3695.59492676,0.00283221
3697.52373413,0.00285715
3699.45254150,0.00269529
3701.38134888,0.00266525
3703.31015625,0.00258753
3705.23896362,0.00273780
3707.16777100,0.00266662
3709.09657837,0.00265737
3711.02538574,0.00242756
3712.95419312,0.00230597
3714.88300049,0.00278992
3716.81180786,0.00265963
3718.74061523,0.00260110
3720.66942261,0.00261159
3722.59822998,0.00245910
3724.52703735,0.00249781
3726.45584473,0.00236556
3728.38465210,0.00256797
3730.31345947,0.00256035
3732.24226685,0.00233044
3734.17107422,0.00231353
3736.09988159,0.00221715
3738.02868896,0.00224612
3739.95749634,0.00252297
3741.88630371,0.00256787
3743.81511108,0.00193282
3745.74391846,0.00203129
3747.67272583,0.00250642
3749.60153320,0.00209413
3751.53034058,0.00199535
3753.45914795,0.00226017
3755.38795532,0.00243311
3757.31676270,0.00246568
3759.24557007,0.00233420
3761.17437744,0.00243823
3763.10318481,0.00255851
3765.03199219,0.00240768
3766.96079956,0.00238812
3768.88960693,0.00244519
3770.81841431,0.00234364
3772.74722168,0.00247641
3774.67602905,0.00242937
3776.60483643,0.00234023
3778.53364380,0.00240981
3780.46245117,0.00230750
3782.39125854,0.00238412
3784.32006592,0.00240091
3786.24887329,0.00244395
3788.17768066,0.00246019
3790.10648804,0.00242220
3792.03529541,0.00251047
3793.96410278,0.00241797
3795.89291016,0.00228605
3797.82171753,0.00233989
3799.75052490,0.00232934
3801.67933228,0.00197879
3803.60813965,0.00226111
3805.53694702,0.00236884
3807.46575439,0.00193343
3809.39456177,0.00223602
3811.32336914,0.00235014
3813.25217651,0.00241872
3815.18098389,0.00211800
3817.10979126,0.00194857
3819.03859863,0.00239534
3820.96740601,0.00196279
3822.89621338,0.00205057
3824.82502075,0.00230319
3826.75382812,0.00205431
3828.68263550,0.00228227
3830.61144287,0.00228073
3832.54025024,0.00209932
3834.46905762,0.00217854
3836.39786499,0.00216052
3838.32667236,0.00182672
3840.25547974,0.00200986
3842.18428711,0.00218718
3844.11309448,0.00206620
3846.04190186,0.00229933
3847.97070923,0.00224048
3849.89951660,0.00224240
3851.82832397,0.00198098
3853.75713135,0.00150525
3855.68593872,0.00179636
3857.61474609,0.00223925
3859.54355347,0.00225337
3861.47236084,0.00209518
3863.40116821,0.00200099
3865.32997559,0.00192806
3867.25878296,0.00219996
3869.18759033,0.00208571
3871.11639770,0.00182808
3873.04520508,0.00210975
3874.97401245,0.00203402
3876.90281982,0.00219842
3878.83162720,0.00220979
3880.76043457,0.00190960
3882.68924194,0.00214039
3884.61804932,0.00200368
3886.54685669,0.00190798
3888.47566406,0.00218662
3890.40447144,0.00204391
3892.33327881,0.00194090
3894.26208618,0.00210070
3896.19089355,0.00207244
3898.11970093,0.00201579
3900.04850830,0.00194551
3901.97731567,0.00191596
3903.90612305,0.00193255
3905.83493042,0.00192401
3907.76373779,0.00210167
3909.69254517,0.00204074
3911.62135254,0.00204046
3913.55015991,0.00213015
3915.47896728,0.00196386
3917.40777466,0.00198177
3919.33658203,0.00197040
3921.26538940,0.00203655
3923.19419678,0.00202645
3925.12300415,0.00186529
3927.05181152,0.00193779
3928.98061890,0.00201770
3930.90942627,0.00198873
3932.83823364,0.00186894
3934.76704102,0.00200460
3936.69584839,0.00209490
3938.62465576,0.00202320
3940.55346313,0.00204814
3942.48227051,0.00189609
3944.41107788,0.00198148
3946.33988525,0.00208662
3948.26869263,0.00190891
3950.19750000,0.00190540
3952.12630737,0.00199106
3954.05511475,0.00196844
3955.98392212,0.00186270
3957.91272949,0.00186595
3959.84153687,0.00196675
3961.77034424,0.00198864
3963.69915161,0.00196421
3965.62795898,0.00194926
3967.55676636,0.00192455
3969.48557373,0.00187234
3971.41438110,0.00187577
3973.34318848,0.00191709
3975.27199585,0.00188587
3977.20080322,0.00185431
3979.12961060,0.00187154
3981.05841797,0.00191244
3982.98722534,0.00196047
3984.91603271,0.00190993
3986.84484009,0.00187872
3988.77364746,0.00189608
3990.70245483,0.00187290
3992.63126221,0.00191376
3994.56006958,0.00189500
3996.48887695,0.00186296
3998.41768433,0.00194083
4000.34649170,0.00189184
4002.27529907,0.00185939
4004.20410645,0.00198689
4006.13291382,0.00189755
4008.06172119,0.00181803
4009.99052856,0.00189059
4011.91933594,0.00179675
4013.84814331,0.00178251
4015.77695068,0.00180733
4017.70575806,0.00181258
4019.63456543,0.00180761
4021.56337280,0.00178371
4023.49218018,0.00188723
4025.42098755,0.00185888
4027.34979492,0.00184442
4029.27860229,0.00185273
4031.20740967,0.00179107
4033.13621704,0.00176725
4035.06502441,0.00176641
4036.99383179,0.00185184
4038.92263916,0.00179565
4040.85144653,0.00180148
4042.78025391,0.00181285
4044.70906128,0.00175440
4046.63786865,0.00185256
4048.56667603,0.00176811
4050.49548340,0.00173850
4052.42429077,0.00180879
4054.35309814,0.00176551
4056.28190552,0.00177651
4058.21071289,0.00173345
4060.13952026,0.00172165
4062.06832764,0.00178241
4063.99713501,0.00173437
4065.92594238,0.00168320
4067.85474976,0.00173480
4069.78355713,0.00176412
4071.71236450,0.00178890
4073.64117187,0.00175703
4075.56997925,0.00168693
4077.49878662,0.00175328
4079.42759399,0.00173649
4081.35640137,0.00166983
4083.28520874,0.00174698
4085.21401611,0.00173488
4087.14282349,0.00165352
4089.07163086,0.00169992
4091.00043823,0.00169355
4092.92924561,0.00163588
4094.85805298,0.00170138
4096.78686035,0.00170088
4098.71566772,0.00156849
4100.64447510,0.00160166
4102.57328247,0.00174213
4104.50208984,0.00169798
4106.43089722,0.00167416
4108.35970459,0.00168047
4110.28851196,0.00169275
4112.21731934,0.00169879
4114.14612671,0.00154952
4116.07493408,0.00158650
4118.00374145,0.00163368
4119.93254883,0.00164914
4121.86135620,0.00169950
4123.79016357,0.00157751
4125.71897095,0.00158876
4127.64777832,0.00160510
4129.57658569,0.00160745
4131.50539307,0.00163818
4133.43420044,0.00158090
4135.36300781,0.00154905
4137.29181519,0.00162439
4139.22062256,0.00174412
4141.14942993,0.00162342
4143.07823730,0.00157237
4145.00704468,0.00164208
4146.93585205,0.00159755
4148.86465942,0.00155679
4150.79346680,0.00151681
4152.72227417,0.00153335
4154.65108154,0.00154414
4156.57988892,0.00155983
4158.50869629,0.00154959
4160.43750366,0.00153108
4162.36631103,0.00151303
4164.29511841,0.00151221
4166.22392578,0.00155935
4168.15273315,0.00152143
4170.08154053,0.00153953
4172.01034790,0.00154343
4173.93915527,0.00155074
4175.86796265,0.00154406
4177.79677002,0.00145918
4179.72557739,0.00148927
4181.65438477,0.00154666
4183.58319214,0.00150630
4185.51199951,0.00148225
4187.44080688,0.00159976
4189.36961426,0.00153361
4191.29842163,0.00150534
4193.22722900,0.00154848
4195.15603638,0.00147660
4197.08484375,0.00156868
4199.01365112,0.00149499
4200.94245850,0.00154929
4202.87126587,0.00157973
4204.80007324,0.00142535
4206.72888062,0.00150516
4208.65768799,0.00146001
4210.58649536,0.00146340
4212.51530273,0.00147108
4214.44411011,0.00140853
4216.37291748,0.00144265
4218.30172485,0.00152894
4220.23053223,0.00152654
4222.15933960,0.00145321
4224.08814697,0.00155876
4226.01695435,0.00147406
4227.94576172,0.00143939
4229.87456909,0.00147401
4231.80337646,0.00138760
4233.73218384,0.00144957
4235.66099121,0.00145629
4237.58979858,0.00144796
4239.51860596,0.00142624
4241.44741333,0.00143748
4243.37622070,0.00137868
4245.30502808,0.00137345
4247.23383545,0.00141405
4249.16264282,0.00132167
4251.09145020,0.00140405
4253.02025757,0.00140199
4254.94906494,0.00141906
4256.87787231,0.00139408
4258.80667969,0.00138182
4260.73548706,0.00143935
4262.66429443,0.00129012
4264.59310181,0.00137305
4266.52190918,0.00133828
4268.45071655,0.00130891
4270.37952393,0.00142675
4272.30833130,0.00136046
4274.23713867,0.00137074
4276.16594604,0.00132235
4278.09475342,0.00135041
4280.02356079,0.00137603
4281.95236816,0.00137621
4283.88117554,0.00141434
4285.80998291,0.00131421
4287.73879028,0.00130851
4289.66759766,0.00131612
4291.59640503,0.00126425
4293.52521240,0.00130434
4295.45401978,0.00138438
4297.38282715,0.00134220
4299.31163452,0.00135055
4301.24044189,0.00137023
4303.16924927,0.00133435
4305.09805664,0.00140926
4307.02686401,0.00133816
4308.95567139,0.00128557
4310.88447876,0.00132534
4312.81328613,0.00136671
4314.74209351,0.00137111
4316.67090088,0.00130572
4318.59970825,0.00139726
4320.52851562,0.00137026
4322.45732300,0.00137093
4324.38613037,0.00139568
4326.31493774,0.00121130
4328.24374512,0.00126925
4330.17255249,0.00133060
4332.10135986,0.00122578
4334.03016724,0.00123647
4335.95897461,0.00128953
4337.88778198,0.00134432
4339.81658936,0.00127443
4341.74539673,0.00122277
4343.67420410,0.00132772
4345.60301147,0.00128431
4347.53181885,0.00126129
4349.46062622,0.00132768
4351.38943359,0.00128397
4353.31824097,0.00120652
4355.24704834,0.00120354
4357.17585571,0.00135656
4359.10466309,0.00130700
4361.03347046,0.00121458
4362.96227783,0.00126607
4364.89108520,0.00120242
4366.81989258,0.00125438
4368.74869995,0.00125845
4370.67750732,0.00123574
4372.60631470,0.00116269
4374.53512207,0.00112852
4376.46392944,0.00129453
4378.39273682,0.00118034
4380.32154419,0.00120197
4382.25035156,0.00122866
4384.17915894,0.00111032
4386.10796631,0.00123083
4388.03677368,0.00116129
4389.96558105,0.00116097
4391.89438843,0.00120393
4393.82319580,0.00114637
4395.75200317,0.00119791
4397.68081055,0.00117653
4399.60961792,0.00122065
4401.53842529,0.00116933
4403.46723267,0.00113250
4405.39604004,0.00121602
4407.32484741,0.00112149
4409.25365478,0.00115363
4411.18246216,0.00124324
4413.11126953,0.00120907
4415.04007690,0.00119404
4416.96888428,0.00115068
4418.89769165,0.00111887
4420.82649902,0.00108277
4422.75530640,0.00110916
4424.68411377,0.00115099
4426.61292114,0.00113099
4428.54172852,0.00116287
4430.47053589,0.00110277
4432.39934326,0.00107373
4434.32815063,0.00113297
4436.25695801,0.00114486
4438.18576538,0.00117169
4440.11457275,0.00110023
4442.04338013,0.00111425
4443.97218750,0.00115892
4445.90099487,0.00111159
4447.82980225,0.00121710
4449.75860962,0.00118152
4451.68741699,0.00111431
4453.61622437,0.00119554
4455.54503174,0.00111348
4457.47383911,0.00107615
4459.40264648,0.00108978
4461.33145386,0.00104571
4463.26026123,0.00106450
4465.18906860,0.00104879
4467.11787598,0.00106167
4469.04668335,0.00104601
4470.97549072,0.00101037
4472.90429810,0.00112523
4474.83310547,0.00109506
4476.76191284,0.00099865
4478.69072021,0.00108919
4480.61952759,0.00109165
4482.54833496,0.00103495
4484.47714233,0.00097895
4486.40594971,0.00097014
4488.33475708,0.00109539
4490.26356445,0.00106268
4492.19237183,0.00105397
4494.12117920,0.00109701
4496.04998657,0.00099203
4497.97879395,0.00100789
4499.90760132,0.00101032
4501.83640869,0.00099897
4503.76521606,0.00102873
4505.69402344,0.00103163
4507.62283081,0.00104887
4509.55163818,0.00096630
4511.48044556,0.00101004
4513.40925293,0.00106219
4515.33806030,0.00102812
4517.26686768,0.00100434
4519.19567505,0.00097450
4521.12448242,0.00106519
4523.05328979,0.00100124
4524.98209717,0.00095558
4526.91090454,0.00102606
4528.83971191,0.00107107
4530.76851929,0.00108957
4532.69732666,0.00100283
4534.62613403,0.00103461
4536.55494141,0.00095352
4538.48374878,0.00092273
4540.41255615,0.00100346
4542.34136353,0.00098028
4544.27017090,0.00101773
4546.19897827,0.00092929
4548.12778564,0.00098387
4550.05659302,0.00106186
4551.98540039,0.00102002
4553.91420776,0.00098361
4555.84301514,0.00092192
4557.77182251,0.00098021
4559.70062988,0.00095251
4561.62943726,0.00105976
4563.55824463,0.00103070
4565.48705200,0.00091918
4567.41585937,0.00104802
4569.34466675,0.00093263
4571.27347412,0.00092792
4573.20228149,0.00096269
4575.13108887,0.00093033
4577.05989624,0.00094377
4578.98870361,0.00092050
4580.91751099,0.00102407
4582.84631836,0.00095236
4584.77512573,0.00095093
4586.70393311,0.00101724
4588.63274048,0.00098552
4590.56154785,0.00103620
4592.49035522,0.00096900
4594.41916260,0.00094924
4596.34796997,0.00098838
4598.27677734,0.00101897
4600.20558472,0.00097798
4602.13439209,0.00085367
4604.06319946,0.00091081
4605.99200684,0.00093125
4607.92081421,0.00087196
4609.84962158,0.00092527
4611.77842895,0.00096460
4613.70723633,0.00095081
4615.63604370,0.00087341
4617.56485107,0.00079207
4619.49365845,0.00091044
4621.42246582,0.00101588
4623.35127319,0.00091931
4625.28008057,0.00088713
4627.20888794,0.00091043
4629.13769531,0.00088564
4631.06650269,0.00088214
4632.99531006,0.00088891
4634.92411743,0.00088432
4636.85292480,0.00085651
4638.78173218,0.00087677
4640.71053955,0.00091969
4642.63934692,0.00089698
4644.56815430,0.00088652
4646.49696167,0.00086879
4648.42576904,0.00088137
4650.35457642,0.00090012
4652.28338379,0.00083067
4654.21219116,0.00083722
4656.14099853,0.00083057
4658.06980591,0.00084172
4659.99861328,0.00091533
4661.92742065,0.00086457
4663.85622803,0.00080399
4665.78503540,0.00080527
4667.71384277,0.00088097
4669.64265015,0.00083003
4671.57145752,0.00079967
4673.50026489,0.00088258
4675.42907227,0.00081270
4677.35787964,0.00085302
4679.28668701,0.00083455
4681.21549438,0.00082778
4683.14430176,0.00090817
4685.07310913,0.00086066
4687.00191650,0.00087863
4688.93072388,0.00080894
4690.85953125,0.00082239
4692.78833862,0.00081065
4694.71714600,0.00076583
4696.64595337,0.00086284
4698.57476074,0.00081675
4700.50356812,0.00086672
4702.43237549,0.00084921
4704.36118286,0.00079179
4706.28999023,0.00086088
4708.21879761,0.00085424
4710.14760498,0.00084579
4712.07641235,0.00079914
4714.00521973,0.00078658
4715.93402710,0.00075114
4717.86283447,0.00080076
4719.79164185,0.00080946
4721.72044922,0.00074664
4723.64925659,0.00087067
4725.57806396,0.00080224
4727.50687134,0.00076107
4729.43567871,0.00079173
4731.36448608,0.00070028
4733.29329346,0.00078507
4735.22210083,0.00083846
4737.15090820,0.00075074
4739.07971558,0.00077971
4741.00852295,0.00088580
4742.93733032,0.00079716
4744.86613770,0.00077448
4746.79494507,0.00083083
4748.72375244,0.00080499
4750.65255981,0.00086288
4752.58136719,0.00073623
4754.51017456,0.00074578
4756.43898193,0.00084255
4758.36778931,0.00069163
4760.29659668,0.00070566
4762.22540405,0.00070378
4764.15421143,0.00073452
4766.08301880,0.00077477
4768.01182617,0.00068503
4769.94063354,0.00073048
4771.86944092,0.00071425
4773.79824829,0.00072740
4775.72705566,0.00073069
4777.65586304,0.00068667
4779.58467041,0.00080472
4781.51347778,0.00079639
4783.44228516,0.00073152
4785.37109253,0.00072285
4787.29989990,0.00069410
4789.22870728,0.00071390
4791.15751465,0.00071475
4793.08632202,0.00072780
4795.01512939,0.00078050
4796.94393677,0.00076501
4798.87274414,0.00071160
4800.80155151,0.00069109
4802.73035889,0.00067864
4804.65916626,0.00076630
4806.58797363,0.00074963
4808.51678101,0.00066426
4810.44558838,0.00077160
4812.37439575,0.00072382
4814.30320312,0.00070323
4816.23201050,0.00073615
4818.16081787,0.00065212
4820.08962524,0.00071668
4822.01843262,0.00070524
4823.94723999,0.00066150
4825.87604736,0.00062116
4827.80485474,0.00063954
4829.73366211,0.00075900
4831.66246948,0.00066205
4833.59127686,0.00058696
4835.52008423,0.00064606
4837.44889160,0.00072752
4839.37769897,0.00071628
4841.30650635,0.00064170
4843.23531372,0.00068774
4845.16412109,0.00068401
4847.09292847,0.00060171
4849.02173584,0.00057823
4850.95054321,0.00064756
4852.87935059,0.00065732
4854.80815796,0.00063447
4856.73696533,0.00064877
4858.66577270,0.00066127
4860.59458008,0.00066448
4862.52338745,0.00061372
4864.45219482,0.00070222
4866.38100220,0.00066530
4868.30980957,0.00055069
4870.23861694,0.00069132
4872.16742432,0.00072149
4874.09623169,0.00067757
4876.02503906,0.00068240
4877.95384644,0.00068406
4879.88265381,0.00069629
4881.81146118,0.00066537
4883.74026855,0.00061953
4885.66907593,0.00062877
4887.59788330,0.00064688
4889.52669067,0.00057315
4891.45549805,0.00065287
4893.38430542,0.00072821
4895.31311279,0.00061509
4897.24192017,0.00060707
4899.17072754,0.00064495
4901.09953491,0.00064279
4903.02834228,0.00061396
4904.95714966,0.00062892
4906.88595703,0.00061516
4908.81476440,0.00053073
4910.74357178,0.00060201
4912.67237915,0.00064310
4914.60118652,0.00058205
4916.52999390,0.00059927
4918.45880127,0.00058236
4920.38760864,0.00058014
4922.31641602,0.00065270
4924.24522339,0.00063868
4926.17403076,0.00059674
4928.10283813,0.00061835
4930.03164551,0.00066076
4931.96045288,0.00063221
4933.88926025,0.00056197
4935.81806763,0.00058957
4937.74687500,0.00057370
4939.67568237,0.00053756
4941.60448975,0.00061036
4943.53329712,0.00065026
4945.46210449,0.00057975
4947.39091187,0.00055344
4949.31971924,0.00062557
4951.24852661,0.00058540
4953.17733398,0.00056136
4955.10614136,0.00060000
4957.03494873,0.00058401
4958.96375610,0.00053514
4960.89256348,0.00048953
4962.82137085,0.00055246
4964.75017822,0.00053157
4966.67898560,0.00058596
4968.60779297,0.00064336
4970.53660034,0.00052624
4972.46540771,0.00059932
4974.39421509,0.00056856
4976.32302246,0.00052881
4978.25182983,0.00063403
4980.18063721,0.00055527
4982.10944458,0.00056013
4984.03825195,0.00062092
4985.96705933,0.00054699
4987.89586670,0.00053335
4989.82467407,0.00053558
4991.75348145,0.00045591
4993.68228882,0.00051363
4995.61109619,0.00059788
4997.53990356,0.00056659
4999.46871094,0.00054746
5001.39751831,0.00050211
5003.32632568,0.00054056
5005.25513306,0.00060373
5007.18394043,0.00059218
5009.11274780,0.00054133
5011.04155518,0.00055922
5012.97036255,0.00057491
5014.89916992,0.00045875
5016.82797729,0.00053768
5018.75678467,0.00054956
5020.68559204,0.00046924
5022.61439941,0.00054051
5024.54320679,0.00051214
5026.47201416,0.00048828
5028.40082153,0.00048872
5030.32962891,0.00056718
5032.25843628,0.00057412
5034.18724365,0.00052074
5036.11605103,0.00054434
5038.04485840,0.00047886
5039.97366577,0.00055706
5041.90247314,0.00055382
5043.83128052,0.00046375
5045.76008789,0.00048239
5047.68889526,0.00047053
5049.61770264,0.00052108
5051.54651001,0.00050200
5053.47531738,0.00047874
5055.40412476,0.00046106
5057.33293213,0.00051098
5059.26173950,0.00059159
5061.19054687,0.00046403
5063.11935425,0.00047070
5065.04816162,0.00055240
5066.97696899,0.00048378
5068.90577637,0.00044961
5070.83458374,0.00048528
5072.76339111,0.00041971
5074.69219849,0.00040943
5076.62100586,0.00056804
5078.54981323,0.00052489
5080.47862061,0.00047509
5082.40742798,0.00051895
5084.33623535,0.00052250
5086.26504272,0.00053969
5088.19385010,0.00046696
5090.12265747,0.00050336
5092.05146484,0.00052017
5093.98027222,0.00045871
5095.90907959,0.00048642
5097.83788696,0.00046303
5099.76669434,0.00048626
5101.69550171,0.00048868
5103.62430908,0.00045993
5105.55311645,0.00052072
5107.48192383,0.00048827
5109.41073120,0.00041511
5111.33953857,0.00045762
5113.26834595,0.00046787
5115.19715332,0.00044697
5117.12596069,0.00048790
5119.05476807,0.00046469
5120.98357544,0.00043838
5122.91238281,0.00044922
5124.84119019,0.00044285
5126.76999756,0.00043728
5128.69880493,0.00044297
5130.62761230,0.00047185
5132.55641968,0.00042828
5134.48522705,0.00041925
5136.41403442,0.00045387
5138.34284180,0.00043828
5140.27164917,0.00042118
5142.20045654,0.00038196
5144.12926392,0.00043476
5146.05807129,0.00048190
5147.98687866,0.00043503
5149.91568603,0.00041370
5151.84449341,0.00045834
5153.77330078,0.00050556
5155.70210815,0.00042719
5157.63091553,0.00040182
5159.55972290,0.00043062
5161.48853027,0.00043986
5163.41733765,0.00046692
5165.34614502,0.00043328
5167.27495239,0.00044441
5169.20375977,0.00042155
5171.13256714,0.00041009
5173.06137451,0.00044423
5174.99018188,0.00040181
5176.91898926,0.00042181
5178.84779663,0.00040005
5180.77660400,0.00037369
5182.70541138,0.00041780
5184.63421875,0.00039908
5186.56302612,0.00039335
5188.49183350,0.00038758
5190.42064087,0.00039499
5192.34944824,0.00045329
5194.27825562,0.00046181
5196.20706299,0.00041939
5198.13587036,0.00042250
5200.06467773,0.00040606
5201.99348511,0.00037538
5203.92229248,0.00037763
5205.85109985,0.00033260
5207.77990723,0.00039450
5209.70871460,0.00040523
5211.63752197,0.00035365
5213.56632935,0.00042912
5215.49513672,0.00041253
5217.42394409,0.00045224
5219.35275146,0.00046163
5221.28155884,0.00038867
5223.21036621,0.00036917
5225.13917358,0.00033946
5227.06798096,0.00043922
5228.99678833,0.00041522
5230.92559570,0.00037274
5232.85440308,0.00040755
5234.78321045,0.00037544
5236.71201782,0.00044879
5238.64082520,0.00041637
5240.56963257,0.00040220
5242.49843994,0.00041061
5244.42724731,0.00032714
5246.35605469,0.00035716
5248.28486206,0.00036656
5250.21366943,0.00034518
5252.14247681,0.00036134
5254.07128418,0.00040943
5256.00009155,0.00039109
5257.92889893,0.00039384
5259.85770630,0.00043173
5261.78651367,0.00034553
5263.71532104,0.00034680
5265.64412842,0.00035024
5267.57293579,0.00034316
5269.50174316,0.00036062
5271.43055054,0.00035625
5273.35935791,0.00041402
5275.28816528,0.00034477
5277.21697266,0.00034912
5279.14578003,0.00041714
5281.07458740,0.00036593
5283.00339478,0.00039708
5284.93220215,0.00041664
5286.86100952,0.00039548
5288.78981689,0.00037575
5290.71862427,0.00036209
5292.64743164,0.00036367
5294.57623901,0.00038975
5296.50504639,0.00038170
5298.43385376,0.00033772
5300.36266113,0.00039796
5302.29146851,0.00033604
5304.22027588,0.00031482
5306.14908325,0.00039231
5308.07789062,0.00030111
5310.00669800,0.00034307
5311.93550537,0.00037355
5313.86431274,0.00031399
5315.79312012,0.00035031
5317.72192749,0.00034485
5319.65073486,0.00036594
5321.57954224,0.00037621
5323.50834961,0.00034535
5325.43715698,0.00032717
5327.36596436,0.00034949
5329.29477173,0.00034403
5331.22357910,0.00030135
5333.15238647,0.00038713
5335.08119385,0.00040552
5337.01000122,0.00032192
5338.93880859,0.00029376
5340.86761597,0.00033639
5342.79642334,0.00033758
5344.72523071,0.00032249
5346.65403809,0.00041384
5348.58284546,0.00030986
5350.51165283,0.00027160
5352.44046020,0.00036659
5354.36926758,0.00033510
5356.29807495,0.00038121
5358.22688232,0.00028576
5360.15568970,0.00027869
5362.08449707,0.00037822
5364.01330444,0.00035501
5365.94211182,0.00037318
5367.87091919,0.00029843
5369.79972656,0.00034483
5371.72853394,0.00035979
5373.65734131,0.00032601
5375.58614868,0.00038031
5377.51495605,0.00027836
5379.44376343,0.00027994
5381.37257080,0.00033669
5383.30137817,0.00034007
5385.23018555,0.00029104
5387.15899292,0.00028843
5389.08780029,0.00037209
5391.01660767,0.00033783
5392.94541504,0.00034380
5394.87422241,0.00029461
5396.80302978,0.00027907
5398.73183716,0.00032345
5400.66064453,0.00030383
5402.58945190,0.00034049
5404.51825928,0.00030187
5406.44706665,0.00034910
5408.37587402,0.00034481
5410.30468140,0.00023384
5412.23348877,0.00029950
5414.16229614,0.00031076
5416.09110352,0.00026716
5418.01991089,0.00028420
5419.94871826,0.00033819
5421.87752563,0.00038581
5423.80633301,0.00032141
5425.73514038,0.00027542
5427.66394775,0.00030416
5429.59275513,0.00025839
5431.52156250,0.00026060
5433.45036987,0.00032232
5435.37917725,0.00028912
5437.30798462,0.00028496
5439.23679199,0.00029045
5441.16559936,0.00029717
5443.09440674,0.00030334
5445.02321411,0.00030393
5446.95202148,0.00029574
5448.88082886,0.00024749
5450.80963623,0.00032395
5452.73844360,0.00032221
5454.66725098,0.00024260
5456.59605835,0.00022672
5458.52486572,0.00025446
5460.45367310,0.00033219
5462.38248047,0.00026505
5464.31128784,0.00026059
5466.24009521,0.00025885
5468.16890259,0.00021100
5470.09770996,0.00027784
5472.02651733,0.00025773
5473.95532471,0.00029900
5475.88413208,0.00034061
5477.81293945,0.00027152
5479.74174683,0.00025650
5481.67055420,0.00029087
5483.59936157,0.00025508
5485.52816895,0.00019213
5487.45697632,0.00027577
5489.38578369,0.00032380
5491.31459106,0.00032493
5493.24339844,0.00030553
5495.17220581,0.00027046
5497.10101318,0.00028759
5499.02982056,0.00025725
5500.95862793,0.00027798
5502.88743530,0.00025429
5504.81624268,0.00024944
5506.74505005,0.00026337
5508.67385742,0.00022853
5510.60266479,0.00028861
5512.53147217,0.00019177
5514.46027954,0.00016894
5516.38908691,0.00026721
5518.31789429,0.00020779
5520.24670166,0.00023157
5522.17550903,0.00028059
5524.10431641,0.00028450
5526.03312378,0.00027641
5527.96193115,0.00028298
5529.89073853,0.00027843
5531.81954590,0.00021893
5533.74835327,0.00024068
5535.67716064,0.00023157
5537.60596802,0.00021633
5539.53477539,0.00025337
5541.46358276,0.00025989
5543.39239014,0.00025750
5545.32119751,0.00019132
5547.25000488,0.00016513
5549.17881226,0.00024361
5551.10761963,0.00029574
5553.03642700,0.00025634
5554.96523437,0.00020127
5556.89404175,0.00021685
5558.82284912,0.00025353
5560.75165649,0.00026458
5562.68046387,0.00022932
5564.60927124,0.00018324
5566.53807861,0.00019652
5568.46688599,0.00023909
5570.39569336,0.00023967
5572.32450073,0.00023846
5574.25330811,0.00024541
5576.18211548,0.00020016
5578.11092285,0.00016552
5580.03973022,0.00019173
5581.96853760,0.00022422
5583.89734497,0.00024888
5585.82615234,0.00029140
5587.75495972,0.00022710
5589.68376709,0.00019815
5591.61257446,0.00027723
5593.54138184,0.00018351
5595.47018921,0.00022445
5597.39899658,0.00031718
5599.32780395,0.00021285
5601.25661133,0.00026199
5603.18541870,0.00025601
5605.11422607,0.00020716
5607.04303345,0.00026053
5608.97184082,0.00025466
5610.90064819,0.00025343
5612.82945557,0.00019862
5614.75826294,0.00017159
5616.68707031,0.00021027
5618.61587769,0.00023168
5620.54468506,0.00021847
5622.47349243,0.00019112
5624.40229980,0.00021967
5626.33110718,0.00019837
5628.25991455,0.00018823
5630.18872192,0.00020938
5632.11752930,0.00020387
5634.04633667,0.00025076
5635.97514404,0.00022058
5637.90395142,0.00019604
5639.83275879,0.00024632
5641.76156616,0.00017165
5643.69037353,0.00018606
5645.61918091,0.00025826
5647.54798828,0.00023693
5649.47679565,0.00029447
5651.40560303,0.00022496
5653.33441040,0.00019793
5655.26321777,0.00023769
5657.19202515,0.00014342
5659.12083252,0.00024901
5661.04963989,0.00023218
5662.97844727,0.00014581
5664.90725464,0.00026525
5666.83606201,0.00022072
5668.76486938,0.00019646
5670.69367676,0.00021200
5672.62248413,0.00021463
5674.55129150,0.00027636
5676.48009888,0.00019819
5678.40890625,0.00014320
5680.33771362,0.00014577
5682.26652100,0.00012219
5684.19532837,0.00021411
5686.12413574,0.00027357
5688.05294311,0.00022249
5689.98175049,0.00024456
5691.91055786,0.00023570
5693.83936523,0.00018267
5695.76817261,0.00018870
5697.69697998,0.00014032
5699.62578735,0.00014801
5701.55459473,0.00019979
5703.48340210,0.00016209
5705.41220947,0.00021045
5707.34101685,0.00021075
5709.26982422,0.00012566
5711.19863159,0.00020040
5713.12743896,0.00018235
5715.05624634,0.00014275
5716.98505371,0.00022250
5718.91386108,0.00013987
5720.84266846,0.00012085
5722.77147583,0.00020741
5724.70028320,0.00016270
5726.62909058,0.00011011
5728.55789795,0.00020047
5730.48670532,0.00021510
5732.41551270,0.00008867
5734.34432007,0.00019662
5736.27312744,0.00021402
5738.20193481,0.00009717
5740.13074219,0.00018118
5742.05954956,0.00015152
5743.98835693,0.00014590
5745.91716431,0.00020043
5747.84597168,0.00014928
5749.77477905,0.00016735
5751.70358643,0.00020518
5753.63239380,0.00018228
5755.56120117,0.00013879
5757.49000854,0.00015288
5759.41881592,0.00015115
5761.34762329,0.00012783
5763.27643066,0.00016997
5765.20523804,0.00013956
5767.13404541,0.00013564
5769.06285278,0.00026045
5770.99166016,0.00020660
5772.92046753,0.00010957
5774.84927490,0.00020133
5776.77808228,0.00021328
5778.70688965,0.00022376
5780.63569702,0.00023421
5782.56450439,0.00014627
5784.49331177,0.00015604
5786.42211914,0.00018815
5788.35092651,0.00018878
5790.27973389,0.00018660
5792.20854126,0.00017070
5794.13734863,0.00016528
5796.06615601,0.00019552
5797.99496338,0.00019563
5799.92377075,0.00017431
5801.85257812,0.00019532
5803.78138550,0.00015837
5805.71019287,0.00017041
5807.63900024,0.00016816
5809.56780762,0.00012810
5811.49661499,0.00014933
5813.42542236,0.00012736
5815.35422974,0.00013813
5817.28303711,0.00013044
5819.21184448,0.00012483
5821.14065186,0.00013384
5823.06945923,0.00015169
5824.99826660,0.00021720
5826.92707397,0.00022604
5828.85588135,0.00023087
5830.78468872,0.00013231
5832.71349609,0.00008877
5834.64230347,0.00018569
5836.57111084,0.00014140
5838.49991821,0.00013424
5840.42872559,0.00019267
5842.35753296,0.00017031
5844.28634033,0.00016458
5846.21514770,0.00017105
5848.14395508,0.00016795
5850.07276245,0.00014575
5852.00156982,0.00013612
5853.93037720,0.00020844
5855.85918457,0.00021091
5857.78799194,0.00017145
5859.71679932,0.00017525
5861.64560669,0.00015006
5863.57441406,0.00015514
5865.50322144,0.00010545
5867.43202881,0.00012939
5869.36083618,0.00016374
5871.28964355,0.00009729
5873.21845093,0.00016188
5875.14725830,0.00014014
5877.07606567,0.00013323
5879.00487305,0.00016070
5880.93368042,0.00009696
5882.86248779,0.00016615
5884.79129517,0.00014980
5886.72010254,0.00007562
5888.64890991,0.00012351
5890.57771728,0.00015903
5892.50652466,0.00016768
5894.43533203,0.00018177
5896.36413940,0.00013179
5898.29294678,0.00014381
5900.22175415,0.00021142
5902.15056152,0.00014167
5904.07936890,0.00016570
5906.00817627,0.00016490
5907.93698364,0.00010741
5909.86579102,0.00014929
5911.79459839,0.00012910
5913.72340576,0.00016357
5915.65221313,0.00017341
5917.58102051,0.00017128
5919.50982788,0.00013245
5921.43863525,0.00007650
5923.36744263,0.00015651
5925.29625000,0.00012871
5927.22505737,0.00016026
5929.15386475,0.00019095
5931.08267212,0.00008250
5933.01147949,0.00008009
5934.94028686,0.00009465
5936.86909424,0.00013811
5938.79790161,0.00016625
5940.72670898,0.00010424
5942.65551636,0.00011031
5944.58432373,0.00013598
5946.51313110,0.00008801
5948.44193848,0.00006944
5950.37074585,0.00013120
5952.29955322,0.00017826
5954.22836060,0.00012708
5956.15716797,0.00012516
5958.08597534,0.00020351
5960.01478271,0.00012774
5961.94359009,0.00009449
5963.87239746,0.00013929
5965.80120483,0.00010262
5967.73001221,0.00014103
5969.65881958,0.00014414
5971.58762695,0.00010511
5973.51643433,0.00010325
5975.44524170,0.00011022
5977.37404907,0.00010527
5979.30285645,0.00012490
5981.23166382,0.00015925
5983.16047119,0.00011053
5985.08927856,0.00020474
5987.01808594,0.00019036
5988.94689331,0.00007955
5990.87570068,0.00013439
5992.80450806,0.00006516
5994.73331543,0.00014432
5996.66212280,0.00016469
5998.59093018,0.00005649
6000.51973755,0.00013788
