399.26312622,-0.00006740
401.19193359,0.00003373
403.12074097,0.00015948
405.04954834,0.00012557
406.97835571,0.00009163
408.90716309,0.00029719
410.83597046,0.00037784
412.76477783,0.00024095
414.69358521,0.00021115
416.62239258,0.00008553
418.55119995,0.00004693
420.48000732,-0.00007026
422.40881470,-0.00007568
424.33762207,0.00022988
426.26642944,0.00022369
428.19523682,0.00028888
430.12404419,0.00022257
432.05285156,0.00006313
433.98165894,0.00010982
435.91046631,-0.00005396
437.83927368,0.00006144
439.76808105,0.00028897
441.69688843,0.00028689
443.62569580,0.00029784
445.55450317,0.00024613
447.48331055,0.00001460
449.41211792,0.00010205
451.34092529,0.00038735
453.26973267,0.00015035
455.19854004,-0.00000683
457.12734741,0.00016684
459.05615479,0.00021818
460.98496216,0.00006695
462.91376953,0.00004449
464.84257690,0.00014036
466.77138428,0.00020390
468.70019165,0.00023640
470.62899902,0.00006200
472.55780640,0.00001883
474.48661377,-0.00005114
476.41542114,-0.00005929
478.34422852,0.00010662
480.27303589,0.00033135
482.20184326,0.00041214
484.13065063,0.00010535
486.05945801,0.00012190
487.98826538,0.00020060
489.91707275,0.00011315
491.84588013,0.00019189
493.77468750,0.00039081
495.70349487,0.00026270
497.63230225,-0.00007532
499.56110962,0.00009719
501.48991699,0.00004499
503.41872437,0.00004809
505.34753174,0.00017803
507.27633911,-0.00001214
509.20514648,0.00019613
511.13395386,0.00017467
513.06276123,0.00022431
514.99156860,0.00039318
516.92037598,0.00020213
518.84918335,0.00019463
520.77799072,0.00000393
522.70679810,0.00009667
524.63560547,0.00031899
526.56441284,0.00023351
528.49322021,0.00029836
530.42202759,0.00013750
532.35083496,0.00009528
534.27964233,0.00026277
536.20844971,0.00019278
538.13725708,0.00024332
540.06606445,0.00037825
541.99487183,0.00026743
543.92367920,0.00017770
545.85248657,0.00007716
547.78129395,0.00016531
549.71010132,0.00028202
551.63890869,0.00019063
553.56771606,0.00040251
555.49652344,0.00028710
557.42533081,0.00003487
559.35413818,0.00022141
561.28294556,0.00002181
563.21175293,-0.00009059
565.14056030,0.00011668
567.06936768,0.00009054
568.99817505,0.00002540
570.92698242,0.00008533
572.85578979,0.00029431
574.78459717,0.00000476
576.71340454,-0.00007272
578.64221191,0.00037540
580.57101929,0.00009691
582.49982666,0.00012493
584.42863403,0.00020444
586.35744141,-0.00004198
588.28624878,0.00018231
590.21505615,0.00013628
592.14386353,0.00005154
594.07267090,0.00011116
596.00147827,0.00012633
597.93028564,0.00016122
599.85909302,0.00013353
601.78790039,0.00019299
603.71670776,0.00020222
605.64551514,0.00009991
607.57432251,0.00012463
609.50312988,0.00033429
611.43193726,0.00009537
613.36074463,0.00006198
615.28955200,0.00040247
617.21835938,0.00003032
619.14716675,0.00007541
621.07597412,0.00028562
623.00478149,0.00006231
624.93358887,0.00024810
626.86239624,0.00017946
628.79120361,0.00001036
630.72001099,0.00016346
632.64881836,0.00019378
634.57762573,0.00022022
636.50643311,0.00033211
638.43524048,0.00019681
640.36404785,0.00016243
642.29285522,0.00017114
644.22166260,0.00007700
646.15046997,0.00017526
648.07927734,0.00000106
650.00808472,0.00021458
651.93689209,0.00037488
653.86569946,0.00004366
655.79450684,0.00014890
657.72331421,0.00006711
659.65212158,0.00004234
661.58092896,0.00027058
663.50973633,0.00029684
665.43854370,0.00026098
667.36735107,0.00021398
669.29615845,0.00028385
671.22496582,0.00027736
673.15377319,0.00007980
675.08258057,0.00007505
677.01138794,0.00012964
678.94019531,0.00025585
680.86900269,0.00022242
682.79781006,0.00010313
684.72661743,0.00028399
686.65542480,0.00027517
688.58423218,0.00030597
690.51303955,0.00035139
692.44184692,0.00013121
694.37065430,0.00026288
696.29946167,0.00026987
698.22826904,0.00014920
700.15707642,0.00043135
702.08588379,0.00037410
704.01469116,0.00024465
705.94349854,0.00036849
707.87230591,0.00034571
709.80111328,0.00011964
711.72992065,0.00007895
713.65872803,0.00019261
715.58753540,0.00025788
717.51634277,0.00036944
719.44515015,0.00002410
721.37395752,-0.00001650
723.30276489,0.00010930
725.23157227,0.00005222
727.16037964,0.00013563
729.08918701,0.00028353
731.01799438,0.00019813
732.94680176,0.00015329
734.87560913,0.00022088
736.80441650,0.00005972
738.73322388,0.00010133
740.66203125,0.00024629
742.59083862,0.00028255
744.51964600,0.00009313
746.44845337,-0.00002224
748.37726074,0.00026483
750.30606812,0.00022096
752.23487549,0.00016835
754.16368286,0.00026636
756.09249023,0.00012957
758.02129761,-0.00006601
759.95010498,0.00008797
761.87891235,0.00040624
763.80771973,0.00017259
765.73652710,0.00011152
767.66533447,0.00028712
769.59414185,0.00024009
771.52294922,0.00028610
773.45175659,0.00023896
775.38056396,0.00021763
777.30937134,0.00015097
779.23817871,0.00012143
781.16698608,0.00020290
783.09579346,0.00017509
785.02460083,0.00024642
786.95340820,0.00026105
788.88221558,0.00019726
790.81102295,0.00015760
792.73983032,0.00015191
794.66863770,0.00026584
796.59744507,0.00028029
798.52625244,0.00010480
800.45505981,0.00009049
802.38386719,0.00027055
804.31267456,0.00032765
806.24148193,0.00028670
808.17028931,0.00022029
810.09909668,0.00022403
812.02790405,0.00020533
813.95671143,0.00018492
815.88551880,0.00015885
817.81432617,0.00005542
819.74313354,0.00004226
821.67194092,-0.00001331
823.60074829,0.00011868
825.52955566,0.00016969
827.45836304,0.00008939
829.38717041,0.00010974
831.31597778,0.00020439
833.24478516,0.00032776
835.17359253,0.00002958
837.10239990,0.00021133
839.03120728,0.00033629
840.96001465,-0.00000442
842.88882202,0.00009646
844.81762939,0.00022230
846.74643677,0.00040644
848.67524414,0.00022551
850.60405151,0.00022500
852.53285889,0.00027804
854.46166626,-0.00001527
856.39047363,0.00013669
858.31928101,0.00016437
860.24808838,0.00027126
862.17689575,0.00018904
864.10570313,0.00019811
866.03451050,0.00028705
867.96331787,0.00006221
869.89212524,0.00035784
871.82093262,0.00036079
873.74973999,0.00026274
875.67854736,0.00012362
877.60735474,0.00015002
879.53616211,0.00048224
881.46496948,0.00026125
883.39377686,0.00033222
885.32258423,0.00033815
887.25139160,0.00020784
889.18019897,0.00025707
891.10900635,0.00020123
893.03781372,0.00013836
894.96662109,0.00002040
896.89542847,0.00025158
898.82423584,0.00027974
900.75304321,0.00017515
902.68185059,0.00025751
904.61065796,0.00015239
906.53946533,0.00024172
908.46827271,0.00039327
910.39708008,0.00025468
912.32588745,0.00016314
914.25469482,0.00031510
916.18350220,0.00032051
918.11230957,0.00025556
920.04111694,0.00034491
921.96992432,0.00031472
923.89873169,0.00014195
925.82753906,0.00028268
927.75634644,0.00039066
929.68515381,0.00016864
931.61396118,0.00028497
933.54276855,0.00035108
935.47157593,0.00036279
937.40038330,0.00048881
939.32919067,0.00036448
941.25799805,0.00028529
943.18680542,0.00035854
945.11561279,0.00042511
947.04442017,0.00024919
948.97322754,0.00039226
950.90203491,0.00046574
952.83084229,0.00003970
954.75964966,0.00016489
956.68845703,0.00038090
958.61726440,0.00039092
960.54607178,0.00037309
962.47487915,0.00019729
964.40368652,0.00032461
966.33249390,0.00046516
968.26130127,0.00027292
970.19010864,0.00026387
972.11891602,0.00039326
974.04772339,0.00035854
975.97653076,0.00049652
977.90533813,0.00045792
979.83414551,0.00023936
981.76295288,0.00023294
983.69176025,0.00027914
985.62056763,0.00051853
987.54937500,0.00052009
989.47818237,0.00027970
991.40698975,0.00027872
993.33579712,0.00037888
995.26460449,0.00040960
997.19341187,0.00040168
999.12221924,0.00045177
1001.05102661,0.00043018
1002.97983398,0.00049332
1004.90864136,0.00046812
1006.83744873,0.00041025
1008.76625610,0.00053271
1010.69506348,0.00046211
1012.62387085,0.00063999
1014.55267822,0.00063142
1016.48148560,0.00035340
1018.41029297,0.00057825
1020.33910034,0.00059436
1022.26790771,0.00057357
1024.19671509,0.00065504
1026.12552246,0.00063781
1028.05432983,0.00082647
1029.98313721,0.00080333
1031.91194458,0.00079267
1033.84075195,0.00085214
1035.76955933,0.00071957
1037.69836670,0.00063200
1039.62717407,0.00076003
1041.55598145,0.00088720
1043.48478882,0.00072200
1045.41359619,0.00068398
1047.34240356,0.00077223
1049.27121094,0.00087592
1051.20001831,0.00075062
1053.12882568,0.00058642
1055.05763306,0.00089753
1056.98644043,0.00081216
1058.91524780,0.00064139
1060.84405518,0.00067799
1062.77286255,0.00054351
1064.70166992,0.00071572
1066.63047729,0.00076802
1068.55928467,0.00060678
1070.48809204,0.00062906
1072.41689941,0.00067042
1074.34570679,0.00065645
1076.27451416,0.00070642
1078.20332153,0.00066896
1080.13212891,0.00057064
1082.06093628,0.00052398
1083.98974365,0.00052422
1085.91855103,0.00069430
1087.84735840,0.00061172
1089.77616577,0.00055633
1091.70497314,0.00053168
1093.63378052,0.00046651
1095.56258789,0.00071820
1097.49139526,0.00068476
1099.42020264,0.00062027
1101.34901001,0.00056904
1103.27781738,0.00054037
1105.20662476,0.00053455
1107.13543213,0.00037901
1109.06423950,0.00060600
1110.99304687,0.00057688
1112.92185425,0.00049832
1114.85066162,0.00071374
1116.77946899,0.00064206
1118.70827637,0.00046917
1120.63708374,0.00037232
1122.56589111,0.00049823
1124.49469849,0.00058894
1126.42350586,0.00058016
1128.35231323,0.00061275
1130.28112061,0.00060121
1132.20992798,0.00060782
1134.13873535,0.00065242
1136.06754272,0.00059747
1137.99635010,0.00058246
1139.92515747,0.00077528
1141.85396484,0.00066596
1143.78277222,0.00071245
1145.71157959,0.00079938
1147.64038696,0.00066672
1149.56919434,0.00090642
1151.49800171,0.00078932
1153.42680908,0.00061889
1155.35561646,0.00077900
1157.28442383,0.00091120
1159.21323120,0.00092338
1161.14203857,0.00085202
1163.07084595,0.00094981
1164.99965332,0.00085381
1166.92846069,0.00092011
1168.85726807,0.00098133
1170.78607544,0.00094272
1172.71488281,0.00113779
1174.64369019,0.00104102
1176.57249756,0.00100602
1178.50130493,0.00111776
1180.43011230,0.00110618
1182.35891968,0.00111051
1184.28772705,0.00128667
1186.21653442,0.00127536
1188.14534180,0.00118836
1190.07414917,0.00137317
1192.00295654,0.00134340
1193.93176392,0.00144518
1195.86057129,0.00139337
1197.78937866,0.00135840
1199.71818604,0.00160521
1201.64699341,0.00138849
1203.57580078,0.00146604
1205.50460815,0.00171323
1207.43341553,0.00168475
1209.36222290,0.00180856
1211.29103027,0.00189095
1213.21983765,0.00177146
1215.14864502,0.00171332
1217.07745239,0.00191163
1219.00625977,0.00207750
1220.93506714,0.00210495
1222.86387451,0.00198460
1224.79268188,0.00197968
1226.72148926,0.00215110
1228.65029663,0.00208903
1230.57910400,0.00195646
1232.50791138,0.00209709
1234.43671875,0.00226641
1236.36552612,0.00216094
1238.29433350,0.00202547
1240.22314087,0.00196977
1242.15194824,0.00209796
1244.08075562,0.00204211
1246.00956299,0.00194559
1247.93837036,0.00218085
1249.86717773,0.00207847
1251.79598511,0.00211080
1253.72479248,0.00224614
1255.65359985,0.00212512
1257.58240723,0.00207319
1259.51121460,0.00193348
1261.44002197,0.00198664
1263.36882935,0.00205440
1265.29763672,0.00197140
1267.22644409,0.00192468
1269.15525146,0.00186886
1271.08405884,0.00196553
1273.01286621,0.00211023
1274.94167358,0.00190150
1276.87048096,0.00177082
1278.79928833,0.00196015
1280.72809570,0.00188384
1282.65690308,0.00184526
1284.58571045,0.00177328
1286.51451782,0.00171087
1288.44332520,0.00177247
1290.37213257,0.00176168
1292.30093994,0.00182046
1294.22974731,0.00165785
1296.15855469,0.00176972
1298.08736206,0.00173482
1300.01616943,0.00162133
1301.94497681,0.00177044
1303.87378418,0.00167189
1305.80259155,0.00194267
1307.73139893,0.00186147
1309.66020630,0.00181605
1311.58901367,0.00195678
1313.51782104,0.00173836
1315.44662842,0.00193530
1317.37543579,0.00189175
1319.30424316,0.00205647
1321.23305054,0.00223002
1323.16185791,0.00203682
1325.09066528,0.00216404
1327.01947266,0.00217616
1328.94828003,0.00234423
1330.87708740,0.00242211
1332.80589478,0.00238115
1334.73470215,0.00242171
1336.66350952,0.00236099
1338.59231689,0.00238933
1340.52112427,0.00236112
1342.44993164,0.00251286
1344.37873901,0.00255413
1346.30754639,0.00240844
1348.23635376,0.00245019
1350.16516113,0.00242578
1352.09396851,0.00247236
1354.02277588,0.00257137
1355.95158325,0.00249334
1357.88039062,0.00247844
1359.80919800,0.00256903
1361.73800537,0.00246736
1363.66681274,0.00231895
1365.59562012,0.00246195
1367.52442749,0.00243899
1369.45323486,0.00229164
1371.38204224,0.00253339
1373.31084961,0.00238174
1375.23965698,0.00218120
1377.16846436,0.00248600
1379.09727173,0.00248365
1381.02607910,0.00253032
1382.95488647,0.00263854
1384.88369385,0.00257780
1386.81250122,0.00244865
1388.74130859,0.00239139
1390.67011597,0.00259500
1392.59892334,0.00241275
1394.52773071,0.00227858
1396.45653809,0.00246179
1398.38534546,0.00245446
1400.31415283,0.00249745
1402.24296021,0.00259662
1404.17176758,0.00251447
1406.10057495,0.00258971
1408.02938232,0.00281429
1409.95818970,0.00257972
1411.88699707,0.00256012
1413.81580444,0.00275997
1415.74461182,0.00265985
1417.67341919,0.00250619
1419.60222656,0.00228570
1421.53103394,0.00239558
1423.45984131,0.00242429
1425.38864868,0.00233538
1427.31745605,0.00242695
1429.24626343,0.00235467
1431.17507080,0.00233383
1433.10387817,0.00236487
1435.03268555,0.00215678
1436.96149292,0.00196711
1438.89030029,0.00223572
1440.81910767,0.00214695
1442.74791504,0.00213806
1444.67672241,0.00232883
1446.60552979,0.00192060
1448.53433716,0.00219852
1450.46314453,0.00228115
1452.39195190,0.00201414
1454.32075928,0.00225125
1456.24956665,0.00194352
1458.17837402,0.00194863
1460.10718140,0.00242202
1462.03598877,0.00264303
1463.96479614,0.00263262
1465.89360352,0.00250845
1467.82241089,0.00289805
1469.75121826,0.00312731
1471.68002563,0.00280424
1473.60883301,0.00300601
1475.53764038,0.00334190
1477.46644775,0.00335304
1479.39525513,0.00361421
1481.32406250,0.00372966
1483.25286987,0.00373849
1485.18167725,0.00384268
1487.11048462,0.00405928
1489.03929199,0.00411974
1490.96809937,0.00393152
1492.89690674,0.00444351
1494.82571411,0.00436255
1496.75452148,0.00392284
1498.68332886,0.00443256
1500.61213623,0.00458782
1502.54094360,0.00489387
1504.46975098,0.00452871
1506.39855835,0.00349299
1508.32736572,0.00422958
1510.25617310,0.00474967
1512.18498047,0.00464298
1514.11378784,0.00493035
1516.04259521,0.00455097
1517.97140259,0.00469468
1519.90020996,0.00456792
1521.82901733,0.00428478
1523.75782471,0.00496011
1525.68663208,0.00476551
1527.61543945,0.00489527
1529.54424683,0.00538560
1531.47305420,0.00507331
1533.40186157,0.00462708
1535.33066895,0.00487437
1537.25947632,0.00518192
1539.18828369,0.00400715
1541.11709106,0.00428935
1543.04589844,0.00485830
1544.97470581,0.00456747
1546.90351318,0.00539058
1548.83232056,0.00505941
1550.76112793,0.00522534
1552.68993530,0.00520907
1554.61874268,0.00480670
1556.54755005,0.00529848
1558.47635742,0.00389276
1560.40516479,0.00410928
1562.33397217,0.00562407
1564.26277954,0.00531575
1566.19158691,0.00544621
1568.12039429,0.00530048
1570.04920166,0.00482053
1571.97800903,0.00547628
1573.90681641,0.00550710
1575.83562378,0.00458679
1577.76443115,0.00509031
1579.69323853,0.00572211
1581.62204590,0.00547085
1583.55085327,0.00564745
1585.47966064,0.00569590
1587.40846802,0.00559249
1589.33727539,0.00550684
1591.26608276,0.00545873
1593.19489014,0.00549165
1595.12369751,0.00553191
1597.05250488,0.00559013
1598.98131226,0.00571537
1600.91011963,0.00574201
1602.83892700,0.00562833
1604.76773437,0.00571517
1606.69654175,0.00557890
1608.62534912,0.00574488
1610.55415649,0.00569162
1612.48296387,0.00567473
1614.41177124,0.00570518
1616.34057861,0.00475415
1618.26938599,0.00537350
1620.19819336,0.00611112
1622.12700073,0.00559094
1624.05580811,0.00572280
1625.98461548,0.00595804
1627.91342285,0.00594344
1629.84223022,0.00593127
1631.77103760,0.00657568
1633.69984497,0.00606581
1635.62865234,0.00508446
1637.55745972,0.00589732
1639.48626709,0.00637299
1641.41507446,0.00641272
1643.34388184,0.00658889
1645.27268921,0.00596246
1647.20149658,0.00536588
1649.13030396,0.00654460
1651.05911133,0.00634358
1652.98791870,0.00442464
1654.91672607,0.00564142
1656.84553345,0.00688055
1658.77434082,0.00665651
1660.70314819,0.00681062
1662.63195557,0.00633994
1664.56076294,0.00655063
1666.48957031,0.00690202
1668.41837769,0.00618947
1670.34718506,0.00610238
1672.27599243,0.00686926
1674.20479980,0.00633343
1676.13360718,0.00613950
1678.06241455,0.00703212
1679.99122192,0.00675123
1681.92002930,0.00641428
1683.84883667,0.00537013
1685.77764404,0.00564313
1687.70645142,0.00713009
1689.63525879,0.00623313
1691.56406616,0.00688996
1693.49287354,0.00685189
1695.42168091,0.00524304
1697.35048828,0.00632903
1699.27929565,0.00562760
1701.20810303,0.00511226
1703.13691040,0.00675964
1705.06571777,0.00623333
1706.99452515,0.00619763
1708.92333252,0.00677644
1710.85213989,0.00650558
1712.78094727,0.00658563
1714.70975464,0.00615863
1716.63856201,0.00558846
1718.56736938,0.00550800
1720.49617676,0.00634152
1722.42498413,0.00664190
1724.35379150,0.00626503
1726.28259888,0.00669187
1728.21140625,0.00619073
1730.14021362,0.00620378
1732.06902100,0.00616213
1733.99782837,0.00491882
1735.92663574,0.00579920
1737.85544312,0.00641740
1739.78425049,0.00578555
1741.71305786,0.00610860
1743.64186523,0.00628617
1745.57067261,0.00625841
1747.49947998,0.00627150
1749.42828735,0.00600270
1751.35709473,0.00576052
1753.28590210,0.00644352
1755.21470947,0.00664526
1757.14351685,0.00601011
1759.07232422,0.00653681
1761.00113159,0.00629556
1762.92993896,0.00606098
1764.85874634,0.00676558
1766.78755371,0.00619014
1768.71636108,0.00618335
1770.64516846,0.00627215
1772.57397583,0.00573262
1774.50278320,0.00626849
1776.43159058,0.00659310
1778.36039795,0.00643136
1780.28920532,0.00635325
1782.21801270,0.00640495
1784.14682007,0.00642923
1786.07562744,0.00626788
1788.00443481,0.00667812
1789.93324219,0.00663987
1791.86204956,0.00596202
1793.79085693,0.00619824
1795.71966431,0.00657652
1797.64847168,0.00650898
1799.57727905,0.00645021
1801.50608643,0.00628337
1803.43489380,0.00646487
1805.36370117,0.00660375
1807.29250854,0.00650727
1809.22131592,0.00649870
1811.15012329,0.00637700
1813.07893066,0.00664822
1815.00773804,0.00668897
1816.93654541,0.00659793
1818.86535278,0.00675296
1820.79416016,0.00668753
1822.72296753,0.00656836
1824.65177490,0.00623049
1826.58058228,0.00650080
1828.50938965,0.00638208
1830.43819702,0.00603211
1832.36700439,0.00658864
1834.29581177,0.00657909
1836.22461914,0.00662299
1838.15342651,0.00647599
1840.08223389,0.00660402
1842.01104126,0.00670964
1843.93984863,0.00591195
1845.86865601,0.00637197
1847.79746338,0.00667993
1849.72627075,0.00659001
1851.65507812,0.00671580
1853.58388550,0.00659010
1855.51269287,0.00673285
1857.44150024,0.00644004
1859.37030762,0.00644757
1861.29911499,0.00648618
1863.22792236,0.00658437
1865.15672974,0.00672679
1867.08553711,0.00626595
1869.01434448,0.00624283
1870.94315186,0.00640289
1872.87195923,0.00664721
1874.80076660,0.00664292
1876.72957397,0.00659460
1878.65838135,0.00660907
1880.58718872,0.00641759
1882.51599609,0.00657394
1884.44480347,0.00652540
1886.37361084,0.00664577
1888.30241821,0.00653811
1890.23122559,0.00633300
1892.16003296,0.00658590
1894.08884033,0.00646131
1896.01764771,0.00644935
1897.94645508,0.00644302
1899.87526245,0.00653261
1901.80406982,0.00666981
1903.73287720,0.00655390
1905.66168457,0.00660024
1907.59049194,0.00651072
1909.51929932,0.00638931
1911.44810669,0.00640049
1913.37691406,0.00654588
1915.30572144,0.00649311
1917.23452881,0.00621778
1919.16333618,0.00628706
1921.09214355,0.00646008
1923.02095093,0.00645790
1924.94975830,0.00654914
1926.87856567,0.00660453
1928.80737305,0.00640538
1930.73618042,0.00645103
1932.66498779,0.00658600
1934.59379517,0.00653348
1936.52260254,0.00651506
1938.45140991,0.00657010
1940.38021729,0.00643536
1942.30902466,0.00624900
1944.23783203,0.00649887
1946.16663940,0.00645261
1948.09544678,0.00637410
1950.02425415,0.00650407
1951.95306152,0.00639580
1953.88186890,0.00647243
1955.81067627,0.00651791
1957.73948364,0.00661982
1959.66829102,0.00655156
1961.59709839,0.00643883
1963.52590576,0.00646960
1965.45471313,0.00639159
1967.38352051,0.00648561
1969.31232788,0.00638879
1971.24113525,0.00650775
1973.16994263,0.00659225
1975.09875000,0.00637929
1977.02755737,0.00645222
1978.95636475,0.00654384
1980.88517212,0.00659621
1982.81397949,0.00646923
1984.74278687,0.00643138
1986.67159424,0.00637556
1988.60040161,0.00635519
1990.52920898,0.00654566
1992.45801636,0.00643617
1994.38682373,0.00642491
1996.31563110,0.00649970
1998.24443848,0.00649589
2000.17324585,0.00654658
2002.10205322,0.00653600
2004.03086060,0.00633817
2005.95966797,0.00632638
2007.88847534,0.00645453
2009.81728271,0.00626922
2011.74609009,0.00646147
2013.67489746,0.00644178
2015.60370483,0.00620245
2017.53251221,0.00644073
2019.46131958,0.00635649
2021.39012695,0.00632942
2023.31893433,0.00637489
2025.24774170,0.00630739
2027.17654907,0.00644921
2029.10535645,0.00633742
2031.03416382,0.00627203
2032.96297119,0.00643704
2034.89177856,0.00635256
2036.82058594,0.00631030
2038.74939331,0.00630699
2040.67820068,0.00620020
2042.60700806,0.00635054
2044.53581543,0.00629310
2046.46462280,0.00620149
2048.39343018,0.00627911
2050.32223755,0.00611485
2052.25104492,0.00616847
2054.17985229,0.00621982
2056.10865967,0.00624124
2058.03746704,0.00636039
2059.96627441,0.00621125
2061.89508179,0.00616429
2063.82388916,0.00631060
2065.75269653,0.00627041
2067.68150391,0.00619199
2069.61031128,0.00634090
2071.53911865,0.00623563
2073.46792603,0.00603199
2075.39673340,0.00608703
2077.32554077,0.00615911
2079.25434814,0.00627344
2081.18315552,0.00622643
2083.11196289,0.00618518
2085.04077026,0.00616652
2086.96957764,0.00614330
2088.89838501,0.00618293
2090.82719238,0.00610013
2092.75599976,0.00617803
2094.68480713,0.00619920
2096.61361450,0.00618338
2098.54242187,0.00620842
2100.47122925,0.00612179
2102.40003662,0.00615533
2104.32884399,0.00612931
2106.25765137,0.00613203
2108.18645874,0.00617676
2110.11526611,0.00617727
2112.04407349,0.00614519
2113.97288086,0.00605420
2115.90168823,0.00608843
2117.83049561,0.00600328
2119.75930298,0.00602276
2121.68811035,0.00615671
2123.61691772,0.00605754
2125.54572510,0.00610593
2127.47453247,0.00608356
2129.40333984,0.00606471
2131.33214722,0.00618244
2133.26095459,0.00606810
2135.18976196,0.00605227
2137.11856934,0.00598113
2139.04737671,0.00600093
2140.97618408,0.00624043
2142.90499146,0.00615527
2144.83379883,0.00610844
2146.76260620,0.00610835
2148.69141357,0.00604916
2150.62022095,0.00616158
2152.54902832,0.00626433
2154.47783569,0.00615061
2156.40664307,0.00599106
2158.33545044,0.00613463
2160.26425781,0.00607444
2162.19306519,0.00590701
2164.12187256,0.00610592
2166.05067993,0.00611349
2167.97948730,0.00592297
2169.90829468,0.00592469
2171.83710205,0.00596859
2173.76590942,0.00593969
2175.69471680,0.00604546
2177.62352417,0.00608455
2179.55233154,0.00600038
2181.48113892,0.00598334
2183.40994629,0.00592146
2185.33875366,0.00596089
2187.26756104,0.00602077
2189.19636841,0.00603887
2191.12517578,0.00603934
2193.05398315,0.00603583
2194.98279053,0.00606759
2196.91159790,0.00597210
2198.84040527,0.00590919
2200.76921265,0.00596466
2202.69802002,0.00605304
2204.62682739,0.00603302
2206.55563477,0.00593576
2208.48444214,0.00589690
2210.41324951,0.00600316
2212.34205688,0.00612593
2214.27086426,0.00600496
2216.19967163,0.00597699
2218.12847900,0.00597801
2220.05728638,0.00593864
2221.98609375,0.00591986
2223.91490112,0.00589278
2225.84370850,0.00596627
2227.77251587,0.00584129
2229.70132324,0.00591825
2231.63013062,0.00604503
2233.55893799,0.00585524
2235.48774536,0.00585495
2237.41655273,0.00589424
2239.34536011,0.00589111
2241.27416748,0.00593457
2243.20297485,0.00598004
2245.13178223,0.00591068
2247.06058960,0.00585506
2248.98939697,0.00591213
2250.91820435,0.00583499
2252.84701172,0.00592399
2254.77581909,0.00602852
2256.70462646,0.00589193
2258.63343384,0.00588484
2260.56224121,0.00588080
2262.49104858,0.00580691
2264.41985596,0.00588791
2266.34866333,0.00588847
2268.27747070,0.00585440
2270.20627808,0.00590429
2272.13508545,0.00585823
2274.06389282,0.00587193
2275.99270020,0.00588666
2277.92150757,0.00592295
2279.85031494,0.00588946
2281.77912231,0.00581191
2283.70792969,0.00587668
2285.63673706,0.00582523
2287.56554443,0.00590079
2289.49435181,0.00588114
2291.42315918,0.00572715
2293.35196655,0.00574476
2295.28077393,0.00578184
2297.20958130,0.00585172
2299.13838867,0.00571646
2301.06719604,0.00573270
2302.99600342,0.00574168
2304.92481079,0.00556290
2306.85361816,0.00565241
2308.78242554,0.00567513
2310.71123291,0.00561758
2312.64004028,0.00545870
2314.56884766,0.00539290
2316.49765503,0.00547290
2318.42646240,0.00536674
2320.35526978,0.00525108
2322.28407715,0.00516388
2324.21288452,0.00515236
2326.14169189,0.00513783
2328.07049927,0.00520306
2329.99930664,0.00516205
2331.92811401,0.00498415
2333.85692139,0.00503659
2335.78572876,0.00497775
2337.71453613,0.00494329
2339.64334351,0.00497792
2341.57215088,0.00495610
2343.50095825,0.00505396
2345.42976562,0.00519703
2347.35857300,0.00542850
2349.28738037,0.00542888
2351.21618774,0.00526092
2353.14499512,0.00510075
2355.07380249,0.00487487
2357.00260986,0.00487261
2358.93141724,0.00472715
2360.86022461,0.00457610
2362.78903198,0.00477403
2364.71783936,0.00478414
2366.64664673,0.00481506
2368.57545410,0.00493832
2370.50426147,0.00499083
2372.43306885,0.00516842
2374.36187622,0.00524396
2376.29068359,0.00531984
2378.21949097,0.00543422
2380.14829834,0.00549027
2382.07710571,0.00555927
2384.00591309,0.00560872
2385.93472046,0.00566286
2387.86352783,0.00564245
2389.79233521,0.00564966
2391.72114258,0.00561297
2393.64994995,0.00557267
2395.57875732,0.00566009
2397.50756470,0.00561611
2399.43637207,0.00550500
2401.36517944,0.00558696
2403.29398682,0.00565763
2405.22279419,0.00549649
2407.15160156,0.00562262
2409.08040894,0.00567829
2411.00921631,0.00549725
2412.93802368,0.00566703
2414.86683105,0.00553329
2416.79563843,0.00547422
2418.72444580,0.00570188
2420.65325317,0.00564171
2422.58206055,0.00561010
2424.51086792,0.00553275
2426.43967529,0.00557433
2428.36848267,0.00551249
2430.29729004,0.00533336
2432.22609741,0.00550745
2434.15490479,0.00555456
2436.08371216,0.00548576
2438.01251953,0.00554507
2439.94132690,0.00553438
2441.87013428,0.00540416
2443.79894165,0.00536715
2445.72774902,0.00546865
2447.65655640,0.00552318
2449.58536377,0.00547645
2451.51417114,0.00535085
2453.44297852,0.00539647
2455.37178589,0.00551793
2457.30059326,0.00551552
2459.22940063,0.00546211
2461.15820801,0.00534622
2463.08701538,0.00537357
2465.01582275,0.00546253
2466.94463013,0.00542520
2468.87343750,0.00547382
2470.80224487,0.00550354
2472.73105225,0.00543816
2474.65985962,0.00546644
2476.58866699,0.00547194
2478.51747437,0.00545339
2480.44628174,0.00546486
2482.37508911,0.00538577
2484.30389648,0.00533168
2486.23270386,0.00539373
2488.16151123,0.00537287
2490.09031860,0.00535223
2492.01912598,0.00545625
2493.94793335,0.00539588
2495.87674072,0.00539973
2497.80554810,0.00539354
2499.73435547,0.00530085
2501.66316284,0.00549764
2503.59197021,0.00540287
2505.52077759,0.00531173
2507.44958496,0.00538645
2509.37839233,0.00524312
2511.30719971,0.00540432
2513.23600708,0.00546762
2515.16481445,0.00540727
2517.09362183,0.00538762
2519.02242920,0.00530133
2520.95123657,0.00535358
2522.88004395,0.00526028
2524.80885132,0.00532565
2526.73765869,0.00536354
2528.66646606,0.00521930
2530.59527344,0.00529800
2532.52408081,0.00530461
2534.45288818,0.00534172
2536.38169556,0.00535371
2538.31050293,0.00528333
2540.23931030,0.00531298
2542.16811768,0.00521691
2544.09692505,0.00517859
2546.02573242,0.00527213
2547.95453979,0.00526763
2549.88334717,0.00526478
2551.81215454,0.00526525
2553.74096191,0.00524655
2555.66976929,0.00525555
2557.59857666,0.00520858
2559.52738403,0.00524653
2561.45619141,0.00524761
2563.38499878,0.00515626
2565.31380615,0.00518212
2567.24261353,0.00515551
2569.17142090,0.00521569
2571.10022827,0.00519100
2573.02903564,0.00509984
2574.95784302,0.00523450
2576.88665039,0.00516156
2578.81545776,0.00518479
2580.74426514,0.00528310
2582.67307251,0.00512798
2584.60187988,0.00510839
2586.53068726,0.00512946
2588.45949463,0.00518708
2590.38830200,0.00526033
2592.31710937,0.00520485
2594.24591675,0.00514616
2596.17472412,0.00516200
2598.10353149,0.00511399
2600.03233887,0.00509293
2601.96114624,0.00526875
2603.88995361,0.00508635
2605.81876099,0.00500124
2607.74756836,0.00524452
2609.67637573,0.00510433
2611.60518311,0.00510624
2613.53399048,0.00510451
2615.46279785,0.00497624
2617.39160522,0.00508261
2619.32041260,0.00510054
2621.24921997,0.00515695
2623.17802734,0.00513238
2625.10683472,0.00512542
2627.03564209,0.00520667
2628.96444946,0.00513985
2630.89325684,0.00512165
2632.82206421,0.00498200
2634.75087158,0.00494690
2636.67967895,0.00506890
2638.60848633,0.00502045
2640.53729370,0.00506444
2642.46610107,0.00508731
2644.39490845,0.00502118
2646.32371582,0.00506579
2648.25252319,0.00506263
2650.18133057,0.00500301
2652.11013794,0.00504386
2654.03894531,0.00508187
2655.96775269,0.00500324
2657.89656006,0.00496498
2659.82536743,0.00491629
2661.75417480,0.00480057
2663.68298218,0.00489784
2665.61178955,0.00495356
2667.54059692,0.00485896
2669.46940430,0.00494141
2671.39821167,0.00488978
2673.32701904,0.00485239
2675.25582642,0.00498979
2677.18463379,0.00496690
2679.11344116,0.00498322
2681.04224854,0.00497079
2682.97105591,0.00492930
2684.89986328,0.00491058
2686.82867065,0.00486608
2688.75747803,0.00491427
2690.68628540,0.00483120
2692.61509277,0.00481452
2694.54390015,0.00491091
2696.47270752,0.00494409
2698.40151489,0.00496144
2700.33032227,0.00489331
2702.25912964,0.00487250
2704.18793701,0.00479269
2706.11674438,0.00478614
2708.04555176,0.00486960
2709.97435913,0.00483355
2711.90316650,0.00490532
2713.83197388,0.00490680
2715.76078125,0.00479637
2717.68958862,0.00478410
2719.61839600,0.00485420
2721.54720337,0.00477281
2723.47601074,0.00459151
2725.40481812,0.00471852
2727.33362549,0.00479783
2729.26243286,0.00474116
2731.19124023,0.00482844
2733.12004761,0.00480273
2735.04885498,0.00469466
2736.97766235,0.00470666
2738.90646973,0.00471629
2740.83527710,0.00470279
2742.76408447,0.00471728
2744.69289185,0.00463887
2746.62169922,0.00471330
2748.55050659,0.00475088
2750.47931396,0.00459596
2752.40812134,0.00465957
2754.33692871,0.00467123
2756.26573608,0.00474710
2758.19454346,0.00479902
2760.12335083,0.00465473
2762.05215820,0.00465443
2763.98096558,0.00457115
2765.90977295,0.00462659
2767.83858032,0.00468376
2769.76738770,0.00452281
2771.69619507,0.00451616
2773.62500244,0.00458548
2775.55380981,0.00456495
2777.48261719,0.00452996
2779.41142456,0.00466085
2781.34023193,0.00459875
2783.26903931,0.00456676
2785.19784668,0.00471027
2787.12665405,0.00455626
2789.05546143,0.00454474
2790.98426880,0.00461172
2792.91307617,0.00449347
2794.84188354,0.00444577
2796.77069092,0.00455120
2798.69949829,0.00455204
2800.62830566,0.00443490
2802.55711304,0.00443398
2804.48592041,0.00443607
2806.41472778,0.00457265
2808.34353516,0.00446642
2810.27234253,0.00436388
2812.20114990,0.00457833
2814.12995728,0.00448490
2816.05876465,0.00448950
2817.98757202,0.00456500
2819.91637939,0.00446281
2821.84518677,0.00439867
2823.77399414,0.00446295
2825.70280151,0.00450946
2827.63160889,0.00437882
2829.56041626,0.00441795
2831.48922363,0.00432960
2833.41803101,0.00433786
2835.34683838,0.00448891
2837.27564575,0.00429301
2839.20445312,0.00434463
2841.13326050,0.00446291
2843.06206787,0.00433373
2844.99087524,0.00432989
2846.91968262,0.00431059
2848.84848999,0.00423318
2850.77729736,0.00431845
2852.70610474,0.00426367
2854.63491211,0.00419049
2856.56371948,0.00432488
2858.49252686,0.00425639
2860.42133423,0.00430982
2862.35014160,0.00437231
2864.27894897,0.00421006
2866.20775635,0.00422571
2868.13656372,0.00425417
2870.06537109,0.00418105
2871.99417847,0.00415501
2873.92298584,0.00425596
2875.85179321,0.00423574
2877.78060059,0.00420320
2879.70940796,0.00424887
2881.63821533,0.00418676
2883.56702270,0.00417752
2885.49583008,0.00416098
2887.42463745,0.00415088
2889.35344482,0.00412108
2891.28225220,0.00417093
2893.21105957,0.00414227
2895.13986694,0.00404793
2897.06867432,0.00419270
2898.99748169,0.00413277
2900.92628906,0.00406067
2902.85509644,0.00407815
2904.78390381,0.00404104
2906.71271118,0.00411948
2908.64151855,0.00419759
2910.57032593,0.00416714
2912.49913330,0.00396801
2914.42794067,0.00397625
2916.35674805,0.00404847
2918.28555542,0.00401266
2920.21436279,0.00406560
2922.14317017,0.00404315
2924.07197754,0.00405027
2926.00078491,0.00404266
2927.92959229,0.00398398
2929.85839966,0.00396835
2931.78720703,0.00400832
2933.71601440,0.00399007
2935.64482178,0.00393958
2937.57362915,0.00398943
2939.50243652,0.00394329
2941.43124390,0.00398594
2943.36005127,0.00410129
2945.28885864,0.00403275
2947.21766602,0.00399316
2949.14647339,0.00400670
2951.07528076,0.00397738
2953.00408813,0.00399617
2954.93289551,0.00394430
2956.86170288,0.00390828
2958.79051025,0.00396224
2960.71931763,0.00384241
2962.64812500,0.00388020
2964.57693237,0.00391649
2966.50573975,0.00384592
2968.43454712,0.00396838
2970.36335449,0.00387974
2972.29216187,0.00385833
2974.22096924,0.00393096
2976.14977661,0.00388886
2978.07858398,0.00390747
2980.00739136,0.00385070
2981.93619873,0.00386982
2983.86500610,0.00388519
2985.79381348,0.00384936
2987.72262085,0.00388178
2989.65142822,0.00390100
2991.58023560,0.00387519
2993.50904297,0.00385707
2995.43785034,0.00382555
2997.36665771,0.00376479
2999.29546509,0.00387590
3001.22427246,0.00396371
3003.15307983,0.00389188
3005.08188721,0.00382354
3007.01069458,0.00386008
3008.93950195,0.00385383
3010.86830933,0.00370879
3012.79711670,0.00378415
3014.72592407,0.00385831
3016.65473145,0.00379562
3018.58353882,0.00379699
3020.51234619,0.00370892
3022.44115356,0.00371659
3024.36996094,0.00382837
3026.29876831,0.00375995
3028.22757568,0.00370220
3030.15638306,0.00374287
3032.08519043,0.00376955
3034.01399780,0.00381764
3035.94280518,0.00370787
3037.87161255,0.00366544
3039.80041992,0.00376699
3041.72922729,0.00371616
3043.65803467,0.00372898
3045.58684204,0.00373781
3047.51564941,0.00370555
3049.44445679,0.00367928
3051.37326416,0.00365351
3053.30207153,0.00369383
3055.23087891,0.00368175
3057.15968628,0.00367456
3059.08849365,0.00369066
3061.01730103,0.00372121
3062.94610840,0.00365155
3064.87491577,0.00363809
3066.80372314,0.00367181
3068.73253052,0.00359483
3070.66133789,0.00367362
3072.59014526,0.00369183
3074.51895264,0.00362793
3076.44776001,0.00358361
3078.37656738,0.00364036
3080.30537476,0.00372982
3082.23418213,0.00358690
3084.16298950,0.00357622
3086.09179687,0.00365708
3088.02060425,0.00363180
3089.94941162,0.00353908
3091.87821899,0.00353310
3093.80702637,0.00358360
3095.73583374,0.00352812
3097.66464111,0.00358823
3099.59344849,0.00354267
3101.52225586,0.00350386
3103.45106323,0.00360612
3105.37987061,0.00358297
3107.30867798,0.00352136
3109.23748535,0.00349279
3111.16629272,0.00358806
3113.09510010,0.00364121
3115.02390747,0.00361785
3116.95271484,0.00358337
3118.88152222,0.00352544
3120.81032959,0.00358596
3122.73913696,0.00357157
3124.66794434,0.00344529
3126.59675171,0.00348135
3128.52555908,0.00354809
3130.45436645,0.00346481
3132.38317383,0.00352826
3134.31198120,0.00357936
3136.24078857,0.00345854
3138.16959595,0.00343352
3140.09840332,0.00341712
3142.02721069,0.00349434
3143.95601807,0.00351160
3145.88482544,0.00342681
3147.81363281,0.00345403
3149.74244019,0.00343141
3151.67124756,0.00345126
3153.60005493,0.00344459
3155.52886230,0.00347428
3157.45766968,0.00356239
3159.38647705,0.00354671
3161.31528442,0.00362930
3163.24409180,0.00358635
3165.17289917,0.00353343
3167.10170654,0.00354588
3169.03051392,0.00342990
3170.95932129,0.00353210
3172.88812866,0.00353899
3174.81693604,0.00347247
3176.74574341,0.00351370
3178.67455078,0.00345416
3180.60335815,0.00359544
3182.53216553,0.00356196
3184.46097290,0.00341794
3186.38978027,0.00350575
3188.31858765,0.00349883
3190.24739502,0.00352496
3192.17620239,0.00355130
3194.10500977,0.00353910
3196.03381714,0.00349403
3197.96262451,0.00351665
3199.89143188,0.00358236
3201.82023926,0.00348039
3203.74904663,0.00353757
3205.67785400,0.00355878
3207.60666138,0.00344167
3209.53546875,0.00349841
3211.46427612,0.00356551
3213.39308350,0.00352498
3215.32189087,0.00352591
3217.25069824,0.00354875
3219.17950562,0.00348903
3221.10831299,0.00359108
3223.03712036,0.00364959
3224.96592773,0.00353174
3226.89473511,0.00353894
3228.82354248,0.00360094
3230.75234985,0.00366021
3232.68115723,0.00364781
3234.60996460,0.00353630
3236.53877197,0.00349633
3238.46757935,0.00360881
3240.39638672,0.00357043
3242.32519409,0.00356553
3244.25400146,0.00369511
3246.18280884,0.00355697
3248.11161621,0.00361578
3250.04042358,0.00367384
3251.96923096,0.00359037
3253.89803833,0.00374932
3255.82684570,0.00371114
3257.75565308,0.00365964
3259.68446045,0.00374137
3261.61326782,0.00369885
3263.54207520,0.00366064
3265.47088257,0.00373920
3267.39968994,0.00373782
3269.32849731,0.00369391
3271.25730469,0.00384297
3273.18611206,0.00379819
3275.11491943,0.00368126
3277.04372681,0.00371277
3278.97253418,0.00374921
3280.90134155,0.00381493
3282.83014893,0.00371740
3284.75895630,0.00370747
3286.68776367,0.00377044
3288.61657104,0.00375861
3290.54537842,0.00382095
3292.47418579,0.00374719
3294.40299316,0.00377137
3296.33180054,0.00387064
3298.26060791,0.00378455
3300.18941528,0.00381006
3302.11822266,0.00386439
3304.04703003,0.00382728
3305.97583740,0.00381540
3307.90464478,0.00380819
3309.83345215,0.00379374
3311.76225952,0.00378755
3313.69106689,0.00382281
3315.61987427,0.00382615
3317.54868164,0.00382741
3319.47748901,0.00381967
3321.40629639,0.00378283
3323.33510376,0.00384566
3325.26391113,0.00385383
3327.19271851,0.00382404
3329.12152588,0.00389348
3331.05033325,0.00396569
3332.97914062,0.00398201
3334.90794800,0.00391970
3336.83675537,0.00392131
3338.76556274,0.00392604
3340.69437012,0.00388595
3342.62317749,0.00400274
3344.55198486,0.00400750
3346.48079224,0.00394941
3348.40959961,0.00405523
3350.33840698,0.00400609
3352.26721436,0.00401500
3354.19602173,0.00402753
3356.12482910,0.00390982
3358.05363647,0.00403707
3359.98244385,0.00403477
3361.91125122,0.00397787
3363.84005859,0.00411963
3365.76886597,0.00414920
3367.69767334,0.00407713
3369.62648071,0.00404924
3371.55528809,0.00409777
3373.48409546,0.00403321
3375.41290283,0.00406890
3377.34171020,0.00412152
3379.27051758,0.00406212
3381.19932495,0.00413569
3383.12813232,0.00413735
3385.05693970,0.00417387
3386.98574707,0.00417714
3388.91455444,0.00413887
3390.84336182,0.00413195
3392.77216919,0.00414067
3394.70097656,0.00419014
3396.62978394,0.00404987
3398.55859131,0.00407609
3400.48739868,0.00413914
3402.41620605,0.00413804
3404.34501343,0.00422094
3406.27382080,0.00417361
3408.20262817,0.00425295
3410.13143555,0.00426156
3412.06024292,0.00416639
3413.98905029,0.00428853
3415.91785767,0.00430891
3417.84666504,0.00417332
3419.77547241,0.00428447
3421.70427979,0.00428798
3423.63308716,0.00420800
3425.56189453,0.00433134
3427.49070190,0.00419833
3429.41950928,0.00426927
3431.34831665,0.00432756
3433.27712402,0.00417388
3435.20593140,0.00427428
3437.13473877,0.00425740
3439.06354614,0.00430866
3440.99235352,0.00432195
3442.92116089,0.00429145
3444.84996826,0.00429531
3446.77877563,0.00425554
3448.70758301,0.00430353
3450.63639038,0.00425423
3452.56519775,0.00433099
3454.49400513,0.00436061
3456.42281250,0.00432130
3458.35161987,0.00435333
3460.28042725,0.00433502
3462.20923462,0.00425942
3464.13804199,0.00430236
3466.06684937,0.00449152
3467.99565674,0.00435963
3469.92446411,0.00434107
3471.85327148,0.00438976
3473.78207886,0.00432321
3475.71088623,0.00434956
3477.63969360,0.00430348
3479.56850098,0.00438588
3481.49730835,0.00431537
3483.42611572,0.00432076
3485.35492310,0.00440724
3487.28373047,0.00430741
3489.21253784,0.00436524
3491.14134521,0.00443536
3493.07015259,0.00437408
3494.99895996,0.00429058
3496.92776733,0.00439215
3498.85657471,0.00438225
3500.78538208,0.00436901
3502.71418945,0.00437685
3504.64299683,0.00422065
3506.57180420,0.00423718
3508.50061157,0.00419368
3510.42941895,0.00430404
3512.35822632,0.00445425
3514.28703369,0.00441423
3516.21584106,0.00438908
3518.14464844,0.00428091
3520.07345581,0.00431402
3522.00226318,0.00440504
3523.93107056,0.00434198
3525.85987793,0.00428170
3527.78868530,0.00441589
3529.71749268,0.00432829
3531.64630005,0.00421700
3533.57510742,0.00442079
3535.50391479,0.00431954
3537.43272217,0.00424990
3539.36152954,0.00440316
3541.29033691,0.00437032
3543.21914429,0.00422473
3545.14795166,0.00415644
3547.07675903,0.00413403
3549.00556641,0.00418616
3550.93437378,0.00426770
3552.86318115,0.00424832
3554.79198853,0.00434066
3556.72079590,0.00430330
3558.64960327,0.00424089
3560.57841064,0.00422632
3562.50721802,0.00422548
3564.43602539,0.00425517
3566.36483276,0.00388564
3568.29364014,0.00381962
3570.22244751,0.00416374
3572.15125488,0.00423452
3574.08006226,0.00419832
3576.00886963,0.00421988
3577.93767700,0.00416630
3579.86648437,0.00416556
3581.79529175,0.00420318
3583.72409912,0.00413167
3585.65290649,0.00411718
3587.58171387,0.00383736
3589.51052124,0.00393258
3591.43932861,0.00429170
3593.36813599,0.00407100
3595.29694336,0.00395477
3597.22575073,0.00398362
3599.15455811,0.00412552
3601.08336548,0.00409820
3603.01217285,0.00401748
3604.94098022,0.00412857
3606.86978760,0.00396204
3608.79859497,0.00380114
3610.72740234,0.00389022
3612.65620972,0.00396159
3614.58501709,0.00384146
3616.51382446,0.00409298
3618.44263184,0.00383630
3620.37143921,0.00364212
3622.30024658,0.00411748
3624.22905395,0.00390926
3626.15786133,0.00405717
3628.08666870,0.00354577
3630.01547607,0.00325531
3631.94428345,0.00410643
3633.87309082,0.00388697
3635.80189819,0.00395750
3637.73070557,0.00414018
3639.65951294,0.00399955
3641.58832031,0.00397339
3643.51712769,0.00399457
3645.44593506,0.00405888
3647.37474243,0.00357953
3649.30354980,0.00332962
3651.23235718,0.00340128
3653.16116455,0.00395347
3655.08997192,0.00384518
3657.01877930,0.00348617
3658.94758667,0.00401553
3660.87639404,0.00392410
3662.80520142,0.00399965
3664.73400879,0.00386830
3666.66281616,0.00380141
3668.59162354,0.00375246
3670.52043091,0.00315557
3672.44923828,0.00369639
3674.37804565,0.00345576
3676.30685303,0.00299492
3678.23566040,0.00359509
3680.16446777,0.00369788
3682.09327515,0.00372771
3684.02208252,0.00364349
3685.95088989,0.00360072
3687.87969727,0.00331476
3689.80850464,0.00309008
3691.73731201,0.00347355
3693.66611938,0.00353944
3695.59492676,0.00364495
3697.52373413,0.00375485
3699.45254150,0.00369843
3701.38134888,0.00344962
3703.31015625,0.00339789
3705.23896362,0.00367856
3707.16777100,0.00342609
3709.09657837,0.00340672
3711.02538574,0.00319904
3712.95419312,0.00302105
3714.88300049,0.00348146
3716.81180786,0.00336412
3718.74061523,0.00341641
3720.66942261,0.00338540
3722.59822998,0.00325156
3724.52703735,0.00328387
3726.45584473,0.00303311
3728.38465210,0.00337704
3730.31345947,0.00333129
3732.24226685,0.00304580
3734.17107422,0.00301455
3736.09988159,0.00283790
3738.02868896,0.00298269
3739.95749634,0.00317878
3741.88630371,0.00333796
3743.81511108,0.00270439
3745.74391846,0.00248152
3747.67272583,0.00306723
3749.60153320,0.00269369
3751.53034058,0.00261309
3753.45914795,0.00298912
3755.38795532,0.00310427
3757.31676270,0.00313827
3759.24557007,0.00297440
3761.17437744,0.00318518
3763.10318481,0.00337819
3765.03199219,0.00307880
3766.96079956,0.00308939
3768.88960693,0.00311950
3770.81841431,0.00297675
3772.74722168,0.00321405
3774.67602905,0.00313142
3776.60483643,0.00307596
3778.53364380,0.00310074
3780.46245117,0.00299426
3782.39125854,0.00323832
3784.32006592,0.00311333
3786.24887329,0.00307788
3788.17768066,0.00319903
3790.10648804,0.00306970
3792.03529541,0.00306982
3793.96410278,0.00316353
3795.89291016,0.00294213
3797.82171753,0.00287069
3799.75052490,0.00303554
3801.67933228,0.00244991
3803.60813965,0.00288008
3805.53694702,0.00309378
3807.46575439,0.00248302
3809.39456177,0.00306243
3811.32336914,0.00298033
3813.25217651,0.00304239
3815.18098389,0.00277823
3817.10979126,0.00249283
3819.03859863,0.00310594
3820.96740601,0.00246643
3822.89621338,0.00264876
3824.82502075,0.00299770
3826.75382812,0.00277801
3828.68263550,0.00307330
3830.61144287,0.00278413
3832.54025024,0.00267292
3834.46905762,0.00278148
3836.39786499,0.00270777
3838.32667236,0.00243345
3840.25547974,0.00260038
3842.18428711,0.00284916
3844.11309448,0.00266399
3846.04190186,0.00287613
3847.97070923,0.00286920
3849.89951660,0.00289029
3851.82832397,0.00257425
3853.75713135,0.00195363
3855.68593872,0.00235253
3857.61474609,0.00284764
3859.54355347,0.00275207
3861.47236084,0.00272979
3863.40116821,0.00270297
3865.32997559,0.00254247
3867.25878296,0.00273487
3869.18759033,0.00254409
3871.11639770,0.00241565
3873.04520508,0.00268646
3874.97401245,0.00249513
3876.90281982,0.00281354
3878.83162720,0.00279994
3880.76043457,0.00238570
3882.68924194,0.00276539
3884.61804932,0.00265215
3886.54685669,0.00245204
3888.47566406,0.00278169
3890.40447144,0.00262340
3892.33327881,0.00250574
3894.26208618,0.00279811
3896.19089355,0.00277730
3898.11970093,0.00259946
3900.04850830,0.00248989
3901.97731567,0.00247855
3903.90612305,0.00242791
3905.83493042,0.00235546
3907.76373779,0.00257814
3909.69254517,0.00265927
3911.62135254,0.00267655
3913.55015991,0.00269481
3915.47896728,0.00256003
3917.40777466,0.00252608
3919.33658203,0.00253744
3921.26538940,0.00261564
3923.19419678,0.00261042
3925.12300415,0.00255983
3927.05181152,0.00258641
3928.98061890,0.00262193
3930.90942627,0.00256600
3932.83823364,0.00248758
3934.76704102,0.00257196
3936.69584839,0.00256909
3938.62465576,0.00260310
3940.55346313,0.00263641
3942.48227051,0.00251071
3944.41107788,0.00254026
3946.33988525,0.00256642
3948.26869263,0.00246757
3950.19750000,0.00251446
3952.12630737,0.00256289
3954.05511475,0.00250575
3955.98392212,0.00250569
3957.91272949,0.00247983
3959.84153687,0.00255688
3961.77034424,0.00251657
3963.69915161,0.00241489
3965.62795898,0.00254166
3967.55676636,0.00248311
3969.48557373,0.00248713
3971.41438110,0.00250030
3973.34318848,0.00237874
3975.27199585,0.00240145
3977.20080322,0.00245679
3979.12961060,0.00251060
3981.05841797,0.00241287
3982.98722534,0.00243848
3984.91603271,0.00253510
3986.84484009,0.00244480
3988.77364746,0.00249016
3990.70245483,0.00244841
3992.63126221,0.00231883
3994.56006958,0.00243292
3996.48887695,0.00247957
3998.41768433,0.00236080
4000.34649170,0.00235123
4002.27529907,0.00237645
4004.20410645,0.00240755
4006.13291382,0.00239637
4008.06172119,0.00235234
4009.99052856,0.00239380
4011.91933594,0.00239315
4013.84814331,0.00235336
4015.77695068,0.00235496
4017.70575806,0.00239801
4019.63456543,0.00235385
4021.56337280,0.00232948
4023.49218018,0.00230477
4025.42098755,0.00229342
4027.34979492,0.00240606
4029.27860229,0.00234098
4031.20740967,0.00232672
4033.13621704,0.00231469
4035.06502441,0.00227933
4036.99383179,0.00231905
4038.92263916,0.00232881
4040.85144653,0.00243497
4042.78025391,0.00226109
4044.70906128,0.00217652
4046.63786865,0.00223651
4048.56667603,0.00222525
4050.49548340,0.00231709
4052.42429077,0.00220161
4054.35309814,0.00226911
4056.28190552,0.00230991
4058.21071289,0.00221206
4060.13952026,0.00227036
4062.06832764,0.00218724
4063.99713501,0.00219978
4065.92594238,0.00219753
4067.85474976,0.00212502
4069.78355713,0.00221695
4071.71236450,0.00222637
4073.64117187,0.00216002
4075.56997925,0.00219956
4077.49878662,0.00219894
4079.42759399,0.00221008
4081.35640137,0.00223941
4083.28520874,0.00213114
4085.21401611,0.00214139
4087.14282349,0.00214460
4089.07163086,0.00212257
4091.00043823,0.00220349
4092.92924561,0.00215644
4094.85805298,0.00216427
4096.78686035,0.00222847
4098.71566772,0.00215520
4100.64447510,0.00209571
4102.57328247,0.00209952
4104.50208984,0.00209335
4106.43089722,0.00216964
4108.35970459,0.00214802
4110.28851196,0.00198825
4112.21731934,0.00199987
4114.14612671,0.00207162
4116.07493408,0.00209764
4118.00374145,0.00210825
4119.93254883,0.00211612
4121.86135620,0.00206647
4123.79016357,0.00202180
4125.71897095,0.00206287
4127.64777832,0.00208430
4129.57658569,0.00211652
4131.50539307,0.00210537
4133.43420044,0.00207644
4135.36300781,0.00206586
4137.29181519,0.00211665
4139.22062256,0.00209392
4141.14942993,0.00200510
4143.07823730,0.00205417
4145.00704468,0.00199440
4146.93585205,0.00200589
4148.86465942,0.00207388
4150.79346680,0.00201220
4152.72227417,0.00202062
4154.65108154,0.00201053
4156.57988892,0.00192393
4158.50869629,0.00194493
4160.43750366,0.00204311
4162.36631103,0.00195078
4164.29511841,0.00196442
4166.22392578,0.00195214
4168.15273315,0.00191238
4170.08154053,0.00206999
4172.01034790,0.00197265
4173.93915527,0.00201070
4175.86796265,0.00205287
4177.79677002,0.00191779
4179.72557739,0.00194804
4181.65438477,0.00194675
4183.58319214,0.00196231
4185.51199951,0.00188716
4187.44080688,0.00186693
4189.36961426,0.00193362
4191.29842163,0.00190526
4193.22722900,0.00189641
4195.15603638,0.00192075
4197.08484375,0.00190766
4199.01365112,0.00187235
4200.94245850,0.00190679
4202.87126587,0.00184803
4204.80007324,0.00185271
4206.72888062,0.00186347
4208.65768799,0.00184959
4210.58649536,0.00190043
4212.51530273,0.00180781
4214.44411011,0.00183475
4216.37291748,0.00189179
4218.30172485,0.00184920
4220.23053223,0.00178571
4222.15933960,0.00181017
4224.08814697,0.00181403
4226.01695435,0.00177243
4227.94576172,0.00189310
4229.87456909,0.00179973
4231.80337646,0.00177978
4233.73218384,0.00183326
4235.66099121,0.00181092
4237.58979858,0.00187121
4239.51860596,0.00177664
4241.44741333,0.00182433
4243.37622070,0.00179725
4245.30502808,0.00173662
4247.23383545,0.00180689
4249.16264282,0.00170371
4251.09145020,0.00171284
4253.02025757,0.00182250
4254.94906494,0.00181609
4256.87787231,0.00175124
4258.80667969,0.00176192
4260.73548706,0.00177060
4262.66429443,0.00181652
4264.59310181,0.00183847
4266.52190918,0.00173831
4268.45071655,0.00171829
4270.37952393,0.00174860
4272.30833130,0.00183045
4274.23713867,0.00177044
4276.16594604,0.00172971
4278.09475342,0.00180096
4280.02356079,0.00177141
4281.95236816,0.00181682
4283.88117554,0.00175426
4285.80998291,0.00168146
4287.73879028,0.00173636
4289.66759766,0.00173353
4291.59640503,0.00166980
4293.52521240,0.00164162
4295.45401978,0.00169715
4297.38282715,0.00174756
4299.31163452,0.00173659
4301.24044189,0.00163561
4303.16924927,0.00167365
4305.09805664,0.00166664
4307.02686401,0.00160757
4308.95567139,0.00172930
4310.88447876,0.00162808
4312.81328613,0.00156345
4314.74209351,0.00171729
4316.67090088,0.00169958
4318.59970825,0.00162183
4320.52851562,0.00164610
4322.45732300,0.00162220
4324.38613037,0.00163061
4326.31493774,0.00167859
4328.24374512,0.00156096
4330.17255249,0.00156853
4332.10135986,0.00164277
4334.03016724,0.00162001
4335.95897461,0.00163421
4337.88778198,0.00159731
4339.81658936,0.00157673
4341.74539673,0.00158075
4343.67420410,0.00158283
4345.60301147,0.00158119
4347.53181885,0.00161592
4349.46062622,0.00162669
4351.38943359,0.00157776
4353.31824097,0.00159056
4355.24704834,0.00156724
4357.17585571,0.00156117
4359.10466309,0.00157615
4361.03347046,0.00157740
4362.96227783,0.00157969
4364.89108520,0.00153950
4366.81989258,0.00151594
4368.74869995,0.00151731
4370.67750732,0.00158255
4372.60631470,0.00161553
4374.53512207,0.00155503
4376.46392944,0.00152067
4378.39273682,0.00154322
4380.32154419,0.00152038
4382.25035156,0.00154153
4384.17915894,0.00157753
4386.10796631,0.00146504
4388.03677368,0.00151068
4389.96558105,0.00153356
4391.89438843,0.00145751
4393.82319580,0.00153095
4395.75200317,0.00146209
4397.68081055,0.00143286
4399.60961792,0.00152455
4401.53842529,0.00152436
4403.46723267,0.00147656
4405.39604004,0.00142200
4407.32484741,0.00145301
4409.25365478,0.00142087
4411.18246216,0.00140660
4413.11126953,0.00152100
4415.04007690,0.00150762
4416.96888428,0.00146339
4418.89769165,0.00144683
4420.82649902,0.00140831
4422.75530640,0.00142471
4424.68411377,0.00136686
4426.61292114,0.00136271
4428.54172852,0.00145933
4430.47053589,0.00147894
4432.39934326,0.00148190
4434.32815063,0.00143472
4436.25695801,0.00142460
4438.18576538,0.00143426
4440.11457275,0.00142701
4442.04338013,0.00145871
4443.97218750,0.00141546
4445.90099487,0.00144941
4447.82980225,0.00146087
4449.75860962,0.00138656
4451.68741699,0.00139281
4453.61622437,0.00137729
4455.54503174,0.00134390
4457.47383911,0.00134500
4459.40264648,0.00141250
4461.33145386,0.00141343
4463.26026123,0.00138530
4465.18906860,0.00140873
4467.11787598,0.00133594
4469.04668335,0.00131835
4470.97549072,0.00137808
4472.90429810,0.00142909
4474.83310547,0.00143485
4476.76191284,0.00139377
4478.69072021,0.00135598
4480.61952759,0.00131625
4482.54833496,0.00137701
4484.47714233,0.00139564
4486.40594971,0.00142060
4488.33475708,0.00149337
4490.26356445,0.00136282
4492.19237183,0.00127027
4494.12117920,0.00127868
4496.04998657,0.00126361
4497.97879395,0.00130779
4499.90760132,0.00131481
4501.83640869,0.00129870
4503.76521606,0.00132066
4505.69402344,0.00130944
4507.62283081,0.00129775
4509.55163818,0.00135080
4511.48044556,0.00137567
4513.40925293,0.00136181
4515.33806030,0.00134878
4517.26686768,0.00130797
4519.19567505,0.00126028
4521.12448242,0.00119743
4523.05328979,0.00126448
4524.98209717,0.00136126
4526.91090454,0.00131325
4528.83971191,0.00131444
4530.76851929,0.00131159
4532.69732666,0.00127059
4534.62613403,0.00125069
4536.55494141,0.00126411
4538.48374878,0.00129859
4540.41255615,0.00125036
4542.34136353,0.00123898
4544.27017090,0.00125632
4546.19897827,0.00123723
4548.12778564,0.00119203
4550.05659302,0.00118131
4551.98540039,0.00122296
4553.91420776,0.00115020
4555.84301514,0.00119233
4557.77182251,0.00130025
4559.70062988,0.00123953
4561.62943726,0.00124815
4563.55824463,0.00121886
4565.48705200,0.00119368
4567.41585937,0.00127683
4569.34466675,0.00119505
4571.27347412,0.00118938
4573.20228149,0.00125067
4575.13108887,0.00115706
4577.05989624,0.00120664
4578.98870361,0.00120981
4580.91751099,0.00115284
4582.84631836,0.00122225
4584.77512573,0.00115551
4586.70393311,0.00117612
4588.63274048,0.00123070
4590.56154785,0.00112779
4592.49035522,0.00115955
4594.41916260,0.00123158
4596.34796997,0.00120385
4598.27677734,0.00114738
4600.20558472,0.00117584
4602.13439209,0.00119868
4604.06319946,0.00110418
4605.99200684,0.00114832
4607.92081421,0.00117398
4609.84962158,0.00106482
4611.77842895,0.00114212
4613.70723633,0.00116348
4615.63604370,0.00109151
4617.56485107,0.00117937
4619.49365845,0.00114479
4621.42246582,0.00107147
4623.35127319,0.00111836
4625.28008057,0.00113774
4627.20888794,0.00115730
4629.13769531,0.00114624
4631.06650269,0.00106962
4632.99531006,0.00102037
4634.92411743,0.00110650
4636.85292480,0.00110364
4638.78173218,0.00102627
4640.71053955,0.00109498
4642.63934692,0.00110371
4644.56815430,0.00111872
4646.49696167,0.00116108
4648.42576904,0.00113927
4650.35457642,0.00115366
4652.28338379,0.00114358
4654.21219116,0.00106807
4656.14099853,0.00105156
4658.06980591,0.00110879
4659.99861328,0.00103594
4661.92742065,0.00101014
4663.85622803,0.00106904
4665.78503540,0.00103032
4667.71384277,0.00104540
4669.64265015,0.00100642
4671.57145752,0.00097567
4673.50026489,0.00106578
4675.42907227,0.00102931
4677.35787964,0.00096319
4679.28668701,0.00101578
4681.21549438,0.00105613
4683.14430176,0.00109014
4685.07310913,0.00107736
4687.00191650,0.00107123
4688.93072388,0.00112057
4690.85953125,0.00101126
4692.78833862,0.00105145
4694.71714600,0.00114441
4696.64595337,0.00101491
4698.57476074,0.00103906
4700.50356812,0.00098147
4702.43237549,0.00095952
4704.36118286,0.00113301
4706.28999023,0.00104213
4708.21879761,0.00099188
4710.14760498,0.00106991
4712.07641235,0.00105533
4714.00521973,0.00105574
4715.93402710,0.00095082
4717.86283447,0.00096824
4719.79164185,0.00107131
4721.72044922,0.00093594
4723.64925659,0.00096390
4725.57806396,0.00103534
4727.50687134,0.00097752
4729.43567871,0.00098746
4731.36448608,0.00096436
4733.29329346,0.00099595
4735.22210083,0.00095468
4737.15090820,0.00097534
4739.07971558,0.00103257
4741.00852295,0.00099627
4742.93733032,0.00104931
4744.86613770,0.00091017
4746.79494507,0.00091020
4748.72375244,0.00105711
4750.65255981,0.00098778
4752.58136719,0.00096853
4754.51017456,0.00098646
4756.43898193,0.00097671
4758.36778931,0.00092770
4760.29659668,0.00099522
4762.22540405,0.00104495
4764.15421143,0.00094446
4766.08301880,0.00093060
4768.01182617,0.00091687
4769.94063354,0.00091457
4771.86944092,0.00092899
4773.79824829,0.00091712
4775.72705566,0.00089786
4777.65586304,0.00092607
4779.58467041,0.00098372
4781.51347778,0.00094829
4783.44228516,0.00089707
4785.37109253,0.00093666
4787.29989990,0.00099720
4789.22870728,0.00095502
4791.15751465,0.00099314
4793.08632202,0.00098542
4795.01512939,0.00089292
4796.94393677,0.00091750
4798.87274414,0.00087962
4800.80155151,0.00090233
4802.73035889,0.00090085
4804.65916626,0.00085891
4806.58797363,0.00090757
4808.51678101,0.00089727
4810.44558838,0.00089945
4812.37439575,0.00090929
4814.30320312,0.00090853
4816.23201050,0.00085778
4818.16081787,0.00087487
4820.08962524,0.00092786
4822.01843262,0.00086887
4823.94723999,0.00086488
4825.87604736,0.00087693
4827.80485474,0.00089280
4829.73366211,0.00085901
4831.66246948,0.00081383
4833.59127686,0.00084591
4835.52008423,0.00086091
4837.44889160,0.00086181
4839.37769897,0.00083332
4841.30650635,0.00085444
4843.23531372,0.00085524
4845.16412109,0.00083176
4847.09292847,0.00082715
4849.02173584,0.00079806
4850.95054321,0.00084410
4852.87935059,0.00082485
4854.80815796,0.00082303
4856.73696533,0.00086889
4858.66577270,0.00081726
4860.59458008,0.00088796
4862.52338745,0.00089510
4864.45219482,0.00077083
4866.38100220,0.00079438
4868.30980957,0.00081687
4870.23861694,0.00083181
4872.16742432,0.00086169
4874.09623169,0.00081640
4876.02503906,0.00077617
4877.95384644,0.00075288
4879.88265381,0.00074020
4881.81146118,0.00076464
4883.74026855,0.00083204
4885.66907593,0.00081104
4887.59788330,0.00079011
4889.52669067,0.00082904
4891.45549805,0.00080953
4893.38430542,0.00081605
4895.31311279,0.00076898
4897.24192017,0.00077699
4899.17072754,0.00077913
4901.09953491,0.00074378
4903.02834228,0.00081883
4904.95714966,0.00077198
4906.88595703,0.00080325
4908.81476440,0.00083313
4910.74357178,0.00077319
4912.67237915,0.00081260
4914.60118652,0.00080800
4916.52999390,0.00081996
4918.45880127,0.00077509
4920.38760864,0.00076999
4922.31641602,0.00079454
4924.24522339,0.00075427
4926.17403076,0.00077750
4928.10283813,0.00077128
4930.03164551,0.00076714
4931.96045288,0.00074312
4933.88926025,0.00075050
4935.81806763,0.00074764
4937.74687500,0.00073549
4939.67568237,0.00078375
4941.60448975,0.00075419
4943.53329712,0.00076002
4945.46210449,0.00075517
4947.39091187,0.00075377
4949.31971924,0.00074446
4951.24852661,0.00071803
4953.17733398,0.00077378
4955.10614136,0.00071808
4957.03494873,0.00068935
4958.96375610,0.00067515
4960.89256348,0.00067069
4962.82137085,0.00076166
4964.75017822,0.00071145
4966.67898560,0.00075286
4968.60779297,0.00075876
4970.53660034,0.00063715
4972.46540771,0.00075108
4974.39421509,0.00073860
4976.32302246,0.00067602
4978.25182983,0.00075132
4980.18063721,0.00072851
4982.10944458,0.00074425
4984.03825195,0.00068618
4985.96705933,0.00068765
4987.89586670,0.00072612
4989.82467407,0.00067895
4991.75348145,0.00074122
4993.68228882,0.00067464
4995.61109619,0.00066659
4997.53990356,0.00070655
4999.46871094,0.00067890
5001.39751831,0.00069827
5003.32632568,0.00066545
5005.25513306,0.00072533
5007.18394043,0.00065511
5009.11274780,0.00063591
5011.04155518,0.00071637
5012.97036255,0.00063727
5014.89916992,0.00069416
5016.82797729,0.00067732
5018.75678467,0.00059975
5020.68559204,0.00065573
5022.61439941,0.00071823
5024.54320679,0.00067168
5026.47201416,0.00059651
5028.40082153,0.00068368
5030.32962891,0.00066784
5032.25843628,0.00063389
5034.18724365,0.00073116
5036.11605103,0.00071464
5038.04485840,0.00065176
5039.97366577,0.00065122
5041.90247314,0.00064303
5043.83128052,0.00063001
5045.76008789,0.00065227
5047.68889526,0.00068948
5049.61770264,0.00070182
5051.54651001,0.00062990
5053.47531738,0.00062605
5055.40412476,0.00068161
5057.33293213,0.00066036
5059.26173950,0.00066726
5061.19054687,0.00065316
5063.11935425,0.00060808
5065.04816162,0.00059716
5066.97696899,0.00061264
5068.90577637,0.00061612
5070.83458374,0.00063858
5072.76339111,0.00062364
5074.69219849,0.00056896
5076.62100586,0.00062543
5078.54981323,0.00061110
5080.47862061,0.00058947
5082.40742798,0.00061694
5084.33623535,0.00057333
5086.26504272,0.00057591
5088.19385010,0.00059048
5090.12265747,0.00061904
5092.05146484,0.00063440
5093.98027222,0.00061423
5095.90907959,0.00056726
5097.83788696,0.00053272
5099.76669434,0.00056525
5101.69550171,0.00060700
5103.62430908,0.00065269
5105.55311645,0.00065096
5107.48192383,0.00063429
5109.41073120,0.00059916
5111.33953857,0.00058225
5113.26834595,0.00059384
5115.19715332,0.00060735
5117.12596069,0.00060802
5119.05476807,0.00051735
5120.98357544,0.00056378
5122.91238281,0.00058334
5124.84119019,0.00053894
5126.76999756,0.00060053
5128.69880493,0.00054188
5130.62761230,0.00055121
5132.55641968,0.00059171
5134.48522705,0.00061218
5136.41403442,0.00061313
5138.34284180,0.00050867
5140.27164917,0.00059149
5142.20045654,0.00061522
5144.12926392,0.00054316
5146.05807129,0.00054679
5147.98687866,0.00049476
5149.91568603,0.00057674
5151.84449341,0.00058590
5153.77330078,0.00052342
5155.70210815,0.00056458
5157.63091553,0.00050821
5159.55972290,0.00057724
5161.48853027,0.00060381
5163.41733765,0.00048548
5165.34614502,0.00055137
5167.27495239,0.00063347
5169.20375977,0.00063369
5171.13256714,0.00054699
5173.06137451,0.00056278
5174.99018188,0.00064343
5176.91898926,0.00052872
5178.84779663,0.00051683
5180.77660400,0.00055618
5182.70541138,0.00051428
5184.63421875,0.00053988
5186.56302612,0.00055119
5188.49183350,0.00049759
5190.42064087,0.00049669
5192.34944824,0.00061237
5194.27825562,0.00058790
5196.20706299,0.00045886
5198.13587036,0.00050233
5200.06467773,0.00052220
5201.99348511,0.00048816
5203.92229248,0.00055465
5205.85109985,0.00052820
5207.77990723,0.00049054
5209.70871460,0.00058022
5211.63752197,0.00055796
5213.56632935,0.00047207
5215.49513672,0.00053762
5217.42394409,0.00058972
5219.35275146,0.00046806
5221.28155884,0.00052425
5223.21036621,0.00056514
5225.13917358,0.00041334
5227.06798096,0.00051997
5228.99678833,0.00051686
5230.92559570,0.00047296
5232.85440308,0.00054158
5234.78321045,0.00048863
5236.71201782,0.00055985
5238.64082520,0.00055061
5240.56963257,0.00051832
5242.49843994,0.00047825
5244.42724731,0.00044961
5246.35605469,0.00051775
5248.28486206,0.00047333
5250.21366943,0.00049157
5252.14247681,0.00044900
5254.07128418,0.00047501
5256.00009155,0.00051857
5257.92889893,0.00045541
5259.85770630,0.00050209
5261.78651367,0.00047178
5263.71532104,0.00051261
5265.64412842,0.00048033
5267.57293579,0.00041538
5269.50174316,0.00046967
5271.43055054,0.00044756
5273.35935791,0.00049922
5275.28816528,0.00048993
5277.21697266,0.00049588
5279.14578003,0.00049853
5281.07458740,0.00044398
5283.00339478,0.00048228
5284.93220215,0.00047446
5286.86100952,0.00046997
5288.78981689,0.00042004
5290.71862427,0.00042344
5292.64743164,0.00048177
5294.57623901,0.00044677
5296.50504639,0.00043061
5298.43385376,0.00041843
5300.36266113,0.00041919
5302.29146851,0.00041064
5304.22027588,0.00045768
5306.14908325,0.00045122
5308.07789062,0.00038100
5310.00669800,0.00046445
5311.93550537,0.00044722
5313.86431274,0.00039814
5315.79312012,0.00046575
5317.72192749,0.00044352
5319.65073486,0.00042401
5321.57954224,0.00048420
5323.50834961,0.00046604
5325.43715698,0.00041747
5327.36596436,0.00048005
5329.29477173,0.00046563
5331.22357910,0.00042796
5333.15238647,0.00045629
5335.08119385,0.00043238
5337.01000122,0.00043851
5338.93880859,0.00037574
5340.86761597,0.00035264
5342.79642334,0.00040182
5344.72523071,0.00037474
5346.65403809,0.00036212
5348.58284546,0.00036717
5350.51165283,0.00047225
5352.44046020,0.00048113
5354.36926758,0.00044024
5356.29807495,0.00048044
5358.22688232,0.00038153
5360.15568970,0.00037164
5362.08449707,0.00039486
5364.01330444,0.00039364
5365.94211182,0.00047133
5367.87091919,0.00043551
5369.79972656,0.00041521
5371.72853394,0.00046936
5373.65734131,0.00044287
5375.58614868,0.00043096
5377.51495605,0.00042572
5379.44376343,0.00032369
5381.37257080,0.00037651
5383.30137817,0.00041994
5385.23018555,0.00038017
5387.15899292,0.00043950
5389.08780029,0.00037549
5391.01660767,0.00035927
5392.94541504,0.00031131
5394.87422241,0.00032568
5396.80302978,0.00040833
5398.73183716,0.00034007
5400.66064453,0.00042274
5402.58945190,0.00035944
5404.51825928,0.00035990
5406.44706665,0.00043401
5408.37587402,0.00035877
5410.30468140,0.00041528
5412.23348877,0.00034759
5414.16229614,0.00039604
5416.09110352,0.00043361
5418.01991089,0.00039802
5419.94871826,0.00047133
5421.87752563,0.00036208
5423.80633301,0.00034239
5425.73514038,0.00034883
5427.66394775,0.00031675
5429.59275513,0.00035512
5431.52156250,0.00037006
5433.45036987,0.00039046
5435.37917725,0.00041037
5437.30798462,0.00043346
5439.23679199,0.00042297
5441.16559936,0.00040233
5443.09440674,0.00033632
5445.02321411,0.00035151
5446.95202148,0.00036427
5448.88082886,0.00031739
5450.80963623,0.00036101
5452.73844360,0.00034092
5454.66725098,0.00032491
5456.59605835,0.00028403
5458.52486572,0.00031517
5460.45367310,0.00040258
5462.38248047,0.00031989
5464.31128784,0.00028944
5466.24009521,0.00032410
5468.16890259,0.00033149
5470.09770996,0.00037312
5472.02651733,0.00039991
5473.95532471,0.00030623
5475.88413208,0.00034807
5477.81293945,0.00041053
5479.74174683,0.00027297
5481.67055420,0.00031168
5483.59936157,0.00032932
5485.52816895,0.00034770
5487.45697632,0.00042769
5489.38578369,0.00034253
5491.31459106,0.00035483
5493.24339844,0.00040106
5495.17220581,0.00040106
5497.10101318,0.00036761
5499.02982056,0.00033721
5500.95862793,0.00037903
5502.88743530,0.00039941
5504.81624268,0.00040318
5506.74505005,0.00034761
5508.67385742,0.00034640
5510.60266479,0.00039659
5512.53147217,0.00033283
5514.46027954,0.00032343
5516.38908691,0.00037105
5518.31789429,0.00028685
5520.24670166,0.00030420
5522.17550903,0.00037313
5524.10431641,0.00032637
5526.03312378,0.00037623
5527.96193115,0.00030921
5529.89073853,0.00026194
5531.81954590,0.00039164
5533.74835327,0.00031866
5535.67716064,0.00026078
5537.60596802,0.00034354
5539.53477539,0.00033177
5541.46358276,0.00030274
5543.39239014,0.00029950
5545.32119751,0.00031495
5547.25000488,0.00037020
5549.17881226,0.00031295
5551.10761963,0.00029607
5553.03642700,0.00035535
5554.96523437,0.00033629
5556.89404175,0.00037643
5558.82284912,0.00028905
5560.75165649,0.00026478
5562.68046387,0.00035500
5564.60927124,0.00029146
5566.53807861,0.00028782
5568.46688599,0.00025581
5570.39569336,0.00032912
5572.32450073,0.00038902
5574.25330811,0.00028766
5576.18211548,0.00030245
5578.11092285,0.00026528
5580.03973022,0.00026812
5581.96853760,0.00032241
5583.89734497,0.00035051
5585.82615234,0.00033189
5587.75495972,0.00021328
5589.68376709,0.00023487
5591.61257446,0.00032094
5593.54138184,0.00034472
5595.47018921,0.00032070
5597.39899658,0.00026523
5599.32780395,0.00023593
5601.25661133,0.00027304
5603.18541870,0.00031924
5605.11422607,0.00031460
5607.04303345,0.00029583
5608.97184082,0.00027960
5610.90064819,0.00032019
5612.82945557,0.00029491
5614.75826294,0.00030283
5616.68707031,0.00032924
5618.61587769,0.00026139
5620.54468506,0.00031792
5622.47349243,0.00030057
5624.40229980,0.00027353
5626.33110718,0.00029979
5628.25991455,0.00025335
5630.18872192,0.00029350
5632.11752930,0.00031607
5634.04633667,0.00031434
5635.97514404,0.00027089
5637.90395142,0.00024655
5639.83275879,0.00026211
5641.76156616,0.00024253
5643.69037353,0.00027406
5645.61918091,0.00027775
5647.54798828,0.00030765
5649.47679565,0.00027370
5651.40560303,0.00026811
5653.33441040,0.00034013
5655.26321777,0.00025605
5657.19202515,0.00022721
5659.12083252,0.00024234
5661.04963989,0.00022465
5662.97844727,0.00023595
5664.90725464,0.00028434
5666.83606201,0.00026202
5668.76486938,0.00018400
5670.69367676,0.00025850
5672.62248413,0.00025045
5674.55129150,0.00024471
5676.48009888,0.00027249
5678.40890625,0.00020078
5680.33771362,0.00026689
5682.26652100,0.00026791
5684.19532837,0.00022197
5686.12413574,0.00027657
5688.05294311,0.00022559
5689.98175049,0.00020151
5691.91055786,0.00026760
5693.83936523,0.00023188
5695.76817261,0.00023897
5697.69697998,0.00025967
5699.62578735,0.00020494
5701.55459473,0.00028065
5703.48340210,0.00025698
5705.41220947,0.00023004
5707.34101685,0.00027183
5709.26982422,0.00020180
5711.19863159,0.00028545
5713.12743896,0.00027495
5715.05624634,0.00019816
5716.98505371,0.00024313
5718.91386108,0.00023983
5720.84266846,0.00026564
5722.77147583,0.00025079
5724.70028320,0.00022597
5726.62909058,0.00023481
5728.55789795,0.00025584
5730.48670532,0.00025074
5732.41551270,0.00024112
5734.34432007,0.00022442
5736.27312744,0.00021669
5738.20193481,0.00027197
5740.13074219,0.00023872
5742.05954956,0.00029862
5743.98835693,0.00027222
5745.91716431,0.00019927
5747.84597168,0.00029273
5749.77477905,0.00024281
5751.70358643,0.00027962
5753.63239380,0.00025576
5755.56120117,0.00018906
5757.49000854,0.00027390
5759.41881592,0.00024159
5761.34762329,0.00020915
5763.27643066,0.00017333
5765.20523804,0.00018956
5767.13404541,0.00020841
5769.06285278,0.00022406
5770.99166016,0.00022799
5772.92046753,0.00014608
5774.84927490,0.00019486
5776.77808228,0.00015862
5778.70688965,0.00014926
5780.63569702,0.00023215
5782.56450439,0.00018648
5784.49331177,0.00019019
5786.42211914,0.00019039
5788.35092651,0.00021137
5790.27973389,0.00020302
5792.20854126,0.00018375
5794.13734863,0.00028746
5796.06615601,0.00023480
5797.99496338,0.00015542
5799.92377075,0.00021527
5801.85257812,0.00019088
5803.78138550,0.00021619
5805.71019287,0.00029148
5807.63900024,0.00022558
5809.56780762,0.00017640
5811.49661499,0.00018716
5813.42542236,0.00016041
5815.35422974,0.00018832
5817.28303711,0.00028773
5819.21184448,0.00024467
5821.14065186,0.00016957
5823.06945923,0.00022583
5824.99826660,0.00020398
5826.92707397,0.00016494
5828.85588135,0.00020334
5830.78468872,0.00022971
5832.71349609,0.00020390
5834.64230347,0.00021310
5836.57111084,0.00023747
5838.49991821,0.00019892
5840.42872559,0.00021640
5842.35753296,0.00020370
5844.28634033,0.00021940
5846.21514770,0.00016456
5848.14395508,0.00014023
5850.07276245,0.00028996
5852.00156982,0.00022313
5853.93037720,0.00025876
5855.85918457,0.00023551
5857.78799194,0.00011108
5859.71679932,0.00022640
5861.64560669,0.00017007
5863.57441406,0.00020629
5865.50322144,0.00023652
5867.43202881,0.00012812
5869.36083618,0.00014812
5871.28964355,0.00014475
5873.21845093,0.00016409
5875.14725830,0.00013021
5877.07606567,0.00016203
5879.00487305,0.00020698
5880.93368042,0.00019977
5882.86248779,0.00024354
5884.79129517,0.00018661
5886.72010254,0.00019065
5888.64890991,0.00021761
5890.57771728,0.00018215
5892.50652466,0.00016467
5894.43533203,0.00017750
5896.36413940,0.00014223
5898.29294678,0.00011079
5900.22175415,0.00024655
5902.15056152,0.00023633
5904.07936890,0.00013571
5906.00817627,0.00018888
5907.93698364,0.00020185
5909.86579102,0.00013135
5911.79459839,0.00014320
5913.72340576,0.00022162
5915.65221313,0.00015258
5917.58102051,0.00014498
5919.50982788,0.00020272
5921.43863525,0.00015061
5923.36744263,0.00018709
5925.29625000,0.00018619
5927.22505737,0.00013071
5929.15386475,0.00015229
5931.08267212,0.00020654
5933.01147949,0.00021854
5934.94028686,0.00015931
5936.86909424,0.00019060
5938.79790161,0.00021835
5940.72670898,0.00022502
5942.65551636,0.00023778
5944.58432373,0.00014853
5946.51313110,0.00018516
5948.44193848,0.00024953
5950.37074585,0.00017802
5952.29955322,0.00016610
5954.22836060,0.00018763
5956.15716797,0.00017006
5958.08597534,0.00015842
5960.01478271,0.00017171
5961.94359009,0.00017117
5963.87239746,0.00016631
5965.80120483,0.00019094
5967.73001221,0.00018529
5969.65881958,0.00014956
5971.58762695,0.00018649
5973.51643433,0.00018947
5975.44524170,0.00011954
5977.37404907,0.00014381
5979.30285645,0.00011502
5981.23166382,0.00014225
5983.16047119,0.00024354
5985.08927856,0.00015841
5987.01808594,0.00017189
5988.94689331,0.00017869
5990.87570068,0.00007805
5992.80450806,0.00012419
5994.73331543,0.00014832
5996.66212280,0.00016090
5998.59093018,0.00019011
6000.51973755,0.00014955
