399.26312622,0.00007866
401.19193359,0.00019041
403.12074097,0.00010033
405.04954834,0.00005592
406.97835571,0.00013087
408.90716309,0.00032800
410.83597046,0.00020731
412.76477783,-0.00003363
414.69358521,0.00018922
416.62239258,0.00027364
418.55119995,0.00025060
420.48000732,0.00013667
422.40881470,0.00005501
424.33762207,0.00043012
426.26642944,0.00018506
428.19523682,0.00030292
430.12404419,0.00016281
432.05285156,-0.00002482
433.98165894,0.00022813
435.91046631,0.00026289
437.83927368,0.00049306
439.76808105,0.00029679
441.69688843,0.00036982
443.62569580,0.00025592
445.55450317,0.00003701
447.48331055,0.00039548
449.41211792,0.00012761
451.34092529,0.00004144
453.26973267,0.00021224
455.19854004,0.00025702
457.12734741,0.00013912
459.05615479,0.00014200
460.98496216,0.00018740
462.91376953,-0.00011292
464.84257690,0.00015974
466.77138428,0.00004312
468.70019165,-0.00013825
470.62899902,0.00030805
472.55780640,0.00011860
474.48661377,-0.00019716
476.41542114,-0.00016901
478.34422852,0.00011274
480.27303589,0.00006426
482.20184326,0.00001614
484.13065063,0.00031157
486.05945801,0.00016890
487.98826538,0.00024281
489.91707275,0.00023076
491.84588013,0.00001666
493.77468750,0.00012442
495.70349487,0.00007459
497.63230225,0.00011952
499.56110962,0.00019025
501.48991699,0.00013164
503.41872437,0.00014498
505.34753174,0.00017833
507.27633911,0.00024812
509.20514648,0.00011421
511.13395386,0.00008589
513.06276123,0.00013024
514.99156860,0.00007690
516.92037598,0.00018437
518.84918335,-0.00004353
520.77799072,0.00002357
522.70679810,0.00022988
524.63560547,-0.00007343
526.56441284,0.00000975
528.49322021,-0.00002139
530.42202759,0.00007665
532.35083496,0.00038847
534.27964233,0.00018897
536.20844971,0.00020738
538.13725708,0.00016802
540.06606445,0.00007505
541.99487183,0.00012750
543.92367920,0.00010058
545.85248657,0.00005051
547.78129395,0.00007578
549.71010132,0.00036394
551.63890869,0.00028998
553.56771606,0.00023653
555.49652344,0.00023894
557.42533081,0.00023591
559.35413818,0.00040092
561.28294556,0.00008777
563.21175293,0.00019936
565.14056030,0.00024518
567.06936768,0.00019405
568.99817505,0.00042981
570.92698242,0.00008063
572.85578979,0.00014402
574.78459717,0.00013523
576.71340454,0.00006699
578.64221191,0.00031237
580.57101929,0.00010781
582.49982666,0.00007480
584.42863403,0.00011417
586.35744141,0.00030178
588.28624878,0.00023463
590.21505615,0.00004379
592.14386353,0.00018554
594.07267090,-0.00008274
596.00147827,0.00010723
597.93028564,0.00020139
599.85909302,-0.00002529
601.78790039,0.00024399
603.71670776,0.00025668
605.64551514,0.00017844
607.57432251,0.00020351
609.50312988,0.00023291
611.43193726,0.00005921
613.36074463,0.00000691
615.28955200,-0.00000882
617.21835938,0.00004130
619.14716675,0.00041987
621.07597412,0.00017141
623.00478149,0.00019212
624.93358887,0.00030717
626.86239624,0.00005042
628.79120361,0.00027385
630.72001099,0.00031738
632.64881836,0.00026021
634.57762573,0.00028015
636.50643311,0.00012523
638.43524048,-0.00001928
640.36404785,0.00011350
642.29285522,0.00011132
644.22166260,-0.00002583
646.15046997,-0.00000115
648.07927734,-0.00002389
650.00808472,0.00001657
651.93689209,0.00007256
653.86569946,0.00022502
655.79450684,0.00006602
657.72331421,0.00003830
659.65212158,0.00024094
661.58092896,-0.00002222
663.50973633,0.00008842
665.43854370,0.00022627
667.36735107,-0.00001537
669.29615845,0.00011683
671.22496582,0.00020279
673.15377319,0.00011503
675.08258057,0.00022165
677.01138794,0.00019815
678.94019531,0.00020578
680.86900269,0.00015978
682.79781006,0.00010865
684.72661743,0.00025023
686.65542480,0.00015777
688.58423218,0.00016642
690.51303955,0.00019690
692.44184692,0.00030467
694.37065430,0.00013512
696.29946167,0.00007724
698.22826904,0.00038749
700.15707642,0.00015604
702.08588379,0.00023298
704.01469116,0.00018929
705.94349854,0.00001616
707.87230591,0.00022386
709.80111328,0.00019216
711.72992065,0.00020904
713.65872803,0.00000145
715.58753540,0.00016977
717.51634277,0.00027093
719.44515015,-0.00009455
721.37395752,0.00007923
723.30276489,0.00024974
725.23157227,-0.00004384
727.16037964,0.00001164
729.08918701,0.00007078
731.01799438,0.00025545
732.94680176,0.00023264
734.87560913,0.00008510
736.80441650,0.00039360
738.73322388,0.00014946
740.66203125,0.00009344
742.59083862,0.00033455
744.51964600,0.00010474
746.44845337,0.00025256
748.37726074,0.00025293
750.30606812,0.00010862
752.23487549,0.00022736
754.16368286,0.00016438
756.09249023,0.00030984
758.02129761,0.00019222
759.95010498,-0.00009336
761.87891235,0.00010927
763.80771973,0.00022384
765.73652710,0.00021677
767.66533447,0.00020024
769.59414185,0.00012055
771.52294922,0.00009893
773.45175659,0.00006862
775.38056396,0.00024250
777.30937134,0.00034693
779.23817871,0.00012000
781.16698608,0.00009428
783.09579346,0.00020259
785.02460083,0.00015771
786.95340820,0.00011242
788.88221558,0.00020000
790.81102295,0.00009390
792.73983032,-0.00004698
794.66863770,0.00021878
796.59744507,0.00025627
798.52625244,0.00013156
800.45505981,0.00013898
802.38386719,0.00014664
804.31267456,0.00024720
806.24148193,0.00019389
808.17028931,0.00013664
810.09909668,0.00008710
812.02790405,0.00009409
813.95671143,0.00025571
815.88551880,0.00021709
817.81432617,0.00013501
819.74313354,0.00020891
821.67194092,0.00035831
823.60074829,0.00033687
825.52955566,0.00011063
827.45836304,0.00012677
829.38717041,0.00035447
831.31597778,0.00029511
833.24478516,0.00007559
835.17359253,0.00006641
837.10239990,0.00013832
839.03120728,0.00028245
840.96001465,0.00028593
842.88882202,0.00003012
844.81762939,0.00009909
846.74643677,0.00027771
848.67524414,0.00015362
850.60405151,0.00009115
852.53285889,0.00025736
854.46166626,0.00038761
856.39047363,0.00025595
858.31928101,0.00008847
860.24808838,0.00012344
862.17689575,0.00018218
864.10570313,0.00009221
866.03451050,0.00021586
867.96331787,0.00038115
869.89212524,0.00013446
871.82093262,0.00016934
873.74973999,0.00027428
875.67854736,0.00006717
877.60735474,0.00023923
879.53616211,0.00028969
881.46496948,0.00021562
883.39377686,0.00041522
885.32258423,0.00021152
887.25139160,0.00002636
889.18019897,0.00032287
891.10900635,0.00031311
893.03781372,0.00012217
894.96662109,0.00039236
896.89542847,0.00037976
898.82423584,0.00011279
900.75304321,0.00013104
902.68185059,0.00009701
904.61065796,0.00028609
906.53946533,0.00031326
908.46827271,0.00024160
910.39708008,0.00042130
912.32588745,0.00011794
914.25469482,-0.00003491
916.18350220,0.00019098
918.11230957,0.00024916
920.04111694,0.00033430
921.96992432,0.00027769
923.89873169,0.00011046
925.82753906,0.00004830
927.75634644,0.00021617
929.68515381,0.00024671
931.61396118,0.00019227
933.54276855,0.00028243
935.47157593,0.00019909
937.40038330,0.00027362
939.32919067,0.00019620
941.25799805,0.00022867
943.18680542,0.00029325
945.11561279,0.00006659
947.04442017,0.00018886
948.97322754,0.00028555
950.90203491,0.00051998
952.83084229,0.00033988
954.75964966,-0.00004243
956.68845703,0.00027733
958.61726440,0.00037244
960.54607178,0.00029619
962.47487915,0.00028353
964.40368652,0.00034250
966.33249390,0.00035292
968.26130127,0.00042696
970.19010864,0.00050862
972.11891602,0.00033788
974.04772339,0.00049286
975.97653076,0.00034289
977.90533813,0.00019228
979.83414551,0.00037308
981.76295288,0.00028651
983.69176025,0.00036205
985.62056763,0.00039528
987.54937500,0.00036881
989.47818237,0.00033059
991.40698975,0.00030963
993.33579712,0.00028389
995.26460449,0.00042693
997.19341187,0.00061034
999.12221924,0.00030214
1001.05102661,0.00034632
1002.97983398,0.00048506
1004.90864136,0.00052034
1006.83744873,0.00057507
1008.76625610,0.00047750
1010.69506348,0.00058221
1012.62387085,0.00047817
1014.55267822,0.00043508
1016.48148560,0.00051061
1018.41029297,0.00058578
1020.33910034,0.00064778
1022.26790771,0.00065264
1024.19671509,0.00068711
1026.12552246,0.00059321
1028.05432983,0.00075469
1029.98313721,0.00066709
1031.91194458,0.00048385
1033.84075195,0.00075861
1035.76955933,0.00086780
1037.69836670,0.00071890
1039.62717407,0.00079156
1041.55598145,0.00099526
1043.48478882,0.00082239
1045.41359619,0.00081212
1047.34240356,0.00069103
1049.27121094,0.00055366
1051.20001831,0.00087054
1053.12882568,0.00061478
1055.05763306,0.00048717
1056.98644043,0.00074104
1058.91524780,0.00075180
1060.84405518,0.00081175
1062.77286255,0.00070020
1064.70166992,0.00063136
1066.63047729,0.00069157
1068.55928467,0.00059613
1070.48809204,0.00053739
1072.41689941,0.00060619
1074.34570679,0.00054331
1076.27451416,0.00049733
1078.20332153,0.00060532
1080.13212891,0.00062075
1082.06093628,0.00068663
1083.98974365,0.00060045
1085.91855103,0.00052596
1087.84735840,0.00060890
1089.77616577,0.00047712
1091.70497314,0.00051556
1093.63378052,0.00062142
1095.56258789,0.00067711
1097.49139526,0.00074083
1099.42020264,0.00059487
1101.34901001,0.00051096
1103.27781738,0.00055555
1105.20662476,0.00062289
1107.13543213,0.00070246
1109.06423950,0.00065079
1110.99304687,0.00049212
1112.92185425,0.00067021
1114.85066162,0.00068046
1116.77946899,0.00042196
1118.70827637,0.00049530
1120.63708374,0.00043141
1122.56589111,0.00059111
1124.49469849,0.00064016
1126.42350586,0.00047614
1128.35231323,0.00066557
1130.28112061,0.00055465
1132.20992798,0.00058441
1134.13873535,0.00060386
1136.06754272,0.00053396
1137.99635010,0.00068808
1139.92515747,0.00070844
1141.85396484,0.00070581
1143.78277222,0.00060672
1145.71157959,0.00070831
1147.64038696,0.00068103
1149.56919434,0.00064641
1151.49800171,0.00078260
1153.42680908,0.00068700
1155.35561646,0.00079094
1157.28442383,0.00072584
1159.21323120,0.00081728
1161.14203857,0.00096003
1163.07084595,0.00072874
1164.99965332,0.00092428
1166.92846069,0.00099127
1168.85726807,0.00085856
1170.78607544,0.00098121
1172.71488281,0.00099386
1174.64369019,0.00091969
1176.57249756,0.00095300
1178.50130493,0.00101721
1180.43011230,0.00103964
1182.35891968,0.00114569
1184.28772705,0.00116485
1186.21653442,0.00122822
1188.14534180,0.00131899
1190.07414917,0.00127319
1192.00295654,0.00130363
1193.93176392,0.00119810
1195.86057129,0.00124923
1197.78937866,0.00140342
1199.71818604,0.00133332
1201.64699341,0.00151614
1203.57580078,0.00162029
1205.50460815,0.00146762
1207.43341553,0.00150421
1209.36222290,0.00158705
1211.29103027,0.00175920
1213.21983765,0.00195149
1215.14864502,0.00183093
1217.07745239,0.00184342
1219.00625977,0.00201894
1220.93506714,0.00191660
1222.86387451,0.00192435
1224.79268188,0.00208435
1226.72148926,0.00206842
1228.65029663,0.00205292
1230.57910400,0.00205652
1232.50791138,0.00197695
1234.43671875,0.00204904
1236.36552612,0.00216476
1238.29433350,0.00201603
1240.22314087,0.00190925
1242.15194824,0.00197925
1244.08075562,0.00210516
1246.00956299,0.00217429
1247.93837036,0.00209006
1249.86717773,0.00197980
1251.79598511,0.00189712
1253.72479248,0.00199006
1255.65359985,0.00200780
1257.58240723,0.00186624
1259.51121460,0.00199627
1261.44002197,0.00207769
1263.36882935,0.00196791
1265.29763672,0.00192605
1267.22644409,0.00186445
1269.15525146,0.00194507
1271.08405884,0.00200194
1273.01286621,0.00184457
1274.94167358,0.00178292
1276.87048096,0.00177720
1278.79928833,0.00189784
1280.72809570,0.00182615
1282.65690308,0.00157365
1284.58571045,0.00167559
1286.51451782,0.00171957
1288.44332520,0.00178133
1290.37213257,0.00171714
1292.30093994,0.00156581
1294.22974731,0.00171576
1296.15855469,0.00162560
1298.08736206,0.00161837
1300.01616943,0.00174558
1301.94497681,0.00170993
1303.87378418,0.00171173
1305.80259155,0.00171496
1307.73139893,0.00166461
1309.66020630,0.00171901
1311.58901367,0.00187775
1313.51782104,0.00183202
1315.44662842,0.00195151
1317.37543579,0.00190272
1319.30424316,0.00178411
1321.23305054,0.00200864
1323.16185791,0.00203962
1325.09066528,0.00219815
1327.01947266,0.00222416
1328.94828003,0.00230568
1330.87708740,0.00226583
1332.80589478,0.00199112
1334.73470215,0.00221316
1336.66350952,0.00213491
1338.59231689,0.00230586
1340.52112427,0.00252123
1342.44993164,0.00233076
1344.37873901,0.00250226
1346.30754639,0.00243414
1348.23635376,0.00231024
1350.16516113,0.00234373
1352.09396851,0.00252450
1354.02277588,0.00256223
1355.95158325,0.00236872
1357.88039062,0.00236881
1359.80919800,0.00232024
1361.73800537,0.00234564
1363.66681274,0.00224385
1365.59562012,0.00231321
1367.52442749,0.00242797
1369.45323486,0.00230778
1371.38204224,0.00233700
1373.31084961,0.00228996
1375.23965698,0.00238145
1377.16846436,0.00232606
1379.09727173,0.00232063
1381.02607910,0.00233998
1382.95488647,0.00217257
1384.88369385,0.00231041
1386.81250122,0.00225372
1388.74130859,0.00232596
1390.67011597,0.00250581
1392.59892334,0.00249087
1394.52773071,0.00238396
1396.45653809,0.00229962
1398.38534546,0.00253791
1400.31415283,0.00250213
1402.24296021,0.00250844
1404.17176758,0.00260362
1406.10057495,0.00256032
1408.02938232,0.00248189
1409.95818970,0.00233682
1411.88699707,0.00248292
1413.81580444,0.00248048
1415.74461182,0.00253289
1417.67341919,0.00235568
1419.60222656,0.00209500
1421.53103394,0.00234505
1423.45984131,0.00222466
1425.38864868,0.00228392
1427.31745605,0.00233431
1429.24626343,0.00208204
1431.17507080,0.00217698
1433.10387817,0.00219133
1435.03268555,0.00203187
1436.96149292,0.00179950
1438.89030029,0.00197180
1440.81910767,0.00210966
1442.74791504,0.00195219
1444.67672241,0.00208436
1446.60552979,0.00196190
1448.53433716,0.00196378
1450.46314453,0.00213200
1452.39195190,0.00205179
1454.32075928,0.00210966
1456.24956665,0.00196128
1458.17837402,0.00192274
1460.10718140,0.00235808
1462.03598877,0.00239732
1463.96479614,0.00225307
1465.89360352,0.00253824
1467.82241089,0.00277749
1469.75121826,0.00284000
1471.68002563,0.00265307
1473.60883301,0.00272667
1475.53764038,0.00323146
1477.46644775,0.00333243
1479.39525513,0.00344465
1481.32406250,0.00357220
1483.25286987,0.00369655
1485.18167725,0.00389287
1487.11048462,0.00381997
1489.03929199,0.00376307
1490.96809937,0.00374907
1492.89690674,0.00427393
1494.82571411,0.00429211
1496.75452148,0.00378877
1498.68332886,0.00426962
1500.61213623,0.00438816
1502.54094360,0.00466841
1504.46975098,0.00457474
1506.39855835,0.00343723
1508.32736572,0.00405625
1510.25617310,0.00459712
1512.18498047,0.00454518
1514.11378784,0.00492007
1516.04259521,0.00437602
1517.97140259,0.00457883
1519.90020996,0.00437979
1521.82901733,0.00396658
1523.75782471,0.00478720
1525.68663208,0.00460757
1527.61543945,0.00471500
1529.54424683,0.00514740
1531.47305420,0.00487303
1533.40186157,0.00456492
1535.33066895,0.00479955
1537.25947632,0.00500713
1539.18828369,0.00384991
1541.11709106,0.00403498
1543.04589844,0.00460969
1544.97470581,0.00454684
1546.90351318,0.00522177
1548.83232056,0.00497270
1550.76112793,0.00519521
1552.68993530,0.00504576
1554.61874268,0.00478747
1556.54755005,0.00495825
1558.47635742,0.00365510
1560.40516479,0.00419112
1562.33397217,0.00535064
1564.26277954,0.00509654
1566.19158691,0.00524445
1568.12039429,0.00505988
1570.04920166,0.00474585
1571.97800903,0.00524017
1573.90681641,0.00537642
1575.83562378,0.00437960
1577.76443115,0.00489329
1579.69323853,0.00598810
1581.62204590,0.00542737
1583.55085327,0.00520507
1585.47966064,0.00528386
1587.40846802,0.00528170
1589.33727539,0.00536077
1591.26608276,0.00534775
1593.19489014,0.00534178
1595.12369751,0.00538703
1597.05250488,0.00559278
1598.98131226,0.00543904
1600.91011963,0.00537664
1602.83892700,0.00557915
1604.76773437,0.00559453
1606.69654175,0.00552803
1608.62534912,0.00556550
1610.55415649,0.00549014
1612.48296387,0.00567059
1614.41177124,0.00565959
1616.34057861,0.00479838
1618.26938599,0.00524400
1620.19819336,0.00589964
1622.12700073,0.00546663
1624.05580811,0.00565338
1625.98461548,0.00603502
1627.91342285,0.00604102
1629.84223022,0.00584754
1631.77103760,0.00625247
1633.69984497,0.00583747
1635.62865234,0.00492463
1637.55745972,0.00585778
1639.48626709,0.00635197
1641.41507446,0.00626696
1643.34388184,0.00657118
1645.27268921,0.00579862
1647.20149658,0.00518044
1649.13030396,0.00638515
1651.05911133,0.00607186
1652.98791870,0.00423374
1654.91672607,0.00549510
1656.84553345,0.00674171
1658.77434082,0.00647953
1660.70314819,0.00672464
1662.63195557,0.00624197
1664.56076294,0.00633779
1666.48957031,0.00675236
1668.41837769,0.00610293
1670.34718506,0.00593731
1672.27599243,0.00660907
1674.20479980,0.00613716
1676.13360718,0.00592678
1678.06241455,0.00675315
1679.99122192,0.00648202
1681.92002930,0.00641721
1683.84883667,0.00535453
1685.77764404,0.00529465
1687.70645142,0.00698900
1689.63525879,0.00615482
1691.56406616,0.00667797
1693.49287354,0.00664037
1695.42168091,0.00510892
1697.35048828,0.00619341
1699.27929565,0.00541507
1701.20810303,0.00509508
1703.13691040,0.00663269
1705.06571777,0.00608691
1706.99452515,0.00614815
1708.92333252,0.00651352
1710.85213989,0.00624642
1712.78094727,0.00648811
1714.70975464,0.00606541
1716.63856201,0.00538495
1718.56736938,0.00546306
1720.49617676,0.00615962
1722.42498413,0.00635771
1724.35379150,0.00615930
1726.28259888,0.00636167
1728.21140625,0.00600834
1730.14021362,0.00604794
1732.06902100,0.00585696
1733.99782837,0.00480862
1735.92663574,0.00554169
1737.85544312,0.00603938
1739.78425049,0.00557394
1741.71305786,0.00603076
1743.64186523,0.00614173
1745.57067261,0.00608790
1747.49947998,0.00613668
1749.42828735,0.00581685
1751.35709473,0.00556824
1753.28590210,0.00608361
1755.21470947,0.00632145
1757.14351685,0.00594374
1759.07232422,0.00638786
1761.00113159,0.00607051
1762.92993896,0.00589637
1764.85874634,0.00661696
1766.78755371,0.00617113
1768.71636108,0.00611100
1770.64516846,0.00605424
1772.57397583,0.00555190
1774.50278320,0.00604418
1776.43159058,0.00638725
1778.36039795,0.00629756
1780.28920532,0.00621574
1782.21801270,0.00622427
1784.14682007,0.00634206
1786.07562744,0.00629048
1788.00443481,0.00646366
1789.93324219,0.00630304
1791.86204956,0.00577752
1793.79085693,0.00605529
1795.71966431,0.00625659
1797.64847168,0.00618883
1799.57727905,0.00627918
1801.50608643,0.00609012
1803.43489380,0.00628782
1805.36370117,0.00642830
1807.29250854,0.00641383
1809.22131592,0.00639946
1811.15012329,0.00622063
1813.07893066,0.00644526
1815.00773804,0.00635651
1816.93654541,0.00635389
1818.86535278,0.00644984
1820.79416016,0.00642974
1822.72296753,0.00642703
1824.65177490,0.00602484
1826.58058228,0.00632001
1828.50938965,0.00624235
1830.43819702,0.00604709
1832.36700439,0.00646493
1834.29581177,0.00623511
1836.22461914,0.00637057
1838.15342651,0.00636704
1840.08223389,0.00636982
1842.01104126,0.00634944
1843.93984863,0.00578754
1845.86865601,0.00616899
1847.79746338,0.00639628
1849.72627075,0.00638515
1851.65507812,0.00651315
1853.58388550,0.00641188
1855.51269287,0.00653093
1857.44150024,0.00632996
1859.37030762,0.00627738
1861.29911499,0.00636259
1863.22792236,0.00643858
1865.15672974,0.00652957
1867.08553711,0.00621161
1869.01434448,0.00603314
1870.94315186,0.00615530
1872.87195923,0.00636178
1874.80076660,0.00622164
1876.72957397,0.00621467
1878.65838135,0.00636462
1880.58718872,0.00622481
1882.51599609,0.00636594
1884.44480347,0.00636863
1886.37361084,0.00643033
1888.30241821,0.00639328
1890.23122559,0.00620711
1892.16003296,0.00636431
1894.08884033,0.00620677
1896.01764771,0.00630625
1897.94645508,0.00634726
1899.87526245,0.00620164
1901.80406982,0.00640866
1903.73287720,0.00633162
1905.66168457,0.00634213
1907.59049194,0.00629432
1909.51929932,0.00631468
1911.44810669,0.00640675
1913.37691406,0.00624704
1915.30572144,0.00628719
1917.23452881,0.00607578
1919.16333618,0.00614334
1921.09214355,0.00634431
1923.02095093,0.00609796
1924.94975830,0.00623116
1926.87856567,0.00642516
1928.80737305,0.00638421
1930.73618042,0.00628150
1932.66498779,0.00626165
1934.59379517,0.00631294
1936.52260254,0.00632719
1938.45140991,0.00639495
1940.38021729,0.00622418
1942.30902466,0.00613285
1944.23783203,0.00623184
1946.16663940,0.00625256
1948.09544678,0.00632696
1950.02425415,0.00633113
1951.95306152,0.00632207
1953.88186890,0.00635622
1955.81067627,0.00630127
1957.73948364,0.00628904
1959.66829102,0.00637604
1961.59709839,0.00631171
1963.52590576,0.00632226
1965.45471313,0.00637000
1967.38352051,0.00614605
1969.31232788,0.00617526
1971.24113525,0.00625443
1973.16994263,0.00627517
1975.09875000,0.00639728
1977.02755737,0.00627759
1978.95636475,0.00633985
1980.88517212,0.00641792
1982.81397949,0.00633262
1984.74278687,0.00631577
1986.67159424,0.00623659
1988.60040161,0.00632256
1990.52920898,0.00630900
1992.45801636,0.00623766
1994.38682373,0.00637584
1996.31563110,0.00636072
1998.24443848,0.00625573
2000.17324585,0.00629596
2002.10205322,0.00640085
2004.03086060,0.00624511
2005.95966797,0.00612676
2007.88847534,0.00634349
2009.81728271,0.00627027
2011.74609009,0.00610851
2013.67489746,0.00627573
2015.60370483,0.00623222
2017.53251221,0.00611833
2019.46131958,0.00622207
2021.39012695,0.00619459
2023.31893433,0.00619482
2025.24774170,0.00616041
2027.17654907,0.00613766
2029.10535645,0.00624705
2031.03416382,0.00611914
2032.96297119,0.00625978
2034.89177856,0.00631801
2036.82058594,0.00601667
2038.74939331,0.00615989
2040.67820068,0.00616414
2042.60700806,0.00598336
2044.53581543,0.00608035
2046.46462280,0.00618132
2048.39343018,0.00613930
2050.32223755,0.00603136
2052.25104492,0.00608122
2054.17985229,0.00609182
2056.10865967,0.00610317
2058.03746704,0.00605429
2059.96627441,0.00597886
2061.89508179,0.00610448
2063.82388916,0.00605536
2065.75269653,0.00604712
2067.68150391,0.00606186
2069.61031128,0.00597719
2071.53911865,0.00606167
2073.46792603,0.00605502
2075.39673340,0.00605101
2077.32554077,0.00611032
2079.25434814,0.00602420
2081.18315552,0.00599197
2083.11196289,0.00606685
2085.04077026,0.00606992
2086.96957764,0.00604861
2088.89838501,0.00599601
2090.82719238,0.00594063
2092.75599976,0.00598274
2094.68480713,0.00600983
2096.61361450,0.00599747
2098.54242187,0.00594787
2100.47122925,0.00604978
2102.40003662,0.00612917
2104.32884399,0.00600146
2106.25765137,0.00600098
2108.18645874,0.00594554
2110.11526611,0.00585746
2112.04407349,0.00585628
2113.97288086,0.00590930
2115.90168823,0.00599539
2117.83049561,0.00593745
2119.75930298,0.00595800
2121.68811035,0.00591226
2123.61691772,0.00581307
2125.54572510,0.00591806
2127.47453247,0.00597606
2129.40333984,0.00597077
2131.33214722,0.00591744
2133.26095459,0.00587394
2135.18976196,0.00592761
2137.11856934,0.00591088
2139.04737671,0.00583536
2140.97618408,0.00589267
2142.90499146,0.00602479
2144.83379883,0.00594144
2146.76260620,0.00575136
2148.69141357,0.00590464
2150.62022095,0.00607582
2152.54902832,0.00587750
2154.47783569,0.00584880
2156.40664307,0.00592229
2158.33545044,0.00590699
2160.26425781,0.00598278
2162.19306519,0.00589980
2164.12187256,0.00586875
2166.05067993,0.00592153
2167.97948730,0.00578975
2169.90829468,0.00577159
2171.83710205,0.00597200
2173.76590942,0.00598446
2175.69471680,0.00591819
2177.62352417,0.00601225
2179.55233154,0.00582809
2181.48113892,0.00577219
2183.40994629,0.00597733
2185.33875366,0.00591793
2187.26756104,0.00601346
2189.19636841,0.00601662
2191.12517578,0.00575499
2193.05398315,0.00582544
2194.98279053,0.00598213
2196.91159790,0.00586055
2198.84040527,0.00574640
2200.76921265,0.00586396
2202.69802002,0.00590132
2204.62682739,0.00583952
2206.55563477,0.00586754
2208.48444214,0.00586582
2210.41324951,0.00588571
2212.34205688,0.00582934
2214.27086426,0.00574966
2216.19967163,0.00581762
2218.12847900,0.00587797
2220.05728638,0.00594189
2221.98609375,0.00586761
2223.91490112,0.00578088
2225.84370850,0.00580779
2227.77251587,0.00575367
2229.70132324,0.00586053
2231.63013062,0.00587719
2233.55893799,0.00582009
2235.48774536,0.00585005
2237.41655273,0.00574193
2239.34536011,0.00590264
2241.27416748,0.00590538
2243.20297485,0.00572069
2245.13178223,0.00582833
2247.06058960,0.00570834
2248.98939697,0.00571792
2250.91820435,0.00587181
2252.84701172,0.00570284
2254.77581909,0.00568225
2256.70462646,0.00577299
2258.63343384,0.00572606
2260.56224121,0.00568484
2262.49104858,0.00573451
2264.41985596,0.00573452
2266.34866333,0.00562273
2268.27747070,0.00573803
2270.20627808,0.00579603
2272.13508545,0.00565278
2274.06389282,0.00572777
2275.99270020,0.00572057
2277.92150757,0.00571028
2279.85031494,0.00569646
2281.77912231,0.00561017
2283.70792969,0.00570661
2285.63673706,0.00557763
2287.56554443,0.00559490
2289.49435181,0.00568943
2291.42315918,0.00559981
2293.35196655,0.00570816
2295.28077393,0.00561351
2297.20958130,0.00555192
2299.13838867,0.00554216
2301.06719604,0.00555578
2302.99600342,0.00569370
2304.92481079,0.00555883
2306.85361816,0.00547947
2308.78242554,0.00547053
2310.71123291,0.00554579
2312.64004028,0.00551895
2314.56884766,0.00531459
2316.49765503,0.00535600
2318.42646240,0.00533659
2320.35526978,0.00521686
2322.28407715,0.00510615
2324.21288452,0.00507361
2326.14169189,0.00501739
2328.07049927,0.00497762
2329.99930664,0.00501970
2331.92811401,0.00483349
2333.85692139,0.00483772
2335.78572876,0.00489229
2337.71453613,0.00489428
2339.64334351,0.00494918
2341.57215088,0.00481313
2343.50095825,0.00494200
2345.42976562,0.00504576
2347.35857300,0.00517401
2349.28738037,0.00539612
2351.21618774,0.00510487
2353.14499512,0.00495765
2355.07380249,0.00488906
2357.00260986,0.00468116
2358.93141724,0.00470704
2360.86022461,0.00455384
2362.78903198,0.00452342
2364.71783936,0.00467547
2366.64664673,0.00472224
2368.57545410,0.00485089
2370.50426147,0.00487758
2372.43306885,0.00501563
2374.36187622,0.00511083
2376.29068359,0.00505781
2378.21949097,0.00523120
2380.14829834,0.00530964
2382.07710571,0.00542381
2384.00591309,0.00555847
2385.93472046,0.00543056
2387.86352783,0.00544611
2389.79233521,0.00552874
2391.72114258,0.00544329
2393.64994995,0.00544732
2395.57875732,0.00551569
2397.50756470,0.00550384
2399.43637207,0.00550594
2401.36517944,0.00549335
2403.29398682,0.00555272
2405.22279419,0.00556045
2407.15160156,0.00542229
2409.08040894,0.00545960
2411.00921631,0.00554277
2412.93802368,0.00551231
2414.86683105,0.00543533
2416.79563843,0.00543754
2418.72444580,0.00543795
2420.65325317,0.00539405
2422.58206055,0.00543914
2424.51086792,0.00544435
2426.43967529,0.00551475
2428.36848267,0.00545718
2430.29729004,0.00538446
2432.22609741,0.00543137
2434.15490479,0.00536230
2436.08371216,0.00543259
2438.01251953,0.00535590
2439.94132690,0.00534114
2441.87013428,0.00550939
2443.79894165,0.00541705
2445.72774902,0.00535411
2447.65655640,0.00535758
2449.58536377,0.00539263
2451.51417114,0.00538006
2453.44297852,0.00534278
2455.37178589,0.00531297
2457.30059326,0.00528239
2459.22940063,0.00534867
2461.15820801,0.00532113
2463.08701538,0.00529662
2465.01582275,0.00523857
2466.94463013,0.00527282
2468.87343750,0.00534889
2470.80224487,0.00528620
2472.73105225,0.00527527
2474.65985962,0.00527814
2476.58866699,0.00546299
2478.51747437,0.00544417
2480.44628174,0.00531742
2482.37508911,0.00539257
2484.30389648,0.00528640
2486.23270386,0.00531006
2488.16151123,0.00531683
2490.09031860,0.00522518
2492.01912598,0.00523734
2493.94793335,0.00525582
2495.87674072,0.00532476
2497.80554810,0.00528302
2499.73435547,0.00526423
2501.66316284,0.00527420
2503.59197021,0.00525220
2505.52077759,0.00524952
2507.44958496,0.00522869
2509.37839233,0.00526554
2511.30719971,0.00533285
2513.23600708,0.00535361
2515.16481445,0.00524882
2517.09362183,0.00524420
2519.02242920,0.00522885
2520.95123657,0.00519516
2522.88004395,0.00528730
2524.80885132,0.00511969
2526.73765869,0.00511527
2528.66646606,0.00527960
2530.59527344,0.00519693
2532.52408081,0.00520865
2534.45288818,0.00512528
2536.38169556,0.00505735
2538.31050293,0.00527620
2540.23931030,0.00526213
2542.16811768,0.00510047
2544.09692505,0.00513832
2546.02573242,0.00509731
2547.95453979,0.00504183
2549.88334717,0.00512787
2551.81215454,0.00514655
2553.74096191,0.00508926
2555.66976929,0.00505476
2557.59857666,0.00510074
2559.52738403,0.00515625
2561.45619141,0.00517458
2563.38499878,0.00514456
2565.31380615,0.00512449
2567.24261353,0.00518232
2569.17142090,0.00513869
2571.10022827,0.00504914
2573.02903564,0.00502111
2574.95784302,0.00507746
2576.88665039,0.00505118
2578.81545776,0.00492488
2580.74426514,0.00503994
2582.67307251,0.00513542
2584.60187988,0.00508207
2586.53068726,0.00502748
2588.45949463,0.00504457
2590.38830200,0.00512443
2592.31710937,0.00503069
2594.24591675,0.00496660
2596.17472412,0.00498718
2598.10353149,0.00509017
2600.03233887,0.00521331
2601.96114624,0.00508849
2603.88995361,0.00499121
2605.81876099,0.00502558
2607.74756836,0.00500977
2609.67637573,0.00498910
2611.60518311,0.00506681
2613.53399048,0.00497940
2615.46279785,0.00487820
2617.39160522,0.00500040
2619.32041260,0.00489557
2621.24921997,0.00493408
2623.17802734,0.00497100
2625.10683472,0.00476010
2627.03564209,0.00495932
2628.96444946,0.00497218
2630.89325684,0.00486276
2632.82206421,0.00503158
2634.75087158,0.00495011
2636.67967895,0.00498745
2638.60848633,0.00502285
2640.53729370,0.00488252
2642.46610107,0.00495003
2644.39490845,0.00485410
2646.32371582,0.00481082
2648.25252319,0.00501369
2650.18133057,0.00500467
2652.11013794,0.00492259
2654.03894531,0.00489247
2655.96775269,0.00488582
2657.89656006,0.00492850
2659.82536743,0.00490857
2661.75417480,0.00482444
2663.68298218,0.00481703
2665.61178955,0.00486536
2667.54059692,0.00483980
2669.46940430,0.00486223
2671.39821167,0.00487450
2673.32701904,0.00478709
2675.25582642,0.00478078
2677.18463379,0.00483283
2679.11344116,0.00478389
2681.04224854,0.00480524
2682.97105591,0.00492523
2684.89986328,0.00477924
2686.82867065,0.00469889
2688.75747803,0.00485169
2690.68628540,0.00485703
2692.61509277,0.00482982
2694.54390015,0.00487354
2696.47270752,0.00484510
2698.40151489,0.00473529
2700.33032227,0.00478535
2702.25912964,0.00476053
2704.18793701,0.00473270
2706.11674438,0.00486471
2708.04555176,0.00475129
2709.97435913,0.00474656
2711.90316650,0.00473201
2713.83197388,0.00465975
2715.76078125,0.00476163
2717.68958862,0.00474320
2719.61839600,0.00470336
2721.54720337,0.00462064
2723.47601074,0.00472986
2725.40481812,0.00477960
2727.33362549,0.00462255
2729.26243286,0.00463564
2731.19124023,0.00462845
2733.12004761,0.00460981
2735.04885498,0.00450586
2736.97766235,0.00458592
2738.90646973,0.00469633
2740.83527710,0.00461123
2742.76408447,0.00465430
2744.69289185,0.00463523
2746.62169922,0.00458084
2748.55050659,0.00445296
2750.47931396,0.00456162
2752.40812134,0.00472586
2754.33692871,0.00456781
2756.26573608,0.00454631
2758.19454346,0.00457496
2760.12335083,0.00465427
2762.05215820,0.00459845
2763.98096558,0.00452054
2765.90977295,0.00463679
2767.83858032,0.00462013
2769.76738770,0.00463932
2771.69619507,0.00465003
2773.62500244,0.00455643
2775.55380981,0.00442160
2777.48261719,0.00442735
2779.41142456,0.00442969
2781.34023193,0.00441706
2783.26903931,0.00460878
2785.19784668,0.00447937
2787.12665405,0.00441588
2789.05546143,0.00454584
2790.98426880,0.00437370
2792.91307617,0.00435673
2794.84188354,0.00440178
2796.77069092,0.00436319
2798.69949829,0.00448012
2800.62830566,0.00450025
2802.55711304,0.00440880
2804.48592041,0.00441720
2806.41472778,0.00447782
2808.34353516,0.00454926
2810.27234253,0.00447838
2812.20114990,0.00432139
2814.12995728,0.00431773
2816.05876465,0.00433931
2817.98757202,0.00435943
2819.91637939,0.00440606
2821.84518677,0.00439218
2823.77399414,0.00435904
2825.70280151,0.00442764
2827.63160889,0.00441889
2829.56041626,0.00425846
2831.48922363,0.00424751
2833.41803101,0.00427233
2835.34683838,0.00430065
2837.27564575,0.00436930
2839.20445312,0.00433803
2841.13326050,0.00428254
2843.06206787,0.00422761
2844.99087524,0.00421924
2846.91968262,0.00428216
2848.84848999,0.00421947
2850.77729736,0.00407505
2852.70610474,0.00415380
2854.63491211,0.00418686
2856.56371948,0.00424994
2858.49252686,0.00434075
2860.42133423,0.00409353
2862.35014160,0.00412297
2864.27894897,0.00417690
2866.20775635,0.00404347
2868.13656372,0.00411967
2870.06537109,0.00414870
2871.99417847,0.00419702
2873.92298584,0.00418749
2875.85179321,0.00420906
2877.78060059,0.00416871
2879.70940796,0.00405753
2881.63821533,0.00411753
2883.56702270,0.00409385
2885.49583008,0.00410758
2887.42463745,0.00407041
2889.35344482,0.00407675
2891.28225220,0.00412916
2893.21105957,0.00410212
2895.13986694,0.00413765
2897.06867432,0.00401025
2898.99748169,0.00404005
2900.92628906,0.00412271
2902.85509644,0.00403609
2904.78390381,0.00401915
2906.71271118,0.00401591
2908.64151855,0.00406862
2910.57032593,0.00398941
2912.49913330,0.00393415
2914.42794067,0.00396352
2916.35674805,0.00384632
2918.28555542,0.00387054
2920.21436279,0.00396267
2922.14317017,0.00395315
2924.07197754,0.00400432
2926.00078491,0.00398265
2927.92959229,0.00390627
2929.85839966,0.00402980
2931.78720703,0.00407090
2933.71601440,0.00391076
2935.64482178,0.00383597
2937.57362915,0.00382952
2939.50243652,0.00389501
2941.43124390,0.00395172
2943.36005127,0.00382039
2945.28885864,0.00381516
2947.21766602,0.00395150
2949.14647339,0.00384182
2951.07528076,0.00383696
2953.00408813,0.00393651
2954.93289551,0.00387515
2956.86170288,0.00389764
2958.79051025,0.00384583
2960.71931763,0.00382871
2962.64812500,0.00384255
2964.57693237,0.00376966
2966.50573975,0.00385820
2968.43454712,0.00385944
2970.36335449,0.00377294
2972.29216187,0.00380266
2974.22096924,0.00388378
2976.14977661,0.00385230
2978.07858398,0.00377476
2980.00739136,0.00383631
2981.93619873,0.00379614
2983.86500610,0.00376612
2985.79381348,0.00379845
2987.72262085,0.00372720
2989.65142822,0.00376537
2991.58023560,0.00384614
2993.50904297,0.00383512
2995.43785034,0.00374029
2997.36665771,0.00368159
2999.29546509,0.00377043
3001.22427246,0.00379059
3003.15307983,0.00377440
3005.08188721,0.00375667
3007.01069458,0.00369763
3008.93950195,0.00380515
3010.86830933,0.00384854
3012.79711670,0.00372683
3014.72592407,0.00368851
3016.65473145,0.00371349
3018.58353882,0.00371026
3020.51234619,0.00368918
3022.44115356,0.00376187
3024.36996094,0.00377376
3026.29876831,0.00375148
3028.22757568,0.00365333
3030.15638306,0.00353329
3032.08519043,0.00374539
3034.01399780,0.00373661
3035.94280518,0.00365499
3037.87161255,0.00379595
3039.80041992,0.00371492
3041.72922729,0.00370008
3043.65803467,0.00362651
3045.58684204,0.00348051
3047.51564941,0.00359921
3049.44445679,0.00367519
3051.37326416,0.00354877
3053.30207153,0.00352016
3055.23087891,0.00358334
3057.15968628,0.00355763
3059.08849365,0.00365734
3061.01730103,0.00358823
3062.94610840,0.00349739
3064.87491577,0.00360107
3066.80372314,0.00352865
3068.73253052,0.00364200
3070.66133789,0.00364083
3072.59014526,0.00350765
3074.51895264,0.00361844
3076.44776001,0.00352604
3078.37656738,0.00351369
3080.30537476,0.00359624
3082.23418213,0.00350455
3084.16298950,0.00352553
3086.09179687,0.00356325
3088.02060425,0.00351972
3089.94941162,0.00349455
3091.87821899,0.00354869
3093.80702637,0.00360920
3095.73583374,0.00347722
3097.66464111,0.00342734
3099.59344849,0.00356196
3101.52225586,0.00354842
3103.45106323,0.00352930
3105.37987061,0.00356631
3107.30867798,0.00356994
3109.23748535,0.00348579
3111.16629272,0.00341092
3113.09510010,0.00348914
3115.02390747,0.00342984
3116.95271484,0.00343243
3118.88152222,0.00346818
3120.81032959,0.00343921
3122.73913696,0.00354609
3124.66794434,0.00341771
3126.59675171,0.00334187
3128.52555908,0.00343315
3130.45436645,0.00349313
3132.38317383,0.00359340
3134.31198120,0.00347576
3136.24078857,0.00340068
3138.16959595,0.00345315
3140.09840332,0.00345815
3142.02721069,0.00343168
3143.95601807,0.00339192
3145.88482544,0.00345789
3147.81363281,0.00344412
3149.74244019,0.00341330
3151.67124756,0.00344119
3153.60005493,0.00342406
3155.52886230,0.00350639
3157.45766968,0.00352646
3159.38647705,0.00341472
3161.31528442,0.00339653
3163.24409180,0.00340508
3165.17289917,0.00336603
3167.10170654,0.00340069
3169.03051392,0.00347484
3170.95932129,0.00343930
3172.88812866,0.00341168
3174.81693604,0.00347389
3176.74574341,0.00343127
3178.67455078,0.00338272
3180.60335815,0.00341164
3182.53216553,0.00342779
3184.46097290,0.00348350
3186.38978027,0.00342970
3188.31858765,0.00338197
3190.24739502,0.00347556
3192.17620239,0.00346328
3194.10500977,0.00344716
3196.03381714,0.00345888
3197.96262451,0.00339675
3199.89143188,0.00341531
3201.82023926,0.00343974
3203.74904663,0.00344334
3205.67785400,0.00347831
3207.60666138,0.00343120
3209.53546875,0.00349782
3211.46427612,0.00357183
3213.39308350,0.00345922
3215.32189087,0.00343244
3217.25069824,0.00343142
3219.17950562,0.00345179
3221.10831299,0.00349368
3223.03712036,0.00346426
3224.96592773,0.00346979
3226.89473511,0.00348455
3228.82354248,0.00352746
3230.75234985,0.00351903
3232.68115723,0.00349495
3234.60996460,0.00353804
3236.53877197,0.00360088
3238.46757935,0.00366650
3240.39638672,0.00364422
3242.32519409,0.00357271
3244.25400146,0.00351277
3246.18280884,0.00352939
3248.11161621,0.00355190
3250.04042358,0.00358613
3251.96923096,0.00361128
3253.89803833,0.00353013
3255.82684570,0.00350510
3257.75565308,0.00353404
3259.68446045,0.00363525
3261.61326782,0.00364859
3263.54207520,0.00360563
3265.47088257,0.00365359
3267.39968994,0.00365627
3269.32849731,0.00368340
3271.25730469,0.00363438
3273.18611206,0.00364059
3275.11491943,0.00364666
3277.04372681,0.00364797
3278.97253418,0.00377162
3280.90134155,0.00372940
3282.83014893,0.00371518
3284.75895630,0.00366175
3286.68776367,0.00362701
3288.61657104,0.00370795
3290.54537842,0.00368730
3292.47418579,0.00373234
3294.40299316,0.00376110
3296.33180054,0.00376200
3298.26060791,0.00369074
3300.18941528,0.00368248
3302.11822266,0.00381919
3304.04703003,0.00382226
3305.97583740,0.00379458
3307.90464478,0.00375907
3309.83345215,0.00376633
3311.76225952,0.00381345
3313.69106689,0.00377044
3315.61987427,0.00372456
3317.54868164,0.00377389
3319.47748901,0.00380980
3321.40629639,0.00385179
3323.33510376,0.00389664
3325.26391113,0.00377719
3327.19271851,0.00380818
3329.12152588,0.00383638
3331.05033325,0.00378156
3332.97914062,0.00387838
3334.90794800,0.00384756
3336.83675537,0.00380387
3338.76556274,0.00380654
3340.69437012,0.00383485
3342.62317749,0.00386296
3344.55198486,0.00386821
3346.48079224,0.00389891
3348.40959961,0.00389311
3350.33840698,0.00391191
3352.26721436,0.00383459
3354.19602173,0.00394274
3356.12482910,0.00405271
3358.05363647,0.00384329
3359.98244385,0.00387162
3361.91125122,0.00397645
3363.84005859,0.00392505
3365.76886597,0.00397314
3367.69767334,0.00397669
3369.62648071,0.00387693
3371.55528809,0.00397450
3373.48409546,0.00407406
3375.41290283,0.00396082
3377.34171020,0.00393388
3379.27051758,0.00394418
3381.19932495,0.00399766
3383.12813232,0.00409785
3385.05693970,0.00405817
3386.98574707,0.00401901
3388.91455444,0.00405411
3390.84336182,0.00403083
3392.77216919,0.00401243
3394.70097656,0.00407770
3396.62978394,0.00408099
3398.55859131,0.00404571
3400.48739868,0.00407238
3402.41620605,0.00415108
3404.34501343,0.00411486
3406.27382080,0.00407605
3408.20262817,0.00417754
3410.13143555,0.00417316
3412.06024292,0.00415974
3413.98905029,0.00415670
3415.91785767,0.00418836
3417.84666504,0.00422184
3419.77547241,0.00413909
3421.70427979,0.00408847
3423.63308716,0.00411655
3425.56189453,0.00425156
3427.49070190,0.00422180
3429.41950928,0.00416115
3431.34831665,0.00418346
3433.27712402,0.00419957
3435.20593140,0.00424667
3437.13473877,0.00416499
3439.06354614,0.00422066
3440.99235352,0.00414063
3442.92116089,0.00416013
3444.84996826,0.00432710
3446.77877563,0.00407292
3448.70758301,0.00413015
3450.63639038,0.00422468
3452.56519775,0.00409737
3454.49400513,0.00415658
3456.42281250,0.00419483
3458.35161987,0.00424010
3460.28042725,0.00420575
3462.20923462,0.00424504
3464.13804199,0.00427227
3466.06684937,0.00420584
3467.99565674,0.00420118
3469.92446411,0.00418348
3471.85327148,0.00425570
3473.78207886,0.00421526
3475.71088623,0.00417379
3477.63969360,0.00425355
3479.56850098,0.00422476
3481.49730835,0.00419156
3483.42611572,0.00417418
3485.35492310,0.00420985
3487.28373047,0.00421839
3489.21253784,0.00416735
3491.14134521,0.00422924
3493.07015259,0.00427928
3494.99895996,0.00430460
3496.92776733,0.00426194
3498.85657471,0.00420488
3500.78538208,0.00425965
3502.71418945,0.00412246
3504.64299683,0.00409048
3506.57180420,0.00426312
3508.50061157,0.00417231
3510.42941895,0.00412285
3512.35822632,0.00426156
3514.28703369,0.00428233
3516.21584106,0.00415888
3518.14464844,0.00419592
3520.07345581,0.00428003
3522.00226318,0.00413230
3523.93107056,0.00411699
3525.85987793,0.00420256
3527.78868530,0.00414989
3529.71749268,0.00410783
3531.64630005,0.00420222
3533.57510742,0.00423647
3535.50391479,0.00411411
3537.43272217,0.00418654
3539.36152954,0.00426840
3541.29033691,0.00413704
3543.21914429,0.00410808
3545.14795166,0.00410714
3547.07675903,0.00405394
3549.00556641,0.00415837
3550.93437378,0.00410983
3552.86318115,0.00404931
3554.79198853,0.00428020
3556.72079590,0.00422820
3558.64960327,0.00408895
3560.57841064,0.00408164
3562.50721802,0.00407814
3564.43602539,0.00409157
3566.36483276,0.00379363
3568.29364014,0.00372620
3570.22244751,0.00408499
3572.15125488,0.00416568
3574.08006226,0.00410150
3576.00886963,0.00417283
3577.93767700,0.00413310
3579.86648437,0.00405854
3581.79529175,0.00401538
3583.72409912,0.00402520
3585.65290649,0.00398159
3587.58171387,0.00363744
3589.51052124,0.00379326
3591.43932861,0.00409011
3593.36813599,0.00391403
3595.29694336,0.00390803
3597.22575073,0.00385997
3599.15455811,0.00393260
3601.08336548,0.00403030
3603.01217285,0.00398383
3604.94098022,0.00404092
3606.86978760,0.00384117
3608.79859497,0.00361863
3610.72740234,0.00372461
3612.65620972,0.00376345
3614.58501709,0.00369052
3616.51382446,0.00395282
3618.44263184,0.00370407
3620.37143921,0.00350994
3622.30024658,0.00392326
3624.22905395,0.00387876
3626.15786133,0.00399294
3628.08666870,0.00350107
3630.01547607,0.00322647
3631.94428345,0.00393545
3633.87309082,0.00382598
3635.80189819,0.00384447
3637.73070557,0.00400576
3639.65951294,0.00390672
3641.58832031,0.00379082
3643.51712769,0.00379396
3645.44593506,0.00386698
3647.37474243,0.00339016
3649.30354980,0.00316876
3651.23235718,0.00326482
3653.16116455,0.00372583
3655.08997192,0.00363198
3657.01877930,0.00337560
3658.94758667,0.00395915
3660.87639404,0.00377296
3662.80520142,0.00381930
3664.73400879,0.00380507
3666.66281616,0.00365561
3668.59162354,0.00361158
3670.52043091,0.00298023
3672.44923828,0.00355216
3674.37804565,0.00334104
3676.30685303,0.00279987
3678.23566040,0.00354701
3680.16446777,0.00354437
3682.09327515,0.00357020
3684.02208252,0.00359872
3685.95088989,0.00352703
3687.87969727,0.00325441
3689.80850464,0.00298535
3691.73731201,0.00343417
3693.66611938,0.00342356
3695.59492676,0.00349440
3697.52373413,0.00351916
3699.45254150,0.00341599
3701.38134888,0.00338192
3703.31015625,0.00316028
3705.23896362,0.00342618
3707.16777100,0.00336657
3709.09657837,0.00324802
3711.02538574,0.00301827
3712.95419312,0.00291593
3714.88300049,0.00341573
3716.81180786,0.00333082
3718.74061523,0.00344171
3720.66942261,0.00335215
3722.59822998,0.00313260
3724.52703735,0.00326474
3726.45584473,0.00302681
3728.38465210,0.00323763
3730.31345947,0.00320063
3732.24226685,0.00296225
3734.17107422,0.00292195
3736.09988159,0.00272850
3738.02868896,0.00283084
3739.95749634,0.00308087
3741.88630371,0.00321685
3743.81511108,0.00256154
3745.74391846,0.00255321
3747.67272583,0.00316316
3749.60153320,0.00258116
3751.53034058,0.00248622
3753.45914795,0.00286719
3755.38795532,0.00293472
3757.31676270,0.00313217
3759.24557007,0.00299402
3761.17437744,0.00300240
3763.10318481,0.00315774
3765.03199219,0.00300214
3766.96079956,0.00305693
3768.88960693,0.00299098
3770.81841431,0.00280361
3772.74722168,0.00308999
3774.67602905,0.00316849
3776.60483643,0.00307192
3778.53364380,0.00299067
3780.46245117,0.00288130
3782.39125854,0.00306188
3784.32006592,0.00307878
3786.24887329,0.00300606
3788.17768066,0.00299598
3790.10648804,0.00297066
3792.03529541,0.00295635
3793.96410278,0.00304131
3795.89291016,0.00291324
3797.82171753,0.00282327
3799.75052490,0.00293330
3801.67933228,0.00244958
3803.60813965,0.00281545
3805.53694702,0.00303921
3807.46575439,0.00251296
3809.39456177,0.00289944
3811.32336914,0.00288867
3813.25217651,0.00302740
3815.18098389,0.00278718
3817.10979126,0.00249397
3819.03859863,0.00292261
3820.96740601,0.00240050
3822.89621338,0.00265944
3824.82502075,0.00290652
3826.75382812,0.00259361
3828.68263550,0.00285616
3830.61144287,0.00271350
3832.54025024,0.00269570
3834.46905762,0.00271959
3836.39786499,0.00261629
3838.32667236,0.00242274
3840.25547974,0.00251281
3842.18428711,0.00274118
3844.11309448,0.00263258
3846.04190186,0.00283122
3847.97070923,0.00283320
3849.89951660,0.00286392
3851.82832397,0.00258947
3853.75713135,0.00196569
3855.68593872,0.00230831
3857.61474609,0.00277310
3859.54355347,0.00267147
3861.47236084,0.00270131
3863.40116821,0.00266031
3865.32997559,0.00243176
3867.25878296,0.00271546
3869.18759033,0.00253305
3871.11639770,0.00229526
3873.04520508,0.00275420
3874.97401245,0.00257995
3876.90281982,0.00264458
3878.83162720,0.00269004
3880.76043457,0.00234205
3882.68924194,0.00260761
3884.61804932,0.00251563
3886.54685669,0.00234246
3888.47566406,0.00265211
3890.40447144,0.00256272
3892.33327881,0.00237584
3894.26208618,0.00264506
3896.19089355,0.00268664
3898.11970093,0.00245895
3900.04850830,0.00239576
3901.97731567,0.00243149
3903.90612305,0.00241538
3905.83493042,0.00240592
3907.76373779,0.00266999
3909.69254517,0.00263104
3911.62135254,0.00257733
3913.55015991,0.00272114
3915.47896728,0.00253171
3917.40777466,0.00247782
3919.33658203,0.00244283
3921.26538940,0.00246001
3923.19419678,0.00249610
3925.12300415,0.00240566
3927.05181152,0.00242566
3928.98061890,0.00248727
3930.90942627,0.00250006
3932.83823364,0.00237862
3934.76704102,0.00253461
3936.69584839,0.00252852
3938.62465576,0.00240814
3940.55346313,0.00258217
3942.48227051,0.00244069
3944.41107788,0.00242110
3946.33988525,0.00250674
3948.26869263,0.00242824
3950.19750000,0.00242473
3952.12630737,0.00242730
3954.05511475,0.00245353
3955.98392212,0.00241330
3957.91272949,0.00242227
3959.84153687,0.00245750
3961.77034424,0.00240427
3963.69915161,0.00241077
3965.62795898,0.00248088
3967.55676636,0.00243686
3969.48557373,0.00242969
3971.41438110,0.00243526
3973.34318848,0.00239048
3975.27199585,0.00248683
3977.20080322,0.00235210
3979.12961060,0.00232706
3981.05841797,0.00249829
3982.98722534,0.00238466
3984.91603271,0.00233066
3986.84484009,0.00234477
3988.77364746,0.00237613
3990.70245483,0.00230988
3992.63126221,0.00223616
3994.56006958,0.00232950
3996.48887695,0.00232098
3998.41768433,0.00237532
4000.34649170,0.00241460
4002.27529907,0.00233129
4004.20410645,0.00232891
4006.13291382,0.00235147
4008.06172119,0.00232656
4009.99052856,0.00230483
4011.91933594,0.00235155
4013.84814331,0.00234376
4015.77695068,0.00229981
4017.70575806,0.00231826
4019.63456543,0.00225854
4021.56337280,0.00225685
4023.49218018,0.00231877
4025.42098755,0.00229478
4027.34979492,0.00235888
4029.27860229,0.00230159
4031.20740967,0.00224073
4033.13621704,0.00226901
4035.06502441,0.00221918
4036.99383179,0.00229379
4038.92263916,0.00217613
4040.85144653,0.00220931
4042.78025391,0.00229991
4044.70906128,0.00216260
4046.63786865,0.00229038
4048.56667603,0.00216334
4050.49548340,0.00220221
4052.42429077,0.00233566
4054.35309814,0.00214619
4056.28190552,0.00227305
4058.21071289,0.00220860
4060.13952026,0.00212544
4062.06832764,0.00216808
4063.99713501,0.00211002
4065.92594238,0.00217132
4067.85474976,0.00212484
4069.78355713,0.00217925
4071.71236450,0.00221411
4073.64117187,0.00213228
4075.56997925,0.00215926
4077.49878662,0.00213692
4079.42759399,0.00204984
4081.35640137,0.00209163
4083.28520874,0.00220099
4085.21401611,0.00213369
4087.14282349,0.00213711
4089.07163086,0.00219523
4091.00043823,0.00216732
4092.92924561,0.00210131
4094.85805298,0.00202874
4096.78686035,0.00211214
4098.71566772,0.00210432
4100.64447510,0.00210561
4102.57328247,0.00214487
4104.50208984,0.00204356
4106.43089722,0.00209902
4108.35970459,0.00210645
4110.28851196,0.00201249
4112.21731934,0.00205469
4114.14612671,0.00206522
4116.07493408,0.00207893
4118.00374145,0.00205310
4119.93254883,0.00197590
4121.86135620,0.00207105
4123.79016357,0.00202488
4125.71897095,0.00189645
4127.64777832,0.00198113
4129.57658569,0.00203281
4131.50539307,0.00209704
4133.43420044,0.00201782
4135.36300781,0.00194113
4137.29181519,0.00202447
4139.22062256,0.00192857
4141.14942993,0.00197726
4143.07823730,0.00203072
4145.00704468,0.00193946
4146.93585205,0.00191771
4148.86465942,0.00185784
4150.79346680,0.00192699
4152.72227417,0.00199134
4154.65108154,0.00194663
4156.57988892,0.00195623
4158.50869629,0.00200381
4160.43750366,0.00195351
4162.36631103,0.00186530
4164.29511841,0.00186861
4166.22392578,0.00188174
4168.15273315,0.00196559
4170.08154053,0.00191449
4172.01034790,0.00184395
4173.93915527,0.00188136
4175.86796265,0.00187014
4177.79677002,0.00196428
4179.72557739,0.00192200
4181.65438477,0.00189844
4183.58319214,0.00193302
4185.51199951,0.00188692
4187.44080688,0.00194838
4189.36961426,0.00186952
4191.29842163,0.00180686
4193.22722900,0.00183058
4195.15603638,0.00182225
4197.08484375,0.00180674
4199.01365112,0.00182179
4200.94245850,0.00187932
4202.87126587,0.00180978
4204.80007324,0.00181039
4206.72888062,0.00181497
4208.65768799,0.00183302
4210.58649536,0.00189482
4212.51530273,0.00182995
4214.44411011,0.00179036
4216.37291748,0.00182289
4218.30172485,0.00188557
4220.23053223,0.00175511
4222.15933960,0.00175933
4224.08814697,0.00186590
4226.01695435,0.00172451
4227.94576172,0.00170601
4229.87456909,0.00173983
4231.80337646,0.00180904
4233.73218384,0.00180452
4235.66099121,0.00177266
4237.58979858,0.00178599
4239.51860596,0.00172949
4241.44741333,0.00181225
4243.37622070,0.00179296
4245.30502808,0.00178713
4247.23383545,0.00176274
4249.16264282,0.00173186
4251.09145020,0.00182579
4253.02025757,0.00173258
4254.94906494,0.00168944
4256.87787231,0.00171483
4258.80667969,0.00170721
4260.73548706,0.00163943
4262.66429443,0.00171600
4264.59310181,0.00178499
4266.52190918,0.00164274
4268.45071655,0.00166374
4270.37952393,0.00161295
4272.30833130,0.00173388
4274.23713867,0.00177525
4276.16594604,0.00160687
4278.09475342,0.00170445
4280.02356079,0.00168358
4281.95236816,0.00171993
4283.88117554,0.00170018
4285.80998291,0.00166121
4287.73879028,0.00169387
4289.66759766,0.00164376
4291.59640503,0.00169715
4293.52521240,0.00163993
4295.45401978,0.00167653
4297.38282715,0.00162916
4299.31163452,0.00163017
4301.24044189,0.00170702
4303.16924927,0.00157044
4305.09805664,0.00166923
4307.02686401,0.00163253
4308.95567139,0.00161888
4310.88447876,0.00169452
4312.81328613,0.00159427
4314.74209351,0.00162818
4316.67090088,0.00162597
4318.59970825,0.00167524
4320.52851562,0.00165466
4322.45732300,0.00158896
4324.38613037,0.00161664
4326.31493774,0.00160849
4328.24374512,0.00163041
4330.17255249,0.00157289
4332.10135986,0.00157928
4334.03016724,0.00161610
4335.95897461,0.00161648
4337.88778198,0.00160416
4339.81658936,0.00155972
4341.74539673,0.00158186
4343.67420410,0.00155301
4345.60301147,0.00154681
4347.53181885,0.00157166
4349.46062622,0.00157807
4351.38943359,0.00157491
4353.31824097,0.00154880
4355.24704834,0.00156749
4357.17585571,0.00160516
4359.10466309,0.00159242
4361.03347046,0.00148691
4362.96227783,0.00150530
4364.89108520,0.00154756
4366.81989258,0.00149794
4368.74869995,0.00150869
4370.67750732,0.00148415
4372.60631470,0.00149252
4374.53512207,0.00144091
4376.46392944,0.00145144
4378.39273682,0.00157987
4380.32154419,0.00153109
4382.25035156,0.00152455
4384.17915894,0.00149698
4386.10796631,0.00142997
4388.03677368,0.00145997
4389.96558105,0.00145583
4391.89438843,0.00151014
4393.82319580,0.00153306
4395.75200317,0.00147871
4397.68081055,0.00146385
4399.60961792,0.00149722
4401.53842529,0.00149748
4403.46723267,0.00149657
4405.39604004,0.00151721
4407.32484741,0.00144755
4409.25365478,0.00149336
4411.18246216,0.00147201
4413.11126953,0.00135868
4415.04007690,0.00144479
4416.96888428,0.00146788
4418.89769165,0.00143866
4420.82649902,0.00135843
4422.75530640,0.00134422
4424.68411377,0.00141500
4426.61292114,0.00134974
4428.54172852,0.00140624
4430.47053589,0.00142945
4432.39934326,0.00143265
4434.32815063,0.00150564
4436.25695801,0.00142250
4438.18576538,0.00137375
4440.11457275,0.00138156
4442.04338013,0.00143026
4443.97218750,0.00148536
4445.90099487,0.00146724
4447.82980225,0.00138566
4449.75860962,0.00129058
4451.68741699,0.00134382
4453.61622437,0.00138866
4455.54503174,0.00137332
4457.47383911,0.00137682
4459.40264648,0.00137580
4461.33145386,0.00140237
4463.26026123,0.00132485
4465.18906860,0.00128030
4467.11787598,0.00139460
4469.04668335,0.00138777
4470.97549072,0.00133975
4472.90429810,0.00135153
4474.83310547,0.00133735
4476.76191284,0.00138490
4478.69072021,0.00136129
4480.61952759,0.00133970
4482.54833496,0.00135145
4484.47714233,0.00128771
4486.40594971,0.00134377
4488.33475708,0.00130750
4490.26356445,0.00124653
4492.19237183,0.00131944
4494.12117920,0.00127541
4496.04998657,0.00127516
4497.97879395,0.00128025
4499.90760132,0.00124697
4501.83640869,0.00131134
4503.76521606,0.00131226
4505.69402344,0.00132671
4507.62283081,0.00137182
4509.55163818,0.00130579
4511.48044556,0.00129082
4513.40925293,0.00128474
4515.33806030,0.00123425
4517.26686768,0.00122431
4519.19567505,0.00119624
4521.12448242,0.00127935
4523.05328979,0.00127426
4524.98209717,0.00119471
4526.91090454,0.00128987
4528.83971191,0.00124556
4530.76851929,0.00122259
4532.69732666,0.00126669
4534.62613403,0.00121776
4536.55494141,0.00125893
4538.48374878,0.00123006
4540.41255615,0.00119859
4542.34136353,0.00128483
4544.27017090,0.00127739
4546.19897827,0.00118843
4548.12778564,0.00115758
4550.05659302,0.00118515
4551.98540039,0.00122590
4553.91420776,0.00121163
4555.84301514,0.00121272
4557.77182251,0.00126866
4559.70062988,0.00121251
4561.62943726,0.00119965
4563.55824463,0.00123966
4565.48705200,0.00116865
4567.41585937,0.00112135
4569.34466675,0.00113454
4571.27347412,0.00113156
4573.20228149,0.00115109
4575.13108887,0.00119093
4577.05989624,0.00110508
4578.98870361,0.00112573
4580.91751099,0.00122904
4582.84631836,0.00118871
4584.77512573,0.00115379
4586.70393311,0.00111964
4588.63274048,0.00115247
4590.56154785,0.00115578
4592.49035522,0.00119218
4594.41916260,0.00119531
4596.34796997,0.00112304
4598.27677734,0.00122377
4600.20558472,0.00116099
4602.13439209,0.00114239
4604.06319946,0.00117878
4605.99200684,0.00112812
4607.92081421,0.00116078
4609.84962158,0.00108544
4611.77842895,0.00111076
4613.70723633,0.00110766
4615.63604370,0.00112489
4617.56485107,0.00114685
4619.49365845,0.00108895
4621.42246582,0.00113002
4623.35127319,0.00100869
4625.28008057,0.00109573
4627.20888794,0.00115030
4629.13769531,0.00106064
4631.06650269,0.00113504
4632.99531006,0.00102252
4634.92411743,0.00107172
4636.85292480,0.00112639
4638.78173218,0.00105480
4640.71053955,0.00107044
4642.63934692,0.00105281
4644.56815430,0.00110291
4646.49696167,0.00109042
4648.42576904,0.00112502
4650.35457642,0.00109566
4652.28338379,0.00104237
4654.21219116,0.00111546
4656.14099853,0.00101786
4658.06980591,0.00100971
4659.99861328,0.00108356
4661.92742065,0.00108991
4663.85622803,0.00107401
4665.78503540,0.00103301
4667.71384277,0.00107149
4669.64265015,0.00103814
4671.57145752,0.00099584
4673.50026489,0.00099157
4675.42907227,0.00105568
4677.35787964,0.00113458
4679.28668701,0.00103626
4681.21549438,0.00104557
4683.14430176,0.00105486
4685.07310913,0.00098047
4687.00191650,0.00105691
4688.93072388,0.00107647
4690.85953125,0.00099881
4692.78833862,0.00096138
4694.71714600,0.00100369
4696.64595337,0.00100476
4698.57476074,0.00097462
4700.50356812,0.00104826
4702.43237549,0.00105404
4704.36118286,0.00099620
4706.28999023,0.00098001
4708.21879761,0.00098808
4710.14760498,0.00100509
4712.07641235,0.00099568
4714.00521973,0.00098291
4715.93402710,0.00099408
4717.86283447,0.00098067
4719.79164185,0.00094930
4721.72044922,0.00098844
4723.64925659,0.00096957
4725.57806396,0.00093139
4727.50687134,0.00097472
4729.43567871,0.00097751
4731.36448608,0.00095960
4733.29329346,0.00092105
4735.22210083,0.00094160
4737.15090820,0.00098886
4739.07971558,0.00097578
4741.00852295,0.00097049
4742.93733032,0.00096962
4744.86613770,0.00094504
4746.79494507,0.00090059
4748.72375244,0.00095923
4750.65255981,0.00095686
4752.58136719,0.00091575
4754.51017456,0.00096268
4756.43898193,0.00091584
4758.36778931,0.00091377
4760.29659668,0.00090941
4762.22540405,0.00089567
4764.15421143,0.00090136
4766.08301880,0.00085259
4768.01182617,0.00088877
4769.94063354,0.00092616
4771.86944092,0.00098061
4773.79824829,0.00098255
4775.72705566,0.00091006
4777.65586304,0.00092214
4779.58467041,0.00095082
4781.51347778,0.00095459
4783.44228516,0.00092714
4785.37109253,0.00092376
4787.29989990,0.00087750
4789.22870728,0.00083772
4791.15751465,0.00091783
4793.08632202,0.00090312
4795.01512939,0.00084239
4796.94393677,0.00088022
4798.87274414,0.00084768
4800.80155151,0.00084035
4802.73035889,0.00093780
4804.65916626,0.00082973
4806.58797363,0.00075033
4808.51678101,0.00090665
4810.44558838,0.00090330
4812.37439575,0.00081697
4814.30320312,0.00088533
4816.23201050,0.00085669
4818.16081787,0.00074086
4820.08962524,0.00083801
4822.01843262,0.00089451
4823.94723999,0.00085609
4825.87604736,0.00087332
4827.80485474,0.00083333
4829.73366211,0.00084911
4831.66246948,0.00083068
4833.59127686,0.00084067
4835.52008423,0.00087818
4837.44889160,0.00078232
4839.37769897,0.00081026
4841.30650635,0.00090404
4843.23531372,0.00085411
4845.16412109,0.00079205
4847.09292847,0.00087035
4849.02173584,0.00087885
4850.95054321,0.00082167
4852.87935059,0.00084901
4854.80815796,0.00083850
4856.73696533,0.00084301
4858.66577270,0.00082695
4860.59458008,0.00083053
4862.52338745,0.00079762
4864.45219482,0.00073171
4866.38100220,0.00076043
4868.30980957,0.00074705
4870.23861694,0.00079506
4872.16742432,0.00082992
4874.09623169,0.00079194
4876.02503906,0.00076844
4877.95384644,0.00074908
4879.88265381,0.00074964
4881.81146118,0.00075320
4883.74026855,0.00078974
4885.66907593,0.00073973
4887.59788330,0.00073470
4889.52669067,0.00076962
4891.45549805,0.00074800
4893.38430542,0.00077194
4895.31311279,0.00069933
4897.24192017,0.00067034
4899.17072754,0.00072435
4901.09953491,0.00072303
4903.02834228,0.00073052
4904.95714966,0.00075626
4906.88595703,0.00074754
4908.81476440,0.00074340
4910.74357178,0.00081472
4912.67237915,0.00079714
4914.60118652,0.00069385
4916.52999390,0.00073001
4918.45880127,0.00080791
4920.38760864,0.00068549
4922.31641602,0.00069216
4924.24522339,0.00080581
4926.17403076,0.00072288
4928.10283813,0.00076824
4930.03164551,0.00072948
4931.96045288,0.00067074
4933.88926025,0.00073970
4935.81806763,0.00067429
4937.74687500,0.00070394
4939.67568237,0.00071997
4941.60448975,0.00072962
4943.53329712,0.00074929
4945.46210449,0.00072310
4947.39091187,0.00071340
4949.31971924,0.00067185
4951.24852661,0.00075358
4953.17733398,0.00076406
4955.10614136,0.00071394
4957.03494873,0.00072474
4958.96375610,0.00074631
4960.89256348,0.00074959
4962.82137085,0.00067225
4964.75017822,0.00065752
4966.67898560,0.00065208
4968.60779297,0.00066849
4970.53660034,0.00066735
4972.46540771,0.00072221
4974.39421509,0.00077262
4976.32302246,0.00064420
4978.25182983,0.00067965
4980.18063721,0.00067842
4982.10944458,0.00060756
4984.03825195,0.00068452
4985.96705933,0.00069831
4987.89586670,0.00066433
4989.82467407,0.00065291
4991.75348145,0.00069847
4993.68228882,0.00072319
4995.61109619,0.00072443
4997.53990356,0.00066788
4999.46871094,0.00060418
5001.39751831,0.00065531
5003.32632568,0.00062948
5005.25513306,0.00058798
5007.18394043,0.00063833
5009.11274780,0.00066879
5011.04155518,0.00064132
5012.97036255,0.00064862
5014.89916992,0.00062498
5016.82797729,0.00060452
5018.75678467,0.00068835
5020.68559204,0.00064086
5022.61439941,0.00058271
5024.54320679,0.00062187
5026.47201416,0.00065617
5028.40082153,0.00061203
5030.32962891,0.00054260
5032.25843628,0.00062846
5034.18724365,0.00064460
5036.11605103,0.00062176
5038.04485840,0.00059134
5039.97366577,0.00055524
5041.90247314,0.00067871
5043.83128052,0.00069516
5045.76008789,0.00063703
5047.68889526,0.00064850
5049.61770264,0.00066580
5051.54651001,0.00065223
5053.47531738,0.00060724
5055.40412476,0.00060746
5057.33293213,0.00061975
5059.26173950,0.00064528
5061.19054687,0.00066122
5063.11935425,0.00064531
5065.04816162,0.00058598
5066.97696899,0.00056891
5068.90577637,0.00062255
5070.83458374,0.00058919
5072.76339111,0.00056942
5074.69219849,0.00057300
5076.62100586,0.00057260
5078.54981323,0.00063534
5080.47862061,0.00064097
5082.40742798,0.00062708
5084.33623535,0.00064966
5086.26504272,0.00063002
5088.19385010,0.00062218
5090.12265747,0.00062993
5092.05146484,0.00062430
5093.98027222,0.00062816
5095.90907959,0.00059846
5097.83788696,0.00062846
5099.76669434,0.00064563
5101.69550171,0.00059132
5103.62430908,0.00057469
5105.55311645,0.00053392
5107.48192383,0.00059581
5109.41073120,0.00059436
5111.33953857,0.00052352
5113.26834595,0.00060688
5115.19715332,0.00056300
5117.12596069,0.00055890
5119.05476807,0.00062171
5120.98357544,0.00060488
5122.91238281,0.00063324
5124.84119019,0.00055984
5126.76999756,0.00056552
5128.69880493,0.00065146
5130.62761230,0.00058340
5132.55641968,0.00051633
5134.48522705,0.00052829
5136.41403442,0.00055244
5138.34284180,0.00053013
5140.27164917,0.00052052
5142.20045654,0.00051334
5144.12926392,0.00044401
5146.05807129,0.00044248
5147.98687866,0.00051535
5149.91568603,0.00053256
5151.84449341,0.00053289
5153.77330078,0.00054983
5155.70210815,0.00052928
5157.63091553,0.00046948
5159.55972290,0.00046222
5161.48853027,0.00056543
5163.41733765,0.00056077
5165.34614502,0.00050567
5167.27495239,0.00054811
5169.20375977,0.00048899
5171.13256714,0.00050564
5173.06137451,0.00054953
5174.99018188,0.00049637
5176.91898926,0.00058424
5178.84779663,0.00055446
5180.77660400,0.00050883
5182.70541138,0.00059914
5184.63421875,0.00051319
5186.56302612,0.00046698
5188.49183350,0.00051394
5190.42064087,0.00054839
5192.34944824,0.00057831
5194.27825562,0.00052286
5196.20706299,0.00050535
5198.13587036,0.00049760
5200.06467773,0.00049681
5201.99348511,0.00053333
5203.92229248,0.00056028
5205.85109985,0.00049900
5207.77990723,0.00042567
5209.70871460,0.00053842
5211.63752197,0.00055514
5213.56632935,0.00052787
5215.49513672,0.00051932
5217.42394409,0.00044281
5219.35275146,0.00052731
5221.28155884,0.00055239
5223.21036621,0.00051942
5225.13917358,0.00047891
5227.06798096,0.00046897
5228.99678833,0.00050557
5230.92559570,0.00043201
5232.85440308,0.00052330
5234.78321045,0.00051363
5236.71201782,0.00043459
5238.64082520,0.00050120
5240.56963257,0.00040800
5242.49843994,0.00044271
5244.42724731,0.00051867
5246.35605469,0.00047292
5248.28486206,0.00050987
5250.21366943,0.00052298
5252.14247681,0.00051024
5254.07128418,0.00047884
5256.00009155,0.00046160
5257.92889893,0.00049925
5259.85770630,0.00049467
5261.78651367,0.00046529
5263.71532104,0.00042888
5265.64412842,0.00038455
5267.57293579,0.00041303
5269.50174316,0.00046158
5271.43055054,0.00047808
5273.35935791,0.00044905
5275.28816528,0.00042850
5277.21697266,0.00045511
5279.14578003,0.00039471
5281.07458740,0.00040619
5283.00339478,0.00045146
5284.93220215,0.00044008
5286.86100952,0.00051889
5288.78981689,0.00051028
5290.71862427,0.00042013
5292.64743164,0.00038691
5294.57623901,0.00042664
5296.50504639,0.00042666
5298.43385376,0.00042134
5300.36266113,0.00041576
5302.29146851,0.00036337
5304.22027588,0.00046064
5306.14908325,0.00044722
5308.07789062,0.00040734
5310.00669800,0.00042278
5311.93550537,0.00038742
5313.86431274,0.00047132
5315.79312012,0.00038135
5317.72192749,0.00033646
5319.65073486,0.00043459
5321.57954224,0.00044423
5323.50834961,0.00044852
5325.43715698,0.00042125
5327.36596436,0.00043016
5329.29477173,0.00042094
5331.22357910,0.00044514
5333.15238647,0.00041613
5335.08119385,0.00040804
5337.01000122,0.00047415
5338.93880859,0.00041375
5340.86761597,0.00041692
5342.79642334,0.00039064
5344.72523071,0.00038046
5346.65403809,0.00041563
5348.58284546,0.00041859
5350.51165283,0.00043733
5352.44046020,0.00039211
5354.36926758,0.00037877
5356.29807495,0.00032565
5358.22688232,0.00039272
5360.15568970,0.00047266
5362.08449707,0.00037170
5364.01330444,0.00034982
5365.94211182,0.00038686
5367.87091919,0.00043715
5369.79972656,0.00038076
5371.72853394,0.00035310
5373.65734131,0.00042478
5375.58614868,0.00040500
5377.51495605,0.00034209
5379.44376343,0.00033718
5381.37257080,0.00039138
5383.30137817,0.00037716
5385.23018555,0.00045814
5387.15899292,0.00043993
5389.08780029,0.00032463
5391.01660767,0.00042303
5392.94541504,0.00037627
5394.87422241,0.00032327
5396.80302978,0.00039445
5398.73183716,0.00036280
5400.66064453,0.00033832
5402.58945190,0.00037616
5404.51825928,0.00039410
5406.44706665,0.00037173
5408.37587402,0.00036021
5410.30468140,0.00034920
5412.23348877,0.00039362
5414.16229614,0.00036693
5416.09110352,0.00034917
5418.01991089,0.00040276
5419.94871826,0.00037307
5421.87752563,0.00042154
5423.80633301,0.00039135
5425.73514038,0.00032977
5427.66394775,0.00030906
5429.59275513,0.00031349
5431.52156250,0.00041269
5433.45036987,0.00032961
5435.37917725,0.00032023
5437.30798462,0.00036821
5439.23679199,0.00034907
5441.16559936,0.00039119
5443.09440674,0.00032503
5445.02321411,0.00035151
5446.95202148,0.00035117
5448.88082886,0.00030994
5450.80963623,0.00038437
5452.73844360,0.00038166
5454.66725098,0.00037637
5456.59605835,0.00031372
5458.52486572,0.00028234
5460.45367310,0.00037214
5462.38248047,0.00038071
5464.31128784,0.00030430
5466.24009521,0.00030062
5468.16890259,0.00033917
5470.09770996,0.00030779
5472.02651733,0.00035876
5473.95532471,0.00035689
5475.88413208,0.00030398
5477.81293945,0.00032068
5479.74174683,0.00027455
5481.67055420,0.00028225
5483.59936157,0.00029637
5485.52816895,0.00036853
5487.45697632,0.00038464
5489.38578369,0.00029263
5491.31459106,0.00037151
5493.24339844,0.00034547
5495.17220581,0.00030030
5497.10101318,0.00035853
5499.02982056,0.00032862
5500.95862793,0.00034938
5502.88743530,0.00037525
5504.81624268,0.00032451
5506.74505005,0.00024060
5508.67385742,0.00027681
5510.60266479,0.00035276
5512.53147217,0.00028654
5514.46027954,0.00028702
5516.38908691,0.00033039
5518.31789429,0.00029356
5520.24670166,0.00031357
5522.17550903,0.00033968
5524.10431641,0.00027303
5526.03312378,0.00030265
5527.96193115,0.00036993
5529.89073853,0.00029751
5531.81954590,0.00025991
5533.74835327,0.00030952
5535.67716064,0.00031855
5537.60596802,0.00027459
5539.53477539,0.00025716
5541.46358276,0.00026732
5543.39239014,0.00027356
5545.32119751,0.00025829
5547.25000488,0.00028525
5549.17881226,0.00030197
5551.10761963,0.00024691
5553.03642700,0.00028622
5554.96523437,0.00026926
5556.89404175,0.00028079
5558.82284912,0.00033304
5560.75165649,0.00024413
5562.68046387,0.00028059
5564.60927124,0.00029173
5566.53807861,0.00025993
5568.46688599,0.00027336
5570.39569336,0.00031861
5572.32450073,0.00036173
5574.25330811,0.00023652
5576.18211548,0.00028839
5578.11092285,0.00033902
5580.03973022,0.00026446
5581.96853760,0.00029381
5583.89734497,0.00025025
5585.82615234,0.00020901
5587.75495972,0.00020567
5589.68376709,0.00025083
5591.61257446,0.00026402
5593.54138184,0.00025539
5595.47018921,0.00028230
5597.39899658,0.00031607
5599.32780395,0.00035107
5601.25661133,0.00022952
5603.18541870,0.00022839
5605.11422607,0.00025963
5607.04303345,0.00022783
5608.97184082,0.00035219
5610.90064819,0.00029711
5612.82945557,0.00020324
5614.75826294,0.00029001
5616.68707031,0.00030334
5618.61587769,0.00027069
5620.54468506,0.00029346
5622.47349243,0.00027158
5624.40229980,0.00026747
5626.33110718,0.00027691
5628.25991455,0.00024184
5630.18872192,0.00025781
5632.11752930,0.00022063
5634.04633667,0.00024485
5635.97514404,0.00028297
5637.90395142,0.00026298
5639.83275879,0.00031569
5641.76156616,0.00028955
5643.69037353,0.00028162
5645.61918091,0.00024237
5647.54798828,0.00022987
5649.47679565,0.00031410
5651.40560303,0.00026672
5653.33441040,0.00027062
5655.26321777,0.00028366
5657.19202515,0.00022114
5659.12083252,0.00024076
5661.04963989,0.00026055
5662.97844727,0.00026068
5664.90725464,0.00030004
5666.83606201,0.00029348
5668.76486938,0.00022988
5670.69367676,0.00021006
5672.62248413,0.00025046
5674.55129150,0.00024531
5676.48009888,0.00021706
5678.40890625,0.00028858
5680.33771362,0.00026094
5682.26652100,0.00023422
5684.19532837,0.00027630
5686.12413574,0.00020076
5688.05294311,0.00022781
5689.98175049,0.00024950
5691.91055786,0.00026084
5693.83936523,0.00028716
5695.76817261,0.00023470
5697.69697998,0.00021806
5699.62578735,0.00014136
5701.55459473,0.00019883
5703.48340210,0.00024131
5705.41220947,0.00017440
5707.34101685,0.00022308
5709.26982422,0.00019943
5711.19863159,0.00019954
5713.12743896,0.00021618
5715.05624634,0.00020610
5716.98505371,0.00021139
5718.91386108,0.00017491
5720.84266846,0.00020492
5722.77147583,0.00027650
5724.70028320,0.00026701
5726.62909058,0.00018552
5728.55789795,0.00022778
5730.48670532,0.00030551
5732.41551270,0.00030739
5734.34432007,0.00026359
5736.27312744,0.00018082
5738.20193481,0.00022036
5740.13074219,0.00023782
5742.05954956,0.00022661
5743.98835693,0.00027697
5745.91716431,0.00021607
5747.84597168,0.00014516
5749.77477905,0.00020183
5751.70358643,0.00021546
5753.63239380,0.00017228
5755.56120117,0.00020846
5757.49000854,0.00017738
5759.41881592,0.00017598
5761.34762329,0.00020686
5763.27643066,0.00018173
5765.20523804,0.00027938
5767.13404541,0.00027186
5769.06285278,0.00020457
5770.99166016,0.00022923
5772.92046753,0.00020911
5774.84927490,0.00019422
5776.77808228,0.00018492
5778.70688965,0.00021260
5780.63569702,0.00022560
5782.56450439,0.00021021
5784.49331177,0.00019683
5786.42211914,0.00018145
5788.35092651,0.00023858
5790.27973389,0.00022958
5792.20854126,0.00019240
5794.13734863,0.00022860
5796.06615601,0.00021674
5797.99496338,0.00020972
5799.92377075,0.00021622
5801.85257812,0.00022081
5803.78138550,0.00024528
5805.71019287,0.00017297
5807.63900024,0.00015752
5809.56780762,0.00021023
5811.49661499,0.00019793
5813.42542236,0.00025263
5815.35422974,0.00021838
5817.28303711,0.00017733
5819.21184448,0.00020391
5821.14065186,0.00010005
5823.06945923,0.00010045
5824.99826660,0.00020969
5826.92707397,0.00026699
5828.85588135,0.00023550
5830.78468872,0.00018054
5832.71349609,0.00017372
5834.64230347,0.00016283
5836.57111084,0.00022106
5838.49991821,0.00023069
5840.42872559,0.00022424
5842.35753296,0.00022429
5844.28634033,0.00016950
5846.21514770,0.00018360
5848.14395508,0.00018470
5850.07276245,0.00021151
5852.00156982,0.00018130
5853.93037720,0.00015624
5855.85918457,0.00020682
5857.78799194,0.00015317
5859.71679932,0.00017258
5861.64560669,0.00018691
5863.57441406,0.00019166
5865.50322144,0.00017639
5867.43202881,0.00012584
5869.36083618,0.00020901
5871.28964355,0.00017884
5873.21845093,0.00017540
5875.14725830,0.00018148
5877.07606567,0.00014387
5879.00487305,0.00021485
5880.93368042,0.00015118
5882.86248779,0.00016688
5884.79129517,0.00020886
5886.72010254,0.00013964
5888.64890991,0.00015251
5890.57771728,0.00013611
5892.50652466,0.00013889
5894.43533203,0.00018415
5896.36413940,0.00020179
5898.29294678,0.00018527
5900.22175415,0.00021133
5902.15056152,0.00022800
5904.07936890,0.00013999
5906.00817627,0.00011608
5907.93698364,0.00012551
5909.86579102,0.00018636
5911.79459839,0.00028681
5913.72340576,0.00023627
5915.65221313,0.00015992
5917.58102051,0.00014261
5919.50982788,0.00013918
5921.43863525,0.00020911
5923.36744263,0.00023714
5925.29625000,0.00017177
5927.22505737,0.00018420
5929.15386475,0.00022011
5931.08267212,0.00021299
5933.01147949,0.00016425
5934.94028686,0.00015657
5936.86909424,0.00022958
5938.79790161,0.00018470
5940.72670898,0.00015601
5942.65551636,0.00018001
5944.58432373,0.00015182
5946.51313110,0.00014576
5948.44193848,0.00014212
5950.37074585,0.00015095
5952.29955322,0.00009076
5954.22836060,0.00010973
5956.15716797,0.00022442
5958.08597534,0.00020047
5960.01478271,0.00016796
5961.94359009,0.00015967
5963.87239746,0.00013139
5965.80120483,0.00014554
5967.73001221,0.00017921
5969.65881958,0.00014460
5971.58762695,0.00012259
5973.51643433,0.00014351
5975.44524170,0.00013178
5977.37404907,0.00014429
5979.30285645,0.00013244
5981.23166382,0.00014628
5983.16047119,0.00016068
5985.08927856,0.00014729
5987.01808594,0.00015617
5988.94689331,0.00012377
5990.87570068,0.00013157
5992.80450806,0.00014325
5994.73331543,0.00015329
5996.66212280,0.00015795
5998.59093018,0.00013851
6000.51973755,0.00018661
