399.26312622,0.00003035
401.19193359,0.00033747
403.12074097,0.00026595
405.04954834,0.00014686
406.97835571,0.00015757
408.90716309,0.00002903
410.83597046,-0.00006571
412.76477783,0.00024371
414.69358521,0.00049490
416.62239258,0.00023974
418.55119995,0.00007942
420.48000732,0.00001967
422.40881470,0.00023985
424.33762207,0.00026450
426.26642944,0.00018588
428.19523682,0.00040190
430.12404419,0.00005537
432.05285156,0.00000094
433.98165894,0.00023205
435.91046631,0.00024681
437.83927368,0.00035607
439.76808105,0.00027742
441.69688843,0.00031337
443.62569580,0.00017722
445.55450317,-0.00004858
447.48331055,0.00016061
449.41211792,0.00043123
451.34092529,0.00029612
453.26973267,0.00004098
455.19854004,0.00024333
457.12734741,0.00017425
459.05615479,0.00007322
460.98496216,0.00035809
462.91376953,0.00005439
464.84257690,0.00007780
466.77138428,0.00058045
468.70019165,0.00023415
470.62899902,0.00014046
472.55780640,0.00021496
474.48661377,-0.00009605
476.41542114,0.00018624
478.34422852,0.00023316
480.27303589,0.00016337
482.20184326,0.00023273
484.13065063,0.00012058
486.05945801,0.00012225
487.98826538,0.00000595
489.91707275,0.00003419
491.84588013,-0.00011347
493.77468750,0.00009753
495.70349487,0.00039075
497.63230225,0.00012188
499.56110962,0.00029438
501.48991699,0.00039778
503.41872437,0.00030429
505.34753174,0.00014158
507.27633911,0.00007625
509.20514648,0.00025142
511.13395386,0.00025805
513.06276123,0.00024440
514.99156860,-0.00000426
516.92037598,0.00014348
518.84918335,0.00032872
520.77799072,0.00013006
522.70679810,0.00011793
524.63560547,0.00000101
526.56441284,0.00018364
528.49322021,0.00020394
530.42202759,-0.00003412
532.35083496,0.00004345
534.27964233,0.00012132
536.20844971,0.00028567
538.13725708,0.00023101
540.06606445,-0.00004860
541.99487183,0.00005438
543.92367920,0.00027464
545.85248657,0.00018441
547.78129395,0.00020477
549.71010132,0.00024182
551.63890869,0.00018269
553.56771606,0.00028859
555.49652344,0.00026372
557.42533081,0.00012718
559.35413818,0.00020966
561.28294556,0.00026299
563.21175293,0.00007467
565.14056030,0.00015340
567.06936768,0.00025686
568.99817505,0.00017074
570.92698242,0.00020835
572.85578979,0.00003897
574.78459717,-0.00005204
576.71340454,0.00029742
578.64221191,0.00044399
580.57101929,0.00023621
582.49982666,0.00017450
584.42863403,0.00031938
586.35744141,0.00039786
588.28624878,0.00013627
590.21505615,0.00015297
592.14386353,0.00016961
594.07267090,-0.00000090
596.00147827,0.00035681
597.93028564,0.00011018
599.85909302,0.00002711
601.78790039,0.00041227
603.71670776,0.00021431
605.64551514,0.00022810
607.57432251,0.00011976
609.50312988,0.00020444
611.43193726,0.00032014
613.36074463,0.00011251
615.28955200,0.00000691
617.21835938,-0.00002334
619.14716675,0.00028209
621.07597412,0.00009509
623.00478149,0.00006112
624.93358887,0.00027244
626.86239624,0.00012970
628.79120361,0.00013473
630.72001099,0.00005866
632.64881836,0.00024862
634.57762573,0.00018662
636.50643311,0.00005850
638.43524048,0.00015898
640.36404785,0.00004182
642.29285522,0.00016918
644.22166260,0.00018766
646.15046997,0.00001705
648.07927734,0.00001560
650.00808472,0.00009040
651.93689209,0.00006307
653.86569946,0.00025136
655.79450684,0.00018939
657.72331421,0.00011276
659.65212158,0.00029011
661.58092896,-0.00002808
663.50973633,0.00012686
665.43854370,0.00010168
667.36735107,-0.00003810
669.29615845,0.00044506
671.22496582,0.00027907
673.15377319,0.00033637
675.08258057,0.00018068
677.01138794,-0.00004462
678.94019531,0.00019257
680.86900269,0.00001279
682.79781006,0.00020934
684.72661743,0.00014353
686.65542480,0.00004487
688.58423218,0.00022283
690.51303955,0.00019413
692.44184692,0.00007415
694.37065430,0.00011500
696.29946167,0.00042434
698.22826904,0.00029678
700.15707642,0.00035235
702.08588379,0.00022032
704.01469116,-0.00004067
705.94349854,0.00031448
707.87230591,0.00019110
709.80111328,0.00012912
711.72992065,0.00003325
713.65872803,-0.00010516
715.58753540,0.00000151
717.51634277,-0.00002574
719.44515015,0.00004311
721.37395752,0.00002720
723.30276489,0.00018210
725.23157227,0.00009188
727.16037964,0.00014513
729.08918701,0.00023833
731.01799438,0.00025003
732.94680176,0.00006774
734.87560913,0.00018034
736.80441650,0.00028817
738.73322388,0.00029759
740.66203125,0.00034729
742.59083862,0.00002159
744.51964600,0.00020365
746.44845337,0.00004234
748.37726074,-0.00009152
750.30606812,0.00028779
752.23487549,0.00010529
754.16368286,0.00016620
756.09249023,0.00020532
758.02129761,0.00021475
759.95010498,0.00025583
761.87891235,0.00010720
763.80771973,0.00024169
765.73652710,0.00009780
767.66533447,-0.00005447
769.59414185,0.00014816
771.52294922,0.00015489
773.45175659,0.00010032
775.38056396,0.00027664
777.30937134,0.00023765
779.23817871,0.00012762
781.16698608,0.00026327
783.09579346,0.00019762
785.02460083,0.00012091
786.95340820,0.00023197
788.88221558,0.00032601
790.81102295,0.00018486
792.73983032,0.00007933
794.66863770,0.00024059
796.59744507,0.00012256
798.52625244,0.00003388
800.45505981,0.00019035
802.38386719,0.00029445
804.31267456,0.00023949
806.24148193,-0.00002270
808.17028931,0.00019322
810.09909668,0.00038586
812.02790405,0.00012323
813.95671143,0.00023896
815.88551880,0.00027112
817.81432617,0.00021713
819.74313354,0.00025861
821.67194092,0.00008402
823.60074829,0.00022720
825.52955566,0.00008705
827.45836304,-0.00015376
829.38717041,0.00008748
831.31597778,0.00002406
833.24478516,0.00017469
835.17359253,0.00035325
837.10239990,0.00015991
839.03120728,0.00010119
840.96001465,0.00018845
842.88882202,0.00036046
844.81762939,0.00015680
846.74643677,0.00021733
848.67524414,0.00039762
850.60405151,0.00021760
852.53285889,0.00024255
854.46166626,0.00008686
856.39047363,0.00015355
858.31928101,0.00025949
860.24808838,0.00024780
862.17689575,0.00028130
864.10570313,0.00005889
866.03451050,0.00022254
867.96331787,0.00016223
869.89212524,0.00010103
871.82093262,0.00021159
873.74973999,0.00009608
875.67854736,0.00043195
877.60735474,0.00029715
879.53616211,0.00009205
881.46496948,0.00034752
883.39377686,0.00023401
885.32258423,0.00027958
887.25139160,0.00034862
889.18019897,0.00023826
891.10900635,0.00020911
893.03781372,0.00008543
894.96662109,0.00003849
896.89542847,0.00027749
898.82423584,0.00030715
900.75304321,0.00015833
902.68185059,0.00028420
904.61065796,0.00019291
906.53946533,0.00016908
908.46827271,0.00018316
910.39708008,0.00000472
912.32588745,0.00022239
914.25469482,0.00036917
916.18350220,0.00015282
918.11230957,0.00011380
920.04111694,0.00040712
921.96992432,0.00036204
923.89873169,0.00031916
925.82753906,0.00044193
927.75634644,0.00026713
929.68515381,0.00031739
931.61396118,0.00013902
933.54276855,0.00013535
935.47157593,0.00025689
937.40038330,0.00013747
939.32919067,0.00038162
941.25799805,0.00016677
943.18680542,0.00017709
945.11561279,0.00038230
947.04442017,0.00023149
948.97322754,0.00034428
950.90203491,0.00025503
952.83084229,0.00032333
954.75964966,0.00045021
956.68845703,0.00039644
958.61726440,0.00028878
960.54607178,0.00013341
962.47487915,0.00026561
964.40368652,0.00029070
966.33249390,0.00025360
968.26130127,0.00028387
970.19010864,0.00030862
972.11891602,0.00031993
974.04772339,0.00035927
975.97653076,0.00046387
977.90533813,0.00023523
979.83414551,0.00016062
981.76295288,0.00039260
983.69176025,0.00030450
985.62056763,0.00023679
987.54937500,0.00031147
989.47818237,0.00026661
991.40698975,0.00034025
993.33579712,0.00038115
995.26460449,0.00029318
997.19341187,0.00035302
999.12221924,0.00044176
1001.05102661,0.00048112
1002.97983398,0.00037871
1004.90864136,0.00030199
1006.83744873,0.00053109
1008.76625610,0.00047700
1010.69506348,0.00029510
1012.62387085,0.00052321
1014.55267822,0.00059297
1016.48148560,0.00049331
1018.41029297,0.00048045
1020.33910034,0.00042000
1022.26790771,0.00044164
1024.19671509,0.00056060
1026.12552246,0.00053925
1028.05432983,0.00052757
1029.98313721,0.00063888
1031.91194458,0.00051205
1033.84075195,0.00058389
1035.76955933,0.00074099
1037.69836670,0.00051750
1039.62717407,0.00062343
1041.55598145,0.00068897
1043.48478882,0.00053192
1045.41359619,0.00068389
1047.34240356,0.00068034
1049.27121094,0.00055263
1051.20001831,0.00057805
1053.12882568,0.00071550
1055.05763306,0.00068006
1056.98644043,0.00050261
1058.91524780,0.00064721
1060.84405518,0.00058541
1062.77286255,0.00047694
1064.70166992,0.00062338
1066.63047729,0.00060502
1068.55928467,0.00075856
1070.48809204,0.00065385
1072.41689941,0.00046646
1074.34570679,0.00062514
1076.27451416,0.00057856
1078.20332153,0.00064071
1080.13212891,0.00065190
1082.06093628,0.00063617
1083.98974365,0.00075267
1085.91855103,0.00056844
1087.84735840,0.00052776
1089.77616577,0.00056142
1091.70497314,0.00045298
1093.63378052,0.00060210
1095.56258789,0.00055089
1097.49139526,0.00044072
1099.42020264,0.00064663
1101.34901001,0.00047650
1103.27781738,0.00047648
1105.20662476,0.00069664
1107.13543213,0.00056688
1109.06423950,0.00055821
1110.99304687,0.00048577
1112.92185425,0.00049931
1114.85066162,0.00067564
1116.77946899,0.00074895
1118.70827637,0.00051853
1120.63708374,0.00043385
1122.56589111,0.00080460
1124.49469849,0.00062389
1126.42350586,0.00053066
1128.35231323,0.00065208
1130.28112061,0.00053455
1132.20992798,0.00056951
1134.13873535,0.00052288
1136.06754272,0.00066197
1137.99635010,0.00068147
1139.92515747,0.00067726
1141.85396484,0.00067934
1143.78277222,0.00048987
1145.71157959,0.00062755
1147.64038696,0.00064785
1149.56919434,0.00060492
1151.49800171,0.00063599
1153.42680908,0.00077536
1155.35561646,0.00080373
1157.28442383,0.00058826
1159.21323120,0.00084135
1161.14203857,0.00080849
1163.07084595,0.00063906
1164.99965332,0.00086673
1166.92846069,0.00075336
1168.85726807,0.00074032
1170.78607544,0.00088120
1172.71488281,0.00083343
1174.64369019,0.00088089
1176.57249756,0.00095433
1178.50130493,0.00093632
1180.43011230,0.00094582
1182.35891968,0.00093663
1184.28772705,0.00085220
1186.21653442,0.00086764
1188.14534180,0.00097605
1190.07414917,0.00112766
1192.00295654,0.00115189
1193.93176392,0.00112352
1195.86057129,0.00125610
1197.78937866,0.00129879
1199.71818604,0.00123109
1201.64699341,0.00130394
1203.57580078,0.00146548
1205.50460815,0.00144047
1207.43341553,0.00150866
1209.36222290,0.00158313
1211.29103027,0.00134531
1213.21983765,0.00145455
1215.14864502,0.00177257
1217.07745239,0.00164409
1219.00625977,0.00151979
1220.93506714,0.00168029
1222.86387451,0.00169171
1224.79268188,0.00168294
1226.72148926,0.00168815
1228.65029663,0.00164479
1230.57910400,0.00186584
1232.50791138,0.00186376
1234.43671875,0.00172217
1236.36552612,0.00183892
1238.29433350,0.00184573
1240.22314087,0.00182176
1242.15194824,0.00181862
1244.08075562,0.00179077
1246.00956299,0.00180997
1247.93837036,0.00174152
1249.86717773,0.00174610
1251.79598511,0.00185594
1253.72479248,0.00174287
1255.65359985,0.00172009
1257.58240723,0.00175608
1259.51121460,0.00163314
1261.44002197,0.00169870
1263.36882935,0.00163837
1265.29763672,0.00156841
1267.22644409,0.00167007
1269.15525146,0.00166878
1271.08405884,0.00173944
1273.01286621,0.00167852
1274.94167358,0.00146083
1276.87048096,0.00150453
1278.79928833,0.00160831
1280.72809570,0.00147503
1282.65690308,0.00149132
1284.58571045,0.00152631
1286.51451782,0.00147009
1288.44332520,0.00161292
1290.37213257,0.00160500
1292.30093994,0.00152108
1294.22974731,0.00151473
1296.15855469,0.00146546
1298.08736206,0.00138821
1300.01616943,0.00150665
1301.94497681,0.00166299
1303.87378418,0.00150541
1305.80259155,0.00145918
1307.73139893,0.00147845
1309.66020630,0.00159131
1311.58901367,0.00164876
1313.51782104,0.00152204
1315.44662842,0.00166967
1317.37543579,0.00167460
1319.30424316,0.00171962
1321.23305054,0.00185000
1323.16185791,0.00173726
1325.09066528,0.00177506
1327.01947266,0.00182553
1328.94828003,0.00179864
1330.87708740,0.00188755
1332.80589478,0.00211494
1334.73470215,0.00214872
1336.66350952,0.00193048
1338.59231689,0.00192061
1340.52112427,0.00206595
1342.44993164,0.00205449
1344.37873901,0.00204201
1346.30754639,0.00222825
1348.23635376,0.00227350
1350.16516113,0.00212252
1352.09396851,0.00205318
1354.02277588,0.00215450
1355.95158325,0.00216275
1357.88039062,0.00204404
1359.80919800,0.00215393
1361.73800537,0.00212811
1363.66681274,0.00201624
1365.59562012,0.00207338
1367.52442749,0.00212164
1369.45323486,0.00219350
1371.38204224,0.00210559
1373.31084961,0.00199725
1375.23965698,0.00196309
1377.16846436,0.00198651
1379.09727173,0.00211086
1381.02607910,0.00213758
1382.95488647,0.00212330
1384.88369385,0.00203833
1386.81250122,0.00196723
1388.74130859,0.00204416
1390.67011597,0.00217970
1392.59892334,0.00217239
1394.52773071,0.00204095
1396.45653809,0.00217137
1398.38534546,0.00221934
1400.31415283,0.00219384
1402.24296021,0.00225367
1404.17176758,0.00211431
1406.10057495,0.00232189
1408.02938232,0.00239178
1409.95818970,0.00225723
1411.88699707,0.00240015
1413.81580444,0.00217387
1415.74461182,0.00221988
1417.67341919,0.00223502
1419.60222656,0.00191006
1421.53103394,0.00206658
1423.45984131,0.00211530
1425.38864868,0.00206992
1427.31745605,0.00202748
1429.24626343,0.00191465
1431.17507080,0.00196271
1433.10387817,0.00204961
1435.03268555,0.00184360
1436.96149292,0.00154759
1438.89030029,0.00187709
1440.81910767,0.00195574
1442.74791504,0.00175387
1444.67672241,0.00178175
1446.60552979,0.00166620
1448.53433716,0.00182078
1450.46314453,0.00186534
1452.39195190,0.00175973
1454.32075928,0.00172551
1456.24956665,0.00157755
1458.17837402,0.00177864
1460.10718140,0.00207773
1462.03598877,0.00213112
1463.96479614,0.00217221
1465.89360352,0.00216534
1467.82241089,0.00227568
1469.75121826,0.00252913
1471.68002563,0.00237194
1473.60883301,0.00240777
1475.53764038,0.00272081
1477.46644775,0.00275598
1479.39525513,0.00309194
1481.32406250,0.00317637
1483.25286987,0.00324261
1485.18167725,0.00355495
1487.11048462,0.00334265
1489.03929199,0.00322135
1490.96809937,0.00331493
1492.89690674,0.00366923
1494.82571411,0.00363303
1496.75452148,0.00332038
1498.68332886,0.00375335
1500.61213623,0.00382225
1502.54094360,0.00412898
1504.46975098,0.00403650
1506.39855835,0.00300059
1508.32736572,0.00357396
1510.25617310,0.00405243
1512.18498047,0.00404091
1514.11378784,0.00429908
1516.04259521,0.00375027
1517.97140259,0.00412566
1519.90020996,0.00400609
1521.82901733,0.00356479
1523.75782471,0.00417653
1525.68663208,0.00387829
1527.61543945,0.00398194
1529.54424683,0.00439279
1531.47305420,0.00433060
1533.40186157,0.00405142
1535.33066895,0.00420354
1537.25947632,0.00441838
1539.18828369,0.00320012
1541.11709106,0.00348374
1543.04589844,0.00405607
1544.97470581,0.00402397
1546.90351318,0.00465851
1548.83232056,0.00422943
1550.76112793,0.00455502
1552.68993530,0.00443117
1554.61874268,0.00417666
1556.54755005,0.00444879
1558.47635742,0.00314018
1560.40516479,0.00362182
1562.33397217,0.00475688
1564.26277954,0.00443295
1566.19158691,0.00463156
1568.12039429,0.00454185
1570.04920166,0.00420927
1571.97800903,0.00471473
1573.90681641,0.00463693
1575.83562378,0.00403639
1577.76443115,0.00443908
1579.69323853,0.00449842
1581.62204590,0.00457710
1583.55085327,0.00487913
1585.47966064,0.00462106
1587.40846802,0.00483357
1589.33727539,0.00476613
1591.26608276,0.00464098
1593.19489014,0.00469435
1595.12369751,0.00467441
1597.05250488,0.00486166
1598.98131226,0.00476428
1600.91011963,0.00473458
1602.83892700,0.00478671
1604.76773437,0.00479429
1606.69654175,0.00484240
1608.62534912,0.00491921
1610.55415649,0.00480522
1612.48296387,0.00508899
1614.41177124,0.00513995
1616.34057861,0.00425534
1618.26938599,0.00469073
1620.19819336,0.00517317
1622.12700073,0.00480610
1624.05580811,0.00505727
1625.98461548,0.00514887
1627.91342285,0.00514108
1629.84223022,0.00524816
1631.77103760,0.00546044
1633.69984497,0.00510372
1635.62865234,0.00450773
1637.55745972,0.00497041
1639.48626709,0.00547581
1641.41507446,0.00551609
1643.34388184,0.00556273
1645.27268921,0.00504494
1647.20149658,0.00453456
1649.13030396,0.00562648
1651.05911133,0.00533304
1652.98791870,0.00369476
1654.91672607,0.00490786
1656.84553345,0.00593686
1658.77434082,0.00571556
1660.70314819,0.00587723
1662.63195557,0.00539032
1664.56076294,0.00562981
1666.48957031,0.00598900
1668.41837769,0.00529695
1670.34718506,0.00531971
1672.27599243,0.00597787
1674.20479980,0.00552720
1676.13360718,0.00524823
1678.06241455,0.00589348
1679.99122192,0.00581572
1681.92002930,0.00554142
1683.84883667,0.00471281
1685.77764404,0.00483485
1687.70645142,0.00604866
1689.63525879,0.00535537
1691.56406616,0.00577987
1693.49287354,0.00595476
1695.42168091,0.00467242
1697.35048828,0.00540412
1699.27929565,0.00476742
1701.20810303,0.00441921
1703.13691040,0.00586519
1705.06571777,0.00539521
1706.99452515,0.00540686
1708.92333252,0.00569812
1710.85213989,0.00533780
1712.78094727,0.00560358
1714.70975464,0.00532508
1716.63856201,0.00481603
1718.56736938,0.00477936
1720.49617676,0.00537770
1722.42498413,0.00556403
1724.35379150,0.00535675
1726.28259888,0.00564653
1728.21140625,0.00532423
1730.14021362,0.00539031
1732.06902100,0.00511078
1733.99782837,0.00413684
1735.92663574,0.00487150
1737.85544312,0.00534600
1739.78425049,0.00503211
1741.71305786,0.00522587
1743.64186523,0.00533785
1745.57067261,0.00538727
1747.49947998,0.00524997
1749.42828735,0.00509769
1751.35709473,0.00489742
1753.28590210,0.00543621
1755.21470947,0.00570356
1757.14351685,0.00517823
1759.07232422,0.00570203
1761.00113159,0.00527990
1762.92993896,0.00511830
1764.85874634,0.00588052
1766.78755371,0.00529018
1768.71636108,0.00538180
1770.64516846,0.00523520
1772.57397583,0.00485339
1774.50278320,0.00545480
1776.43159058,0.00547341
1778.36039795,0.00540532
1780.28920532,0.00538971
1782.21801270,0.00548742
1784.14682007,0.00553523
1786.07562744,0.00546400
1788.00443481,0.00576240
1789.93324219,0.00549415
1791.86204956,0.00506093
1793.79085693,0.00537017
1795.71966431,0.00567020
1797.64847168,0.00556030
1799.57727905,0.00542708
1801.50608643,0.00532849
1803.43489380,0.00554764
1805.36370117,0.00558612
1807.29250854,0.00538379
1809.22131592,0.00552127
1811.15012329,0.00550958
1813.07893066,0.00562014
1815.00773804,0.00559373
1816.93654541,0.00556585
1818.86535278,0.00567720
1820.79416016,0.00569234
1822.72296753,0.00579247
1824.65177490,0.00550075
1826.58058228,0.00559773
1828.50938965,0.00539616
1830.43819702,0.00524997
1832.36700439,0.00568381
1834.29581177,0.00551374
1836.22461914,0.00571584
1838.15342651,0.00555040
1840.08223389,0.00556975
1842.01104126,0.00567136
1843.93984863,0.00502772
1845.86865601,0.00542644
1847.79746338,0.00559474
1849.72627075,0.00547854
1851.65507812,0.00565790
1853.58388550,0.00571140
1855.51269287,0.00575269
1857.44150024,0.00553804
1859.37030762,0.00574053
1861.29911499,0.00563280
1863.22792236,0.00553663
1865.15672974,0.00573113
1867.08553711,0.00542000
1869.01434448,0.00536775
1870.94315186,0.00553981
1872.87195923,0.00568095
1874.80076660,0.00563528
1876.72957397,0.00551212
1878.65838135,0.00559951
1880.58718872,0.00567195
1882.51599609,0.00561375
1884.44480347,0.00565299
1886.37361084,0.00572033
1888.30241821,0.00540373
1890.23122559,0.00543161
1892.16003296,0.00561481
1894.08884033,0.00553101
1896.01764771,0.00554703
1897.94645508,0.00540291
1899.87526245,0.00549930
1901.80406982,0.00559373
1903.73287720,0.00550003
1905.66168457,0.00562762
1907.59049194,0.00560170
1909.51929932,0.00554388
1911.44810669,0.00551362
1913.37691406,0.00553442
1915.30572144,0.00558599
1917.23452881,0.00529961
1919.16333618,0.00532290
1921.09214355,0.00554714
1923.02095093,0.00542145
1924.94975830,0.00557425
1926.87856567,0.00559584
1928.80737305,0.00554841
1930.73618042,0.00573925
1932.66498779,0.00554420
1934.59379517,0.00559674
1936.52260254,0.00569493
1938.45140991,0.00552966
1940.38021729,0.00553526
1942.30902466,0.00548556
1944.23783203,0.00554804
1946.16663940,0.00558966
1948.09544678,0.00562569
1950.02425415,0.00557151
1951.95306152,0.00545004
1953.88186890,0.00562727
1955.81067627,0.00562474
1957.73948364,0.00554087
1959.66829102,0.00558954
1961.59709839,0.00568818
1963.52590576,0.00570954
1965.45471313,0.00550544
1967.38352051,0.00545101
1969.31232788,0.00559326
1971.24113525,0.00566092
1973.16994263,0.00548874
1975.09875000,0.00545522
1977.02755737,0.00556209
1978.95636475,0.00551651
1980.88517212,0.00565476
1982.81397949,0.00561521
1984.74278687,0.00540053
1986.67159424,0.00549156
1988.60040161,0.00550755
1990.52920898,0.00541472
1992.45801636,0.00553449
1994.38682373,0.00548361
1996.31563110,0.00525406
1998.24443848,0.00547199
2000.17324585,0.00560202
2002.10205322,0.00547977
2004.03086060,0.00555690
2005.95966797,0.00545350
2007.88847534,0.00549078
2009.81728271,0.00558458
2011.74609009,0.00544406
2013.67489746,0.00556790
2015.60370483,0.00556879
2017.53251221,0.00536055
2019.46131958,0.00533775
2021.39012695,0.00542528
2023.31893433,0.00560570
2025.24774170,0.00561271
2027.17654907,0.00540058
2029.10535645,0.00535247
2031.03416382,0.00540972
2032.96297119,0.00545439
2034.89177856,0.00552002
2036.82058594,0.00549312
2038.74939331,0.00547881
2040.67820068,0.00541059
2042.60700806,0.00527946
2044.53581543,0.00536234
2046.46462280,0.00547484
2048.39343018,0.00542426
2050.32223755,0.00539418
2052.25104492,0.00545690
2054.17985229,0.00534715
2056.10865967,0.00526425
2058.03746704,0.00532772
2059.96627441,0.00531899
2061.89508179,0.00542806
2063.82388916,0.00538190
2065.75269653,0.00531641
2067.68150391,0.00535731
2069.61031128,0.00533845
2071.53911865,0.00546620
2073.46792603,0.00538418
2075.39673340,0.00533098
2077.32554077,0.00535693
2079.25434814,0.00534532
2081.18315552,0.00543179
2083.11196289,0.00535851
2085.04077026,0.00542211
2086.96957764,0.00538576
2088.89838501,0.00526548
2090.82719238,0.00524443
2092.75599976,0.00523214
2094.68480713,0.00541451
2096.61361450,0.00536079
2098.54242187,0.00520952
2100.47122925,0.00519824
2102.40003662,0.00528763
2104.32884399,0.00530631
2106.25765137,0.00524304
2108.18645874,0.00533642
2110.11526611,0.00524034
2112.04407349,0.00527130
2113.97288086,0.00527493
2115.90168823,0.00509420
2117.83049561,0.00522107
2119.75930298,0.00524564
2121.68811035,0.00513988
2123.61691772,0.00519820
2125.54572510,0.00533661
2127.47453247,0.00529619
2129.40333984,0.00518771
2131.33214722,0.00521200
2133.26095459,0.00526755
2135.18976196,0.00527656
2137.11856934,0.00526476
2139.04737671,0.00535763
2140.97618408,0.00516538
2142.90499146,0.00510442
2144.83379883,0.00529172
2146.76260620,0.00514389
2148.69141357,0.00523432
2150.62022095,0.00540212
2152.54902832,0.00533013
2154.47783569,0.00528033
2156.40664307,0.00526314
2158.33545044,0.00519293
2160.26425781,0.00517789
2162.19306519,0.00529680
2164.12187256,0.00519246
2166.05067993,0.00517384
2167.97948730,0.00524973
2169.90829468,0.00524168
2171.83710205,0.00524394
2173.76590942,0.00519022
2175.69471680,0.00528584
2177.62352417,0.00525991
2179.55233154,0.00521668
2181.48113892,0.00526944
2183.40994629,0.00531803
2185.33875366,0.00527048
2187.26756104,0.00511405
2189.19636841,0.00519197
2191.12517578,0.00517375
2193.05398315,0.00530440
2194.98279053,0.00525715
2196.91159790,0.00499238
2198.84040527,0.00526495
2200.76921265,0.00519448
2202.69802002,0.00513450
2204.62682739,0.00533143
2206.55563477,0.00522856
2208.48444214,0.00520967
2210.41324951,0.00517867
2212.34205688,0.00517828
2214.27086426,0.00510370
2216.19967163,0.00511014
2218.12847900,0.00519213
2220.05728638,0.00504593
2221.98609375,0.00509020
2223.91490112,0.00513999
2225.84370850,0.00512457
2227.77251587,0.00517161
2229.70132324,0.00512849
2231.63013062,0.00509499
2233.55893799,0.00513234
2235.48774536,0.00515301
2237.41655273,0.00507976
2239.34536011,0.00510878
2241.27416748,0.00512087
2243.20297485,0.00508384
2245.13178223,0.00510647
2247.06058960,0.00506389
2248.98939697,0.00512859
2250.91820435,0.00511971
2252.84701172,0.00500121
2254.77581909,0.00505398
2256.70462646,0.00514510
2258.63343384,0.00514230
2260.56224121,0.00504828
2262.49104858,0.00505611
2264.41985596,0.00505394
2266.34866333,0.00500067
2268.27747070,0.00515171
2270.20627808,0.00510647
2272.13508545,0.00496312
2274.06389282,0.00509998
2275.99270020,0.00512312
2277.92150757,0.00508700
2279.85031494,0.00505985
2281.77912231,0.00494596
2283.70792969,0.00501115
2285.63673706,0.00503224
2287.56554443,0.00493654
2289.49435181,0.00498326
2291.42315918,0.00494018
2293.35196655,0.00487718
2295.28077393,0.00501376
2297.20958130,0.00507470
2299.13838867,0.00508096
2301.06719604,0.00507737
2302.99600342,0.00501406
2304.92481079,0.00501466
2306.85361816,0.00491362
2308.78242554,0.00489539
2310.71123291,0.00491783
2312.64004028,0.00472066
2314.56884766,0.00475562
2316.49765503,0.00480615
2318.42646240,0.00461807
2320.35526978,0.00459721
2322.28407715,0.00460377
2324.21288452,0.00449743
2326.14169189,0.00446481
2328.07049927,0.00447654
2329.99930664,0.00442420
2331.92811401,0.00436619
2333.85692139,0.00434739
2335.78572876,0.00433618
2337.71453613,0.00433276
2339.64334351,0.00434582
2341.57215088,0.00439740
2343.50095825,0.00445947
2345.42976562,0.00449504
2347.35857300,0.00462452
2349.28738037,0.00475747
2351.21618774,0.00461778
2353.14499512,0.00443956
2355.07380249,0.00433807
2357.00260986,0.00424409
2358.93141724,0.00420989
2360.86022461,0.00413446
2362.78903198,0.00414426
2364.71783936,0.00408114
2366.64664673,0.00403240
2368.57545410,0.00418871
2370.50426147,0.00427446
2372.43306885,0.00446773
2374.36187622,0.00459558
2376.29068359,0.00461458
2378.21949097,0.00471590
2380.14829834,0.00471913
2382.07710571,0.00474062
2384.00591309,0.00478170
2385.93472046,0.00489247
2387.86352783,0.00489516
2389.79233521,0.00479891
2391.72114258,0.00489265
2393.64994995,0.00491295
2395.57875732,0.00490238
2397.50756470,0.00485523
2399.43637207,0.00475035
2401.36517944,0.00476412
2403.29398682,0.00482553
2405.22279419,0.00488375
2407.15160156,0.00482099
2409.08040894,0.00481750
2411.00921631,0.00484970
2412.93802368,0.00477888
2414.86683105,0.00486563
2416.79563843,0.00485512
2418.72444580,0.00480136
2420.65325317,0.00490123
2422.58206055,0.00484325
2424.51086792,0.00490504
2426.43967529,0.00491429
2428.36848267,0.00474838
2430.29729004,0.00486453
2432.22609741,0.00484402
2434.15490479,0.00480727
2436.08371216,0.00491258
2438.01251953,0.00475092
2439.94132690,0.00464626
2441.87013428,0.00472344
2443.79894165,0.00474394
2445.72774902,0.00462917
2447.65655640,0.00472468
2449.58536377,0.00487796
2451.51417114,0.00468612
2453.44297852,0.00471895
2455.37178589,0.00480505
2457.30059326,0.00471213
2459.22940063,0.00473099
2461.15820801,0.00461757
2463.08701538,0.00467416
2465.01582275,0.00486073
2466.94463013,0.00478941
2468.87343750,0.00473945
2470.80224487,0.00463627
2472.73105225,0.00466342
2474.65985962,0.00478551
2476.58866699,0.00459733
2478.51747437,0.00463951
2480.44628174,0.00473258
2482.37508911,0.00462177
2484.30389648,0.00466883
2486.23270386,0.00463408
2488.16151123,0.00466403
2490.09031860,0.00470237
2492.01912598,0.00464961
2493.94793335,0.00472174
2495.87674072,0.00470489
2497.80554810,0.00463046
2499.73435547,0.00456657
2501.66316284,0.00460390
2503.59197021,0.00471496
2505.52077759,0.00463842
2507.44958496,0.00456818
2509.37839233,0.00471459
2511.30719971,0.00470158
2513.23600708,0.00448254
2515.16481445,0.00453661
2517.09362183,0.00466535
2519.02242920,0.00459043
2520.95123657,0.00456705
2522.88004395,0.00469197
2524.80885132,0.00462340
2526.73765869,0.00447168
2528.66646606,0.00452752
2530.59527344,0.00459904
2532.52408081,0.00468711
2534.45288818,0.00455744
2536.38169556,0.00455735
2538.31050293,0.00469242
2540.23931030,0.00456047
2542.16811768,0.00463011
2544.09692505,0.00455444
2546.02573242,0.00463014
2547.95453979,0.00478787
2549.88334717,0.00457161
2551.81215454,0.00461491
2553.74096191,0.00452584
2555.66976929,0.00450006
2557.59857666,0.00457105
2559.52738403,0.00445019
2561.45619141,0.00453830
2563.38499878,0.00449689
2565.31380615,0.00444395
2567.24261353,0.00447461
2569.17142090,0.00449573
2571.10022827,0.00449489
2573.02903564,0.00438064
2574.95784302,0.00444165
2576.88665039,0.00449152
2578.81545776,0.00449563
2580.74426514,0.00456697
2582.67307251,0.00447731
2584.60187988,0.00450268
2586.53068726,0.00458018
2588.45949463,0.00443197
2590.38830200,0.00449388
2592.31710937,0.00453641
2594.24591675,0.00445608
2596.17472412,0.00452355
2598.10353149,0.00445390
2600.03233887,0.00449638
2601.96114624,0.00445699
2603.88995361,0.00433493
2605.81876099,0.00449507
2607.74756836,0.00451994
2609.67637573,0.00444936
2611.60518311,0.00440732
2613.53399048,0.00440946
2615.46279785,0.00442670
2617.39160522,0.00442973
2619.32041260,0.00443672
2621.24921997,0.00437976
2623.17802734,0.00436643
2625.10683472,0.00436543
2627.03564209,0.00439522
2628.96444946,0.00439289
2630.89325684,0.00441014
2632.82206421,0.00439000
2634.75087158,0.00440104
2636.67967895,0.00447978
2638.60848633,0.00438260
2640.53729370,0.00440605
2642.46610107,0.00438295
2644.39490845,0.00444054
2646.32371582,0.00447196
2648.25252319,0.00424994
2650.18133057,0.00434052
2652.11013794,0.00437277
2654.03894531,0.00438852
2655.96775269,0.00439241
2657.89656006,0.00429164
2659.82536743,0.00432037
2661.75417480,0.00424427
2663.68298218,0.00428455
2665.61178955,0.00424639
2667.54059692,0.00424347
2669.46940430,0.00434917
2671.39821167,0.00429432
2673.32701904,0.00431399
2675.25582642,0.00427262
2677.18463379,0.00423852
2679.11344116,0.00416387
2681.04224854,0.00415358
2682.97105591,0.00424814
2684.89986328,0.00418105
2686.82867065,0.00421334
2688.75747803,0.00421828
2690.68628540,0.00422978
2692.61509277,0.00434483
2694.54390015,0.00423110
2696.47270752,0.00413554
2698.40151489,0.00424566
2700.33032227,0.00423956
2702.25912964,0.00417058
2704.18793701,0.00420454
2706.11674438,0.00422705
2708.04555176,0.00421558
2709.97435913,0.00420644
2711.90316650,0.00418637
2713.83197388,0.00412738
2715.76078125,0.00419395
2717.68958862,0.00418219
2719.61839600,0.00399371
2721.54720337,0.00406135
2723.47601074,0.00417754
2725.40481812,0.00418028
2727.33362549,0.00417268
2729.26243286,0.00419894
2731.19124023,0.00418457
2733.12004761,0.00403497
2735.04885498,0.00408430
2736.97766235,0.00416513
2738.90646973,0.00412581
2740.83527710,0.00414455
2742.76408447,0.00410130
2744.69289185,0.00406345
2746.62169922,0.00411978
2748.55050659,0.00413459
2750.47931396,0.00407332
2752.40812134,0.00399946
2754.33692871,0.00398325
2756.26573608,0.00409989
2758.19454346,0.00405105
2760.12335083,0.00396983
2762.05215820,0.00406717
2763.98096558,0.00397526
2765.90977295,0.00396452
2767.83858032,0.00401823
2769.76738770,0.00399350
2771.69619507,0.00408813
2773.62500244,0.00403194
2775.55380981,0.00394815
2777.48261719,0.00404160
2779.41142456,0.00405505
2781.34023193,0.00395989
2783.26903931,0.00403407
2785.19784668,0.00405783
2787.12665405,0.00390529
2789.05546143,0.00396978
2790.98426880,0.00402113
2792.91307617,0.00393358
2794.84188354,0.00395178
2796.77069092,0.00394113
2798.69949829,0.00392642
2800.62830566,0.00401154
2802.55711304,0.00399584
2804.48592041,0.00393624
2806.41472778,0.00396107
2808.34353516,0.00393176
2810.27234253,0.00391081
2812.20114990,0.00393167
2814.12995728,0.00387784
2816.05876465,0.00379298
2817.98757202,0.00389686
2819.91637939,0.00396847
2821.84518677,0.00386994
2823.77399414,0.00395183
2825.70280151,0.00389907
2827.63160889,0.00375860
2829.56041626,0.00382484
2831.48922363,0.00379670
2833.41803101,0.00381596
2835.34683838,0.00389907
2837.27564575,0.00378073
2839.20445312,0.00376621
2841.13326050,0.00392517
2843.06206787,0.00376312
2844.99087524,0.00367349
2846.91968262,0.00382108
2848.84848999,0.00373958
2850.77729736,0.00369330
2852.70610474,0.00371199
2854.63491211,0.00376450
2856.56371948,0.00372621
2858.49252686,0.00369174
2860.42133423,0.00382047
2862.35014160,0.00373029
2864.27894897,0.00368351
2866.20775635,0.00372720
2868.13656372,0.00376629
2870.06537109,0.00371418
2871.99417847,0.00362331
2873.92298584,0.00371378
2875.85179321,0.00363504
2877.78060059,0.00368059
2879.70940796,0.00374379
2881.63821533,0.00361391
2883.56702270,0.00358893
2885.49583008,0.00356656
2887.42463745,0.00362445
2889.35344482,0.00359717
2891.28225220,0.00361408
2893.21105957,0.00363240
2895.13986694,0.00353085
2897.06867432,0.00358841
2898.99748169,0.00352739
2900.92628906,0.00352589
2902.85509644,0.00358516
2904.78390381,0.00351915
2906.71271118,0.00360330
2908.64151855,0.00357725
2910.57032593,0.00346406
2912.49913330,0.00348204
2914.42794067,0.00349244
2916.35674805,0.00352477
2918.28555542,0.00348726
2920.21436279,0.00342771
2922.14317017,0.00345352
2924.07197754,0.00341310
2926.00078491,0.00348129
2927.92959229,0.00356450
2929.85839966,0.00345934
2931.78720703,0.00337755
2933.71601440,0.00335322
2935.64482178,0.00342802
2937.57362915,0.00351239
2939.50243652,0.00353628
2941.43124390,0.00351848
2943.36005127,0.00346172
2945.28885864,0.00349525
2947.21766602,0.00346999
2949.14647339,0.00340958
2951.07528076,0.00341903
2953.00408813,0.00344461
2954.93289551,0.00347801
2956.86170288,0.00342194
2958.79051025,0.00336623
2960.71931763,0.00342530
2962.64812500,0.00344585
2964.57693237,0.00336929
2966.50573975,0.00338049
2968.43454712,0.00339379
2970.36335449,0.00344308
2972.29216187,0.00348495
2974.22096924,0.00328951
2976.14977661,0.00332602
2978.07858398,0.00340600
2980.00739136,0.00331813
2981.93619873,0.00342013
2983.86500610,0.00334441
2985.79381348,0.00333452
2987.72262085,0.00341312
2989.65142822,0.00326683
2991.58023560,0.00337170
2993.50904297,0.00344291
2995.43785034,0.00337936
2997.36665771,0.00340127
2999.29546509,0.00329737
3001.22427246,0.00327078
3003.15307983,0.00331303
3005.08188721,0.00339881
3007.01069458,0.00343139
3008.93950195,0.00328539
3010.86830933,0.00329054
3012.79711670,0.00332516
3014.72592407,0.00322040
3016.65473145,0.00322248
3018.58353882,0.00332096
3020.51234619,0.00325526
3022.44115356,0.00329225
3024.36996094,0.00336722
3026.29876831,0.00322328
3028.22757568,0.00330296
3030.15638306,0.00329742
3032.08519043,0.00325846
3034.01399780,0.00329897
3035.94280518,0.00315328
3037.87161255,0.00319614
3039.80041992,0.00319666
3041.72922729,0.00327117
3043.65803467,0.00326433
3045.58684204,0.00315358
3047.51564941,0.00329817
3049.44445679,0.00320291
3051.37326416,0.00322461
3053.30207153,0.00329126
3055.23087891,0.00329709
3057.15968628,0.00338478
3059.08849365,0.00320961
3061.01730103,0.00315963
3062.94610840,0.00317936
3064.87491577,0.00313145
3066.80372314,0.00312042
3068.73253052,0.00321600
3070.66133789,0.00327680
3072.59014526,0.00325129
3074.51895264,0.00335948
3076.44776001,0.00327161
3078.37656738,0.00319869
3080.30537476,0.00315094
3082.23418213,0.00309294
3084.16298950,0.00321601
3086.09179687,0.00317516
3088.02060425,0.00314878
3089.94941162,0.00316254
3091.87821899,0.00313036
3093.80702637,0.00315414
3095.73583374,0.00318669
3097.66464111,0.00314877
3099.59344849,0.00304757
3101.52225586,0.00300996
3103.45106323,0.00308903
3105.37987061,0.00318663
3107.30867798,0.00306066
3109.23748535,0.00310961
3111.16629272,0.00321094
3113.09510010,0.00309199
3115.02390747,0.00317113
3116.95271484,0.00316814
3118.88152222,0.00310229
3120.81032959,0.00308204
3122.73913696,0.00308818
3124.66794434,0.00313437
3126.59675171,0.00301635
3128.52555908,0.00299452
3130.45436645,0.00305970
3132.38317383,0.00309992
3134.31198120,0.00313179
3136.24078857,0.00308658
3138.16959595,0.00306817
3140.09840332,0.00311485
3142.02721069,0.00307006
3143.95601807,0.00302372
3145.88482544,0.00307116
3147.81363281,0.00306997
3149.74244019,0.00318017
3151.67124756,0.00316583
3153.60005493,0.00302893
3155.52886230,0.00306590
3157.45766968,0.00311342
3159.38647705,0.00306922
3161.31528442,0.00293747
3163.24409180,0.00308115
3165.17289917,0.00314693
3167.10170654,0.00305131
3169.03051392,0.00313820
3170.95932129,0.00306512
3172.88812866,0.00309399
3174.81693604,0.00306166
3176.74574341,0.00303249
3178.67455078,0.00315665
3180.60335815,0.00300111
3182.53216553,0.00303543
3184.46097290,0.00313702
3186.38978027,0.00305579
3188.31858765,0.00306088
3190.24739502,0.00302687
3192.17620239,0.00303472
3194.10500977,0.00309057
3196.03381714,0.00313344
3197.96262451,0.00316220
3199.89143188,0.00307335
3201.82023926,0.00308577
3203.74904663,0.00317454
3205.67785400,0.00308173
3207.60666138,0.00304804
3209.53546875,0.00307463
3211.46427612,0.00305374
3213.39308350,0.00300035
3215.32189087,0.00300154
3217.25069824,0.00313431
3219.17950562,0.00305027
3221.10831299,0.00305049
3223.03712036,0.00313078
3224.96592773,0.00306678
3226.89473511,0.00317827
3228.82354248,0.00313386
3230.75234985,0.00311798
3232.68115723,0.00315784
3234.60996460,0.00309005
3236.53877197,0.00319995
3238.46757935,0.00313685
3240.39638672,0.00308143
3242.32519409,0.00316598
3244.25400146,0.00317127
3246.18280884,0.00319873
3248.11161621,0.00319943
3250.04042358,0.00319745
3251.96923096,0.00316678
3253.89803833,0.00317589
3255.82684570,0.00315367
3257.75565308,0.00319926
3259.68446045,0.00331927
3261.61326782,0.00316729
3263.54207520,0.00318825
3265.47088257,0.00331047
3267.39968994,0.00325832
3269.32849731,0.00334007
3271.25730469,0.00330384
3273.18611206,0.00318382
3275.11491943,0.00320529
3277.04372681,0.00331762
3278.97253418,0.00338585
3280.90134155,0.00331529
3282.83014893,0.00325373
3284.75895630,0.00325226
3286.68776367,0.00331533
3288.61657104,0.00324522
3290.54537842,0.00321547
3292.47418579,0.00332835
3294.40299316,0.00330513
3296.33180054,0.00334823
3298.26060791,0.00327484
3300.18941528,0.00320210
3302.11822266,0.00332344
3304.04703003,0.00331184
3305.97583740,0.00336679
3307.90464478,0.00339248
3309.83345215,0.00337146
3311.76225952,0.00344649
3313.69106689,0.00336834
3315.61987427,0.00328995
3317.54868164,0.00337385
3319.47748901,0.00340494
3321.40629639,0.00338926
3323.33510376,0.00342060
3325.26391113,0.00334953
3327.19271851,0.00343095
3329.12152588,0.00348675
3331.05033325,0.00329402
3332.97914062,0.00343372
3334.90794800,0.00344122
3336.83675537,0.00328806
3338.76556274,0.00346589
3340.69437012,0.00339752
3342.62317749,0.00336950
3344.55198486,0.00352340
3346.48079224,0.00342324
3348.40959961,0.00340796
3350.33840698,0.00353161
3352.26721436,0.00357949
3354.19602173,0.00349812
3356.12482910,0.00350545
3358.05363647,0.00363648
3359.98244385,0.00352523
3361.91125122,0.00340666
3363.84005859,0.00348090
3365.76886597,0.00352793
3367.69767334,0.00350758
3369.62648071,0.00351665
3371.55528809,0.00356870
3373.48409546,0.00359453
3375.41290283,0.00359537
3377.34171020,0.00355936
3379.27051758,0.00363019
3381.19932495,0.00362627
3383.12813232,0.00349868
3385.05693970,0.00353849
3386.98574707,0.00352807
3388.91455444,0.00358970
3390.84336182,0.00367266
3392.77216919,0.00358952
3394.70097656,0.00362133
3396.62978394,0.00367719
3398.55859131,0.00368191
3400.48739868,0.00367392
3402.41620605,0.00366604
3404.34501343,0.00365189
3406.27382080,0.00365475
3408.20262817,0.00364027
3410.13143555,0.00363400
3412.06024292,0.00368842
3413.98905029,0.00363264
3415.91785767,0.00366100
3417.84666504,0.00369042
3419.77547241,0.00363000
3421.70427979,0.00364518
3423.63308716,0.00368186
3425.56189453,0.00376454
3427.49070190,0.00372101
3429.41950928,0.00363606
3431.34831665,0.00365892
3433.27712402,0.00373002
3435.20593140,0.00368152
3437.13473877,0.00364202
3439.06354614,0.00377404
3440.99235352,0.00376420
3442.92116089,0.00379503
3444.84996826,0.00376147
3446.77877563,0.00364031
3448.70758301,0.00367438
3450.63639038,0.00368075
3452.56519775,0.00369760
3454.49400513,0.00374192
3456.42281250,0.00385488
3458.35161987,0.00376583
3460.28042725,0.00366077
3462.20923462,0.00378550
3464.13804199,0.00379987
3466.06684937,0.00380302
3467.99565674,0.00376904
3469.92446411,0.00376528
3471.85327148,0.00374352
3473.78207886,0.00371493
3475.71088623,0.00377131
3477.63969360,0.00376607
3479.56850098,0.00379936
3481.49730835,0.00370782
3483.42611572,0.00364225
3485.35492310,0.00375811
3487.28373047,0.00383384
3489.21253784,0.00379634
3491.14134521,0.00375456
3493.07015259,0.00378340
3494.99895996,0.00374614
3496.92776733,0.00372432
3498.85657471,0.00374446
3500.78538208,0.00377936
3502.71418945,0.00371557
3504.64299683,0.00369513
3506.57180420,0.00378488
3508.50061157,0.00373262
3510.42941895,0.00372555
3512.35822632,0.00371346
3514.28703369,0.00370751
3516.21584106,0.00370563
3518.14464844,0.00374820
3520.07345581,0.00380813
3522.00226318,0.00359570
3523.93107056,0.00355881
3525.85987793,0.00373405
3527.78868530,0.00372491
3529.71749268,0.00359569
3531.64630005,0.00367041
3533.57510742,0.00378216
3535.50391479,0.00364727
3537.43272217,0.00368205
3539.36152954,0.00374751
3541.29033691,0.00370004
3543.21914429,0.00372110
3545.14795166,0.00363541
3547.07675903,0.00351409
3549.00556641,0.00362539
3550.93437378,0.00373781
3552.86318115,0.00363164
3554.79198853,0.00365107
3556.72079590,0.00372558
3558.64960327,0.00369787
3560.57841064,0.00361989
3562.50721802,0.00360904
3564.43602539,0.00360737
3566.36483276,0.00340908
3568.29364014,0.00335935
3570.22244751,0.00352275
3572.15125488,0.00365709
3574.08006226,0.00355499
3576.00886963,0.00347967
3577.93767700,0.00364180
3579.86648437,0.00360985
3581.79529175,0.00354132
3583.72409912,0.00361986
3585.65290649,0.00352190
3587.58171387,0.00324034
3589.51052124,0.00337531
3591.43932861,0.00364805
3593.36813599,0.00348966
3595.29694336,0.00338889
3597.22575073,0.00340294
3599.15455811,0.00347094
3601.08336548,0.00351305
3603.01217285,0.00344855
3604.94098022,0.00350305
3606.86978760,0.00344438
3608.79859497,0.00326185
3610.72740234,0.00332786
3612.65620972,0.00328583
3614.58501709,0.00320207
3616.51382446,0.00343399
3618.44263184,0.00318570
3620.37143921,0.00321374
3622.30024658,0.00350736
3624.22905395,0.00339995
3626.15786133,0.00363582
3628.08666870,0.00308140
3630.01547607,0.00284693
3631.94428345,0.00344406
3633.87309082,0.00331741
3635.80189819,0.00342335
3637.73070557,0.00346321
3639.65951294,0.00343652
3641.58832031,0.00347527
3643.51712769,0.00338560
3645.44593506,0.00340710
3647.37474243,0.00302325
3649.30354980,0.00276625
3651.23235718,0.00290041
3653.16116455,0.00340300
3655.08997192,0.00330445
3657.01877930,0.00297466
3658.94758667,0.00340390
3660.87639404,0.00329111
3662.80520142,0.00326507
3664.73400879,0.00333968
3666.66281616,0.00329238
3668.59162354,0.00314129
3670.52043091,0.00265641
3672.44923828,0.00307633
3674.37804565,0.00290690
3676.30685303,0.00251243
3678.23566040,0.00310503
3680.16446777,0.00316248
3682.09327515,0.00311064
3684.02208252,0.00314564
3685.95088989,0.00313949
3687.87969727,0.00290785
3689.80850464,0.00268457
3691.73731201,0.00293917
3693.66611938,0.00300230
3695.59492676,0.00313754
3697.52373413,0.00309971
3699.45254150,0.00306909
3701.38134888,0.00295197
3703.31015625,0.00278636
3705.23896362,0.00318017
3707.16777100,0.00300190
3709.09657837,0.00288641
3711.02538574,0.00275770
3712.95419312,0.00258292
3714.88300049,0.00304648
3716.81180786,0.00293587
3718.74061523,0.00286916
3720.66942261,0.00282950
3722.59822998,0.00285902
3724.52703735,0.00294837
3726.45584473,0.00260088
3728.38465210,0.00287153
3730.31345947,0.00286214
3732.24226685,0.00254825
3734.17107422,0.00245794
3736.09988159,0.00242585
3738.02868896,0.00262755
3739.95749634,0.00274061
3741.88630371,0.00287213
3743.81511108,0.00232337
3745.74391846,0.00217667
3747.67272583,0.00272151
3749.60153320,0.00232693
3751.53034058,0.00219066
3753.45914795,0.00253096
3755.38795532,0.00267931
3757.31676270,0.00275405
3759.24557007,0.00249954
3761.17437744,0.00260126
3763.10318481,0.00282761
3765.03199219,0.00260017
3766.96079956,0.00269304
3768.88960693,0.00270525
3770.81841431,0.00257605
3772.74722168,0.00275964
3774.67602905,0.00276664
3776.60483643,0.00278097
3778.53364380,0.00258861
3780.46245117,0.00259837
3782.39125854,0.00277091
3784.32006592,0.00261693
3786.24887329,0.00273261
3788.17768066,0.00270956
3790.10648804,0.00272317
3792.03529541,0.00269585
3793.96410278,0.00266261
3795.89291016,0.00255923
3797.82171753,0.00250882
3799.75052490,0.00269424
3801.67933228,0.00207671
3803.60813965,0.00241995
3805.53694702,0.00263489
3807.46575439,0.00211256
3809.39456177,0.00262834
3811.32336914,0.00254723
3813.25217651,0.00272804
3815.18098389,0.00243770
3817.10979126,0.00209437
3819.03859863,0.00270192
3820.96740601,0.00212663
3822.89621338,0.00229309
3824.82502075,0.00264207
3826.75382812,0.00237149
3828.68263550,0.00263538
3830.61144287,0.00244047
3832.54025024,0.00232021
3834.46905762,0.00239341
3836.39786499,0.00224393
3838.32667236,0.00208007
3840.25547974,0.00228418
3842.18428711,0.00240639
3844.11309448,0.00229741
3846.04190186,0.00252135
3847.97070923,0.00244522
3849.89951660,0.00240001
3851.82832397,0.00226579
3853.75713135,0.00176511
3855.68593872,0.00200427
3857.61474609,0.00251990
3859.54355347,0.00237817
3861.47236084,0.00230876
3863.40116821,0.00231394
3865.32997559,0.00213846
3867.25878296,0.00239713
3869.18759033,0.00214846
3871.11639770,0.00193946
3873.04520508,0.00239214
3874.97401245,0.00226640
3876.90281982,0.00237411
3878.83162720,0.00240313
3880.76043457,0.00207520
3882.68924194,0.00224233
3884.61804932,0.00209296
3886.54685669,0.00204812
3888.47566406,0.00240090
3890.40447144,0.00231541
3892.33327881,0.00219302
3894.26208618,0.00226413
3896.19089355,0.00230845
3898.11970093,0.00231635
3900.04850830,0.00221516
3901.97731567,0.00218857
3903.90612305,0.00209523
3905.83493042,0.00211405
3907.76373779,0.00233064
3909.69254517,0.00221243
3911.62135254,0.00224886
3913.55015991,0.00233140
3915.47896728,0.00222103
3917.40777466,0.00225049
3919.33658203,0.00214505
3921.26538940,0.00220243
3923.19419678,0.00228617
3925.12300415,0.00219895
3927.05181152,0.00224095
3928.98061890,0.00227781
3930.90942627,0.00221565
3932.83823364,0.00213680
3934.76704102,0.00228828
3936.69584839,0.00230269
3938.62465576,0.00222891
3940.55346313,0.00228809
3942.48227051,0.00210727
3944.41107788,0.00214963
3946.33988525,0.00225952
3948.26869263,0.00213440
3950.19750000,0.00217791
3952.12630737,0.00221239
3954.05511475,0.00218443
3955.98392212,0.00219307
3957.91272949,0.00219194
3959.84153687,0.00213935
3961.77034424,0.00218126
3963.69915161,0.00221831
3965.62795898,0.00207022
3967.55676636,0.00213253
3969.48557373,0.00217525
3971.41438110,0.00212109
3973.34318848,0.00218449
3975.27199585,0.00211577
3977.20080322,0.00211130
3979.12961060,0.00211692
3981.05841797,0.00208068
3982.98722534,0.00205807
3984.91603271,0.00205193
3986.84484009,0.00213898
3988.77364746,0.00209258
3990.70245483,0.00214395
3992.63126221,0.00215866
3994.56006958,0.00203109
3996.48887695,0.00208196
3998.41768433,0.00206215
4000.34649170,0.00203076
4002.27529907,0.00205132
4004.20410645,0.00204575
4006.13291382,0.00204154
4008.06172119,0.00202653
4009.99052856,0.00205780
4011.91933594,0.00202631
4013.84814331,0.00197554
4015.77695068,0.00198198
4017.70575806,0.00204199
4019.63456543,0.00209891
4021.56337280,0.00206664
4023.49218018,0.00201605
4025.42098755,0.00200131
4027.34979492,0.00204608
4029.27860229,0.00205585
4031.20740967,0.00195088
4033.13621704,0.00197645
4035.06502441,0.00206186
4036.99383179,0.00193879
4038.92263916,0.00198178
4040.85144653,0.00205721
4042.78025391,0.00193524
4044.70906128,0.00194873
4046.63786865,0.00190606
4048.56667603,0.00189392
4050.49548340,0.00198690
4052.42429077,0.00197169
4054.35309814,0.00191114
4056.28190552,0.00191237
4058.21071289,0.00197547
4060.13952026,0.00192103
4062.06832764,0.00196382
4063.99713501,0.00198198
4065.92594238,0.00185286
4067.85474976,0.00186597
4069.78355713,0.00190708
4071.71236450,0.00195296
4073.64117187,0.00192619
4075.56997925,0.00187457
4077.49878662,0.00192072
4079.42759399,0.00200489
4081.35640137,0.00195549
4083.28520874,0.00185857
4085.21401611,0.00192959
4087.14282349,0.00185297
4089.07163086,0.00187030
4091.00043823,0.00192898
4092.92924561,0.00179797
4094.85805298,0.00183956
4096.78686035,0.00182055
4098.71566772,0.00177992
4100.64447510,0.00181434
4102.57328247,0.00185242
4104.50208984,0.00184157
4106.43089722,0.00174284
4108.35970459,0.00185245
4110.28851196,0.00186561
4112.21731934,0.00177231
4114.14612671,0.00184065
4116.07493408,0.00180515
4118.00374145,0.00181907
4119.93254883,0.00187244
4121.86135620,0.00177675
4123.79016357,0.00181359
4125.71897095,0.00182208
4127.64777832,0.00168440
4129.57658569,0.00170313
4131.50539307,0.00172845
4133.43420044,0.00179267
4135.36300781,0.00182132
4137.29181519,0.00168774
4139.22062256,0.00177313
4141.14942993,0.00183250
4143.07823730,0.00174762
4145.00704468,0.00172909
4146.93585205,0.00169197
4148.86465942,0.00177415
4150.79346680,0.00179512
4152.72227417,0.00169482
4154.65108154,0.00170787
4156.57988892,0.00166608
4158.50869629,0.00162600
4160.43750366,0.00164878
4162.36631103,0.00162987
4164.29511841,0.00169801
4166.22392578,0.00171237
4168.15273315,0.00164880
4170.08154053,0.00168265
4172.01034790,0.00169853
4173.93915527,0.00174810
4175.86796265,0.00175493
4177.79677002,0.00163760
4179.72557739,0.00166598
4181.65438477,0.00171182
4183.58319214,0.00167762
4185.51199951,0.00168901
4187.44080688,0.00162843
4189.36961426,0.00165661
4191.29842163,0.00172417
4193.22722900,0.00165942
4195.15603638,0.00170062
4197.08484375,0.00165613
4199.01365112,0.00155629
4200.94245850,0.00163570
4202.87126587,0.00168340
4204.80007324,0.00166782
4206.72888062,0.00159027
4208.65768799,0.00158831
4210.58649536,0.00164338
4212.51530273,0.00160126
4214.44411011,0.00160169
4216.37291748,0.00161955
4218.30172485,0.00165758
4220.23053223,0.00166526
4222.15933960,0.00159830
4224.08814697,0.00154902
4226.01695435,0.00153247
4227.94576172,0.00153965
4229.87456909,0.00154181
4231.80337646,0.00164478
4233.73218384,0.00164575
4235.66099121,0.00149312
4237.58979858,0.00155086
4239.51860596,0.00158879
4241.44741333,0.00153073
4243.37622070,0.00157285
4245.30502808,0.00156272
4247.23383545,0.00157755
4249.16264282,0.00154805
4251.09145020,0.00147591
4253.02025757,0.00154067
4254.94906494,0.00154269
4256.87787231,0.00153835
4258.80667969,0.00152197
4260.73548706,0.00153298
4262.66429443,0.00160748
4264.59310181,0.00151974
4266.52190918,0.00151101
4268.45071655,0.00153583
4270.37952393,0.00154064
4272.30833130,0.00150544
4274.23713867,0.00147687
4276.16594604,0.00165442
4278.09475342,0.00152805
4280.02356079,0.00145462
4281.95236816,0.00155455
4283.88117554,0.00143455
4285.80998291,0.00151699
4287.73879028,0.00150369
4289.66759766,0.00145796
4291.59640503,0.00149558
4293.52521240,0.00144461
4295.45401978,0.00152182
4297.38282715,0.00142124
4299.31163452,0.00142018
4301.24044189,0.00152961
4303.16924927,0.00142466
4305.09805664,0.00148442
4307.02686401,0.00156414
4308.95567139,0.00152751
4310.88447876,0.00145089
4312.81328613,0.00139939
4314.74209351,0.00144823
4316.67090088,0.00144385
4318.59970825,0.00143098
4320.52851562,0.00143604
4322.45732300,0.00148506
4324.38613037,0.00146412
4326.31493774,0.00137308
4328.24374512,0.00144025
4330.17255249,0.00145768
4332.10135986,0.00147203
4334.03016724,0.00148216
4335.95897461,0.00140386
4337.88778198,0.00143602
4339.81658936,0.00136356
4341.74539673,0.00131198
4343.67420410,0.00140582
4345.60301147,0.00140549
4347.53181885,0.00139532
4349.46062622,0.00137601
4351.38943359,0.00136857
4353.31824097,0.00137553
4355.24704834,0.00135650
4357.17585571,0.00138893
4359.10466309,0.00141095
4361.03347046,0.00135090
4362.96227783,0.00125083
4364.89108520,0.00126108
4366.81989258,0.00136810
4368.74869995,0.00136715
4370.67750732,0.00134946
4372.60631470,0.00139824
4374.53512207,0.00134129
4376.46392944,0.00131425
4378.39273682,0.00137197
4380.32154419,0.00137342
4382.25035156,0.00137075
4384.17915894,0.00134480
4386.10796631,0.00134923
4388.03677368,0.00134886
4389.96558105,0.00132125
4391.89438843,0.00133697
4393.82319580,0.00131498
4395.75200317,0.00125969
4397.68081055,0.00126193
4399.60961792,0.00133601
4401.53842529,0.00130897
4403.46723267,0.00129153
4405.39604004,0.00129807
4407.32484741,0.00128092
4409.25365478,0.00136020
4411.18246216,0.00129941
4413.11126953,0.00128120
4415.04007690,0.00127267
4416.96888428,0.00118427
4418.89769165,0.00128282
4420.82649902,0.00129178
4422.75530640,0.00123206
4424.68411377,0.00126301
4426.61292114,0.00126579
4428.54172852,0.00118773
4430.47053589,0.00117785
4432.39934326,0.00120033
4434.32815063,0.00120540
4436.25695801,0.00132065
4438.18576538,0.00125576
4440.11457275,0.00118575
4442.04338013,0.00122485
4443.97218750,0.00120155
4445.90099487,0.00120379
4447.82980225,0.00120889
4449.75860962,0.00121638
4451.68741699,0.00114590
4453.61622437,0.00124906
4455.54503174,0.00126069
4457.47383911,0.00114806
4459.40264648,0.00129393
4461.33145386,0.00120961
4463.26026123,0.00115190
4465.18906860,0.00125106
4467.11787598,0.00123416
4469.04668335,0.00124327
4470.97549072,0.00119822
4472.90429810,0.00120929
4474.83310547,0.00128613
4476.76191284,0.00125519
4478.69072021,0.00113177
4480.61952759,0.00115747
4482.54833496,0.00121112
4484.47714233,0.00116048
4486.40594971,0.00111142
4488.33475708,0.00104736
4490.26356445,0.00110036
4492.19237183,0.00113609
4494.12117920,0.00116501
4496.04998657,0.00114756
4497.97879395,0.00110910
4499.90760132,0.00114804
4501.83640869,0.00112681
4503.76521606,0.00114828
4505.69402344,0.00107519
4507.62283081,0.00113056
4509.55163818,0.00115894
4511.48044556,0.00106153
4513.40925293,0.00114544
4515.33806030,0.00102636
4517.26686768,0.00105047
4519.19567505,0.00115043
4521.12448242,0.00106337
4523.05328979,0.00110271
4524.98209717,0.00116399
4526.91090454,0.00119956
4528.83971191,0.00109054
4530.76851929,0.00107472
4532.69732666,0.00110760
4534.62613403,0.00104796
4536.55494141,0.00105017
4538.48374878,0.00100633
4540.41255615,0.00106236
4542.34136353,0.00112361
4544.27017090,0.00112981
4546.19897827,0.00110448
4548.12778564,0.00104075
4550.05659302,0.00108412
4551.98540039,0.00111508
4553.91420776,0.00105513
4555.84301514,0.00108538
4557.77182251,0.00117465
4559.70062988,0.00106405
4561.62943726,0.00101001
4563.55824463,0.00102747
4565.48705200,0.00103031
4567.41585937,0.00106921
4569.34466675,0.00103036
4571.27347412,0.00107643
4573.20228149,0.00099147
4575.13108887,0.00098219
4577.05989624,0.00107381
4578.98870361,0.00103805
4580.91751099,0.00105735
4582.84631836,0.00094166
4584.77512573,0.00101733
4586.70393311,0.00108751
4588.63274048,0.00099974
4590.56154785,0.00104747
4592.49035522,0.00102270
4594.41916260,0.00103430
4596.34796997,0.00100399
4598.27677734,0.00107700
4600.20558472,0.00111241
4602.13439209,0.00101286
4604.06319946,0.00104035
4605.99200684,0.00100243
4607.92081421,0.00101243
4609.84962158,0.00095428
4611.77842895,0.00097995
4613.70723633,0.00109187
4615.63604370,0.00102216
4617.56485107,0.00099617
4619.49365845,0.00100085
4621.42246582,0.00106115
4623.35127319,0.00100676
4625.28008057,0.00095798
4627.20888794,0.00095454
4629.13769531,0.00092611
4631.06650269,0.00102456
4632.99531006,0.00091946
4634.92411743,0.00088893
4636.85292480,0.00096480
4638.78173218,0.00097555
4640.71053955,0.00107004
4642.63934692,0.00100139
4644.56815430,0.00094398
4646.49696167,0.00094503
4648.42576904,0.00093471
4650.35457642,0.00099267
4652.28338379,0.00100369
4654.21219116,0.00094983
4656.14099853,0.00092560
4658.06980591,0.00097167
4659.99861328,0.00093165
4661.92742065,0.00091725
4663.85622803,0.00095941
4665.78503540,0.00094250
4667.71384277,0.00093501
4669.64265015,0.00088968
4671.57145752,0.00091169
4673.50026489,0.00092986
4675.42907227,0.00090141
4677.35787964,0.00100209
4679.28668701,0.00097108
4681.21549438,0.00086239
4683.14430176,0.00095204
4685.07310913,0.00095426
4687.00191650,0.00088727
4688.93072388,0.00092033
4690.85953125,0.00089697
4692.78833862,0.00086697
4694.71714600,0.00088686
4696.64595337,0.00093459
4698.57476074,0.00089998
4700.50356812,0.00083018
4702.43237549,0.00089711
4704.36118286,0.00090412
4706.28999023,0.00084368
4708.21879761,0.00084681
4710.14760498,0.00089043
4712.07641235,0.00089841
4714.00521973,0.00088350
4715.93402710,0.00089223
4717.86283447,0.00078808
4719.79164185,0.00078518
4721.72044922,0.00085914
4723.64925659,0.00080951
4725.57806396,0.00086640
4727.50687134,0.00089253
4729.43567871,0.00087610
4731.36448608,0.00090000
4733.29329346,0.00084102
4735.22210083,0.00088167
4737.15090820,0.00092761
4739.07971558,0.00085396
4741.00852295,0.00081914
4742.93733032,0.00080745
4744.86613770,0.00081040
4746.79494507,0.00084681
4748.72375244,0.00086499
4750.65255981,0.00081909
4752.58136719,0.00080317
4754.51017456,0.00085157
4756.43898193,0.00083532
4758.36778931,0.00085074
4760.29659668,0.00087154
4762.22540405,0.00082322
4764.15421143,0.00081381
4766.08301880,0.00078325
4768.01182617,0.00078840
4769.94063354,0.00075301
4771.86944092,0.00074249
4773.79824829,0.00092376
4775.72705566,0.00087064
4777.65586304,0.00075692
4779.58467041,0.00077908
4781.51347778,0.00069151
4783.44228516,0.00076179
4785.37109253,0.00081625
4787.29989990,0.00079555
4789.22870728,0.00082678
4791.15751465,0.00076172
4793.08632202,0.00084354
4795.01512939,0.00084733
4796.94393677,0.00069916
4798.87274414,0.00069362
4800.80155151,0.00074064
4802.73035889,0.00078326
4804.65916626,0.00073174
4806.58797363,0.00074799
4808.51678101,0.00077797
4810.44558838,0.00072076
4812.37439575,0.00072152
4814.30320312,0.00068663
4816.23201050,0.00075521
4818.16081787,0.00080168
4820.08962524,0.00077712
4822.01843262,0.00079187
4823.94723999,0.00072650
4825.87604736,0.00074316
4827.80485474,0.00074484
4829.73366211,0.00075076
4831.66246948,0.00077373
4833.59127686,0.00065962
4835.52008423,0.00065206
4837.44889160,0.00072404
4839.37769897,0.00075937
4841.30650635,0.00076073
4843.23531372,0.00071639
4845.16412109,0.00072724
4847.09292847,0.00072960
4849.02173584,0.00074228
4850.95054321,0.00083612
4852.87935059,0.00077384
4854.80815796,0.00069813
4856.73696533,0.00078176
4858.66577270,0.00076266
4860.59458008,0.00074279
4862.52338745,0.00067927
4864.45219482,0.00065753
4866.38100220,0.00078908
4868.30980957,0.00072372
4870.23861694,0.00068929
4872.16742432,0.00074956
4874.09623169,0.00073579
4876.02503906,0.00069979
4877.95384644,0.00064943
4879.88265381,0.00071764
4881.81146118,0.00073631
4883.74026855,0.00065613
4885.66907593,0.00067655
4887.59788330,0.00068484
4889.52669067,0.00065321
4891.45549805,0.00075872
4893.38430542,0.00075954
4895.31311279,0.00067589
4897.24192017,0.00074395
4899.17072754,0.00067997
4901.09953491,0.00066545
4903.02834228,0.00072265
4904.95714966,0.00069506
4906.88595703,0.00068154
4908.81476440,0.00063583
4910.74357178,0.00070999
4912.67237915,0.00073984
4914.60118652,0.00071729
4916.52999390,0.00069024
4918.45880127,0.00069330
4920.38760864,0.00074066
4922.31641602,0.00066613
4924.24522339,0.00071123
4926.17403076,0.00064256
4928.10283813,0.00062620
4930.03164551,0.00069418
4931.96045288,0.00056617
4933.88926025,0.00069876
4935.81806763,0.00071363
4937.74687500,0.00061698
4939.67568237,0.00065095
4941.60448975,0.00059656
4943.53329712,0.00062424
4945.46210449,0.00058294
4947.39091187,0.00056383
4949.31971924,0.00062937
4951.24852661,0.00063840
4953.17733398,0.00061587
4955.10614136,0.00058828
4957.03494873,0.00063200
4958.96375610,0.00063545
4960.89256348,0.00065716
4962.82137085,0.00069705
4964.75017822,0.00065804
4966.67898560,0.00062105
4968.60779297,0.00062432
4970.53660034,0.00064463
4972.46540771,0.00061076
4974.39421509,0.00058576
4976.32302246,0.00060305
4978.25182983,0.00059986
4980.18063721,0.00058538
4982.10944458,0.00061752
4984.03825195,0.00064409
4985.96705933,0.00060568
4987.89586670,0.00061229
4989.82467407,0.00065288
4991.75348145,0.00066123
4993.68228882,0.00061596
4995.61109619,0.00057519
4997.53990356,0.00062551
4999.46871094,0.00063668
5001.39751831,0.00058225
5003.32632568,0.00057162
5005.25513306,0.00059172
5007.18394043,0.00061014
5009.11274780,0.00057328
5011.04155518,0.00057167
5012.97036255,0.00062443
5014.89916992,0.00055516
5016.82797729,0.00055093
5018.75678467,0.00058444
5020.68559204,0.00054450
5022.61439941,0.00065648
5024.54320679,0.00067571
5026.47201416,0.00059256
5028.40082153,0.00061106
5030.32962891,0.00057876
5032.25843628,0.00060200
5034.18724365,0.00064855
5036.11605103,0.00060178
5038.04485840,0.00060116
5039.97366577,0.00060800
5041.90247314,0.00059345
5043.83128052,0.00057598
5045.76008789,0.00053897
5047.68889526,0.00057284
5049.61770264,0.00053789
5051.54651001,0.00048281
5053.47531738,0.00054012
5055.40412476,0.00055490
5057.33293213,0.00059689
5059.26173950,0.00059351
5061.19054687,0.00060178
5063.11935425,0.00057935
5065.04816162,0.00047297
5066.97696899,0.00055710
5068.90577637,0.00051607
5070.83458374,0.00048091
5072.76339111,0.00056369
5074.69219849,0.00050803
5076.62100586,0.00053865
5078.54981323,0.00058861
5080.47862061,0.00060509
5082.40742798,0.00054147
5084.33623535,0.00050257
5086.26504272,0.00053156
5088.19385010,0.00049336
5090.12265747,0.00053220
5092.05146484,0.00054291
5093.98027222,0.00051721
5095.90907959,0.00045968
5097.83788696,0.00051267
5099.76669434,0.00060509
5101.69550171,0.00048692
5103.62430908,0.00050309
5105.55311645,0.00052593
5107.48192383,0.00049153
5109.41073120,0.00057772
5111.33953857,0.00054891
5113.26834595,0.00045889
5115.19715332,0.00050248
5117.12596069,0.00055796
5119.05476807,0.00052499
5120.98357544,0.00052272
5122.91238281,0.00048738
5124.84119019,0.00049438
5126.76999756,0.00048282
5128.69880493,0.00042180
5130.62761230,0.00053225
5132.55641968,0.00055704
5134.48522705,0.00051875
5136.41403442,0.00050155
5138.34284180,0.00052754
5140.27164917,0.00056729
5142.20045654,0.00048422
5144.12926392,0.00052139
5146.05807129,0.00051371
5147.98687866,0.00044635
5149.91568603,0.00044914
5151.84449341,0.00044263
5153.77330078,0.00047418
5155.70210815,0.00049268
5157.63091553,0.00052848
5159.55972290,0.00050076
5161.48853027,0.00047519
5163.41733765,0.00043924
5165.34614502,0.00044852
5167.27495239,0.00056191
5169.20375977,0.00053351
5171.13256714,0.00053202
5173.06137451,0.00051381
5174.99018188,0.00050908
5176.91898926,0.00050844
5178.84779663,0.00040573
5180.77660400,0.00047661
5182.70541138,0.00046533
5184.63421875,0.00039260
5186.56302612,0.00042227
5188.49183350,0.00043880
5190.42064087,0.00049882
5192.34944824,0.00046828
5194.27825562,0.00046602
5196.20706299,0.00053520
5198.13587036,0.00048717
5200.06467773,0.00042553
5201.99348511,0.00044765
5203.92229248,0.00045448
5205.85109985,0.00041295
5207.77990723,0.00039777
5209.70871460,0.00043599
5211.63752197,0.00050279
5213.56632935,0.00047998
5215.49513672,0.00042411
5217.42394409,0.00039779
5219.35275146,0.00040821
5221.28155884,0.00044114
5223.21036621,0.00040227
5225.13917358,0.00042937
5227.06798096,0.00042706
5228.99678833,0.00038572
5230.92559570,0.00043022
5232.85440308,0.00045654
5234.78321045,0.00047239
5236.71201782,0.00040960
5238.64082520,0.00040498
5240.56963257,0.00040678
5242.49843994,0.00035358
5244.42724731,0.00042469
5246.35605469,0.00041171
5248.28486206,0.00042609
5250.21366943,0.00046161
5252.14247681,0.00039740
5254.07128418,0.00040504
5256.00009155,0.00039834
5257.92889893,0.00044585
5259.85770630,0.00047262
5261.78651367,0.00046081
5263.71532104,0.00048995
5265.64412842,0.00041993
5267.57293579,0.00042934
5269.50174316,0.00041415
5271.43055054,0.00033072
5273.35935791,0.00036133
5275.28816528,0.00038666
5277.21697266,0.00045892
5279.14578003,0.00042213
5281.07458740,0.00032010
5283.00339478,0.00035655
5284.93220215,0.00033291
5286.86100952,0.00042289
5288.78981689,0.00050214
5290.71862427,0.00038938
5292.64743164,0.00040983
5294.57623901,0.00038066
5296.50504639,0.00030222
5298.43385376,0.00033720
5300.36266113,0.00035072
5302.29146851,0.00042014
5304.22027588,0.00041462
5306.14908325,0.00038578
5308.07789062,0.00039368
5310.00669800,0.00030130
5311.93550537,0.00035220
5313.86431274,0.00038750
5315.79312012,0.00034648
5317.72192749,0.00037857
5319.65073486,0.00033500
5321.57954224,0.00034929
5323.50834961,0.00038911
5325.43715698,0.00042590
5327.36596436,0.00041616
5329.29477173,0.00038285
5331.22357910,0.00045541
5333.15238647,0.00036426
5335.08119385,0.00031388
5337.01000122,0.00036737
5338.93880859,0.00035428
5340.86761597,0.00041254
5342.79642334,0.00039273
5344.72523071,0.00032395
5346.65403809,0.00030964
5348.58284546,0.00034499
5350.51165283,0.00036642
5352.44046020,0.00032400
5354.36926758,0.00030318
5356.29807495,0.00031372
5358.22688232,0.00033715
5360.15568970,0.00034355
5362.08449707,0.00037956
5364.01330444,0.00038113
5365.94211182,0.00038581
5367.87091919,0.00035712
5369.79972656,0.00033148
5371.72853394,0.00040716
5373.65734131,0.00031233
5375.58614868,0.00034675
5377.51495605,0.00041220
5379.44376343,0.00035166
5381.37257080,0.00048503
5383.30137817,0.00041719
5385.23018555,0.00032360
5387.15899292,0.00037033
5389.08780029,0.00035955
5391.01660767,0.00039231
5392.94541504,0.00034740
5394.87422241,0.00031458
5396.80302978,0.00031712
5398.73183716,0.00032486
5400.66064453,0.00034704
5402.58945190,0.00033487
5404.51825928,0.00034388
5406.44706665,0.00036777
5408.37587402,0.00032608
5410.30468140,0.00024601
5412.23348877,0.00030995
5414.16229614,0.00036832
5416.09110352,0.00038913
5418.01991089,0.00039949
5419.94871826,0.00029343
5421.87752563,0.00028104
5423.80633301,0.00032968
5425.73514038,0.00033873
5427.66394775,0.00033502
5429.59275513,0.00031387
5431.52156250,0.00032617
5433.45036987,0.00034785
5435.37917725,0.00032259
5437.30798462,0.00031218
5439.23679199,0.00032391
5441.16559936,0.00026373
5443.09440674,0.00029870
5445.02321411,0.00036355
5446.95202148,0.00030211
5448.88082886,0.00027044
5450.80963623,0.00029764
5452.73844360,0.00034847
5454.66725098,0.00035233
5456.59605835,0.00028327
5458.52486572,0.00024402
5460.45367310,0.00032178
5462.38248047,0.00033522
5464.31128784,0.00030671
5466.24009521,0.00037623
5468.16890259,0.00028874
5470.09770996,0.00024490
5472.02651733,0.00032665
5473.95532471,0.00031575
5475.88413208,0.00029130
5477.81293945,0.00025483
5479.74174683,0.00028078
5481.67055420,0.00031373
5483.59936157,0.00029780
5485.52816895,0.00032577
5487.45697632,0.00032766
5489.38578369,0.00027954
5491.31459106,0.00031552
5493.24339844,0.00032324
5495.17220581,0.00029457
5497.10101318,0.00032617
5499.02982056,0.00025493
5500.95862793,0.00030744
5502.88743530,0.00031650
5504.81624268,0.00027043
5506.74505005,0.00033878
5508.67385742,0.00020102
5510.60266479,0.00026528
5512.53147217,0.00030982
5514.46027954,0.00020532
5516.38908691,0.00028343
5518.31789429,0.00026376
5520.24670166,0.00029846
5522.17550903,0.00027105
5524.10431641,0.00027610
5526.03312378,0.00030869
5527.96193115,0.00020935
5529.89073853,0.00030586
5531.81954590,0.00030104
5533.74835327,0.00023528
5535.67716064,0.00028317
5537.60596802,0.00027979
5539.53477539,0.00027138
5541.46358276,0.00027422
5543.39239014,0.00026411
5545.32119751,0.00023587
5547.25000488,0.00027139
5549.17881226,0.00026540
5551.10761963,0.00024816
5553.03642700,0.00027000
5554.96523437,0.00030051
5556.89404175,0.00030119
5558.82284912,0.00025258
5560.75165649,0.00032193
5562.68046387,0.00027419
5564.60927124,0.00021764
5566.53807861,0.00028806
5568.46688599,0.00023569
5570.39569336,0.00023636
5572.32450073,0.00026908
5574.25330811,0.00026172
5576.18211548,0.00026803
5578.11092285,0.00025428
5580.03973022,0.00024143
5581.96853760,0.00026624
5583.89734497,0.00028110
5585.82615234,0.00025242
5587.75495972,0.00023398
5589.68376709,0.00019089
5591.61257446,0.00024845
5593.54138184,0.00028415
5595.47018921,0.00024580
5597.39899658,0.00028988
5599.32780395,0.00024667
5601.25661133,0.00024526
5603.18541870,0.00027250
5605.11422607,0.00021378
5607.04303345,0.00021481
5608.97184082,0.00026400
5610.90064819,0.00028256
5612.82945557,0.00026955
5614.75826294,0.00029910
5616.68707031,0.00022683
5618.61587769,0.00018293
5620.54468506,0.00030293
5622.47349243,0.00029483
5624.40229980,0.00023877
5626.33110718,0.00023220
5628.25991455,0.00019815
5630.18872192,0.00023309
5632.11752930,0.00027079
5634.04633667,0.00020056
5635.97514404,0.00025146
5637.90395142,0.00032152
5639.83275879,0.00016871
5641.76156616,0.00014684
5643.69037353,0.00024393
5645.61918091,0.00025808
5647.54798828,0.00027283
5649.47679565,0.00020378
5651.40560303,0.00016955
5653.33441040,0.00026092
5655.26321777,0.00026590
5657.19202515,0.00025162
5659.12083252,0.00029065
5661.04963989,0.00023594
5662.97844727,0.00020803
5664.90725464,0.00015232
5666.83606201,0.00010364
5668.76486938,0.00022746
5670.69367676,0.00026485
5672.62248413,0.00025155
5674.55129150,0.00022224
5676.48009888,0.00017140
5678.40890625,0.00017487
5680.33771362,0.00018079
5682.26652100,0.00020980
5684.19532837,0.00015489
5686.12413574,0.00020324
5688.05294311,0.00028115
5689.98175049,0.00020645
5691.91055786,0.00022709
5693.83936523,0.00026979
5695.76817261,0.00025446
5697.69697998,0.00020745
5699.62578735,0.00020951
5701.55459473,0.00024020
5703.48340210,0.00021099
5705.41220947,0.00021294
5707.34101685,0.00023314
5709.26982422,0.00023553
5711.19863159,0.00023761
5713.12743896,0.00027653
5715.05624634,0.00023590
5716.98505371,0.00020185
5718.91386108,0.00020960
5720.84266846,0.00018669
5722.77147583,0.00028128
5724.70028320,0.00024960
5726.62909058,0.00016819
5728.55789795,0.00023558
5730.48670532,0.00026343
5732.41551270,0.00019079
5734.34432007,0.00013847
5736.27312744,0.00023123
5738.20193481,0.00020894
5740.13074219,0.00019361
5742.05954956,0.00025522
5743.98835693,0.00022577
5745.91716431,0.00024456
5747.84597168,0.00020308
5749.77477905,0.00018430
5751.70358643,0.00018806
5753.63239380,0.00020547
5755.56120117,0.00024961
5757.49000854,0.00021667
5759.41881592,0.00021007
5761.34762329,0.00018878
5763.27643066,0.00023241
5765.20523804,0.00022061
5767.13404541,0.00018406
5769.06285278,0.00020302
5770.99166016,0.00016298
5772.92046753,0.00021568
5774.84927490,0.00015503
5776.77808228,0.00015115
5778.70688965,0.00023605
5780.63569702,0.00015691
5782.56450439,0.00020303
5784.49331177,0.00020398
5786.42211914,0.00016506
5788.35092651,0.00021280
5790.27973389,0.00016218
5792.20854126,0.00015868
5794.13734863,0.00019574
5796.06615601,0.00021320
5797.99496338,0.00019146
5799.92377075,0.00013843
5801.85257812,0.00020403
5803.78138550,0.00020652
5805.71019287,0.00013966
5807.63900024,0.00017513
5809.56780762,0.00019098
5811.49661499,0.00020601
5813.42542236,0.00016674
5815.35422974,0.00013353
5817.28303711,0.00020025
5819.21184448,0.00021862
5821.14065186,0.00020695
5823.06945923,0.00018492
5824.99826660,0.00020567
5826.92707397,0.00015234
5828.85588135,0.00014881
5830.78468872,0.00023665
5832.71349609,0.00011392
5834.64230347,0.00009957
5836.57111084,0.00017106
5838.49991821,0.00015435
5840.42872559,0.00017250
5842.35753296,0.00020713
5844.28634033,0.00020424
5846.21514770,0.00012162
5848.14395508,0.00013675
5850.07276245,0.00012015
5852.00156982,0.00014833
5853.93037720,0.00018857
5855.85918457,0.00011103
5857.78799194,0.00020601
5859.71679932,0.00018131
5861.64560669,0.00012345
5863.57441406,0.00017218
5865.50322144,0.00013179
5867.43202881,0.00012383
5869.36083618,0.00012432
5871.28964355,0.00017054
5873.21845093,0.00013317
5875.14725830,0.00011036
5877.07606567,0.00018946
5879.00487305,0.00013728
5880.93368042,0.00009999
5882.86248779,0.00013070
5884.79129517,0.00016999
5886.72010254,0.00013735
5888.64890991,0.00004605
5890.57771728,0.00008772
5892.50652466,0.00013516
5894.43533203,0.00011648
5896.36413940,0.00017754
5898.29294678,0.00018349
5900.22175415,0.00013396
5902.15056152,0.00018317
5904.07936890,0.00020710
5906.00817627,0.00020481
5907.93698364,0.00017851
5909.86579102,0.00014592
5911.79459839,0.00012502
5913.72340576,0.00007560
5915.65221313,0.00015321
5917.58102051,0.00020104
5919.50982788,0.00011802
5921.43863525,0.00012727
5923.36744263,0.00016823
5925.29625000,0.00011264
5927.22505737,0.00010494
5929.15386475,0.00016976
5931.08267212,0.00016464
5933.01147949,0.00013382
5934.94028686,0.00010581
5936.86909424,0.00015667
5938.79790161,0.00020644
5940.72670898,0.00015399
5942.65551636,0.00014111
5944.58432373,0.00013891
5946.51313110,0.00016781
5948.44193848,0.00014490
5950.37074585,0.00010310
5952.29955322,0.00014300
5954.22836060,0.00012222
5956.15716797,0.00011702
5958.08597534,0.00011484
5960.01478271,0.00013400
5961.94359009,0.00013176
5963.87239746,0.00012372
5965.80120483,0.00019307
5967.73001221,0.00014957
5969.65881958,0.00016640
5971.58762695,0.00017807
5973.51643433,0.00011433
5975.44524170,0.00015137
5977.37404907,0.00013727
5979.30285645,0.00013237
5981.23166382,0.00013569
5983.16047119,0.00014846
5985.08927856,0.00015000
5987.01808594,0.00009608
5988.94689331,0.00012478
5990.87570068,0.00010008
5992.80450806,0.00009831
5994.73331543,0.00016387
5996.66212280,0.00015631
5998.59093018,0.00018069
6000.51973755,0.00014946
