399.26312622,0.00020270
401.19193359,0.00003966
403.12074097,0.00045653
405.04954834,0.00010063
406.97835571,0.00013911
408.90716309,0.00029730
410.83597046,0.00016974
412.76477783,0.00000146
414.69358521,-0.00013093
416.62239258,0.00002634
418.55119995,0.00018680
420.48000732,0.00008307
422.40881470,0.00006142
424.33762207,0.00027739
426.26642944,0.00049941
428.19523682,0.00031400
430.12404419,-0.00017898
432.05285156,0.00024638
433.98165894,0.00026471
435.91046631,0.00003788
437.83927368,0.00029149
439.76808105,0.00002835
441.69688843,-0.00007858
443.62569580,0.00001297
445.55450317,-0.00004220
447.48331055,0.00036569
449.41211792,0.00004909
451.34092529,0.00013946
453.26973267,0.00036237
455.19854004,-0.00003592
457.12734741,0.00005003
459.05615479,0.00012474
460.98496216,-0.00000470
462.91376953,0.00010133
464.84257690,0.00041490
466.77138428,0.00040802
468.70019165,0.00031032
470.62899902,0.00059247
472.55780640,0.00030056
474.48661377,-0.00004574
476.41542114,0.00016770
478.34422852,-0.00006968
480.27303589,0.00012702
482.20184326,0.00060445
484.13065063,0.00033597
486.05945801,0.00025735
487.98826538,0.00011939
489.91707275,0.00020212
491.84588013,0.00031795
493.77468750,0.00011614
495.70349487,0.00044383
497.63230225,0.00007713
499.56110962,-0.00009884
501.48991699,0.00035205
503.41872437,0.00005251
505.34753174,0.00014392
507.27633911,0.00019367
509.20514648,0.00016214
511.13395386,0.00050736
513.06276123,0.00002137
514.99156860,-0.00023899
516.92037598,0.00014755
518.84918335,0.00007956
520.77799072,-0.00013705
522.70679810,-0.00022806
524.63560547,0.00004317
526.56441284,0.00020471
528.49322021,0.00001202
530.42202759,0.00015097
532.35083496,0.00010929
534.27964233,0.00006029
536.20844971,0.00028571
538.13725708,0.00026192
540.06606445,0.00044328
541.99487183,0.00025206
543.92367920,-0.00009066
545.85248657,-0.00002438
547.78129395,-0.00029030
549.71010132,-0.00010395
551.63890869,0.00014886
553.56771606,0.00017386
555.49652344,0.00008004
557.42533081,-0.00007915
559.35413818,0.00026307
561.28294556,0.00026110
563.21175293,0.00000489
565.14056030,0.00014638
567.06936768,0.00035851
568.99817505,0.00025589
570.92698242,0.00010527
572.85578979,-0.00010012
574.78459717,-0.00005600
576.71340454,0.00018504
578.64221191,0.00000113
580.57101929,0.00005131
582.49982666,0.00003307
584.42863403,0.00003414
586.35744141,0.00010057
588.28624878,-0.00010235
590.21505615,0.00018553
592.14386353,0.00017791
594.07267090,0.00002329
596.00147827,0.00010027
597.93028564,0.00010172
599.85909302,0.00017093
601.78790039,0.00009659
603.71670776,0.00013384
605.64551514,0.00005692
607.57432251,0.00017092
609.50312988,0.00012178
611.43193726,-0.00021521
613.36074463,0.00002048
615.28955200,0.00010759
617.21835938,0.00032849
619.14716675,0.00052714
621.07597412,0.00004621
623.00478149,0.00018057
624.93358887,0.00034366
626.86239624,0.00009830
628.79120361,0.00027813
630.72001099,0.00013016
632.64881836,0.00027416
634.57762573,0.00036921
636.50643311,0.00003092
638.43524048,0.00031296
640.36404785,0.00037507
642.29285522,0.00009314
644.22166260,0.00014104
646.15046997,0.00033048
648.07927734,0.00022094
650.00808472,0.00020263
651.93689209,0.00040294
653.86569946,0.00012960
655.79450684,0.00009036
657.72331421,0.00016448
659.65212158,0.00017851
661.58092896,0.00035346
663.50973633,0.00016922
665.43854370,0.00031242
667.36735107,0.00016030
669.29615845,0.00026079
671.22496582,0.00044914
673.15377319,-0.00020789
675.08258057,0.00023377
677.01138794,0.00032756
678.94019531,0.00015491
680.86900269,0.00056353
682.79781006,0.00023659
684.72661743,0.00017308
686.65542480,0.00020155
688.58423218,0.00029575
690.51303955,0.00016427
692.44184692,-0.00001065
694.37065430,0.00031168
696.29946167,0.00017624
698.22826904,0.00028211
700.15707642,0.00048741
702.08588379,0.00012143
704.01469116,0.00010819
705.94349854,0.00033314
707.87230591,0.00015126
709.80111328,0.00012540
711.72992065,0.00040000
713.65872803,0.00027430
715.58753540,0.00014254
717.51634277,0.00024760
719.44515015,-0.00002646
721.37395752,0.00012990
723.30276489,0.00038347
725.23157227,0.00002287
727.16037964,0.00020669
729.08918701,0.00053578
731.01799438,0.00011936
732.94680176,-0.00007413
734.87560913,0.00025832
736.80441650,0.00028279
738.73322388,0.00016243
740.66203125,0.00012737
742.59083862,0.00025084
744.51964600,0.00006918
746.44845337,0.00001141
748.37726074,0.00031382
750.30606812,0.00020807
752.23487549,0.00025459
754.16368286,0.00012985
756.09249023,0.00010919
758.02129761,0.00010095
759.95010498,-0.00020305
761.87891235,0.00035522
763.80771973,0.00025378
765.73652710,-0.00016161
767.66533447,0.00026481
769.59414185,-0.00000291
771.52294922,-0.00013236
773.45175659,0.00003968
775.38056396,-0.00013642
777.30937134,0.00014896
779.23817871,0.00016256
781.16698608,-0.00008317
783.09579346,0.00020147
785.02460083,0.00020420
786.95340820,0.00017370
788.88221558,0.00027400
790.81102295,0.00011321
792.73983032,0.00013408
794.66863770,0.00004980
796.59744507,0.00008721
798.52625244,0.00011246
800.45505981,-0.00009249
802.38386719,0.00013694
804.31267456,0.00031237
806.24148193,0.00030723
808.17028931,0.00025758
810.09909668,0.00022015
812.02790405,0.00022409
813.95671143,0.00007024
815.88551880,0.00013674
817.81432617,0.00019375
819.74313354,0.00010698
821.67194092,0.00014478
823.60074829,0.00001781
825.52955566,-0.00004989
827.45836304,-0.00005175
829.38717041,-0.00006633
831.31597778,0.00021053
833.24478516,0.00008157
835.17359253,0.00020357
837.10239990,0.00058933
839.03120728,-0.00002152
840.96001465,-0.00002578
842.88882202,0.00020262
844.81762939,0.00022770
846.74643677,0.00039879
848.67524414,0.00019963
850.60405151,0.00023476
852.53285889,0.00037497
854.46166626,0.00047780
856.39047363,0.00025185
858.31928101,0.00005730
860.24808838,0.00030366
862.17689575,0.00014735
864.10570313,0.00002759
866.03451050,0.00016253
867.96331787,0.00011018
869.89212524,0.00018587
871.82093262,0.00027713
873.74973999,0.00023025
875.67854736,0.00025512
877.60735474,0.00019519
879.53616211,0.00000560
881.46496948,-0.00012466
883.39377686,-0.00009810
885.32258423,0.00017503
887.25139160,0.00029847
889.18019897,-0.00000486
891.10900635,-0.00001668
893.03781372,0.00008222
894.96662109,0.00016618
896.89542847,0.00030181
898.82423584,0.00010425
900.75304321,0.00024917
902.68185059,0.00024316
904.61065796,0.00013292
906.53946533,0.00017875
908.46827271,0.00000436
910.39708008,0.00016720
912.32588745,0.00018450
914.25469482,0.00016823
916.18350220,0.00018598
918.11230957,0.00015538
920.04111694,0.00035487
921.96992432,0.00035966
923.89873169,0.00025761
925.82753906,0.00031280
927.75634644,0.00028891
929.68515381,0.00031912
931.61396118,0.00048700
933.54276855,0.00023818
935.47157593,0.00031191
937.40038330,0.00044893
939.32919067,0.00017641
941.25799805,0.00025475
943.18680542,0.00026326
945.11561279,0.00033754
947.04442017,0.00048513
948.97322754,0.00042955
950.90203491,0.00032923
952.83084229,0.00028609
954.75964966,0.00019560
956.68845703,0.00008065
958.61726440,0.00039188
960.54607178,0.00038809
962.47487915,-0.00002702
964.40368652,0.00018510
966.33249390,0.00052492
968.26130127,0.00027109
970.19010864,0.00016739
972.11891602,0.00035654
974.04772339,0.00011313
975.97653076,0.00022700
977.90533813,0.00050043
979.83414551,0.00032129
981.76295288,0.00040612
983.69176025,0.00025823
985.62056763,0.00011314
987.54937500,0.00035625
989.47818237,0.00046794
991.40698975,0.00058912
993.33579712,0.00048863
995.26460449,0.00036344
997.19341187,0.00057226
999.12221924,0.00057798
1001.05102661,0.00043024
1002.97983398,0.00063871
1004.90864136,0.00059518
1006.83744873,0.00051300
1008.76625610,0.00070461
1010.69506348,0.00061553
1012.62387085,0.00086496
1014.55267822,0.00081433
1016.48148560,0.00065710
1018.41029297,0.00084073
1020.33910034,0.00055133
1022.26790771,0.00090547
1024.19671509,0.00099154
1026.12552246,0.00085892
1028.05432983,0.00121456
1029.98313721,0.00097544
1031.91194458,0.00111768
1033.84075195,0.00117229
1035.76955933,0.00122431
1037.69836670,0.00132218
1039.62717407,0.00104883
1041.55598145,0.00119430
1043.48478882,0.00096092
1045.41359619,0.00105179
1047.34240356,0.00115670
1049.27121094,0.00091832
1051.20001831,0.00107174
1053.12882568,0.00091730
1055.05763306,0.00105537
1056.98644043,0.00105057
1058.91524780,0.00080815
1060.84405518,0.00093510
1062.77286255,0.00085808
1064.70166992,0.00088621
1066.63047729,0.00094752
1068.55928467,0.00076811
1070.48809204,0.00084212
1072.41689941,0.00103997
1074.34570679,0.00078206
1076.27451416,0.00070379
1078.20332153,0.00090610
1080.13212891,0.00086135
1082.06093628,0.00087212
1083.98974365,0.00079815
1085.91855103,0.00068262
1087.84735840,0.00068858
1089.77616577,0.00063827
1091.70497314,0.00063404
1093.63378052,0.00063136
1095.56258789,0.00048089
1097.49139526,0.00059147
1099.42020264,0.00072122
1101.34901001,0.00059694
1103.27781738,0.00069091
1105.20662476,0.00065320
1107.13543213,0.00061547
1109.06423950,0.00063022
1110.99304687,0.00052627
1112.92185425,0.00044716
1114.85066162,0.00044888
1116.77946899,0.00054766
1118.70827637,0.00046085
1120.63708374,0.00064650
1122.56589111,0.00066648
1124.49469849,0.00062253
1126.42350586,0.00067720
1128.35231323,0.00041897
1130.28112061,0.00057455
1132.20992798,0.00056678
1134.13873535,0.00060038
1136.06754272,0.00067217
1137.99635010,0.00062141
1139.92515747,0.00068054
1141.85396484,0.00050578
1143.78277222,0.00078111
1145.71157959,0.00088054
1147.64038696,0.00085268
1149.56919434,0.00075008
1151.49800171,0.00066401
1153.42680908,0.00100566
1155.35561646,0.00074490
1157.28442383,0.00074420
1159.21323120,0.00102393
1161.14203857,0.00092448
1163.07084595,0.00100228
1164.99965332,0.00124180
1166.92846069,0.00115779
1168.85726807,0.00102983
1170.78607544,0.00124304
1172.71488281,0.00108920
1174.64369019,0.00109898
1176.57249756,0.00127657
1178.50130493,0.00129426
1180.43011230,0.00118404
1182.35891968,0.00100651
1184.28772705,0.00128370
1186.21653442,0.00137993
1188.14534180,0.00154179
1190.07414917,0.00151335
1192.00295654,0.00148362
1193.93176392,0.00178263
1195.86057129,0.00159608
1197.78937866,0.00187045
1199.71818604,0.00206201
1201.64699341,0.00187207
1203.57580078,0.00208604
1205.50460815,0.00221317
1207.43341553,0.00221518
1209.36222290,0.00217502
1211.29103027,0.00238493
1213.21983765,0.00264974
1215.14864502,0.00254153
1217.07745239,0.00246122
1219.00625977,0.00257008
1220.93506714,0.00263023
1222.86387451,0.00270735
1224.79268188,0.00277566
1226.72148926,0.00279584
1228.65029663,0.00273528
1230.57910400,0.00255971
1232.50791138,0.00261502
1234.43671875,0.00261289
1236.36552612,0.00260783
1238.29433350,0.00270780
1240.22314087,0.00265042
1242.15194824,0.00260677
1244.08075562,0.00257209
1246.00956299,0.00260989
1247.93837036,0.00262204
1249.86717773,0.00265147
1251.79598511,0.00249252
1253.72479248,0.00248688
1255.65359985,0.00264499
1257.58240723,0.00246647
1259.51121460,0.00253084
1261.44002197,0.00237131
1263.36882935,0.00233707
1265.29763672,0.00245510
1267.22644409,0.00222302
1269.15525146,0.00239745
1271.08405884,0.00243651
1273.01286621,0.00226213
1274.94167358,0.00214521
1276.87048096,0.00216919
1278.79928833,0.00222521
1280.72809570,0.00214933
1282.65690308,0.00216967
1284.58571045,0.00215229
1286.51451782,0.00221470
1288.44332520,0.00202359
1290.37213257,0.00201557
1292.30093994,0.00209399
1294.22974731,0.00196397
1296.15855469,0.00206795
1298.08736206,0.00196279
1300.01616943,0.00216068
1301.94497681,0.00228690
1303.87378418,0.00203874
1305.80259155,0.00206147
1307.73139893,0.00217612
1309.66020630,0.00215919
1311.58901367,0.00196991
1313.51782104,0.00218958
1315.44662842,0.00229596
1317.37543579,0.00219474
1319.30424316,0.00240464
1321.23305054,0.00252003
1323.16185791,0.00263176
1325.09066528,0.00261890
1327.01947266,0.00260682
1328.94828003,0.00274128
1330.87708740,0.00286180
1332.80589478,0.00286009
1334.73470215,0.00281956
1336.66350952,0.00286789
1338.59231689,0.00281553
1340.52112427,0.00288481
1342.44993164,0.00295889
1344.37873901,0.00304059
1346.30754639,0.00310524
1348.23635376,0.00297770
1350.16516113,0.00296524
1352.09396851,0.00297788
1354.02277588,0.00296787
1355.95158325,0.00283942
1357.88039062,0.00283486
1359.80919800,0.00298658
1361.73800537,0.00273711
1363.66681274,0.00264859
1365.59562012,0.00294540
1367.52442749,0.00294830
1369.45323486,0.00283662
1371.38204224,0.00290219
1373.31084961,0.00283636
1375.23965698,0.00277974
1377.16846436,0.00287521
1379.09727173,0.00281549
1381.02607910,0.00279879
1382.95488647,0.00292296
1384.88369385,0.00290392
1386.81250122,0.00280050
1388.74130859,0.00272257
1390.67011597,0.00277226
1392.59892334,0.00276954
1394.52773071,0.00265063
1396.45653809,0.00275112
1398.38534546,0.00277745
1400.31415283,0.00281977
1402.24296021,0.00292782
1404.17176758,0.00290795
1406.10057495,0.00302905
1408.02938232,0.00293379
1409.95818970,0.00288710
1411.88699707,0.00283477
1413.81580444,0.00286872
1415.74461182,0.00313817
1417.67341919,0.00261776
1419.60222656,0.00248247
1421.53103394,0.00277315
1423.45984131,0.00258960
1425.38864868,0.00270263
1427.31745605,0.00265825
1429.24626343,0.00253745
1431.17507080,0.00243718
1433.10387817,0.00233032
1435.03268555,0.00230980
1436.96149292,0.00207429
1438.89030029,0.00226451
1440.81910767,0.00240234
1442.74791504,0.00217662
1444.67672241,0.00221154
1446.60552979,0.00221900
1448.53433716,0.00218126
1450.46314453,0.00220111
1452.39195190,0.00225345
1454.32075928,0.00234615
1456.24956665,0.00206683
1458.17837402,0.00194132
1460.10718140,0.00254992
1462.03598877,0.00286426
1463.96479614,0.00264945
1465.89360352,0.00260940
1467.82241089,0.00313553
1469.75121826,0.00347631
1471.68002563,0.00297585
1473.60883301,0.00306811
1475.53764038,0.00353873
1477.46644775,0.00380694
1479.39525513,0.00414099
1481.32406250,0.00407372
1483.25286987,0.00440456
1485.18167725,0.00459324
1487.11048462,0.00427414
1489.03929199,0.00434138
1490.96809937,0.00455141
1492.89690674,0.00516509
1494.82571411,0.00514340
1496.75452148,0.00464326
1498.68332886,0.00519661
1500.61213623,0.00542209
1502.54094360,0.00567487
1504.46975098,0.00541726
1506.39855835,0.00400573
1508.32736572,0.00476877
1510.25617310,0.00549282
1512.18498047,0.00529422
1514.11378784,0.00590492
1516.04259521,0.00521598
1517.97140259,0.00544372
1519.90020996,0.00532847
1521.82901733,0.00449639
1523.75782471,0.00571574
1525.68663208,0.00555690
1527.61543945,0.00542582
1529.54424683,0.00615847
1531.47305420,0.00578337
1533.40186157,0.00539683
1535.33066895,0.00578316
1537.25947632,0.00607095
1539.18828369,0.00456143
1541.11709106,0.00461391
1543.04589844,0.00535190
1544.97470581,0.00527897
1546.90351318,0.00612798
1548.83232056,0.00566079
1550.76112793,0.00604539
1552.68993530,0.00605929
1554.61874268,0.00536003
1556.54755005,0.00582728
1558.47635742,0.00423284
1560.40516479,0.00444004
1562.33397217,0.00632722
1564.26277954,0.00595094
1566.19158691,0.00604136
1568.12039429,0.00605785
1570.04920166,0.00529004
1571.97800903,0.00599740
1573.90681641,0.00616107
1575.83562378,0.00501434
1577.76443115,0.00576807
1579.69323853,0.00636231
1581.62204590,0.00604352
1583.55085327,0.00635303
1585.47966064,0.00619998
1587.40846802,0.00624978
1589.33727539,0.00614055
1591.26608276,0.00618784
1593.19489014,0.00629316
1595.12369751,0.00619450
1597.05250488,0.00641674
1598.98131226,0.00608668
1600.91011963,0.00618850
1602.83892700,0.00627282
1604.76773437,0.00616609
1606.69654175,0.00633835
1608.62534912,0.00630034
1610.55415649,0.00635009
1612.48296387,0.00654709
1614.41177124,0.00638689
1616.34057861,0.00532419
1618.26938599,0.00587003
1620.19819336,0.00681010
1622.12700073,0.00604589
1624.05580811,0.00612354
1625.98461548,0.00665115
1627.91342285,0.00668872
1629.84223022,0.00651194
1631.77103760,0.00692390
1633.69984497,0.00652628
1635.62865234,0.00537272
1637.55745972,0.00636200
1639.48626709,0.00721080
1641.41507446,0.00707760
1643.34388184,0.00727740
1645.27268921,0.00659147
1647.20149658,0.00587859
1649.13030396,0.00728853
1651.05911133,0.00696414
1652.98791870,0.00456025
1654.91672607,0.00618811
1656.84553345,0.00784165
1658.77434082,0.00754366
1660.70314819,0.00777361
1662.63195557,0.00697996
1664.56076294,0.00738670
1666.48957031,0.00798632
1668.41837769,0.00697463
1670.34718506,0.00690018
1672.27599243,0.00778210
1674.20479980,0.00719590
1676.13360718,0.00686411
1678.06241455,0.00789742
1679.99122192,0.00779721
1681.92002930,0.00770518
1683.84883667,0.00624847
1685.77764404,0.00621845
1687.70645142,0.00843265
1689.63525879,0.00746558
1691.56406616,0.00830101
1693.49287354,0.00830834
1695.42168091,0.00619105
1697.35048828,0.00758637
1699.27929565,0.00670444
1701.20810303,0.00622307
1703.13691040,0.00813381
1705.06571777,0.00751267
1706.99452515,0.00769091
1708.92333252,0.00818646
1710.85213989,0.00797342
1712.78094727,0.00813483
1714.70975464,0.00739898
1716.63856201,0.00673257
1718.56736938,0.00674919
1720.49617676,0.00782435
1722.42498413,0.00817049
1724.35379150,0.00762961
1726.28259888,0.00813175
1728.21140625,0.00752657
1730.14021362,0.00759125
1732.06902100,0.00751928
1733.99782837,0.00590391
1735.92663574,0.00718356
1737.85544312,0.00785129
1739.78425049,0.00697653
1741.71305786,0.00752219
1743.64186523,0.00755232
1745.57067261,0.00763534
1747.49947998,0.00784091
1749.42828735,0.00742029
1751.35709473,0.00699039
1753.28590210,0.00782890
1755.21470947,0.00811624
1757.14351685,0.00730857
1759.07232422,0.00799225
1761.00113159,0.00752029
1762.92993896,0.00746010
1764.85874634,0.00839783
1766.78755371,0.00746675
1768.71636108,0.00759351
1770.64516846,0.00750555
1772.57397583,0.00687617
1774.50278320,0.00759257
1776.43159058,0.00798391
1778.36039795,0.00799994
1780.28920532,0.00779689
1782.21801270,0.00774668
1784.14682007,0.00772825
1786.07562744,0.00765211
1788.00443481,0.00802010
1789.93324219,0.00777167
1791.86204956,0.00710127
1793.79085693,0.00732975
1795.71966431,0.00774769
1797.64847168,0.00760804
1799.57727905,0.00761829
1801.50608643,0.00756297
1803.43489380,0.00769779
1805.36370117,0.00792389
1807.29250854,0.00769514
1809.22131592,0.00761842
1811.15012329,0.00755531
1813.07893066,0.00770259
1815.00773804,0.00777593
1816.93654541,0.00773745
1818.86535278,0.00778533
1820.79416016,0.00785008
1822.72296753,0.00785490
1824.65177490,0.00735408
1826.58058228,0.00771325
1828.50938965,0.00757172
1830.43819702,0.00708739
1832.36700439,0.00785724
1834.29581177,0.00774181
1836.22461914,0.00779320
1838.15342651,0.00775444
1840.08223389,0.00760313
1842.01104126,0.00775738
1843.93984863,0.00685296
1845.86865601,0.00726993
1847.79746338,0.00779954
1849.72627075,0.00760792
1851.65507812,0.00789774
1853.58388550,0.00766179
1855.51269287,0.00771506
1857.44150024,0.00769235
1859.37030762,0.00761022
1861.29911499,0.00772963
1863.22792236,0.00768035
1865.15672974,0.00765009
1867.08553711,0.00738230
1869.01434448,0.00724745
1870.94315186,0.00736876
1872.87195923,0.00777068
1874.80076660,0.00773244
1876.72957397,0.00750492
1878.65838135,0.00749160
1880.58718872,0.00743346
1882.51599609,0.00767242
1884.44480347,0.00747972
1886.37361084,0.00748625
1888.30241821,0.00738807
1890.23122559,0.00725803
1892.16003296,0.00766707
1894.08884033,0.00735184
1896.01764771,0.00743981
1897.94645508,0.00762114
1899.87526245,0.00752440
1901.80406982,0.00752570
1903.73287720,0.00731378
1905.66168457,0.00749982
1907.59049194,0.00731997
1909.51929932,0.00736129
1911.44810669,0.00740704
1913.37691406,0.00739515
1915.30572144,0.00759465
1917.23452881,0.00697249
1919.16333618,0.00721738
1921.09214355,0.00750002
1923.02095093,0.00723018
1924.94975830,0.00738241
1926.87856567,0.00721351
1928.80737305,0.00741122
1930.73618042,0.00745449
1932.66498779,0.00741680
1934.59379517,0.00749332
1936.52260254,0.00728481
1938.45140991,0.00750195
1940.38021729,0.00740653
1942.30902466,0.00725767
1944.23783203,0.00738863
1946.16663940,0.00737450
1948.09544678,0.00746124
1950.02425415,0.00743471
1951.95306152,0.00735350
1953.88186890,0.00731784
1955.81067627,0.00738732
1957.73948364,0.00739852
1959.66829102,0.00729148
1961.59709839,0.00735835
1963.52590576,0.00741364
1965.45471313,0.00728615
1967.38352051,0.00720701
1969.31232788,0.00740129
1971.24113525,0.00746322
1973.16994263,0.00744605
1975.09875000,0.00750111
1977.02755737,0.00734154
1978.95636475,0.00741763
1980.88517212,0.00750667
1982.81397949,0.00728104
1984.74278687,0.00723491
1986.67159424,0.00729458
1988.60040161,0.00728465
1990.52920898,0.00719566
1992.45801636,0.00717573
1994.38682373,0.00733095
1996.31563110,0.00738924
1998.24443848,0.00736231
2000.17324585,0.00729422
2002.10205322,0.00728320
2004.03086060,0.00734155
2005.95966797,0.00725374
2007.88847534,0.00720006
2009.81728271,0.00718527
2011.74609009,0.00719983
2013.67489746,0.00717442
2015.60370483,0.00710080
2017.53251221,0.00722592
2019.46131958,0.00721279
2021.39012695,0.00714300
2023.31893433,0.00709591
2025.24774170,0.00706823
2027.17654907,0.00721797
2029.10535645,0.00709906
2031.03416382,0.00705297
2032.96297119,0.00710961
2034.89177856,0.00701102
2036.82058594,0.00711205
2038.74939331,0.00708430
2040.67820068,0.00703265
2042.60700806,0.00709847
2044.53581543,0.00702980
2046.46462280,0.00701796
2048.39343018,0.00700562
2050.32223755,0.00706373
2052.25104492,0.00717058
2054.17985229,0.00701964
2056.10865967,0.00702532
2058.03746704,0.00711413
2059.96627441,0.00691745
2061.89508179,0.00692115
2063.82388916,0.00689053
2065.75269653,0.00683280
2067.68150391,0.00698428
2069.61031128,0.00690861
2071.53911865,0.00699390
2073.46792603,0.00704169
2075.39673340,0.00685278
2077.32554077,0.00687223
2079.25434814,0.00681699
2081.18315552,0.00681191
2083.11196289,0.00687145
2085.04077026,0.00684565
2086.96957764,0.00693665
2088.89838501,0.00693935
2090.82719238,0.00681300
2092.75599976,0.00683072
2094.68480713,0.00687763
2096.61361450,0.00678159
2098.54242187,0.00677903
2100.47122925,0.00679664
2102.40003662,0.00683912
2104.32884399,0.00696471
2106.25765137,0.00683142
2108.18645874,0.00679332
2110.11526611,0.00689207
2112.04407349,0.00679546
2113.97288086,0.00680306
2115.90168823,0.00682400
2117.83049561,0.00686896
2119.75930298,0.00688852
2121.68811035,0.00668712
2123.61691772,0.00668969
2125.54572510,0.00678987
2127.47453247,0.00680024
2129.40333984,0.00678923
2131.33214722,0.00675925
2133.26095459,0.00681268
2135.18976196,0.00675488
2137.11856934,0.00672272
2139.04737671,0.00672199
2140.97618408,0.00676467
2142.90499146,0.00685886
2144.83379883,0.00670535
2146.76260620,0.00668090
2148.69141357,0.00670840
2150.62022095,0.00673190
2152.54902832,0.00682740
2154.47783569,0.00670446
2156.40664307,0.00668258
2158.33545044,0.00673343
2160.26425781,0.00672235
2162.19306519,0.00669822
2164.12187256,0.00674606
2166.05067993,0.00684007
2167.97948730,0.00673427
2169.90829468,0.00663973
2171.83710205,0.00665779
2173.76590942,0.00676413
2175.69471680,0.00679579
2177.62352417,0.00675820
2179.55233154,0.00673654
2181.48113892,0.00665341
2183.40994629,0.00674930
2185.33875366,0.00674743
2187.26756104,0.00663385
2189.19636841,0.00665417
2191.12517578,0.00658090
2193.05398315,0.00665591
2194.98279053,0.00682626
2196.91159790,0.00668430
2198.84040527,0.00658084
2200.76921265,0.00667157
2202.69802002,0.00657446
2204.62682739,0.00652947
2206.55563477,0.00668054
2208.48444214,0.00667235
2210.41324951,0.00660822
2212.34205688,0.00672179
2214.27086426,0.00673430
2216.19967163,0.00662512
2218.12847900,0.00669634
2220.05728638,0.00663274
2221.98609375,0.00657528
2223.91490112,0.00665733
2225.84370850,0.00655836
2227.77251587,0.00651872
2229.70132324,0.00656074
2231.63013062,0.00667990
2233.55893799,0.00666156
2235.48774536,0.00649633
2237.41655273,0.00654028
2239.34536011,0.00657774
2241.27416748,0.00663049
2243.20297485,0.00663274
2245.13178223,0.00649206
2247.06058960,0.00648484
2248.98939697,0.00658899
2250.91820435,0.00649959
2252.84701172,0.00637289
2254.77581909,0.00646207
2256.70462646,0.00645701
2258.63343384,0.00649670
2260.56224121,0.00654769
2262.49104858,0.00646004
2264.41985596,0.00651668
2266.34866333,0.00649748
2268.27747070,0.00645617
2270.20627808,0.00646060
2272.13508545,0.00639325
2274.06389282,0.00652811
2275.99270020,0.00649911
2277.92150757,0.00629750
2279.85031494,0.00651031
2281.77912231,0.00654787
2283.70792969,0.00638257
2285.63673706,0.00646752
2287.56554443,0.00641458
2289.49435181,0.00641400
2291.42315918,0.00641132
2293.35196655,0.00623660
2295.28077393,0.00626517
2297.20958130,0.00641584
2299.13838867,0.00633036
2301.06719604,0.00618960
2302.99600342,0.00622916
2304.92481079,0.00614097
2306.85361816,0.00618308
2308.78242554,0.00627346
2310.71123291,0.00616905
2312.64004028,0.00603464
2314.56884766,0.00589740
2316.49765503,0.00599802
2318.42646240,0.00594430
2320.35526978,0.00584419
2322.28407715,0.00577756
2324.21288452,0.00572732
2326.14169189,0.00578635
2328.07049927,0.00550189
2329.99930664,0.00550616
2331.92811401,0.00553300
2333.85692139,0.00537375
2335.78572876,0.00544113
2337.71453613,0.00546051
2339.64334351,0.00556248
2341.57215088,0.00551831
2343.50095825,0.00561480
2345.42976562,0.00575912
2347.35857300,0.00587803
2349.28738037,0.00603458
2351.21618774,0.00571946
2353.14499512,0.00557218
2355.07380249,0.00543418
2357.00260986,0.00519076
2358.93141724,0.00517497
2360.86022461,0.00508230
2362.78903198,0.00504106
2364.71783936,0.00506263
2366.64664673,0.00517558
2368.57545410,0.00525559
2370.50426147,0.00545067
2372.43306885,0.00569177
2374.36187622,0.00564233
2376.29068359,0.00580521
2378.21949097,0.00599679
2380.14829834,0.00603071
2382.07710571,0.00620312
2384.00591309,0.00614609
2385.93472046,0.00609285
2387.86352783,0.00618467
2389.79233521,0.00607944
2391.72114258,0.00619609
2393.64994995,0.00620636
2395.57875732,0.00606698
2397.50756470,0.00612671
2399.43637207,0.00600222
2401.36517944,0.00608752
2403.29398682,0.00612750
2405.22279419,0.00602625
2407.15160156,0.00616514
2409.08040894,0.00619332
2411.00921631,0.00615776
2412.93802368,0.00613283
2414.86683105,0.00616648
2416.79563843,0.00601201
2418.72444580,0.00597654
2420.65325317,0.00616152
2422.58206055,0.00607407
2424.51086792,0.00600778
2426.43967529,0.00598427
2428.36848267,0.00604182
2430.29729004,0.00600266
2432.22609741,0.00600724
2434.15490479,0.00607752
2436.08371216,0.00603442
2438.01251953,0.00610569
2439.94132690,0.00593325
2441.87013428,0.00602976
2443.79894165,0.00613043
2445.72774902,0.00595200
2447.65655640,0.00596895
2449.58536377,0.00599017
2451.51417114,0.00616867
2453.44297852,0.00599188
2455.37178589,0.00599353
2457.30059326,0.00610836
2459.22940063,0.00579854
2461.15820801,0.00601661
2463.08701538,0.00604903
2465.01582275,0.00585898
2466.94463013,0.00590945
2468.87343750,0.00588472
2470.80224487,0.00590507
2472.73105225,0.00587304
2474.65985962,0.00594114
2476.58866699,0.00594938
2478.51747437,0.00599067
2480.44628174,0.00603653
2482.37508911,0.00585452
2484.30389648,0.00587666
2486.23270386,0.00590972
2488.16151123,0.00583137
2490.09031860,0.00585656
2492.01912598,0.00579459
2493.94793335,0.00572027
2495.87674072,0.00586774
2497.80554810,0.00591444
2499.73435547,0.00586747
2501.66316284,0.00594366
2503.59197021,0.00584877
2505.52077759,0.00582490
2507.44958496,0.00588241
2509.37839233,0.00582880
2511.30719971,0.00582320
2513.23600708,0.00580949
2515.16481445,0.00583144
2517.09362183,0.00574333
2519.02242920,0.00575193
2520.95123657,0.00577775
2522.88004395,0.00571609
2524.80885132,0.00595751
2526.73765869,0.00586440
2528.66646606,0.00572438
2530.59527344,0.00586347
2532.52408081,0.00575573
2534.45288818,0.00581055
2536.38169556,0.00578106
2538.31050293,0.00565490
2540.23931030,0.00572726
2542.16811768,0.00570490
2544.09692505,0.00568584
2546.02573242,0.00572279
2547.95453979,0.00573990
2549.88334717,0.00565675
2551.81215454,0.00566188
2553.74096191,0.00566889
2555.66976929,0.00566666
2557.59857666,0.00573075
2559.52738403,0.00562555
2561.45619141,0.00567023
2563.38499878,0.00572360
2565.31380615,0.00567708
2567.24261353,0.00565227
2569.17142090,0.00562611
2571.10022827,0.00565227
2573.02903564,0.00565442
2574.95784302,0.00573571
2576.88665039,0.00564862
2578.81545776,0.00565186
2580.74426514,0.00571229
2582.67307251,0.00559594
2584.60187988,0.00562077
2586.53068726,0.00557598
2588.45949463,0.00560848
2590.38830200,0.00565264
2592.31710937,0.00565337
2594.24591675,0.00556458
2596.17472412,0.00550215
2598.10353149,0.00563730
2600.03233887,0.00550072
2601.96114624,0.00552713
2603.88995361,0.00563677
2605.81876099,0.00560784
2607.74756836,0.00560569
2609.67637573,0.00557206
2611.60518311,0.00550599
2613.53399048,0.00537381
2615.46279785,0.00556612
2617.39160522,0.00548339
2619.32041260,0.00540624
2621.24921997,0.00563493
2623.17802734,0.00550040
2625.10683472,0.00544593
2627.03564209,0.00537411
2628.96444946,0.00544052
2630.89325684,0.00547674
2632.82206421,0.00538146
2634.75087158,0.00550580
2636.67967895,0.00547148
2638.60848633,0.00542113
2640.53729370,0.00533870
2642.46610107,0.00544763
2644.39490845,0.00548492
2646.32371582,0.00535322
2648.25252319,0.00541513
2650.18133057,0.00531982
2652.11013794,0.00543173
2654.03894531,0.00545812
2655.96775269,0.00528534
2657.89656006,0.00534893
2659.82536743,0.00538588
2661.75417480,0.00537915
2663.68298218,0.00529670
2665.61178955,0.00533806
2667.54059692,0.00540541
2669.46940430,0.00527884
2671.39821167,0.00532183
2673.32701904,0.00536973
2675.25582642,0.00524793
2677.18463379,0.00527783
2679.11344116,0.00525041
2681.04224854,0.00528346
2682.97105591,0.00539744
2684.89986328,0.00527837
2686.82867065,0.00540594
2688.75747803,0.00533565
2690.68628540,0.00517353
2692.61509277,0.00533766
2694.54390015,0.00523750
2696.47270752,0.00521979
2698.40151489,0.00526818
2700.33032227,0.00526561
2702.25912964,0.00519131
2704.18793701,0.00517456
2706.11674438,0.00531045
2708.04555176,0.00520622
2709.97435913,0.00525700
2711.90316650,0.00521323
2713.83197388,0.00514360
2715.76078125,0.00523380
2717.68958862,0.00517799
2719.61839600,0.00524818
2721.54720337,0.00517243
2723.47601074,0.00513054
2725.40481812,0.00521965
2727.33362549,0.00520634
2729.26243286,0.00520092
2731.19124023,0.00519174
2733.12004761,0.00512154
2735.04885498,0.00499446
2736.97766235,0.00512670
2738.90646973,0.00515577
2740.83527710,0.00504510
2742.76408447,0.00508067
2744.69289185,0.00504974
2746.62169922,0.00510416
2748.55050659,0.00514579
2750.47931396,0.00514649
2752.40812134,0.00503933
2754.33692871,0.00495042
2756.26573608,0.00512720
2758.19454346,0.00512057
2760.12335083,0.00501714
2762.05215820,0.00508995
2763.98096558,0.00507562
2765.90977295,0.00497212
2767.83858032,0.00500834
2769.76738770,0.00501634
2771.69619507,0.00492310
2773.62500244,0.00494654
2775.55380981,0.00498214
2777.48261719,0.00502723
2779.41142456,0.00506219
2781.34023193,0.00497730
2783.26903931,0.00489447
2785.19784668,0.00479269
2787.12665405,0.00481375
2789.05546143,0.00492921
2790.98426880,0.00488149
2792.91307617,0.00490991
2794.84188354,0.00487578
2796.77069092,0.00483941
2798.69949829,0.00496008
2800.62830566,0.00481718
2802.55711304,0.00479489
2804.48592041,0.00482807
2806.41472778,0.00480744
2808.34353516,0.00488204
2810.27234253,0.00469376
2812.20114990,0.00479930
2814.12995728,0.00491868
2816.05876465,0.00469693
2817.98757202,0.00463545
2819.91637939,0.00469443
2821.84518677,0.00480366
2823.77399414,0.00472985
2825.70280151,0.00474210
2827.63160889,0.00478229
2829.56041626,0.00482063
2831.48922363,0.00494677
2833.41803101,0.00474507
2835.34683838,0.00476236
2837.27564575,0.00470322
2839.20445312,0.00451650
2841.13326050,0.00466044
2843.06206787,0.00460056
2844.99087524,0.00465587
2846.91968262,0.00468622
2848.84848999,0.00452218
2850.77729736,0.00456939
2852.70610474,0.00463238
2854.63491211,0.00462964
2856.56371948,0.00454216
2858.49252686,0.00456826
2860.42133423,0.00461255
2862.35014160,0.00453583
2864.27894897,0.00455777
2866.20775635,0.00456479
2868.13656372,0.00453374
2870.06537109,0.00450461
2871.99417847,0.00453873
2873.92298584,0.00456812
2875.85179321,0.00451670
2877.78060059,0.00446286
2879.70940796,0.00439309
2881.63821533,0.00443420
2883.56702270,0.00446858
2885.49583008,0.00445073
2887.42463745,0.00442540
2889.35344482,0.00435405
2891.28225220,0.00436882
2893.21105957,0.00435835
2895.13986694,0.00436834
2897.06867432,0.00432010
2898.99748169,0.00424436
2900.92628906,0.00440509
2902.85509644,0.00442725
2904.78390381,0.00434666
2906.71271118,0.00440286
2908.64151855,0.00438579
2910.57032593,0.00427052
2912.49913330,0.00419888
2914.42794067,0.00422720
2916.35674805,0.00419412
2918.28555542,0.00416274
2920.21436279,0.00425607
2922.14317017,0.00429223
2924.07197754,0.00419722
2926.00078491,0.00416126
2927.92959229,0.00418037
2929.85839966,0.00414429
2931.78720703,0.00423333
2933.71601440,0.00431832
2935.64482178,0.00429854
2937.57362915,0.00428360
2939.50243652,0.00422886
2941.43124390,0.00422067
2943.36005127,0.00422335
2945.28885864,0.00417342
2947.21766602,0.00416662
2949.14647339,0.00427407
2951.07528076,0.00420174
2953.00408813,0.00400244
2954.93289551,0.00411279
2956.86170288,0.00419494
2958.79051025,0.00411425
2960.71931763,0.00409094
2962.64812500,0.00411361
2964.57693237,0.00411725
2966.50573975,0.00409133
2968.43454712,0.00415644
2970.36335449,0.00415446
2972.29216187,0.00412466
2974.22096924,0.00409877
2976.14977661,0.00408558
2978.07858398,0.00417615
2980.00739136,0.00407409
2981.93619873,0.00403726
2983.86500610,0.00421344
2985.79381348,0.00414702
2987.72262085,0.00400310
2989.65142822,0.00409033
2991.58023560,0.00411606
2993.50904297,0.00407830
2995.43785034,0.00414040
2997.36665771,0.00404073
2999.29546509,0.00400064
3001.22427246,0.00400415
3003.15307983,0.00391813
3005.08188721,0.00400382
3007.01069458,0.00397302
3008.93950195,0.00394879
3010.86830933,0.00401697
3012.79711670,0.00399745
3014.72592407,0.00402357
3016.65473145,0.00392729
3018.58353882,0.00394499
3020.51234619,0.00403024
3022.44115356,0.00387824
3024.36996094,0.00388663
3026.29876831,0.00397154
3028.22757568,0.00396036
3030.15638306,0.00403818
3032.08519043,0.00400473
3034.01399780,0.00389134
3035.94280518,0.00390689
3037.87161255,0.00387996
3039.80041992,0.00388322
3041.72922729,0.00393622
3043.65803467,0.00385453
3045.58684204,0.00389929
3047.51564941,0.00397812
3049.44445679,0.00383059
3051.37326416,0.00379479
3053.30207153,0.00388347
3055.23087891,0.00381069
3057.15968628,0.00378574
3059.08849365,0.00393271
3061.01730103,0.00390816
3062.94610840,0.00380774
3064.87491577,0.00385075
3066.80372314,0.00381386
3068.73253052,0.00378615
3070.66133789,0.00380920
3072.59014526,0.00383681
3074.51895264,0.00390975
3076.44776001,0.00380417
3078.37656738,0.00376451
3080.30537476,0.00384039
3082.23418213,0.00377133
3084.16298950,0.00380542
3086.09179687,0.00380753
3088.02060425,0.00376876
3089.94941162,0.00381691
3091.87821899,0.00371142
3093.80702637,0.00368543
3095.73583374,0.00375277
3097.66464111,0.00373961
3099.59344849,0.00375235
3101.52225586,0.00372303
3103.45106323,0.00371136
3105.37987061,0.00371123
3107.30867798,0.00363855
3109.23748535,0.00370250
3111.16629272,0.00383520
3113.09510010,0.00375164
3115.02390747,0.00376114
3116.95271484,0.00382447
3118.88152222,0.00367448
3120.81032959,0.00370321
3122.73913696,0.00372070
3124.66794434,0.00370687
3126.59675171,0.00372754
3128.52555908,0.00357967
3130.45436645,0.00366779
3132.38317383,0.00370486
3134.31198120,0.00367013
3136.24078857,0.00368619
3138.16959595,0.00355784
3140.09840332,0.00367149
3142.02721069,0.00371314
3143.95601807,0.00361759
3145.88482544,0.00360840
3147.81363281,0.00362794
3149.74244019,0.00370248
3151.67124756,0.00361652
3153.60005493,0.00358299
3155.52886230,0.00360896
3157.45766968,0.00359728
3159.38647705,0.00358731
3161.31528442,0.00351923
3163.24409180,0.00357881
3165.17289917,0.00362182
3167.10170654,0.00356144
3169.03051392,0.00357807
3170.95932129,0.00363608
3172.88812866,0.00361252
3174.81693604,0.00364205
3176.74574341,0.00365077
3178.67455078,0.00353763
3180.60335815,0.00361277
3182.53216553,0.00365516
3184.46097290,0.00359061
3186.38978027,0.00361128
3188.31858765,0.00359751
3190.24739502,0.00361858
3192.17620239,0.00358231
3194.10500977,0.00350861
3196.03381714,0.00361091
3197.96262451,0.00367314
3199.89143188,0.00360598
3201.82023926,0.00364684
3203.74904663,0.00370277
3205.67785400,0.00366261
3207.60666138,0.00355357
3209.53546875,0.00357436
3211.46427612,0.00371769
3213.39308350,0.00363346
3215.32189087,0.00365773
3217.25069824,0.00372568
3219.17950562,0.00368324
3221.10831299,0.00375239
3223.03712036,0.00366667
3224.96592773,0.00366652
3226.89473511,0.00372336
3228.82354248,0.00368775
3230.75234985,0.00370995
3232.68115723,0.00369973
3234.60996460,0.00375544
3236.53877197,0.00374604
3238.46757935,0.00374362
3240.39638672,0.00381688
3242.32519409,0.00375585
3244.25400146,0.00368355
3246.18280884,0.00374353
3248.11161621,0.00382175
3250.04042358,0.00383583
3251.96923096,0.00382941
3253.89803833,0.00376115
3255.82684570,0.00374930
3257.75565308,0.00378440
3259.68446045,0.00381602
3261.61326782,0.00380633
3263.54207520,0.00377504
3265.47088257,0.00381484
3267.39968994,0.00376091
3269.32849731,0.00382695
3271.25730469,0.00389368
3273.18611206,0.00384047
3275.11491943,0.00384699
3277.04372681,0.00384760
3278.97253418,0.00396603
3280.90134155,0.00391936
3282.83014893,0.00385644
3284.75895630,0.00396523
3286.68776367,0.00395331
3288.61657104,0.00392800
3290.54537842,0.00389352
3292.47418579,0.00395039
3294.40299316,0.00400695
3296.33180054,0.00394197
3298.26060791,0.00391760
3300.18941528,0.00394143
3302.11822266,0.00398239
3304.04703003,0.00398899
3305.97583740,0.00397060
3307.90464478,0.00397747
3309.83345215,0.00401244
3311.76225952,0.00397604
3313.69106689,0.00403626
3315.61987427,0.00406682
3317.54868164,0.00389543
3319.47748901,0.00403614
3321.40629639,0.00414020
3323.33510376,0.00396616
3325.26391113,0.00409699
3327.19271851,0.00414171
3329.12152588,0.00399426
3331.05033325,0.00408782
3332.97914062,0.00406924
3334.90794800,0.00397667
3336.83675537,0.00404399
3338.76556274,0.00412171
3340.69437012,0.00412289
3342.62317749,0.00410876
3344.55198486,0.00418347
3346.48079224,0.00411031
3348.40959961,0.00415501
3350.33840698,0.00420090
3352.26721436,0.00409956
3354.19602173,0.00422338
3356.12482910,0.00413508
3358.05363647,0.00418283
3359.98244385,0.00432093
3361.91125122,0.00423782
3363.84005859,0.00431185
3365.76886597,0.00426730
3367.69767334,0.00425929
3369.62648071,0.00427658
3371.55528809,0.00428428
3373.48409546,0.00425049
3375.41290283,0.00415802
3377.34171020,0.00420914
3379.27051758,0.00422968
3381.19932495,0.00433068
3383.12813232,0.00435231
3385.05693970,0.00438546
3386.98574707,0.00435971
3388.91455444,0.00432221
3390.84336182,0.00443947
3392.77216919,0.00438068
3394.70097656,0.00442040
3396.62978394,0.00436988
3398.55859131,0.00442888
3400.48739868,0.00450172
3402.41620605,0.00436145
3404.34501343,0.00450898
3406.27382080,0.00450757
3408.20262817,0.00449337
3410.13143555,0.00452738
3412.06024292,0.00449383
3413.98905029,0.00455883
3415.91785767,0.00460971
3417.84666504,0.00459622
3419.77547241,0.00441506
3421.70427979,0.00450061
3423.63308716,0.00460749
3425.56189453,0.00453900
3427.49070190,0.00460661
3429.41950928,0.00461962
3431.34831665,0.00459522
3433.27712402,0.00453045
3435.20593140,0.00454958
3437.13473877,0.00461170
3439.06354614,0.00455813
3440.99235352,0.00457858
3442.92116089,0.00464892
3444.84996826,0.00459512
3446.77877563,0.00459254
3448.70758301,0.00461438
3450.63639038,0.00460124
3452.56519775,0.00468817
3454.49400513,0.00464842
3456.42281250,0.00468746
3458.35161987,0.00469999
3460.28042725,0.00465084
3462.20923462,0.00474539
3464.13804199,0.00469323
3466.06684937,0.00469621
3467.99565674,0.00467072
3469.92446411,0.00469223
3471.85327148,0.00472340
3473.78207886,0.00464695
3475.71088623,0.00472746
3477.63969360,0.00468328
3479.56850098,0.00464373
3481.49730835,0.00467989
3483.42611572,0.00465184
3485.35492310,0.00462866
3487.28373047,0.00471773
3489.21253784,0.00478338
3491.14134521,0.00472975
3493.07015259,0.00478841
3494.99895996,0.00475630
3496.92776733,0.00475006
3498.85657471,0.00479572
3500.78538208,0.00474412
3502.71418945,0.00476829
3504.64299683,0.00488608
3506.57180420,0.00480427
3508.50061157,0.00465261
3510.42941895,0.00481690
3512.35822632,0.00476471
3514.28703369,0.00475190
3516.21584106,0.00483299
3518.14464844,0.00474067
3520.07345581,0.00483822
3522.00226318,0.00480587
3523.93107056,0.00476647
3525.85987793,0.00473129
3527.78868530,0.00472707
3529.71749268,0.00474782
3531.64630005,0.00480049
3533.57510742,0.00490717
3535.50391479,0.00472000
3537.43272217,0.00482176
3539.36152954,0.00493378
3541.29033691,0.00486727
3543.21914429,0.00486975
3545.14795166,0.00467964
3547.07675903,0.00465018
3549.00556641,0.00476856
3550.93437378,0.00479639
3552.86318115,0.00473178
3554.79198853,0.00485350
3556.72079590,0.00488724
3558.64960327,0.00476442
3560.57841064,0.00475367
3562.50721802,0.00467642
3564.43602539,0.00466190
3566.36483276,0.00439913
3568.29364014,0.00432069
3570.22244751,0.00467606
3572.15125488,0.00483835
3574.08006226,0.00482837
3576.00886963,0.00478844
3577.93767700,0.00483847
3579.86648437,0.00479515
3581.79529175,0.00472337
3583.72409912,0.00477293
3585.65290649,0.00471359
3587.58171387,0.00441761
3589.51052124,0.00453636
3591.43932861,0.00492413
3593.36813599,0.00465789
3595.29694336,0.00457463
3597.22575073,0.00474166
3599.15455811,0.00470900
3601.08336548,0.00476939
3603.01217285,0.00477968
3604.94098022,0.00483837
3606.86978760,0.00469710
3608.79859497,0.00442493
3610.72740234,0.00457538
3612.65620972,0.00459407
3614.58501709,0.00448895
3616.51382446,0.00482897
3618.44263184,0.00449562
3620.37143921,0.00428804
3622.30024658,0.00474289
3624.22905395,0.00477160
3626.15786133,0.00499424
3628.08666870,0.00420524
3630.01547607,0.00386624
3631.94428345,0.00486648
3633.87309082,0.00472764
3635.80189819,0.00478417
3637.73070557,0.00498382
3639.65951294,0.00487984
3641.58832031,0.00487046
3643.51712769,0.00483088
3645.44593506,0.00491720
3647.37474243,0.00441604
3649.30354980,0.00396581
3651.23235718,0.00416110
3653.16116455,0.00498097
3655.08997192,0.00480231
3657.01877930,0.00441379
3658.94758667,0.00506412
3660.87639404,0.00485917
3662.80520142,0.00495676
3664.73400879,0.00495455
3666.66281616,0.00496664
3668.59162354,0.00487421
3670.52043091,0.00399263
3672.44923828,0.00478752
3674.37804565,0.00454372
3676.30685303,0.00386937
3678.23566040,0.00484749
3680.16446777,0.00491577
3682.09327515,0.00492686
3684.02208252,0.00493201
3685.95088989,0.00490380
3687.87969727,0.00461585
3689.80850464,0.00416990
3691.73731201,0.00470403
3693.66611938,0.00488547
3695.59492676,0.00494159
3697.52373413,0.00495961
3699.45254150,0.00497974
3701.38134888,0.00482838
3703.31015625,0.00452056
3705.23896362,0.00501784
3707.16777100,0.00483307
3709.09657837,0.00468047
3711.02538574,0.00449367
3712.95419312,0.00408106
3714.88300049,0.00474981
3716.81180786,0.00482907
3718.74061523,0.00475675
3720.66942261,0.00464011
3722.59822998,0.00445970
3724.52703735,0.00456238
3726.45584473,0.00426551
3728.38465210,0.00458920
3730.31345947,0.00454828
3732.24226685,0.00426193
3734.17107422,0.00411862
3736.09988159,0.00383363
3738.02868896,0.00410856
3739.95749634,0.00440722
3741.88630371,0.00463440
3743.81511108,0.00367286
3745.74391846,0.00335277
3747.67272583,0.00428285
3749.60153320,0.00369434
3751.53034058,0.00347482
3753.45914795,0.00388675
3755.38795532,0.00407135
3757.31676270,0.00430865
3759.24557007,0.00401501
3761.17437744,0.00419766
3763.10318481,0.00442280
3765.03199219,0.00411794
3766.96079956,0.00420660
3768.88960693,0.00414859
3770.81841431,0.00393701
3772.74722168,0.00420569
3774.67602905,0.00426445
3776.60483643,0.00421945
3778.53364380,0.00408644
3780.46245117,0.00396749
3782.39125854,0.00421050
3784.32006592,0.00403068
3786.24887329,0.00399932
3788.17768066,0.00422837
3790.10648804,0.00411035
3792.03529541,0.00401538
3793.96410278,0.00414102
3795.89291016,0.00391727
3797.82171753,0.00383765
3799.75052490,0.00398902
3801.67933228,0.00320440
3803.60813965,0.00368090
3805.53694702,0.00402836
3807.46575439,0.00331158
3809.39456177,0.00400013
3811.32336914,0.00398308
3813.25217651,0.00402702
3815.18098389,0.00367091
3817.10979126,0.00317342
3819.03859863,0.00395535
3820.96740601,0.00326889
3822.89621338,0.00342943
3824.82502075,0.00400516
3826.75382812,0.00352336
3828.68263550,0.00378161
3830.61144287,0.00365704
3832.54025024,0.00346299
3834.46905762,0.00358710
3836.39786499,0.00349213
3838.32667236,0.00311916
3840.25547974,0.00329567
3842.18428711,0.00360736
3844.11309448,0.00340274
3846.04190186,0.00363735
3847.97070923,0.00366233
3849.89951660,0.00363603
3851.82832397,0.00325861
3853.75713135,0.00252943
3855.68593872,0.00297047
3857.61474609,0.00362615
3859.54355347,0.00353064
3861.47236084,0.00346572
3863.40116821,0.00336861
3865.32997559,0.00318219
3867.25878296,0.00354330
3869.18759033,0.00320407
3871.11639770,0.00295036
3873.04520508,0.00347511
3874.97401245,0.00321267
3876.90281982,0.00346622
3878.83162720,0.00351300
3880.76043457,0.00303073
3882.68924194,0.00340458
3884.61804932,0.00321107
3886.54685669,0.00297640
3888.47566406,0.00341924
3890.40447144,0.00333784
3892.33327881,0.00313362
3894.26208618,0.00339797
3896.19089355,0.00337128
3898.11970093,0.00318768
3900.04850830,0.00313637
3901.97731567,0.00301154
3903.90612305,0.00304373
3905.83493042,0.00307603
3907.76373779,0.00328181
3909.69254517,0.00335633
3911.62135254,0.00324090
3913.55015991,0.00334570
3915.47896728,0.00322267
3917.40777466,0.00313463
3919.33658203,0.00320938
3921.26538940,0.00323083
3923.19419678,0.00324317
3925.12300415,0.00316858
3927.05181152,0.00314605
3928.98061890,0.00323190
3930.90942627,0.00310818
3932.83823364,0.00296866
3934.76704102,0.00317475
3936.69584839,0.00319821
3938.62465576,0.00313735
3940.55346313,0.00309105
3942.48227051,0.00299099
3944.41107788,0.00310526
3946.33988525,0.00309275
3948.26869263,0.00306078
3950.19750000,0.00303339
3952.12630737,0.00303780
3954.05511475,0.00307229
3955.98392212,0.00299337
3957.91272949,0.00310504
3959.84153687,0.00308355
3961.77034424,0.00299821
3963.69915161,0.00304074
3965.62795898,0.00302062
3967.55676636,0.00302761
3969.48557373,0.00297512
3971.41438110,0.00300259
3973.34318848,0.00303596
3975.27199585,0.00302357
3977.20080322,0.00307667
3979.12961060,0.00303457
3981.05841797,0.00304243
3982.98722534,0.00298771
3984.91603271,0.00292599
3986.84484009,0.00298041
3988.77364746,0.00285849
3990.70245483,0.00290150
3992.63126221,0.00296800
3994.56006958,0.00286440
3996.48887695,0.00293792
3998.41768433,0.00285582
4000.34649170,0.00280293
4002.27529907,0.00297561
4004.20410645,0.00295305
4006.13291382,0.00276117
4008.06172119,0.00273117
4009.99052856,0.00285195
4011.91933594,0.00284002
4013.84814331,0.00286448
4015.77695068,0.00282619
4017.70575806,0.00276313
4019.63456543,0.00286251
4021.56337280,0.00286329
4023.49218018,0.00285464
4025.42098755,0.00277948
4027.34979492,0.00281772
4029.27860229,0.00288506
4031.20740967,0.00271554
4033.13621704,0.00270600
4035.06502441,0.00269884
4036.99383179,0.00271601
4038.92263916,0.00281247
4040.85144653,0.00270407
4042.78025391,0.00266068
4044.70906128,0.00275068
4046.63786865,0.00273329
4048.56667603,0.00265045
4050.49548340,0.00267961
4052.42429077,0.00271283
4054.35309814,0.00271446
4056.28190552,0.00272406
4058.21071289,0.00263221
4060.13952026,0.00263686
4062.06832764,0.00267366
4063.99713501,0.00266362
4065.92594238,0.00275511
4067.85474976,0.00268285
4069.78355713,0.00257551
4071.71236450,0.00259812
4073.64117187,0.00259587
4075.56997925,0.00263038
4077.49878662,0.00260877
4079.42759399,0.00258224
4081.35640137,0.00254181
4083.28520874,0.00252136
4085.21401611,0.00259439
4087.14282349,0.00258621
4089.07163086,0.00259983
4091.00043823,0.00253218
4092.92924561,0.00245637
4094.85805298,0.00254366
4096.78686035,0.00260918
4098.71566772,0.00252842
4100.64447510,0.00243383
4102.57328247,0.00256696
4104.50208984,0.00253803
4106.43089722,0.00244148
4108.35970459,0.00250494
4110.28851196,0.00249313
4112.21731934,0.00250238
4114.14612671,0.00239021
4116.07493408,0.00240427
4118.00374145,0.00254007
4119.93254883,0.00250704
4121.86135620,0.00251171
4123.79016357,0.00251055
4125.71897095,0.00246287
4127.64777832,0.00238062
4129.57658569,0.00243126
4131.50539307,0.00247271
4133.43420044,0.00234659
4135.36300781,0.00237555
4137.29181519,0.00242905
4139.22062256,0.00237059
4141.14942993,0.00239356
4143.07823730,0.00248011
4145.00704468,0.00244785
4146.93585205,0.00237474
4148.86465942,0.00232340
4150.79346680,0.00230587
4152.72227417,0.00236071
4154.65108154,0.00232879
4156.57988892,0.00233736
4158.50869629,0.00239929
4160.43750366,0.00236794
4162.36631103,0.00237096
4164.29511841,0.00235113
4166.22392578,0.00228187
4168.15273315,0.00239410
4170.08154053,0.00242259
4172.01034790,0.00227783
4173.93915527,0.00232636
4175.86796265,0.00227298
4177.79677002,0.00227735
4179.72557739,0.00236524
4181.65438477,0.00221276
4183.58319214,0.00223758
4185.51199951,0.00223381
4187.44080688,0.00220077
4189.36961426,0.00224719
4191.29842163,0.00221414
4193.22722900,0.00228925
4195.15603638,0.00224996
4197.08484375,0.00222316
4199.01365112,0.00221801
4200.94245850,0.00215772
4202.87126587,0.00221106
4204.80007324,0.00217779
4206.72888062,0.00222174
4208.65768799,0.00222524
4210.58649536,0.00210589
4212.51530273,0.00218027
4214.44411011,0.00218182
4216.37291748,0.00213175
4218.30172485,0.00220645
4220.23053223,0.00221431
4222.15933960,0.00222758
4224.08814697,0.00219734
4226.01695435,0.00213723
4227.94576172,0.00221479
4229.87456909,0.00218700
4231.80337646,0.00212460
4233.73218384,0.00218290
4235.66099121,0.00214336
4237.58979858,0.00206159
4239.51860596,0.00206674
4241.44741333,0.00207734
4243.37622070,0.00201479
4245.30502808,0.00208896
4247.23383545,0.00220746
4249.16264282,0.00208664
4251.09145020,0.00208059
4253.02025757,0.00211322
4254.94906494,0.00207181
4256.87787231,0.00216992
4258.80667969,0.00209404
4260.73548706,0.00201336
4262.66429443,0.00205231
4264.59310181,0.00199057
4266.52190918,0.00197819
4268.45071655,0.00199375
4270.37952393,0.00201307
4272.30833130,0.00202612
4274.23713867,0.00205358
4276.16594604,0.00201911
4278.09475342,0.00193547
4280.02356079,0.00198352
4281.95236816,0.00200580
4283.88117554,0.00198777
4285.80998291,0.00191979
4287.73879028,0.00193548
4289.66759766,0.00195769
4291.59640503,0.00185933
4293.52521240,0.00197856
4295.45401978,0.00202259
4297.38282715,0.00194536
4299.31163452,0.00192083
4301.24044189,0.00190976
4303.16924927,0.00196389
4305.09805664,0.00190966
4307.02686401,0.00190761
4308.95567139,0.00192246
4310.88447876,0.00190254
4312.81328613,0.00191661
4314.74209351,0.00189061
4316.67090088,0.00187515
4318.59970825,0.00183072
4320.52851562,0.00188944
4322.45732300,0.00190122
4324.38613037,0.00183627
4326.31493774,0.00187807
4328.24374512,0.00185655
4330.17255249,0.00185594
4332.10135986,0.00185014
4334.03016724,0.00175720
4335.95897461,0.00180540
4337.88778198,0.00188818
4339.81658936,0.00185101
4341.74539673,0.00185868
4343.67420410,0.00184441
4345.60301147,0.00179939
4347.53181885,0.00176664
4349.46062622,0.00176921
4351.38943359,0.00186831
4353.31824097,0.00182563
4355.24704834,0.00176101
4357.17585571,0.00175067
4359.10466309,0.00174805
4361.03347046,0.00180329
4362.96227783,0.00176731
4364.89108520,0.00173103
4366.81989258,0.00175146
4368.74869995,0.00181204
4370.67750732,0.00177155
4372.60631470,0.00171627
4374.53512207,0.00175543
4376.46392944,0.00178738
4378.39273682,0.00181931
4380.32154419,0.00173656
4382.25035156,0.00174838
4384.17915894,0.00168238
4386.10796631,0.00159709
4388.03677368,0.00173247
4389.96558105,0.00173568
4391.89438843,0.00176352
4393.82319580,0.00175320
4395.75200317,0.00171992
4397.68081055,0.00174756
4399.60961792,0.00169934
4401.53842529,0.00167675
4403.46723267,0.00167116
4405.39604004,0.00173066
4407.32484741,0.00174279
4409.25365478,0.00175500
4411.18246216,0.00171377
4413.11126953,0.00164877
4415.04007690,0.00164116
4416.96888428,0.00159862
4418.89769165,0.00170006
4420.82649902,0.00168118
4422.75530640,0.00167331
4424.68411377,0.00173677
4426.61292114,0.00163892
4428.54172852,0.00163136
4430.47053589,0.00162347
4432.39934326,0.00161616
4434.32815063,0.00160249
4436.25695801,0.00158121
4438.18576538,0.00159528
4440.11457275,0.00160440
4442.04338013,0.00163564
4443.97218750,0.00161708
4445.90099487,0.00165863
4447.82980225,0.00160127
4449.75860962,0.00153857
4451.68741699,0.00164307
4453.61622437,0.00157469
4455.54503174,0.00154559
4457.47383911,0.00161119
4459.40264648,0.00153312
4461.33145386,0.00151730
4463.26026123,0.00152578
4465.18906860,0.00154651
4467.11787598,0.00152022
4469.04668335,0.00146040
4470.97549072,0.00160301
4472.90429810,0.00156624
4474.83310547,0.00150229
4476.76191284,0.00156195
4478.69072021,0.00149306
4480.61952759,0.00151082
4482.54833496,0.00149428
4484.47714233,0.00156970
4486.40594971,0.00154396
4488.33475708,0.00145223
4490.26356445,0.00157861
4492.19237183,0.00148527
4494.12117920,0.00151036
4496.04998657,0.00153552
4497.97879395,0.00142829
4499.90760132,0.00148920
4501.83640869,0.00150773
4503.76521606,0.00153731
4505.69402344,0.00146182
4507.62283081,0.00141690
4509.55163818,0.00147132
4511.48044556,0.00149647
4513.40925293,0.00148223
4515.33806030,0.00141397
4517.26686768,0.00141308
4519.19567505,0.00142000
4521.12448242,0.00147912
4523.05328979,0.00143035
4524.98209717,0.00142789
4526.91090454,0.00150331
4528.83971191,0.00138958
4530.76851929,0.00138913
4532.69732666,0.00142488
4534.62613403,0.00140203
4536.55494141,0.00139694
4538.48374878,0.00144311
4540.41255615,0.00146406
4542.34136353,0.00138131
4544.27017090,0.00135161
4546.19897827,0.00137222
4548.12778564,0.00144539
4550.05659302,0.00140488
4551.98540039,0.00138657
4553.91420776,0.00146264
4555.84301514,0.00141014
4557.77182251,0.00139087
4559.70062988,0.00143432
4561.62943726,0.00145110
4563.55824463,0.00141957
4565.48705200,0.00146960
4567.41585937,0.00144458
4569.34466675,0.00130996
4571.27347412,0.00134630
4573.20228149,0.00135285
4575.13108887,0.00133866
4577.05989624,0.00137973
4578.98870361,0.00138731
4580.91751099,0.00138987
4582.84631836,0.00135718
4584.77512573,0.00128734
4586.70393311,0.00126855
4588.63274048,0.00126699
4590.56154785,0.00127692
4592.49035522,0.00138988
4594.41916260,0.00134526
4596.34796997,0.00129689
4598.27677734,0.00135257
4600.20558472,0.00130986
4602.13439209,0.00134008
4604.06319946,0.00126530
4605.99200684,0.00121296
4607.92081421,0.00130986
4609.84962158,0.00129028
4611.77842895,0.00127647
4613.70723633,0.00128973
4615.63604370,0.00127902
4617.56485107,0.00128162
4619.49365845,0.00124953
4621.42246582,0.00120539
4623.35127319,0.00127218
4625.28008057,0.00125733
4627.20888794,0.00118125
4629.13769531,0.00129097
4631.06650269,0.00126309
4632.99531006,0.00113939
4634.92411743,0.00119969
4636.85292480,0.00124147
4638.78173218,0.00120915
4640.71053955,0.00125579
4642.63934692,0.00123062
4644.56815430,0.00110935
4646.49696167,0.00116972
4648.42576904,0.00126875
4650.35457642,0.00123708
4652.28338379,0.00116795
4654.21219116,0.00117273
4656.14099853,0.00120938
4658.06980591,0.00119728
4659.99861328,0.00122433
4661.92742065,0.00127228
4663.85622803,0.00125495
4665.78503540,0.00115887
4667.71384277,0.00119088
4669.64265015,0.00121821
4671.57145752,0.00112445
4673.50026489,0.00112594
4675.42907227,0.00114209
4677.35787964,0.00121589
4679.28668701,0.00122926
4681.21549438,0.00125405
4683.14430176,0.00126627
4685.07310913,0.00112697
4687.00191650,0.00122235
4688.93072388,0.00124361
4690.85953125,0.00110932
4692.78833862,0.00112696
4694.71714600,0.00120465
4696.64595337,0.00120765
4698.57476074,0.00110101
4700.50356812,0.00113830
4702.43237549,0.00116078
4704.36118286,0.00118400
4706.28999023,0.00121751
4708.21879761,0.00112506
4710.14760498,0.00114860
4712.07641235,0.00113415
4714.00521973,0.00116559
4715.93402710,0.00119084
4717.86283447,0.00106043
4719.79164185,0.00110704
4721.72044922,0.00117239
4723.64925659,0.00110293
4725.57806396,0.00112107
4727.50687134,0.00117509
4729.43567871,0.00111760
4731.36448608,0.00111203
4733.29329346,0.00111776
4735.22210083,0.00108703
4737.15090820,0.00113211
4739.07971558,0.00109919
4741.00852295,0.00107588
4742.93733032,0.00109519
4744.86613770,0.00106544
4746.79494507,0.00107948
4748.72375244,0.00111289
4750.65255981,0.00108092
4752.58136719,0.00103899
4754.51017456,0.00103192
4756.43898193,0.00102571
4758.36778931,0.00112277
4760.29659668,0.00111243
4762.22540405,0.00102703
4764.15421143,0.00109908
4766.08301880,0.00110678
4768.01182617,0.00110615
4769.94063354,0.00106239
4771.86944092,0.00103259
4773.79824829,0.00107865
4775.72705566,0.00105226
4777.65586304,0.00107063
4779.58467041,0.00100444
4781.51347778,0.00097776
4783.44228516,0.00102803
4785.37109253,0.00101113
4787.29989990,0.00106360
4789.22870728,0.00101243
4791.15751465,0.00098535
4793.08632202,0.00105342
4795.01512939,0.00100620
4796.94393677,0.00099711
4798.87274414,0.00100748
4800.80155151,0.00099981
4802.73035889,0.00100286
4804.65916626,0.00096442
4806.58797363,0.00099387
4808.51678101,0.00100059
4810.44558838,0.00097368
4812.37439575,0.00102650
4814.30320312,0.00099740
4816.23201050,0.00095298
4818.16081787,0.00096914
4820.08962524,0.00098572
4822.01843262,0.00100945
4823.94723999,0.00099203
4825.87604736,0.00096160
4827.80485474,0.00093524
4829.73366211,0.00098609
4831.66246948,0.00100003
4833.59127686,0.00092654
4835.52008423,0.00096505
4837.44889160,0.00096509
4839.37769897,0.00094434
4841.30650635,0.00101053
4843.23531372,0.00097374
4845.16412109,0.00091966
4847.09292847,0.00097269
4849.02173584,0.00098136
4850.95054321,0.00094608
4852.87935059,0.00096019
4854.80815796,0.00098153
4856.73696533,0.00090915
4858.66577270,0.00085003
4860.59458008,0.00092169
4862.52338745,0.00087956
4864.45219482,0.00091256
4866.38100220,0.00101648
4868.30980957,0.00091553
4870.23861694,0.00094648
4872.16742432,0.00092766
4874.09623169,0.00084319
4876.02503906,0.00089500
4877.95384644,0.00086776
4879.88265381,0.00091253
4881.81146118,0.00098147
4883.74026855,0.00094633
4885.66907593,0.00093923
4887.59788330,0.00095533
4889.52669067,0.00086874
4891.45549805,0.00086662
4893.38430542,0.00093765
4895.31311279,0.00086736
4897.24192017,0.00088203
4899.17072754,0.00087652
4901.09953491,0.00090152
4903.02834228,0.00095013
4904.95714966,0.00083730
4906.88595703,0.00084008
4908.81476440,0.00089240
4910.74357178,0.00087846
4912.67237915,0.00084806
4914.60118652,0.00087784
4916.52999390,0.00087389
4918.45880127,0.00080403
4920.38760864,0.00076556
4922.31641602,0.00076840
4924.24522339,0.00086179
4926.17403076,0.00083498
4928.10283813,0.00086375
4930.03164551,0.00087429
4931.96045288,0.00081979
4933.88926025,0.00087624
4935.81806763,0.00077839
4937.74687500,0.00082824
4939.67568237,0.00083737
4941.60448975,0.00072853
4943.53329712,0.00082558
4945.46210449,0.00082622
4947.39091187,0.00077167
4949.31971924,0.00076655
4951.24852661,0.00079638
4953.17733398,0.00079807
4955.10614136,0.00085330
4957.03494873,0.00089827
4958.96375610,0.00083230
4960.89256348,0.00085774
4962.82137085,0.00083277
4964.75017822,0.00077687
4966.67898560,0.00077165
4968.60779297,0.00078902
4970.53660034,0.00078659
4972.46540771,0.00078333
4974.39421509,0.00081522
4976.32302246,0.00083723
4978.25182983,0.00085791
4980.18063721,0.00078896
4982.10944458,0.00084304
4984.03825195,0.00081481
4985.96705933,0.00072628
4987.89586670,0.00083014
4989.82467407,0.00076293
4991.75348145,0.00079613
4993.68228882,0.00080444
4995.61109619,0.00066901
4997.53990356,0.00073826
4999.46871094,0.00077943
5001.39751831,0.00082687
5003.32632568,0.00084225
5005.25513306,0.00076471
5007.18394043,0.00074879
5009.11274780,0.00074697
5011.04155518,0.00075738
5012.97036255,0.00072650
5014.89916992,0.00073420
5016.82797729,0.00082067
5018.75678467,0.00073674
5020.68559204,0.00073638
5022.61439941,0.00086672
5024.54320679,0.00075330
5026.47201416,0.00072428
5028.40082153,0.00074725
5030.32962891,0.00073633
5032.25843628,0.00084119
5034.18724365,0.00076289
5036.11605103,0.00068749
5038.04485840,0.00069949
5039.97366577,0.00067902
5041.90247314,0.00071467
5043.83128052,0.00073201
5045.76008789,0.00069748
5047.68889526,0.00071133
5049.61770264,0.00075503
5051.54651001,0.00068801
5053.47531738,0.00067151
5055.40412476,0.00070980
5057.33293213,0.00072377
5059.26173950,0.00075040
5061.19054687,0.00072114
5063.11935425,0.00067408
5065.04816162,0.00071558
5066.97696899,0.00075573
5068.90577637,0.00062142
5070.83458374,0.00067989
5072.76339111,0.00076469
5074.69219849,0.00064908
5076.62100586,0.00068264
5078.54981323,0.00067460
5080.47862061,0.00067047
5082.40742798,0.00068103
5084.33623535,0.00069805
5086.26504272,0.00068704
5088.19385010,0.00062883
5090.12265747,0.00071467
5092.05146484,0.00065516
5093.98027222,0.00065310
5095.90907959,0.00068638
5097.83788696,0.00065642
5099.76669434,0.00071642
5101.69550171,0.00066604
5103.62430908,0.00066291
5105.55311645,0.00068503
5107.48192383,0.00076303
5109.41073120,0.00073686
5111.33953857,0.00064691
5113.26834595,0.00070993
5115.19715332,0.00062861
5117.12596069,0.00063684
5119.05476807,0.00062334
5120.98357544,0.00054880
5122.91238281,0.00061969
5124.84119019,0.00058365
5126.76999756,0.00059249
5128.69880493,0.00064501
5130.62761230,0.00062821
5132.55641968,0.00064620
5134.48522705,0.00067909
5136.41403442,0.00065759
5138.34284180,0.00063884
5140.27164917,0.00062980
5142.20045654,0.00062207
5144.12926392,0.00069055
5146.05807129,0.00066745
5147.98687866,0.00062687
5149.91568603,0.00064208
5151.84449341,0.00061479
5153.77330078,0.00061925
5155.70210815,0.00063040
5157.63091553,0.00061923
5159.55972290,0.00057019
5161.48853027,0.00059426
5163.41733765,0.00062481
5165.34614502,0.00062714
5167.27495239,0.00066974
5169.20375977,0.00056131
5171.13256714,0.00057822
5173.06137451,0.00070005
5174.99018188,0.00064225
5176.91898926,0.00063427
5178.84779663,0.00060568
5180.77660400,0.00058422
5182.70541138,0.00063824
5184.63421875,0.00064544
5186.56302612,0.00060999
5188.49183350,0.00051764
5190.42064087,0.00058978
5192.34944824,0.00065666
5194.27825562,0.00058669
5196.20706299,0.00062781
5198.13587036,0.00059385
5200.06467773,0.00055721
5201.99348511,0.00057433
5203.92229248,0.00056346
5205.85109985,0.00056810
5207.77990723,0.00051447
5209.70871460,0.00055946
5211.63752197,0.00056063
5213.56632935,0.00049222
5215.49513672,0.00054509
5217.42394409,0.00054779
5219.35275146,0.00054388
5221.28155884,0.00056987
5223.21036621,0.00057439
5225.13917358,0.00055517
5227.06798096,0.00051583
5228.99678833,0.00054424
5230.92559570,0.00055843
5232.85440308,0.00051929
5234.78321045,0.00057531
5236.71201782,0.00062732
5238.64082520,0.00055227
5240.56963257,0.00051885
5242.49843994,0.00048492
5244.42724731,0.00049639
5246.35605469,0.00059815
5248.28486206,0.00054929
5250.21366943,0.00055851
5252.14247681,0.00065662
5254.07128418,0.00059972
5256.00009155,0.00054186
5257.92889893,0.00053721
5259.85770630,0.00052287
5261.78651367,0.00053182
5263.71532104,0.00055857
5265.64412842,0.00052382
5267.57293579,0.00049991
5269.50174316,0.00056830
5271.43055054,0.00053601
5273.35935791,0.00051370
5275.28816528,0.00055448
5277.21697266,0.00048193
5279.14578003,0.00050214
5281.07458740,0.00049406
5283.00339478,0.00047813
5284.93220215,0.00059441
5286.86100952,0.00051881
5288.78981689,0.00047498
5290.71862427,0.00052673
5292.64743164,0.00049982
5294.57623901,0.00045500
5296.50504639,0.00041290
5298.43385376,0.00047404
5300.36266113,0.00047507
5302.29146851,0.00047635
5304.22027588,0.00051172
5306.14908325,0.00049727
5308.07789062,0.00047352
5310.00669800,0.00046071
5311.93550537,0.00053806
5313.86431274,0.00047645
5315.79312012,0.00047368
5317.72192749,0.00053287
5319.65073486,0.00046266
5321.57954224,0.00054105
5323.50834961,0.00056086
5325.43715698,0.00047628
5327.36596436,0.00047410
5329.29477173,0.00055110
5331.22357910,0.00052613
5333.15238647,0.00046594
5335.08119385,0.00049272
5337.01000122,0.00041093
5338.93880859,0.00045173
5340.86761597,0.00048614
5342.79642334,0.00044825
5344.72523071,0.00048348
5346.65403809,0.00047600
5348.58284546,0.00051402
5350.51165283,0.00046492
5352.44046020,0.00040207
5354.36926758,0.00035869
5356.29807495,0.00040780
5358.22688232,0.00049912
5360.15568970,0.00041542
5362.08449707,0.00045471
5364.01330444,0.00052933
5365.94211182,0.00050727
5367.87091919,0.00043428
5369.79972656,0.00045242
5371.72853394,0.00047087
5373.65734131,0.00039898
5375.58614868,0.00050504
5377.51495605,0.00047555
5379.44376343,0.00048561
5381.37257080,0.00053589
5383.30137817,0.00044826
5385.23018555,0.00048160
5387.15899292,0.00038340
5389.08780029,0.00040805
5391.01660767,0.00047506
5392.94541504,0.00039845
5394.87422241,0.00046317
5396.80302978,0.00047855
5398.73183716,0.00044422
5400.66064453,0.00043494
5402.58945190,0.00044078
5404.51825928,0.00044420
5406.44706665,0.00042959
5408.37587402,0.00033881
5410.30468140,0.00033361
5412.23348877,0.00043374
5414.16229614,0.00037876
5416.09110352,0.00043867
5418.01991089,0.00045135
5419.94871826,0.00033871
5421.87752563,0.00039497
5423.80633301,0.00045209
5425.73514038,0.00041386
5427.66394775,0.00035504
5429.59275513,0.00040526
5431.52156250,0.00042718
5433.45036987,0.00044233
5435.37917725,0.00044802
5437.30798462,0.00045062
5439.23679199,0.00048447
5441.16559936,0.00034240
5443.09440674,0.00037736
5445.02321411,0.00041944
5446.95202148,0.00036830
5448.88082886,0.00044498
5450.80963623,0.00042557
5452.73844360,0.00038643
5454.66725098,0.00029721
5456.59605835,0.00033957
5458.52486572,0.00037773
5460.45367310,0.00037847
5462.38248047,0.00041142
5464.31128784,0.00027381
5466.24009521,0.00042394
5468.16890259,0.00049452
5470.09770996,0.00037124
5472.02651733,0.00041719
5473.95532471,0.00040912
5475.88413208,0.00037929
5477.81293945,0.00033857
5479.74174683,0.00040563
5481.67055420,0.00037861
5483.59936157,0.00033644
5485.52816895,0.00036683
5487.45697632,0.00032435
5489.38578369,0.00043757
5491.31459106,0.00040932
5493.24339844,0.00036205
5495.17220581,0.00039824
5497.10101318,0.00038641
5499.02982056,0.00039924
5500.95862793,0.00034860
5502.88743530,0.00039241
5504.81624268,0.00038594
5506.74505005,0.00039405
5508.67385742,0.00041510
5510.60266479,0.00034662
5512.53147217,0.00036284
5514.46027954,0.00037352
5516.38908691,0.00035850
5518.31789429,0.00029074
5520.24670166,0.00033956
5522.17550903,0.00034914
5524.10431641,0.00034092
5526.03312378,0.00045984
5527.96193115,0.00035437
5529.89073853,0.00034132
5531.81954590,0.00039212
5533.74835327,0.00035019
5535.67716064,0.00038031
5537.60596802,0.00037498
5539.53477539,0.00038803
5541.46358276,0.00034776
5543.39239014,0.00031542
5545.32119751,0.00032594
5547.25000488,0.00033010
5549.17881226,0.00034754
5551.10761963,0.00036620
5553.03642700,0.00035593
5554.96523437,0.00029641
5556.89404175,0.00034756
5558.82284912,0.00031131
5560.75165649,0.00027788
5562.68046387,0.00037447
5564.60927124,0.00032590
5566.53807861,0.00032382
5568.46688599,0.00033261
5570.39569336,0.00032838
5572.32450073,0.00039033
5574.25330811,0.00031728
5576.18211548,0.00028418
5578.11092285,0.00035412
5580.03973022,0.00029610
5581.96853760,0.00023185
5583.89734497,0.00029781
5585.82615234,0.00034815
5587.75495972,0.00036773
5589.68376709,0.00033634
5591.61257446,0.00032544
5593.54138184,0.00036089
5595.47018921,0.00027223
5597.39899658,0.00027665
5599.32780395,0.00035609
5601.25661133,0.00031497
5603.18541870,0.00034252
5605.11422607,0.00036318
5607.04303345,0.00026800
5608.97184082,0.00027944
5610.90064819,0.00036252
5612.82945557,0.00035505
5614.75826294,0.00034350
5616.68707031,0.00030928
5618.61587769,0.00030395
5620.54468506,0.00032869
5622.47349243,0.00027979
5624.40229980,0.00030034
5626.33110718,0.00026839
5628.25991455,0.00026353
5630.18872192,0.00034955
5632.11752930,0.00028198
5634.04633667,0.00033944
5635.97514404,0.00038048
5637.90395142,0.00028015
5639.83275879,0.00032730
5641.76156616,0.00030346
5643.69037353,0.00032285
5645.61918091,0.00037390
5647.54798828,0.00024739
5649.47679565,0.00023840
5651.40560303,0.00027494
5653.33441040,0.00026939
5655.26321777,0.00027860
5657.19202515,0.00028230
5659.12083252,0.00032308
5661.04963989,0.00029432
5662.97844727,0.00032667
5664.90725464,0.00035782
5666.83606201,0.00033945
5668.76486938,0.00038545
5670.69367676,0.00027417
5672.62248413,0.00022485
5674.55129150,0.00025957
5676.48009888,0.00024425
5678.40890625,0.00030358
5680.33771362,0.00027998
5682.26652100,0.00030541
5684.19532837,0.00029258
5686.12413574,0.00023020
5688.05294311,0.00029847
5689.98175049,0.00024824
5691.91055786,0.00026452
5693.83936523,0.00036014
5695.76817261,0.00032078
5697.69697998,0.00028125
5699.62578735,0.00027379
5701.55459473,0.00027734
5703.48340210,0.00025813
5705.41220947,0.00027267
5707.34101685,0.00030193
5709.26982422,0.00027954
5711.19863159,0.00025542
5713.12743896,0.00026885
5715.05624634,0.00028769
5716.98505371,0.00029794
5718.91386108,0.00028614
5720.84266846,0.00017847
5722.77147583,0.00022380
5724.70028320,0.00032168
5726.62909058,0.00025581
5728.55789795,0.00029349
5730.48670532,0.00032911
5732.41551270,0.00031322
5734.34432007,0.00032937
5736.27312744,0.00029581
5738.20193481,0.00024609
5740.13074219,0.00024226
5742.05954956,0.00026828
5743.98835693,0.00024380
5745.91716431,0.00023648
5747.84597168,0.00027340
5749.77477905,0.00029147
5751.70358643,0.00024079
5753.63239380,0.00025828
5755.56120117,0.00032365
5757.49000854,0.00025866
5759.41881592,0.00028302
5761.34762329,0.00027648
5763.27643066,0.00021791
5765.20523804,0.00029096
5767.13404541,0.00027662
5769.06285278,0.00025893
5770.99166016,0.00028466
5772.92046753,0.00026799
5774.84927490,0.00024882
5776.77808228,0.00025856
5778.70688965,0.00030222
5780.63569702,0.00024289
5782.56450439,0.00020615
5784.49331177,0.00028803
5786.42211914,0.00026537
5788.35092651,0.00024214
5790.27973389,0.00026988
5792.20854126,0.00021230
5794.13734863,0.00023851
5796.06615601,0.00025724
5797.99496338,0.00023474
5799.92377075,0.00026675
5801.85257812,0.00023469
5803.78138550,0.00025755
5805.71019287,0.00028613
5807.63900024,0.00027713
5809.56780762,0.00022717
5811.49661499,0.00021277
5813.42542236,0.00025755
5815.35422974,0.00017619
5817.28303711,0.00026373
5819.21184448,0.00030611
5821.14065186,0.00021226
5823.06945923,0.00028938
5824.99826660,0.00026177
5826.92707397,0.00022067
5828.85588135,0.00023681
5830.78468872,0.00024732
5832.71349609,0.00022929
5834.64230347,0.00020717
5836.57111084,0.00024451
5838.49991821,0.00019407
5840.42872559,0.00019445
5842.35753296,0.00021183
5844.28634033,0.00024970
5846.21514770,0.00027469
5848.14395508,0.00020384
5850.07276245,0.00024224
5852.00156982,0.00022497
5853.93037720,0.00018325
5855.85918457,0.00019802
5857.78799194,0.00018075
5859.71679932,0.00017583
5861.64560669,0.00020852
5863.57441406,0.00025985
5865.50322144,0.00021103
5867.43202881,0.00020698
5869.36083618,0.00021654
5871.28964355,0.00016857
5873.21845093,0.00021646
5875.14725830,0.00021812
5877.07606567,0.00017700
5879.00487305,0.00018133
5880.93368042,0.00016641
5882.86248779,0.00018506
5884.79129517,0.00024004
5886.72010254,0.00021040
5888.64890991,0.00021669
5890.57771728,0.00031404
5892.50652466,0.00021338
5894.43533203,0.00009885
5896.36413940,0.00018213
5898.29294678,0.00018917
5900.22175415,0.00019004
5902.15056152,0.00020556
5904.07936890,0.00014733
5906.00817627,0.00016210
5907.93698364,0.00014479
5909.86579102,0.00015261
5911.79459839,0.00019928
5913.72340576,0.00014588
5915.65221313,0.00018409
5917.58102051,0.00022853
5919.50982788,0.00023650
5921.43863525,0.00024727
5923.36744263,0.00016114
5925.29625000,0.00017843
5927.22505737,0.00021133
5929.15386475,0.00020821
5931.08267212,0.00022790
5933.01147949,0.00016950
5934.94028686,0.00018067
5936.86909424,0.00013697
5938.79790161,0.00013795
5940.72670898,0.00024772
5942.65551636,0.00019258
5944.58432373,0.00020711
5946.51313110,0.00018379
5948.44193848,0.00012127
5950.37074585,0.00018482
5952.29955322,0.00013927
5954.22836060,0.00017577
5956.15716797,0.00023828
5958.08597534,0.00020217
5960.01478271,0.00020932
5961.94359009,0.00017574
5963.87239746,0.00015620
5965.80120483,0.00020624
5967.73001221,0.00021913
5969.65881958,0.00015698
5971.58762695,0.00017247
5973.51643433,0.00018270
5975.44524170,0.00015197
5977.37404907,0.00020122
5979.30285645,0.00015297
5981.23166382,0.00012260
5983.16047119,0.00018331
5985.08927856,0.00017157
5987.01808594,0.00015676
5988.94689331,0.00021656
5990.87570068,0.00019888
5992.80450806,0.00009126
5994.73331543,0.00014429
5996.66212280,0.00017050
5998.59093018,0.00013333
6000.51973755,0.00016596
