399.26312622,0.00027557
401.19193359,0.00034129
403.12074097,0.00020699
405.04954834,-0.00024933
406.97835571,-0.00028469
408.90716309,-0.00004721
410.83597046,-0.00015015
412.76477783,-0.00020332
414.69358521,0.00034422
416.62239258,0.00033990
418.55119995,-0.00030358
420.48000732,0.00009810
422.40881470,0.00056510
424.33762207,0.00028475
426.26642944,0.00049888
428.19523682,0.00004750
430.12404419,-0.00004277
432.05285156,0.00031047
433.98165894,0.00007570
435.91046631,0.00058708
437.83927368,0.00052119
439.76808105,0.00029210
441.69688843,-0.00005070
443.62569580,-0.00014003
445.55450317,0.00039058
447.48331055,0.00047939
449.41211792,0.00027755
451.34092529,0.00007710
453.26973267,0.00059985
455.19854004,0.00033389
457.12734741,0.00027872
459.05615479,0.00042306
460.98496216,0.00001131
462.91376953,0.00034663
464.84257690,0.00003194
466.77138428,0.00033841
468.70019165,0.00072331
470.62899902,0.00007795
472.55780640,0.00022108
474.48661377,0.00067700
476.41542114,0.00052299
478.34422852,0.00009321
480.27303589,0.00013756
482.20184326,0.00061376
484.13065063,0.00068731
486.05945801,0.00003757
487.98826538,0.00008217
489.91707275,0.00038568
491.84588013,0.00027051
493.77468750,0.00052688
495.70349487,0.00021212
497.63230225,0.00015731
499.56110962,0.00005392
501.48991699,0.00005758
503.41872437,0.00040205
505.34753174,0.00021968
507.27633911,0.00067774
509.20514648,-0.00002578
511.13395386,-0.00028783
513.06276123,0.00048851
514.99156860,0.00009291
516.92037598,0.00053304
518.84918335,0.00067029
520.77799072,0.00029788
522.70679810,0.00037934
524.63560547,0.00041417
526.56441284,0.00026353
528.49322021,0.00005592
530.42202759,0.00042603
532.35083496,0.00023989
534.27964233,-0.00001579
536.20844971,0.00035596
538.13725708,0.00056630
540.06606445,0.00026590
541.99487183,0.00022158
543.92367920,0.00054716
545.85248657,0.00006727
547.78129395,0.00025596
549.71010132,0.00062564
551.63890869,0.00026790
553.56771606,0.00041794
555.49652344,0.00003857
557.42533081,-0.00012331
559.35413818,0.00052374
561.28294556,0.00038497
563.21175293,-0.00000524
565.14056030,0.00027156
567.06936768,-0.00011722
568.99817505,-0.00019477
570.92698242,0.00076601
572.85578979,0.00016736
574.78459717,-0.00002670
576.71340454,0.00037018
578.64221191,0.00028516
580.57101929,0.00071573
582.49982666,0.00021737
584.42863403,0.00019985
586.35744141,0.00047490
588.28624878,0.00039530
590.21505615,0.00030748
592.14386353,-0.00017037
594.07267090,0.00014525
596.00147827,0.00019893
597.93028564,0.00011625
599.85909302,0.00009800
601.78790039,0.00007297
603.71670776,0.00038937
605.64551514,0.00048339
607.57432251,0.00057885
609.50312988,0.00022487
611.43193726,0.00054211
613.36074463,0.00046515
615.28955200,-0.00001705
617.21835938,0.00038116
619.14716675,0.00018531
621.07597412,0.00048608
623.00478149,0.00053686
624.93358887,0.00054715
626.86239624,0.00054244
628.79120361,0.00037113
630.72001099,0.00078477
632.64881836,0.00020115
634.57762573,0.00027966
636.50643311,0.00024699
638.43524048,0.00020462
640.36404785,0.00052381
642.29285522,0.00036462
644.22166260,0.00050952
646.15046997,0.00035718
648.07927734,0.00074796
650.00808472,0.00054078
651.93689209,0.00043186
653.86569946,0.00061208
655.79450684,0.00033132
657.72331421,0.00051849
659.65212158,0.00051923
661.58092896,0.00093513
663.50973633,0.00058099
665.43854370,0.00053608
667.36735107,0.00077256
669.29615845,0.00021226
671.22496582,0.00079183
673.15377319,0.00050983
675.08258057,0.00047418
677.01138794,0.00080407
678.94019531,0.00058038
680.86900269,0.00081885
682.79781006,0.00053060
684.72661743,0.00089859
686.65542480,0.00099901
688.58423218,0.00069933
690.51303955,0.00093546
692.44184692,0.00081392
694.37065430,0.00068576
696.29946167,0.00091784
698.22826904,0.00113819
700.15707642,0.00099060
702.08588379,0.00115974
704.01469116,0.00103120
705.94349854,0.00093754
707.87230591,0.00095678
709.80111328,0.00064919
711.72992065,0.00058940
713.65872803,0.00028370
715.58753540,0.00023485
717.51634277,0.00033461
719.44515015,0.00053525
721.37395752,0.00002845
723.30276489,-0.00007069
725.23157227,0.00058115
727.16037964,0.00013169
729.08918701,0.00015069
731.01799438,0.00027232
732.94680176,0.00020680
734.87560913,0.00014911
736.80441650,0.00012277
738.73322388,0.00039431
740.66203125,0.00038299
742.59083862,0.00051800
744.51964600,0.00018091
746.44845337,0.00021050
748.37726074,0.00038485
750.30606812,0.00007604
752.23487549,0.00047252
754.16368286,0.00035176
756.09249023,0.00007294
758.02129761,0.00023373
759.95010498,0.00024557
761.87891235,0.00035810
763.80771973,0.00045101
765.73652710,0.00050443
767.66533447,0.00050231
769.59414185,0.00025852
771.52294922,0.00007893
773.45175659,0.00048625
775.38056396,0.00044154
777.30937134,0.00012441
779.23817871,0.00034496
781.16698608,0.00034373
783.09579346,0.00022029
785.02460083,0.00020409
786.95340820,0.00043026
788.88221558,0.00047995
790.81102295,0.00046082
792.73983032,0.00033435
794.66863770,0.00023378
796.59744507,0.00046546
798.52625244,0.00021449
800.45505981,0.00046871
802.38386719,0.00044454
804.31267456,0.00013022
806.24148193,0.00023441
808.17028931,0.00003992
810.09909668,0.00033076
812.02790405,0.00023128
813.95671143,0.00042315
815.88551880,0.00058327
817.81432617,0.00007332
819.74313354,0.00023599
821.67194092,0.00030464
823.60074829,0.00039856
825.52955566,0.00053757
827.45836304,0.00052499
829.38717041,0.00060167
831.31597778,0.00062429
833.24478516,0.00034404
835.17359253,0.00033270
837.10239990,0.00037817
839.03120728,0.00015288
840.96001465,0.00057119
842.88882202,0.00049538
844.81762939,0.00049798
846.74643677,0.00064604
848.67524414,0.00037840
850.60405151,0.00051471
852.53285889,0.00033656
854.46166626,0.00047465
856.39047363,0.00042448
858.31928101,0.00036271
860.24808838,0.00078456
862.17689575,0.00056344
864.10570313,0.00033591
866.03451050,0.00036914
867.96331787,0.00047317
869.89212524,0.00027627
871.82093262,0.00016937
873.74973999,0.00047607
875.67854736,0.00038494
877.60735474,0.00010781
879.53616211,0.00020340
881.46496948,0.00049492
883.39377686,0.00041252
885.32258423,0.00045441
887.25139160,0.00046259
889.18019897,0.00042421
891.10900635,0.00074794
893.03781372,0.00034390
894.96662109,0.00028177
896.89542847,0.00055602
898.82423584,0.00027394
900.75304321,0.00039318
902.68185059,0.00026586
904.61065796,0.00009893
906.53946533,0.00042128
908.46827271,0.00054047
910.39708008,0.00027233
912.32588745,0.00032535
914.25469482,0.00063792
916.18350220,0.00045275
918.11230957,0.00035392
920.04111694,0.00044916
921.96992432,0.00063505
923.89873169,0.00058552
925.82753906,0.00031666
927.75634644,0.00044399
929.68515381,0.00056861
931.61396118,0.00061393
933.54276855,0.00054941
935.47157593,0.00052234
937.40038330,0.00067355
939.32919067,0.00070895
941.25799805,0.00079101
943.18680542,0.00070089
945.11561279,0.00079852
947.04442017,0.00093491
948.97322754,0.00051541
950.90203491,0.00069397
952.83084229,0.00081208
954.75964966,0.00065329
956.68845703,0.00102922
958.61726440,0.00085339
960.54607178,0.00086092
962.47487915,0.00097267
964.40368652,0.00069175
966.33249390,0.00093300
968.26130127,0.00092901
970.19010864,0.00073176
972.11891602,0.00076364
974.04772339,0.00082373
975.97653076,0.00109082
977.90533813,0.00111829
979.83414551,0.00091756
981.76295288,0.00118380
983.69176025,0.00141685
985.62056763,0.00134371
987.54937500,0.00171902
989.47818237,0.00189568
991.40698975,0.00178010
993.33579712,0.00217833
995.26460449,0.00258672
997.19341187,0.00256518
999.12221924,0.00263243
1001.05102661,0.00306447
1002.97983398,0.00341595
1004.90864136,0.00369523
1006.83744873,0.00385718
1008.76625610,0.00399608
1010.69506348,0.00411421
1012.62387085,0.00416698
1014.55267822,0.00463170
1016.48148560,0.00483775
1018.41029297,0.00490170
1020.33910034,0.00525202
1022.26790771,0.00561666
1024.19671509,0.00590391
1026.12552246,0.00594178
1028.05432983,0.00627754
1029.98313721,0.00646277
1031.91194458,0.00643960
1033.84075195,0.00655569
1035.76955933,0.00665913
1037.69836670,0.00682084
1039.62717407,0.00656285
1041.55598145,0.00669837
1043.48478882,0.00671803
1045.41359619,0.00643300
1047.34240356,0.00673151
1049.27121094,0.00647423
1051.20001831,0.00648040
1053.12882568,0.00649216
1055.05763306,0.00594371
1056.98644043,0.00606184
1058.91524780,0.00593226
1060.84405518,0.00568869
1062.77286255,0.00565178
1064.70166992,0.00539422
1066.63047729,0.00524398
1068.55928467,0.00516009
1070.48809204,0.00495623
1072.41689941,0.00447820
1074.34570679,0.00438180
1076.27451416,0.00431923
1078.20332153,0.00400029
1080.13212891,0.00392092
1082.06093628,0.00357841
1083.98974365,0.00354681
1085.91855103,0.00357607
1087.84735840,0.00323750
1089.77616577,0.00322028
1091.70497314,0.00304368
1093.63378052,0.00283755
1095.56258789,0.00280147
1097.49139526,0.00277715
1099.42020264,0.00272236
1101.34901001,0.00258947
1103.27781738,0.00266274
1105.20662476,0.00248872
1107.13543213,0.00235626
1109.06423950,0.00249439
1110.99304687,0.00246626
1112.92185425,0.00242649
1114.85066162,0.00227430
1116.77946899,0.00228216
1118.70827637,0.00235147
1120.63708374,0.00234963
1122.56589111,0.00239453
1124.49469849,0.00230024
1126.42350586,0.00261151
1128.35231323,0.00279550
1130.28112061,0.00249077
1132.20992798,0.00253132
1134.13873535,0.00265594
1136.06754272,0.00276095
1137.99635010,0.00294120
1139.92515747,0.00321798
1141.85396484,0.00366077
1143.78277222,0.00375072
1145.71157959,0.00378662
1147.64038696,0.00393593
1149.56919434,0.00406056
1151.49800171,0.00444928
1153.42680908,0.00459691
1155.35561646,0.00466707
1157.28442383,0.00498635
1159.21323120,0.00510154
1161.14203857,0.00532958
1163.07084595,0.00560296
1164.99965332,0.00584691
1166.92846069,0.00627323
1168.85726807,0.00625938
1170.78607544,0.00630377
1172.71488281,0.00677616
1174.64369019,0.00703614
1176.57249756,0.00733058
1178.50130493,0.00760757
1180.43011230,0.00778252
1182.35891968,0.00814128
1184.28772705,0.00869191
1186.21653442,0.00902560
1188.14534180,0.00926757
1190.07414917,0.00979552
1192.00295654,0.01001941
1193.93176392,0.01064338
1195.86057129,0.01133954
1197.78937866,0.01154543
1199.71818604,0.01223385
1201.64699341,0.01268554
1203.57580078,0.01337349
1205.50460815,0.01405427
1207.43341553,0.01419330
1209.36222290,0.01482178
1211.29103027,0.01515227
1213.21983765,0.01556081
1215.14864502,0.01621931
1217.07745239,0.01641908
1219.00625977,0.01664141
1220.93506714,0.01701898
1222.86387451,0.01725708
1224.79268188,0.01725031
1226.72148926,0.01757048
1228.65029663,0.01771159
1230.57910400,0.01762550
1232.50791138,0.01778175
1234.43671875,0.01767883
1236.36552612,0.01777730
1238.29433350,0.01789348
1240.22314087,0.01784778
1242.15194824,0.01796626
1244.08075562,0.01783503
1246.00956299,0.01758825
1247.93837036,0.01747284
1249.86717773,0.01748695
1251.79598511,0.01747278
1253.72479248,0.01728174
1255.65359985,0.01713013
1257.58240723,0.01684451
1259.51121460,0.01642526
1261.44002197,0.01629660
1263.36882935,0.01615147
1265.29763672,0.01602824
1267.22644409,0.01590722
1269.15525146,0.01555366
1271.08405884,0.01537171
1273.01286621,0.01503108
1274.94167358,0.01480932
1276.87048096,0.01466065
1278.79928833,0.01418897
1280.72809570,0.01396468
1282.65690308,0.01364801
1284.58571045,0.01353460
1286.51451782,0.01346968
1288.44332520,0.01300484
1290.37213257,0.01286919
1292.30093994,0.01284773
1294.22974731,0.01277686
1296.15855469,0.01276055
1298.08736206,0.01278044
1300.01616943,0.01279882
1301.94497681,0.01280241
1303.87378418,0.01288806
1305.80259155,0.01306257
1307.73139893,0.01327547
1309.66020630,0.01338028
1311.58901367,0.01364996
1313.51782104,0.01391406
1315.44662842,0.01423577
1317.37543579,0.01459482
1319.30424316,0.01489465
1321.23305054,0.01557233
1323.16185791,0.01609690
1325.09066528,0.01651089
1327.01947266,0.01691886
1328.94828003,0.01741170
1330.87708740,0.01796246
1332.80589478,0.01826071
1334.73470215,0.01875481
1336.66350952,0.01875863
1338.59231689,0.01857793
1340.52112427,0.01907719
1342.44993164,0.01975786
1344.37873901,0.01999285
1346.30754639,0.01992535
1348.23635376,0.01997911
1350.16516113,0.01974894
1352.09396851,0.01974885
1354.02277588,0.01955959
1355.95158325,0.01903477
1357.88039062,0.01912457
1359.80919800,0.01900918
1361.73800537,0.01814203
1363.66681274,0.01789835
1365.59562012,0.01878356
1367.52442749,0.01841862
1369.45323486,0.01820562
1371.38204224,0.01854232
1373.31084961,0.01751739
1375.23965698,0.01772586
1377.16846436,0.01819321
1379.09727173,0.01805590
1381.02607910,0.01818043
1382.95488647,0.01819651
1384.88369385,0.01818271
1386.81250122,0.01735139
1388.74130859,0.01759316
1390.67011597,0.01895764
1392.59892334,0.01845582
1394.52773071,0.01711699
1396.45653809,0.01811425
1398.38534546,0.01834500
1400.31415283,0.01811837
1402.24296021,0.01973289
1404.17176758,0.01857695
1406.10057495,0.01863360
1408.02938232,0.01952073
1409.95818970,0.01868954
1411.88699707,0.01892306
1413.81580444,0.01827648
1415.74461182,0.01883622
1417.67341919,0.01681209
1419.60222656,0.01527049
1421.53103394,0.01780540
1423.45984131,0.01687869
1425.38864868,0.01651425
1427.31745605,0.01680534
1429.24626343,0.01553817
1431.17507080,0.01502580
1433.10387817,0.01523572
1435.03268555,0.01387980
1436.96149292,0.01160079
1438.89030029,0.01361423
1440.81910767,0.01396491
1442.74791504,0.01287813
1444.67672241,0.01353346
1446.60552979,0.01231869
1448.53433716,0.01272524
1450.46314453,0.01308152
1452.39195190,0.01327718
1454.32075928,0.01392836
1456.24956665,0.01154430
1458.17837402,0.01196262
1460.10718140,0.01596154
1462.03598877,0.01690218
1463.96479614,0.01654874
1465.89360352,0.01731268
1467.82241089,0.01974428
1469.75121826,0.02138765
1471.68002563,0.01886130
1473.60883301,0.01975390
1475.53764038,0.02292547
1477.46644775,0.02436083
1479.39525513,0.02681396
1481.32406250,0.02735878
1483.25286987,0.02891899
1485.18167725,0.02999856
1487.11048462,0.02945389
1489.03929199,0.02923647
1490.96809937,0.02924133
1492.89690674,0.03408365
1494.82571411,0.03363405
1496.75452148,0.02999835
1498.68332886,0.03385814
1500.61213623,0.03509115
1502.54094360,0.03751132
1504.46975098,0.03553914
1506.39855835,0.02562995
1508.32736572,0.03136932
1510.25617310,0.03715347
1512.18498047,0.03563126
1514.11378784,0.03887760
1516.04259521,0.03511760
1517.97140259,0.03644402
1519.90020996,0.03542763
1521.82901733,0.03046877
1523.75782471,0.03741652
1525.68663208,0.03688160
1527.61543945,0.03664947
1529.54424683,0.04065206
1531.47305420,0.03917537
1533.40186157,0.03573227
1535.33066895,0.03754886
1537.25947632,0.04061735
1539.18828369,0.02910471
1541.11709106,0.03019847
1543.04589844,0.03639573
1544.97470581,0.03471564
1546.90351318,0.04142589
1548.83232056,0.03859790
1550.76112793,0.03972629
1552.68993530,0.03979316
1554.61874268,0.03571400
1556.54755005,0.03830227
1558.47635742,0.02706409
1560.40516479,0.02895696
1562.33397217,0.04159882
1564.26277954,0.03945769
1566.19158691,0.04052730
1568.12039429,0.04016017
1570.04920166,0.03536734
1571.97800903,0.04068839
1573.90681641,0.04150923
1575.83562378,0.03249228
1577.76443115,0.03658633
1579.69323853,0.04207650
1581.62204590,0.03995655
1583.55085327,0.04083053
1585.47966064,0.04023882
1587.40846802,0.04030856
1589.33727539,0.04002833
1591.26608276,0.03977479
1593.19489014,0.03984712
1595.12369751,0.03924356
1597.05250488,0.03959324
1598.98131226,0.03935307
1600.91011963,0.03937728
1602.83892700,0.03849926
1604.76773437,0.03914997
1606.69654175,0.03850618
1608.62534912,0.03815507
1610.55415649,0.03810690
1612.48296387,0.03807946
1614.41177124,0.03854510
1616.34057861,0.03147095
1618.26938599,0.03367826
1620.19819336,0.03940010
1622.12700073,0.03481805
1624.05580811,0.03479501
1625.98461548,0.03636142
1627.91342285,0.03601673
1629.84223022,0.03591242
1631.77103760,0.03827501
1633.69984497,0.03537727
1635.62865234,0.02903112
1637.55745972,0.03385054
1639.48626709,0.03745351
1641.41507446,0.03658252
1643.34388184,0.03791600
1645.27268921,0.03414843
1647.20149658,0.02972556
1649.13030396,0.03743464
1651.05911133,0.03607447
1652.98791870,0.02291962
1654.91672607,0.03127185
1656.84553345,0.04012966
1658.77434082,0.03838481
1660.70314819,0.03974227
1662.63195557,0.03620383
1664.56076294,0.03817401
1666.48957031,0.04168887
1668.41837769,0.03646525
1670.34718506,0.03538860
1672.27599243,0.04058426
1674.20479980,0.03776076
1676.13360718,0.03612233
1678.06241455,0.04189955
1679.99122192,0.04066597
1681.92002930,0.04038843
1683.84883667,0.03295232
1685.77764404,0.03229177
1687.70645142,0.04516202
1689.63525879,0.03933045
1691.56406616,0.04314643
1693.49287354,0.04482184
1695.42168091,0.03240908
1697.35048828,0.04028835
1699.27929565,0.03577241
1701.20810303,0.03166972
1703.13691040,0.04391070
1705.06571777,0.04046075
1706.99452515,0.04063981
1708.92333252,0.04456264
1710.85213989,0.04298650
1712.78094727,0.04387918
1714.70975464,0.04079679
1716.63856201,0.03654678
1718.56736938,0.03590662
1720.49617676,0.04301508
1722.42498413,0.04490349
1724.35379150,0.04153321
1726.28259888,0.04546658
1728.21140625,0.04198091
1730.14021362,0.04235037
1732.06902100,0.04157316
1733.99782837,0.03119471
1735.92663574,0.03910973
1737.85544312,0.04377165
1739.78425049,0.03863307
1741.71305786,0.04218389
1743.64186523,0.04281189
1745.57067261,0.04298924
1747.49947998,0.04354207
1749.42828735,0.04158976
1751.35709473,0.03983878
1753.28590210,0.04424783
1755.21470947,0.04632168
1757.14351685,0.04207929
1759.07232422,0.04653217
1761.00113159,0.04378701
1762.92993896,0.04213865
1764.85874634,0.04861283
1766.78755371,0.04373354
1768.71636108,0.04392849
1770.64516846,0.04369630
1772.57397583,0.03928158
1774.50278320,0.04393744
1776.43159058,0.04675398
1778.36039795,0.04609156
1780.28920532,0.04517825
1782.21801270,0.04574249
1784.14682007,0.04584476
1786.07562744,0.04484171
1788.00443481,0.04729278
1789.93324219,0.04622082
1791.86204956,0.04170420
1793.79085693,0.04345020
1795.71966431,0.04678079
1797.64847168,0.04618618
1799.57727905,0.04543373
1801.50608643,0.04457432
1803.43489380,0.04614270
1805.36370117,0.04733109
1807.29250854,0.04673183
1809.22131592,0.04704997
1811.15012329,0.04584823
1813.07893066,0.04725683
1815.00773804,0.04743727
1816.93654541,0.04683274
1818.86535278,0.04732222
1820.79416016,0.04708615
1822.72296753,0.04771997
1824.65177490,0.04468657
1826.58058228,0.04636842
1828.50938965,0.04657745
1830.43819702,0.04362592
1832.36700439,0.04744400
1834.29581177,0.04737141
1836.22461914,0.04727617
1838.15342651,0.04699545
1840.08223389,0.04737362
1842.01104126,0.04757739
1843.93984863,0.04211774
1845.86865601,0.04491032
1847.79746338,0.04760326
1849.72627075,0.04638820
1851.65507812,0.04782151
1853.58388550,0.04689502
1855.51269287,0.04736627
1857.44150024,0.04728471
1859.37030762,0.04684679
1861.29911499,0.04725860
1863.22792236,0.04680134
1865.15672974,0.04736345
1867.08553711,0.04587495
1869.01434448,0.04376294
1870.94315186,0.04558276
1872.87195923,0.04751799
1874.80076660,0.04671125
1876.72957397,0.04698347
1878.65838135,0.04696226
1880.58718872,0.04658447
1882.51599609,0.04698227
1884.44480347,0.04642611
1886.37361084,0.04704198
1888.30241821,0.04596878
1890.23122559,0.04522423
1892.16003296,0.04702379
1894.08884033,0.04634786
1896.01764771,0.04606429
1897.94645508,0.04651529
1899.87526245,0.04644116
1901.80406982,0.04663585
1903.73287720,0.04626644
1905.66168457,0.04658253
1907.59049194,0.04607433
1909.51929932,0.04576723
1911.44810669,0.04615385
1913.37691406,0.04629863
1915.30572144,0.04677522
1917.23452881,0.04465809
1919.16333618,0.04468101
1921.09214355,0.04638319
1923.02095093,0.04494980
1924.94975830,0.04586815
1926.87856567,0.04633892
1928.80737305,0.04577208
1930.73618042,0.04649299
1932.66498779,0.04592412
1934.59379517,0.04622085
1936.52260254,0.04605708
1938.45140991,0.04620932
1940.38021729,0.04618995
1942.30902466,0.04477529
1944.23783203,0.04563081
1946.16663940,0.04620678
1948.09544678,0.04600099
1950.02425415,0.04615843
1951.95306152,0.04604430
1953.88186890,0.04620431
1955.81067627,0.04597371
1957.73948364,0.04597829
1959.66829102,0.04601216
1961.59709839,0.04596348
1963.52590576,0.04610847
1965.45471313,0.04572389
1967.38352051,0.04545660
1969.31232788,0.04595748
1971.24113525,0.04608360
1973.16994263,0.04590618
1975.09875000,0.04609388
1977.02755737,0.04577672
1978.95636475,0.04585048
1980.88517212,0.04586903
1982.81397949,0.04562789
1984.74278687,0.04590579
1986.67159424,0.04549687
1988.60040161,0.04554623
1990.52920898,0.04530999
1992.45801636,0.04465911
1994.38682373,0.04549183
1996.31563110,0.04562788
1998.24443848,0.04528974
2000.17324585,0.04550928
2002.10205322,0.04527607
2004.03086060,0.04526101
2005.95966797,0.04517753
2007.88847534,0.04499638
2009.81728271,0.04513125
2011.74609009,0.04509903
2013.67489746,0.04512142
2015.60370483,0.04469470
2017.53251221,0.04425874
2019.46131958,0.04458129
2021.39012695,0.04466134
2023.31893433,0.04462924
2025.24774170,0.04463289
2027.17654907,0.04446362
2029.10535645,0.04434093
2031.03416382,0.04415245
2032.96297119,0.04425547
2034.89177856,0.04430994
2036.82058594,0.04404626
2038.74939331,0.04396561
2040.67820068,0.04377293
2042.60700806,0.04370636
2044.53581543,0.04390732
2046.46462280,0.04376549
2048.39343018,0.04366848
2050.32223755,0.04371073
2052.25104492,0.04364412
2054.17985229,0.04353046
2056.10865967,0.04347909
2058.03746704,0.04351171
2059.96627441,0.04335194
2061.89508179,0.04328546
2063.82388916,0.04306710
2065.75269653,0.04295827
2067.68150391,0.04308511
2069.61031128,0.04285686
2071.53911865,0.04300954
2073.46792603,0.04310881
2075.39673340,0.04295857
2077.32554077,0.04292511
2079.25434814,0.04276696
2081.18315552,0.04276527
2083.11196289,0.04275973
2085.04077026,0.04265954
2086.96957764,0.04246487
2088.89838501,0.04253632
2090.82719238,0.04257929
2092.75599976,0.04245478
2094.68480713,0.04241149
2096.61361450,0.04226587
2098.54242187,0.04238404
2100.47122925,0.04220332
2102.40003662,0.04215626
2104.32884399,0.04222455
2106.25765137,0.04201324
2108.18645874,0.04222943
2110.11526611,0.04218753
2112.04407349,0.04203837
2113.97288086,0.04189941
2115.90168823,0.04183164
2117.83049561,0.04197924
2119.75930298,0.04186184
2121.68811035,0.04175958
2123.61691772,0.04175397
2125.54572510,0.04176893
2127.47453247,0.04158674
2129.40333984,0.04153267
2131.33214722,0.04157819
2133.26095459,0.04157891
2135.18976196,0.04161961
2137.11856934,0.04154459
2139.04737671,0.04164110
2140.97618408,0.04153238
2142.90499146,0.04146683
2144.83379883,0.04148697
2146.76260620,0.04150346
2148.69141357,0.04153724
2150.62022095,0.04139173
2152.54902832,0.04150794
2154.47783569,0.04136853
2156.40664307,0.04131015
2158.33545044,0.04133625
2160.26425781,0.04117369
2162.19306519,0.04130752
2164.12187256,0.04133276
2166.05067993,0.04132862
2167.97948730,0.04119010
2169.90829468,0.04113552
2171.83710205,0.04114576
2173.76590942,0.04106742
2175.69471680,0.04118602
2177.62352417,0.04111995
2179.55233154,0.04103593
2181.48113892,0.04100369
2183.40994629,0.04105195
2185.33875366,0.04109758
2187.26756104,0.04106591
2189.19636841,0.04108071
2191.12517578,0.04097792
2193.05398315,0.04091400
2194.98279053,0.04085767
2196.91159790,0.04087827
2198.84040527,0.04095096
2200.76921265,0.04093365
2202.69802002,0.04090161
2204.62682739,0.04087182
2206.55563477,0.04080044
2208.48444214,0.04081623
2210.41324951,0.04094133
2212.34205688,0.04082213
2214.27086426,0.04068287
2216.19967163,0.04067387
2218.12847900,0.04070758
2220.05728638,0.04067984
2221.98609375,0.04067159
2223.91490112,0.04072173
2225.84370850,0.04063881
2227.77251587,0.04073318
2229.70132324,0.04071381
2231.63013062,0.04060809
2233.55893799,0.04054277
2235.48774536,0.04037295
2237.41655273,0.04037969
2239.34536011,0.04037220
2241.27416748,0.04031473
2243.20297485,0.04023105
2245.13178223,0.04023730
2247.06058960,0.04026633
2248.98939697,0.04025336
2250.91820435,0.04015398
2252.84701172,0.04005337
2254.77581909,0.04011191
2256.70462646,0.03993049
2258.63343384,0.03999462
2260.56224121,0.04004633
2262.49104858,0.03991456
2264.41985596,0.04002008
2266.34866333,0.03992029
2268.27747070,0.03986090
2270.20627808,0.03988606
2272.13508545,0.03993554
2274.06389282,0.03988226
2275.99270020,0.03984053
2277.92150757,0.03991862
2279.85031494,0.03990405
2281.77912231,0.03986531
2283.70792969,0.03971810
2285.63673706,0.03977687
2287.56554443,0.03968634
2289.49435181,0.03962564
2291.42315918,0.03963862
2293.35196655,0.03943950
2295.28077393,0.03942534
2297.20958130,0.03922922
2299.13838867,0.03923848
2301.06719604,0.03914541
2302.99600342,0.03881080
2304.92481079,0.03864834
2306.85361816,0.03842914
2308.78242554,0.03827978
2310.71123291,0.03794749
2312.64004028,0.03763524
2314.56884766,0.03711274
2316.49765503,0.03675295
2318.42646240,0.03647942
2320.35526978,0.03577288
2322.28407715,0.03540391
2324.21288452,0.03490708
2326.14169189,0.03455638
2328.07049927,0.03435522
2329.99930664,0.03385161
2331.92811401,0.03351447
2333.85692139,0.03339932
2335.78572876,0.03335922
2337.71453613,0.03315809
2339.64334351,0.03331670
2341.57215088,0.03360176
2343.50095825,0.03399771
2345.42976562,0.03471583
2347.35857300,0.03600351
2349.28738037,0.03730462
2351.21618774,0.03617280
2353.14499512,0.03413799
2355.07380249,0.03292123
2357.00260986,0.03193725
2358.93141724,0.03142926
2360.86022461,0.03095731
2362.78903198,0.03096149
2364.71783936,0.03130557
2366.64664673,0.03164691
2368.57545410,0.03231638
2370.50426147,0.03298562
2372.43306885,0.03392444
2374.36187622,0.03509305
2376.29068359,0.03600723
2378.21949097,0.03675639
2380.14829834,0.03755512
2382.07710571,0.03801494
2384.00591309,0.03829529
2385.93472046,0.03854860
2387.86352783,0.03838485
2389.79233521,0.03834888
2391.72114258,0.03842445
2393.64994995,0.03840001
2395.57875732,0.03838652
2397.50756470,0.03833158
2399.43637207,0.03839292
2401.36517944,0.03835198
2403.29398682,0.03832965
2405.22279419,0.03831335
2407.15160156,0.03812560
2409.08040894,0.03812481
2411.00921631,0.03821933
2412.93802368,0.03819780
2414.86683105,0.03812134
2416.79563843,0.03807123
2418.72444580,0.03806928
2420.65325317,0.03798030
2422.58206055,0.03799609
2424.51086792,0.03812506
2426.43967529,0.03795455
2428.36848267,0.03791694
2430.29729004,0.03808254
2432.22609741,0.03787480
2434.15490479,0.03780694
2436.08371216,0.03791345
2438.01251953,0.03778507
2439.94132690,0.03779630
2441.87013428,0.03784080
2443.79894165,0.03769871
2445.72774902,0.03764690
2447.65655640,0.03766295
2449.58536377,0.03756807
2451.51417114,0.03760719
2453.44297852,0.03767882
2455.37178589,0.03754456
2457.30059326,0.03756964
2459.22940063,0.03763482
2461.15820801,0.03756171
2463.08701538,0.03745925
2465.01582275,0.03735780
2466.94463013,0.03745855
2468.87343750,0.03746827
2470.80224487,0.03724276
2472.73105225,0.03716276
2474.65985962,0.03729799
2476.58866699,0.03735127
2478.51747437,0.03723946
2480.44628174,0.03715990
2482.37508911,0.03714807
2484.30389648,0.03721588
2486.23270386,0.03715371
2488.16151123,0.03711884
2490.09031860,0.03719437
2492.01912598,0.03713556
2493.94793335,0.03717486
2495.87674072,0.03703993
2497.80554810,0.03683781
2499.73435547,0.03687018
2501.66316284,0.03690758
2503.59197021,0.03693571
2505.52077759,0.03685770
2507.44958496,0.03684038
2509.37839233,0.03681947
2511.30719971,0.03678444
2513.23600708,0.03678856
2515.16481445,0.03667759
2517.09362183,0.03663932
2519.02242920,0.03662714
2520.95123657,0.03665459
2522.88004395,0.03658674
2524.80885132,0.03649794
2526.73765869,0.03659894
2528.66646606,0.03658313
2530.59527344,0.03649080
2532.52408081,0.03649549
2534.45288818,0.03653265
2536.38169556,0.03642303
2538.31050293,0.03639692
2540.23931030,0.03646619
2542.16811768,0.03635180
2544.09692505,0.03639124
2546.02573242,0.03642225
2547.95453979,0.03624851
2549.88334717,0.03624200
2551.81215454,0.03623124
2553.74096191,0.03611572
2555.66976929,0.03615768
2557.59857666,0.03611884
2559.52738403,0.03604536
2561.45619141,0.03605546
2563.38499878,0.03604434
2565.31380615,0.03609367
2567.24261353,0.03596167
2569.17142090,0.03591626
2571.10022827,0.03591972
2573.02903564,0.03584369
2574.95784302,0.03594002
2576.88665039,0.03590533
2578.81545776,0.03582521
2580.74426514,0.03570127
2582.67307251,0.03573763
2584.60187988,0.03575911
2586.53068726,0.03565845
2588.45949463,0.03572221
2590.38830200,0.03554619
2592.31710937,0.03563678
2594.24591675,0.03566610
2596.17472412,0.03545745
2598.10353149,0.03557282
2600.03233887,0.03553832
2601.96114624,0.03542365
2603.88995361,0.03532916
2605.81876099,0.03542605
2607.74756836,0.03539471
2609.67637573,0.03526730
2611.60518311,0.03533279
2613.53399048,0.03520432
2615.46279785,0.03524907
2617.39160522,0.03522119
2619.32041260,0.03517175
2621.24921997,0.03510468
2623.17802734,0.03496697
2625.10683472,0.03512627
2627.03564209,0.03500146
2628.96444946,0.03496956
2630.89325684,0.03505908
2632.82206421,0.03492445
2634.75087158,0.03490175
2636.67967895,0.03486436
2638.60848633,0.03479221
2640.53729370,0.03472204
2642.46610107,0.03477499
2644.39490845,0.03477599
2646.32371582,0.03469723
2648.25252319,0.03467608
2650.18133057,0.03466739
2652.11013794,0.03467017
2654.03894531,0.03453982
2655.96775269,0.03457674
2657.89656006,0.03457218
2659.82536743,0.03439559
2661.75417480,0.03453676
2663.68298218,0.03460350
2665.61178955,0.03438322
2667.54059692,0.03433520
2669.46940430,0.03443629
2671.39821167,0.03435723
2673.32701904,0.03423304
2675.25582642,0.03427006
2677.18463379,0.03423121
2679.11344116,0.03417297
2681.04224854,0.03424577
2682.97105591,0.03410030
2684.89986328,0.03401324
2686.82867065,0.03413198
2688.75747803,0.03402168
2690.68628540,0.03393487
2692.61509277,0.03383186
2694.54390015,0.03375349
2696.47270752,0.03385533
2698.40151489,0.03388534
2700.33032227,0.03382995
2702.25912964,0.03365004
2704.18793701,0.03363077
2706.11674438,0.03372676
2708.04555176,0.03374612
2709.97435913,0.03366174
2711.90316650,0.03350396
2713.83197388,0.03358300
2715.76078125,0.03354361
2717.68958862,0.03338277
2719.61839600,0.03344482
2721.54720337,0.03350186
2723.47601074,0.03335335
2725.40481812,0.03330050
2727.33362549,0.03337668
2729.26243286,0.03322203
2731.19124023,0.03315963
2733.12004761,0.03317270
2735.04885498,0.03316865
2736.97766235,0.03309651
2738.90646973,0.03302845
2740.83527710,0.03311564
2742.76408447,0.03294984
2744.69289185,0.03299527
2746.62169922,0.03296973
2748.55050659,0.03282096
2750.47931396,0.03294899
2752.40812134,0.03269668
2754.33692871,0.03270718
2756.26573608,0.03281973
2758.19454346,0.03259438
2760.12335083,0.03258434
2762.05215820,0.03255053
2763.98096558,0.03253765
2765.90977295,0.03252235
2767.83858032,0.03246827
2769.76738770,0.03248924
2771.69619507,0.03244344
2773.62500244,0.03231677
2775.55380981,0.03228162
2777.48261719,0.03231052
2779.41142456,0.03214977
2781.34023193,0.03208050
2783.26903931,0.03212422
2785.19784668,0.03204650
2787.12665405,0.03201410
2789.05546143,0.03204020
2790.98426880,0.03194096
2792.91307617,0.03185708
2794.84188354,0.03185070
2796.77069092,0.03175101
2798.69949829,0.03176802
2800.62830566,0.03170373
2802.55711304,0.03162279
2804.48592041,0.03165596
2806.41472778,0.03155877
2808.34353516,0.03152661
2810.27234253,0.03143153
2812.20114990,0.03145105
2814.12995728,0.03131227
2816.05876465,0.03111206
2817.98757202,0.03131496
2819.91637939,0.03112212
2821.84518677,0.03105303
2823.77399414,0.03115875
2825.70280151,0.03096639
2827.63160889,0.03097938
2829.56041626,0.03088317
2831.48922363,0.03089035
2833.41803101,0.03092575
2835.34683838,0.03073843
2837.27564575,0.03069095
2839.20445312,0.03062931
2841.13326050,0.03060389
2843.06206787,0.03050762
2844.99087524,0.03033622
2846.91968262,0.03028075
2848.84848999,0.03017092
2850.77729736,0.03003208
2852.70610474,0.02994552
2854.63491211,0.02990309
2856.56371948,0.02985881
2858.49252686,0.02980517
2860.42133423,0.02975117
2862.35014160,0.02973973
2864.27894897,0.02977482
2866.20775635,0.02974600
2868.13656372,0.02966531
2870.06537109,0.02956659
2871.99417847,0.02957313
2873.92298584,0.02958042
2875.85179321,0.02941132
2877.78060059,0.02940642
2879.70940796,0.02942996
2881.63821533,0.02927851
2883.56702270,0.02929893
2885.49583008,0.02925334
2887.42463745,0.02916681
2889.35344482,0.02922086
2891.28225220,0.02907536
2893.21105957,0.02895997
2895.13986694,0.02897817
2897.06867432,0.02892498
2898.99748169,0.02885683
2900.92628906,0.02885393
2902.85509644,0.02880517
2904.78390381,0.02861911
2906.71271118,0.02855161
2908.64151855,0.02841669
2910.57032593,0.02827041
2912.49913330,0.02827546
2914.42794067,0.02808427
2916.35674805,0.02796787
2918.28555542,0.02795799
2920.21436279,0.02786516
2922.14317017,0.02778522
2924.07197754,0.02769274
2926.00078491,0.02765036
2927.92959229,0.02761029
2929.85839966,0.02762948
2931.78720703,0.02769012
2933.71601440,0.02763218
2935.64482178,0.02756670
2937.57362915,0.02758135
2939.50243652,0.02753564
2941.43124390,0.02754366
2943.36005127,0.02757278
2945.28885864,0.02738286
2947.21766602,0.02739695
2949.14647339,0.02741255
2951.07528076,0.02720658
2953.00408813,0.02724005
2954.93289551,0.02724594
2956.86170288,0.02716681
2958.79051025,0.02702973
2960.71931763,0.02680759
2962.64812500,0.02678356
2964.57693237,0.02677961
2966.50573975,0.02671221
2968.43454712,0.02673140
2970.36335449,0.02673130
2972.29216187,0.02669704
2974.22096924,0.02673571
2976.14977661,0.02667123
2978.07858398,0.02660763
2980.00739136,0.02659410
2981.93619873,0.02654885
2983.86500610,0.02664071
2985.79381348,0.02658172
2987.72262085,0.02654302
2989.65142822,0.02652233
2991.58023560,0.02629235
2993.50904297,0.02628755
2995.43785034,0.02624568
2997.36665771,0.02615378
2999.29546509,0.02621112
3001.22427246,0.02608123
3003.15307983,0.02595778
3005.08188721,0.02599208
3007.01069458,0.02592828
3008.93950195,0.02583193
3010.86830933,0.02570824
3012.79711670,0.02550325
3014.72592407,0.02553636
3016.65473145,0.02555191
3018.58353882,0.02541005
3020.51234619,0.02535444
3022.44115356,0.02530806
3024.36996094,0.02525641
3026.29876831,0.02512446
3028.22757568,0.02507411
3030.15638306,0.02488195
3032.08519043,0.02470772
3034.01399780,0.02479776
3035.94280518,0.02470433
3037.87161255,0.02477590
3039.80041992,0.02467468
3041.72922729,0.02443498
3043.65803467,0.02445460
3045.58684204,0.02422317
3047.51564941,0.02422343
3049.44445679,0.02425178
3051.37326416,0.02402357
3053.30207153,0.02402267
3055.23087891,0.02392102
3057.15968628,0.02380323
3059.08849365,0.02386360
3061.01730103,0.02374694
3062.94610840,0.02354262
3064.87491577,0.02349726
3066.80372314,0.02340833
3068.73253052,0.02328185
3070.66133789,0.02327329
3072.59014526,0.02323753
3074.51895264,0.02311654
3076.44776001,0.02301087
3078.37656738,0.02284273
3080.30537476,0.02264988
3082.23418213,0.02272296
3084.16298950,0.02268912
3086.09179687,0.02253434
3088.02060425,0.02256499
3089.94941162,0.02241087
3091.87821899,0.02229923
3093.80702637,0.02227521
3095.73583374,0.02209853
3097.66464111,0.02200357
3099.59344849,0.02190036
3101.52225586,0.02174873
3103.45106323,0.02166365
3105.37987061,0.02158158
3107.30867798,0.02150027
3109.23748535,0.02137869
3111.16629272,0.02126504
3113.09510010,0.02132165
3115.02390747,0.02115481
3116.95271484,0.02082742
3118.88152222,0.02085667
3120.81032959,0.02081653
3122.73913696,0.02063220
3124.66794434,0.02056494
3126.59675171,0.02041376
3128.52555908,0.02030795
3130.45436645,0.02029943
3132.38317383,0.02014994
3134.31198120,0.02001504
3136.24078857,0.01993671
3138.16959595,0.01975315
3140.09840332,0.01964578
3142.02721069,0.01956372
3143.95601807,0.01945979
3145.88482544,0.01936946
3147.81363281,0.01932044
3149.74244019,0.01927890
3151.67124756,0.01904864
3153.60005493,0.01891864
3155.52886230,0.01884229
3157.45766968,0.01875439
3159.38647705,0.01872062
3161.31528442,0.01858252
3163.24409180,0.01850147
3165.17289917,0.01833055
3167.10170654,0.01819129
3169.03051392,0.01812618
3170.95932129,0.01794315
3172.88812866,0.01787387
3174.81693604,0.01782931
3176.74574341,0.01772076
3178.67455078,0.01760208
3180.60335815,0.01750661
3182.53216553,0.01744458
3184.46097290,0.01738141
3186.38978027,0.01726635
3188.31858765,0.01717121
3190.24739502,0.01716275
3192.17620239,0.01701466
3194.10500977,0.01688863
3196.03381714,0.01688538
3197.96262451,0.01672108
3199.89143188,0.01660247
3201.82023926,0.01667503
3203.74904663,0.01656255
3205.67785400,0.01642404
3207.60666138,0.01640436
3209.53546875,0.01629132
3211.46427612,0.01630512
3213.39308350,0.01621556
3215.32189087,0.01606789
3217.25069824,0.01610566
3219.17950562,0.01604504
3221.10831299,0.01602635
3223.03712036,0.01594920
3224.96592773,0.01582785
3226.89473511,0.01588627
3228.82354248,0.01585936
3230.75234985,0.01575064
3232.68115723,0.01570816
3234.60996460,0.01566426
3236.53877197,0.01568108
3238.46757935,0.01560342
3240.39638672,0.01549004
3242.32519409,0.01561389
3244.25400146,0.01551109
3246.18280884,0.01541586
3248.11161621,0.01550973
3250.04042358,0.01543645
3251.96923096,0.01542253
3253.89803833,0.01536114
3255.82684570,0.01536846
3257.75565308,0.01536786
3259.68446045,0.01534317
3261.61326782,0.01534987
3263.54207520,0.01524867
3265.47088257,0.01533142
3267.39968994,0.01530794
3269.32849731,0.01534588
3271.25730469,0.01537719
3273.18611206,0.01522011
3275.11491943,0.01526571
3277.04372681,0.01518795
3278.97253418,0.01514280
3280.90134155,0.01518917
3282.83014893,0.01514024
3284.75895630,0.01514142
3286.68776367,0.01515737
3288.61657104,0.01519356
3290.54537842,0.01514165
3292.47418579,0.01506718
3294.40299316,0.01518445
3296.33180054,0.01518474
3298.26060791,0.01498733
3300.18941528,0.01507828
3302.11822266,0.01509629
3304.04703003,0.01500254
3305.97583740,0.01507108
3307.90464478,0.01503547
3309.83345215,0.01499109
3311.76225952,0.01488493
3313.69106689,0.01494977
3315.61987427,0.01500600
3317.54868164,0.01487566
3319.47748901,0.01490617
3321.40629639,0.01495574
3323.33510376,0.01491553
3325.26391113,0.01485332
3327.19271851,0.01497108
3329.12152588,0.01484499
3331.05033325,0.01474361
3332.97914062,0.01494240
3334.90794800,0.01483499
3336.83675537,0.01480845
3338.76556274,0.01486194
3340.69437012,0.01477167
3342.62317749,0.01473020
3344.55198486,0.01481131
3346.48079224,0.01479681
3348.40959961,0.01472520
3350.33840698,0.01472399
3352.26721436,0.01462810
3354.19602173,0.01470352
3356.12482910,0.01471965
3358.05363647,0.01474345
3359.98244385,0.01475165
3361.91125122,0.01468256
3363.84005859,0.01471901
3365.76886597,0.01460095
3367.69767334,0.01460345
3369.62648071,0.01459351
3371.55528809,0.01468036
3373.48409546,0.01473854
3375.41290283,0.01469302
3377.34171020,0.01472646
3379.27051758,0.01454365
3381.19932495,0.01463919
3383.12813232,0.01479734
3385.05693970,0.01478741
3386.98574707,0.01472490
3388.91455444,0.01474531
3390.84336182,0.01467671
3392.77216919,0.01455486
3394.70097656,0.01484753
3396.62978394,0.01471254
3398.55859131,0.01462442
3400.48739868,0.01477220
3402.41620605,0.01467837
3404.34501343,0.01476990
3406.27382080,0.01483736
3408.20262817,0.01483592
3410.13143555,0.01478053
3412.06024292,0.01491175
3413.98905029,0.01494224
3415.91785767,0.01494524
3417.84666504,0.01495373
3419.77547241,0.01482193
3421.70427979,0.01494206
3423.63308716,0.01488736
3425.56189453,0.01500436
3427.49070190,0.01506246
3429.41950928,0.01500573
3431.34831665,0.01512334
3433.27712402,0.01509333
3435.20593140,0.01513721
3437.13473877,0.01509481
3439.06354614,0.01519702
3440.99235352,0.01511533
3442.92116089,0.01508647
3444.84996826,0.01523484
3446.77877563,0.01506900
3448.70758301,0.01521281
3450.63639038,0.01538813
3452.56519775,0.01541631
3454.49400513,0.01537940
3456.42281250,0.01536695
3458.35161987,0.01535557
3460.28042725,0.01533420
3462.20923462,0.01547377
3464.13804199,0.01547670
3466.06684937,0.01550994
3467.99565674,0.01556691
3469.92446411,0.01558749
3471.85327148,0.01561366
3473.78207886,0.01574761
3475.71088623,0.01566490
3477.63969360,0.01565804
3479.56850098,0.01580326
3481.49730835,0.01552438
3483.42611572,0.01571685
3485.35492310,0.01579195
3487.28373047,0.01570452
3489.21253784,0.01590521
3491.14134521,0.01592389
3493.07015259,0.01603905
3494.99895996,0.01598864
3496.92776733,0.01608568
3498.85657471,0.01617593
3500.78538208,0.01619108
3502.71418945,0.01598246
3504.64299683,0.01593435
3506.57180420,0.01631788
3508.50061157,0.01607044
3510.42941895,0.01614900
3512.35822632,0.01633007
3514.28703369,0.01636991
3516.21584106,0.01650463
3518.14464844,0.01635084
3520.07345581,0.01650113
3522.00226318,0.01643192
3523.93107056,0.01631061
3525.85987793,0.01632309
3527.78868530,0.01637165
3529.71749268,0.01651392
3531.64630005,0.01662188
3533.57510742,0.01683794
3535.50391479,0.01670967
3537.43272217,0.01663490
3539.36152954,0.01695274
3541.29033691,0.01703133
3543.21914429,0.01682547
3545.14795166,0.01655369
3547.07675903,0.01627849
3549.00556641,0.01688319
3550.93437378,0.01711416
3552.86318115,0.01655632
3554.79198853,0.01709513
3556.72079590,0.01726647
3558.64960327,0.01712901
3560.57841064,0.01704813
3562.50721802,0.01693838
3564.43602539,0.01714108
3566.36483276,0.01599719
3568.29364014,0.01559428
3570.22244751,0.01699751
3572.15125488,0.01759000
3574.08006226,0.01731266
3576.00886963,0.01743256
3577.93767700,0.01739467
3579.86648437,0.01732673
3581.79529175,0.01752514
3583.72409912,0.01747933
3585.65290649,0.01724495
3587.58171387,0.01592981
3589.51052124,0.01625474
3591.43932861,0.01781850
3593.36813599,0.01733061
3595.29694336,0.01705543
3597.22575073,0.01737361
3599.15455811,0.01760028
3601.08336548,0.01751222
3603.01217285,0.01757704
3604.94098022,0.01797650
3606.86978760,0.01735008
3608.79859497,0.01628375
3610.72740234,0.01683594
3612.65620972,0.01731364
3614.58501709,0.01668555
3616.51382446,0.01799247
3618.44263184,0.01676423
3620.37143921,0.01607797
3622.30024658,0.01817076
3624.22905395,0.01775305
3626.15786133,0.01863308
3628.08666870,0.01582105
3630.01547607,0.01442716
3631.94428345,0.01822465
3633.87309082,0.01779682
3635.80189819,0.01811823
3637.73070557,0.01843524
3639.65951294,0.01824203
3641.58832031,0.01847932
3643.51712769,0.01823404
3645.44593506,0.01852341
3647.37474243,0.01656580
3649.30354980,0.01523426
3651.23235718,0.01548207
3653.16116455,0.01845872
3655.08997192,0.01843699
3657.01877930,0.01635340
3658.94758667,0.01887132
3660.87639404,0.01865249
3662.80520142,0.01877728
3664.73400879,0.01874149
3666.66281616,0.01861484
3668.59162354,0.01825292
3670.52043091,0.01492658
3672.44923828,0.01799425
3674.37804565,0.01723680
3676.30685303,0.01408327
3678.23566040,0.01789429
3680.16446777,0.01850909
3682.09327515,0.01841307
3684.02208252,0.01908849
3685.95088989,0.01884164
3687.87969727,0.01690878
3689.80850464,0.01549649
3691.73731201,0.01766009
3693.66611938,0.01821080
3695.59492676,0.01876055
3697.52373413,0.01871606
3699.45254150,0.01848479
3701.38134888,0.01806526
3703.31015625,0.01731218
3705.23896362,0.01921046
3707.16777100,0.01828530
3709.09657837,0.01775006
3711.02538574,0.01679602
3712.95419312,0.01562491
3714.88300049,0.01839716
3716.81180786,0.01817606
3718.74061523,0.01831036
3720.66942261,0.01805424
3722.59822998,0.01740172
3724.52703735,0.01797150
3726.45584473,0.01659830
3728.38465210,0.01808659
3730.31345947,0.01799612
3732.24226685,0.01645577
3734.17107422,0.01600440
3736.09988159,0.01521068
3738.02868896,0.01608936
3739.95749634,0.01742003
3741.88630371,0.01835557
3743.81511108,0.01430736
3745.74391846,0.01337078
3747.67272583,0.01737064
3749.60153320,0.01493856
3751.53034058,0.01368546
3753.45914795,0.01587531
3755.38795532,0.01714225
3757.31676270,0.01777191
3759.24557007,0.01646314
3761.17437744,0.01698948
3763.10318481,0.01813896
3765.03199219,0.01698942
3766.96079956,0.01724637
3768.88960693,0.01706553
3770.81841431,0.01629099
3772.74722168,0.01763716
3774.67602905,0.01768607
3776.60483643,0.01778755
3778.53364380,0.01732508
3780.46245117,0.01653848
3782.39125854,0.01768388
3784.32006592,0.01727177
3786.24887329,0.01713531
3788.17768066,0.01751208
3790.10648804,0.01740450
3792.03529541,0.01729801
3793.96410278,0.01759883
3795.89291016,0.01662012
3797.82171753,0.01630804
3799.75052490,0.01720938
3801.67933228,0.01369982
3803.60813965,0.01595736
3805.53694702,0.01739477
3807.46575439,0.01406369
3809.39456177,0.01709637
3811.32336914,0.01687094
3813.25217651,0.01739816
3815.18098389,0.01586599
3817.10979126,0.01387388
3819.03859863,0.01743722
3820.96740601,0.01415047
3822.89621338,0.01488198
3824.82502075,0.01736671
3826.75382812,0.01566044
3828.68263550,0.01693270
3830.61144287,0.01623082
3832.54025024,0.01572598
3834.46905762,0.01608843
3836.39786499,0.01518941
3838.32667236,0.01378706
3840.25547974,0.01489648
3842.18428711,0.01604573
3844.11309448,0.01532576
3846.04190186,0.01661876
3847.97070923,0.01636951
3849.89951660,0.01637726
3851.82832397,0.01480540
3853.75713135,0.01104469
3855.68593872,0.01310392
3857.61474609,0.01641922
3859.54355347,0.01601693
3861.47236084,0.01590721
3863.40116821,0.01542385
3865.32997559,0.01432641
3867.25878296,0.01610314
3869.18759033,0.01467166
3871.11639770,0.01349612
3873.04520508,0.01615107
3874.97401245,0.01483320
3876.90281982,0.01589632
3878.83162720,0.01633539
3880.76043457,0.01399862
3882.68924194,0.01607133
3884.61804932,0.01499121
3886.54685669,0.01374758
3888.47566406,0.01617429
3890.40447144,0.01523873
3892.33327881,0.01432953
3894.26208618,0.01568799
3896.19089355,0.01597581
3898.11970093,0.01525317
3900.04850830,0.01429783
3901.97731567,0.01420721
3903.90612305,0.01410931
3905.83493042,0.01426183
3907.76373779,0.01562794
3909.69254517,0.01559442
3911.62135254,0.01549485
3913.55015991,0.01582776
3915.47896728,0.01525912
3917.40777466,0.01486945
3919.33658203,0.01471709
3921.26538940,0.01528499
3923.19419678,0.01529850
3925.12300415,0.01485832
3927.05181152,0.01519739
3928.98061890,0.01542101
3930.90942627,0.01496393
3932.83823364,0.01457883
3934.76704102,0.01517255
3936.69584839,0.01521152
3938.62465576,0.01518662
3940.55346313,0.01529728
3942.48227051,0.01467405
3944.41107788,0.01485676
3946.33988525,0.01510228
3948.26869263,0.01471542
3950.19750000,0.01467012
3952.12630737,0.01491582
3954.05511475,0.01503108
3955.98392212,0.01498957
3957.91272949,0.01489136
3959.84153687,0.01490113
3961.77034424,0.01483432
3963.69915161,0.01482977
3965.62795898,0.01497456
3967.55676636,0.01476843
3969.48557373,0.01481375
3971.41438110,0.01482605
3973.34318848,0.01472123
3975.27199585,0.01468072
3977.20080322,0.01458480
3979.12961060,0.01477206
3981.05841797,0.01465142
3982.98722534,0.01468665
3984.91603271,0.01460192
3986.84484009,0.01443726
3988.77364746,0.01454747
3990.70245483,0.01440996
3992.63126221,0.01454590
3994.56006958,0.01447928
3996.48887695,0.01440011
3998.41768433,0.01443921
4000.34649170,0.01438300
4002.27529907,0.01439709
4004.20410645,0.01434472
4006.13291382,0.01435258
4008.06172119,0.01417420
4009.99052856,0.01423948
4011.91933594,0.01427597
4013.84814331,0.01419426
4015.77695068,0.01420266
4017.70575806,0.01409259
4019.63456543,0.01406608
4021.56337280,0.01401184
4023.49218018,0.01412859
4025.42098755,0.01401898
4027.34979492,0.01395280
4029.27860229,0.01403628
4031.20740967,0.01396145
4033.13621704,0.01406474
4035.06502441,0.01395871
4036.99383179,0.01393032
4038.92263916,0.01398337
4040.85144653,0.01388118
4042.78025391,0.01379034
4044.70906128,0.01375656
4046.63786865,0.01379145
4048.56667603,0.01376383
4050.49548340,0.01373664
4052.42429077,0.01369569
4054.35309814,0.01369592
4056.28190552,0.01365291
4058.21071289,0.01364142
4060.13952026,0.01358866
4062.06832764,0.01357849
4063.99713501,0.01355534
4065.92594238,0.01349078
4067.85474976,0.01362367
4069.78355713,0.01347009
4071.71236450,0.01344700
4073.64117187,0.01342418
4075.56997925,0.01332386
4077.49878662,0.01339355
4079.42759399,0.01329436
4081.35640137,0.01339717
4083.28520874,0.01337506
4085.21401611,0.01333615
4087.14282349,0.01324342
4089.07163086,0.01317265
4091.00043823,0.01328434
4092.92924561,0.01318504
4094.85805298,0.01322874
4096.78686035,0.01316071
4098.71566772,0.01315295
4100.64447510,0.01308898
4102.57328247,0.01298320
4104.50208984,0.01306931
4106.43089722,0.01299124
4108.35970459,0.01306856
4110.28851196,0.01303793
4112.21731934,0.01297345
4114.14612671,0.01296585
4116.07493408,0.01292984
4118.00374145,0.01285649
4119.93254883,0.01278263
4121.86135620,0.01284183
4123.79016357,0.01277647
4125.71897095,0.01281052
4127.64777832,0.01262052
4129.57658569,0.01257303
4131.50539307,0.01274702
4133.43420044,0.01260249
4135.36300781,0.01261274
4137.29181519,0.01263355
4139.22062256,0.01264456
4141.14942993,0.01258327
4143.07823730,0.01258278
4145.00704468,0.01260755
4146.93585205,0.01243969
4148.86465942,0.01243646
4150.79346680,0.01242942
4152.72227417,0.01239702
4154.65108154,0.01236555
4156.57988892,0.01232189
4158.50869629,0.01228926
4160.43750366,0.01238905
4162.36631103,0.01237960
4164.29511841,0.01225676
4166.22392578,0.01232382
4168.15273315,0.01217669
4170.08154053,0.01218008
4172.01034790,0.01226054
4173.93915527,0.01217584
4175.86796265,0.01210206
4177.79677002,0.01203830
4179.72557739,0.01214829
4181.65438477,0.01211738
4183.58319214,0.01208944
4185.51199951,0.01199449
4187.44080688,0.01192785
4189.36961426,0.01205066
4191.29842163,0.01198821
4193.22722900,0.01194059
4195.15603638,0.01191063
4197.08484375,0.01191751
4199.01365112,0.01185639
4200.94245850,0.01176975
4202.87126587,0.01182943
4204.80007324,0.01183666
4206.72888062,0.01179180
4208.65768799,0.01171779
4210.58649536,0.01173325
4212.51530273,0.01172012
4214.44411011,0.01162176
4216.37291748,0.01160846
4218.30172485,0.01161930
4220.23053223,0.01156881
4222.15933960,0.01155951
4224.08814697,0.01158411
4226.01695435,0.01155755
4227.94576172,0.01153039
4229.87456909,0.01146926
4231.80337646,0.01144254
4233.73218384,0.01139615
4235.66099121,0.01143914
4237.58979858,0.01141452
4239.51860596,0.01130246
4241.44741333,0.01139841
4243.37622070,0.01132826
4245.30502808,0.01130420
4247.23383545,0.01131933
4249.16264282,0.01126951
4251.09145020,0.01131848
4253.02025757,0.01122378
4254.94906494,0.01118242
4256.87787231,0.01119834
4258.80667969,0.01117222
4260.73548706,0.01109535
4262.66429443,0.01116503
4264.59310181,0.01114114
4266.52190918,0.01096350
4268.45071655,0.01110094
4270.37952393,0.01102629
4272.30833130,0.01097211
4274.23713867,0.01108432
4276.16594604,0.01097096
4278.09475342,0.01092375
4280.02356079,0.01089906
4281.95236816,0.01093670
4283.88117554,0.01094418
4285.80998291,0.01084089
4287.73879028,0.01080709
4289.66759766,0.01086363
4291.59640503,0.01086893
4293.52521240,0.01074917
4295.45401978,0.01073709
4297.38282715,0.01074145
4299.31163452,0.01069270
4301.24044189,0.01073200
4303.16924927,0.01071093
4305.09805664,0.01064375
4307.02686401,0.01068003
4308.95567139,0.01065004
4310.88447876,0.01060949
4312.81328613,0.01060237
4314.74209351,0.01052269
4316.67090088,0.01056687
4318.59970825,0.01055848
4320.52851562,0.01041956
4322.45732300,0.01039062
4324.38613037,0.01042925
4326.31493774,0.01040928
4328.24374512,0.01036686
4330.17255249,0.01039687
4332.10135986,0.01039615
4334.03016724,0.01030960
4335.95897461,0.01026888
4337.88778198,0.01034162
4339.81658936,0.01026471
4341.74539673,0.01014873
4343.67420410,0.01018965
4345.60301147,0.01021940
4347.53181885,0.01021725
4349.46062622,0.01011712
4351.38943359,0.01015508
4353.31824097,0.01015935
4355.24704834,0.01006906
4357.17585571,0.01013060
4359.10466309,0.01006037
4361.03347046,0.01005816
4362.96227783,0.01009229
4364.89108520,0.01001358
4366.81989258,0.00994936
4368.74869995,0.00996425
4370.67750732,0.01000004
4372.60631470,0.00990896
4374.53512207,0.00994081
4376.46392944,0.00991544
4378.39273682,0.00984760
4380.32154419,0.00990855
4382.25035156,0.00981991
4384.17915894,0.00978092
4386.10796631,0.00980147
4388.03677368,0.00971312
4389.96558105,0.00974147
4391.89438843,0.00975138
4393.82319580,0.00968374
4395.75200317,0.00979036
4397.68081055,0.00971843
4399.60961792,0.00956255
4401.53842529,0.00959895
4403.46723267,0.00961029
4405.39604004,0.00964628
4407.32484741,0.00959610
4409.25365478,0.00955383
4411.18246216,0.00952362
4413.11126953,0.00945067
4415.04007690,0.00948577
4416.96888428,0.00948433
4418.89769165,0.00938827
4420.82649902,0.00932198
4422.75530640,0.00937403
4424.68411377,0.00935065
4426.61292114,0.00935551
4428.54172852,0.00936017
4430.47053589,0.00930510
4432.39934326,0.00935484
4434.32815063,0.00935663
4436.25695801,0.00934986
4438.18576538,0.00927713
4440.11457275,0.00929472
4442.04338013,0.00926310
4443.97218750,0.00916536
4445.90099487,0.00917233
4447.82980225,0.00904712
4449.75860962,0.00910526
4451.68741699,0.00908850
4453.61622437,0.00904625
4455.54503174,0.00913297
4457.47383911,0.00907508
4459.40264648,0.00908959
4461.33145386,0.00901238
4463.26026123,0.00897718
4465.18906860,0.00898128
4467.11787598,0.00892291
4469.04668335,0.00892609
4470.97549072,0.00891921
4472.90429810,0.00888945
4474.83310547,0.00886318
4476.76191284,0.00890305
4478.69072021,0.00886778
4480.61952759,0.00885808
4482.54833496,0.00879719
4484.47714233,0.00878886
4486.40594971,0.00884005
4488.33475708,0.00876044
4490.26356445,0.00880342
4492.19237183,0.00868945
4494.12117920,0.00863386
4496.04998657,0.00872865
4497.97879395,0.00869769
4499.90760132,0.00866560
4501.83640869,0.00861890
4503.76521606,0.00865050
4505.69402344,0.00857964
4507.62283081,0.00853381
4509.55163818,0.00857747
4511.48044556,0.00853324
4513.40925293,0.00852180
4515.33806030,0.00852936
4517.26686768,0.00847220
4519.19567505,0.00842289
4521.12448242,0.00848535
4523.05328979,0.00844536
4524.98209717,0.00841169
4526.91090454,0.00837813
4528.83971191,0.00834075
4530.76851929,0.00836196
4532.69732666,0.00831642
4534.62613403,0.00833055
4536.55494141,0.00823095
4538.48374878,0.00829783
4540.41255615,0.00830598
4542.34136353,0.00817517
4544.27017090,0.00831105
4546.19897827,0.00816641
4548.12778564,0.00810939
4550.05659302,0.00819256
4551.98540039,0.00812567
4553.91420776,0.00817784
4555.84301514,0.00812438
4557.77182251,0.00803231
4559.70062988,0.00802322
4561.62943726,0.00808944
4563.55824463,0.00800779
4565.48705200,0.00796283
4567.41585937,0.00811885
4569.34466675,0.00798595
4571.27347412,0.00794328
4573.20228149,0.00803715
4575.13108887,0.00792255
4577.05989624,0.00790635
4578.98870361,0.00788987
4580.91751099,0.00789734
4582.84631836,0.00791269
4584.77512573,0.00782290
4586.70393311,0.00785870
4588.63274048,0.00787492
4590.56154785,0.00790989
4592.49035522,0.00783484
4594.41916260,0.00771826
4596.34796997,0.00782067
4598.27677734,0.00775545
4600.20558472,0.00770965
4602.13439209,0.00769083
4604.06319946,0.00767328
4605.99200684,0.00764477
4607.92081421,0.00756853
4609.84962158,0.00769471
4611.77842895,0.00755942
4613.70723633,0.00754218
4615.63604370,0.00762835
4617.56485107,0.00752184
4619.49365845,0.00758381
4621.42246582,0.00750249
4623.35127319,0.00753302
4625.28008057,0.00753890
4627.20888794,0.00746570
4629.13769531,0.00748488
4631.06650269,0.00739056
4632.99531006,0.00744725
4634.92411743,0.00743169
4636.85292480,0.00741316
4638.78173218,0.00740793
4640.71053955,0.00734275
4642.63934692,0.00738957
4644.56815430,0.00733624
4646.49696167,0.00733389
4648.42576904,0.00732377
4650.35457642,0.00721347
4652.28338379,0.00721264
4654.21219116,0.00727529
4656.14099853,0.00728402
4658.06980591,0.00719916
4659.99861328,0.00714181
4661.92742065,0.00719873
4663.85622803,0.00717555
4665.78503540,0.00712732
4667.71384277,0.00719169
4669.64265015,0.00712570
4671.57145752,0.00707860
4673.50026489,0.00707806
4675.42907227,0.00703535
4677.35787964,0.00705430
4679.28668701,0.00700740
4681.21549438,0.00703647
4683.14430176,0.00707280
4685.07310913,0.00704993
4687.00191650,0.00705187
4688.93072388,0.00697905
4690.85953125,0.00693386
4692.78833862,0.00698324
4694.71714600,0.00697937
4696.64595337,0.00688951
4698.57476074,0.00693155
4700.50356812,0.00690384
4702.43237549,0.00677751
4704.36118286,0.00683098
4706.28999023,0.00684530
4708.21879761,0.00679450
4710.14760498,0.00682396
4712.07641235,0.00681666
4714.00521973,0.00676992
4715.93402710,0.00683196
4717.86283447,0.00678986
4719.79164185,0.00668038
4721.72044922,0.00669235
4723.64925659,0.00666581
4725.57806396,0.00672135
4727.50687134,0.00672258
4729.43567871,0.00661666
4731.36448608,0.00660529
4733.29329346,0.00660510
4735.22210083,0.00660189
4737.15090820,0.00659063
4739.07971558,0.00659989
4741.00852295,0.00657971
4742.93733032,0.00654109
4744.86613770,0.00660676
4746.79494507,0.00661739
4748.72375244,0.00650452
4750.65255981,0.00651472
4752.58136719,0.00651787
4754.51017456,0.00645647
4756.43898193,0.00652836
4758.36778931,0.00650470
4760.29659668,0.00645849
4762.22540405,0.00647789
4764.15421143,0.00647930
4766.08301880,0.00642949
4768.01182617,0.00632845
4769.94063354,0.00635714
4771.86944092,0.00634082
4773.79824829,0.00634836
4775.72705566,0.00638152
4777.65586304,0.00629537
4779.58467041,0.00626355
4781.51347778,0.00625523
4783.44228516,0.00628163
4785.37109253,0.00626356
4787.29989990,0.00619936
4789.22870728,0.00618416
4791.15751465,0.00615053
4793.08632202,0.00613879
4795.01512939,0.00620496
4796.94393677,0.00617952
4798.87274414,0.00610776
4800.80155151,0.00615293
4802.73035889,0.00607449
4804.65916626,0.00600498
4806.58797363,0.00601911
4808.51678101,0.00599649
4810.44558838,0.00601078
4812.37439575,0.00604344
4814.30320312,0.00605906
4816.23201050,0.00596076
4818.16081787,0.00599333
4820.08962524,0.00601513
4822.01843262,0.00593343
4823.94723999,0.00600490
4825.87604736,0.00598969
4827.80485474,0.00590096
4829.73366211,0.00591501
4831.66246948,0.00600435
4833.59127686,0.00592338
4835.52008423,0.00585494
4837.44889160,0.00589591
4839.37769897,0.00580538
4841.30650635,0.00582289
4843.23531372,0.00585818
4845.16412109,0.00585576
4847.09292847,0.00583432
4849.02173584,0.00578340
4850.95054321,0.00576739
4852.87935059,0.00575707
4854.80815796,0.00577369
4856.73696533,0.00569766
4858.66577270,0.00567866
4860.59458008,0.00569570
4862.52338745,0.00570050
4864.45219482,0.00567024
4866.38100220,0.00563551
4868.30980957,0.00570517
4870.23861694,0.00560098
4872.16742432,0.00558069
4874.09623169,0.00567180
4876.02503906,0.00559544
4877.95384644,0.00557998
4879.88265381,0.00564890
4881.81146118,0.00561113
4883.74026855,0.00555883
4885.66907593,0.00558481
4887.59788330,0.00553699
4889.52669067,0.00555685
4891.45549805,0.00554226
4893.38430542,0.00547370
4895.31311279,0.00549963
4897.24192017,0.00548223
4899.17072754,0.00549079
4901.09953491,0.00544917
4903.02834228,0.00539178
4904.95714966,0.00538263
4906.88595703,0.00543655
4908.81476440,0.00542205
4910.74357178,0.00536838
4912.67237915,0.00543964
4914.60118652,0.00536039
4916.52999390,0.00532387
4918.45880127,0.00530438
4920.38760864,0.00528498
4922.31641602,0.00537852
4924.24522339,0.00535793
4926.17403076,0.00532939
4928.10283813,0.00527644
4930.03164551,0.00528144
4931.96045288,0.00524374
4933.88926025,0.00521319
4935.81806763,0.00522390
4937.74687500,0.00511927
4939.67568237,0.00519660
4941.60448975,0.00520382
4943.53329712,0.00512872
4945.46210449,0.00515891
4947.39091187,0.00515015
4949.31971924,0.00509143
4951.24852661,0.00505802
4953.17733398,0.00516421
4955.10614136,0.00512935
4957.03494873,0.00508937
4958.96375610,0.00509193
4960.89256348,0.00499447
4962.82137085,0.00506501
4964.75017822,0.00500564
4966.67898560,0.00489150
4968.60779297,0.00500953
4970.53660034,0.00503142
4972.46540771,0.00497031
4974.39421509,0.00496399
4976.32302246,0.00497575
4978.25182983,0.00497853
4980.18063721,0.00495875
4982.10944458,0.00496518
4984.03825195,0.00492256
4985.96705933,0.00487670
4987.89586670,0.00487034
4989.82467407,0.00480341
4991.75348145,0.00480478
4993.68228882,0.00484208
4995.61109619,0.00486127
4997.53990356,0.00493976
4999.46871094,0.00490481
5001.39751831,0.00479980
5003.32632568,0.00481842
5005.25513306,0.00483391
5007.18394043,0.00486542
5009.11274780,0.00490293
5011.04155518,0.00475525
5012.97036255,0.00467656
5014.89916992,0.00471735
5016.82797729,0.00473550
5018.75678467,0.00472787
5020.68559204,0.00465778
5022.61439941,0.00468437
5024.54320679,0.00469814
5026.47201416,0.00469395
5028.40082153,0.00467349
5030.32962891,0.00459530
5032.25843628,0.00461618
5034.18724365,0.00459168
5036.11605103,0.00459768
5038.04485840,0.00460696
5039.97366577,0.00455825
5041.90247314,0.00461331
5043.83128052,0.00464539
5045.76008789,0.00459586
5047.68889526,0.00456653
5049.61770264,0.00455205
5051.54651001,0.00450577
5053.47531738,0.00451783
5055.40412476,0.00450140
5057.33293213,0.00448949
5059.26173950,0.00451797
5061.19054687,0.00443493
5063.11935425,0.00440297
5065.04816162,0.00445342
5066.97696899,0.00445598
5068.90577637,0.00440937
5070.83458374,0.00443094
5072.76339111,0.00440167
5074.69219849,0.00439549
5076.62100586,0.00444288
5078.54981323,0.00432513
5080.47862061,0.00436101
5082.40742798,0.00434535
5084.33623535,0.00429761
5086.26504272,0.00440469
5088.19385010,0.00435296
5090.12265747,0.00432956
5092.05146484,0.00428292
5093.98027222,0.00426533
5095.90907959,0.00427784
5097.83788696,0.00423765
5099.76669434,0.00430903
5101.69550171,0.00425666
5103.62430908,0.00418645
5105.55311645,0.00423746
5107.48192383,0.00419564
5109.41073120,0.00419970
5111.33953857,0.00425181
5113.26834595,0.00415268
5115.19715332,0.00419114
5117.12596069,0.00423232
5119.05476807,0.00416710
5120.98357544,0.00421560
5122.91238281,0.00414947
5124.84119019,0.00417175
5126.76999756,0.00418134
5128.69880493,0.00409673
5130.62761230,0.00409109
5132.55641968,0.00406813
5134.48522705,0.00414615
5136.41403442,0.00410647
5138.34284180,0.00407446
5140.27164917,0.00410387
5142.20045654,0.00405826
5144.12926392,0.00402746
5146.05807129,0.00401460
5147.98687866,0.00410492
5149.91568603,0.00402707
5151.84449341,0.00394996
5153.77330078,0.00401631
5155.70210815,0.00397063
5157.63091553,0.00392877
5159.55972290,0.00394627
5161.48853027,0.00391415
5163.41733765,0.00383912
5165.34614502,0.00390622
5167.27495239,0.00396242
5169.20375977,0.00390156
5171.13256714,0.00389867
5173.06137451,0.00389969
5174.99018188,0.00379504
5176.91898926,0.00381654
5178.84779663,0.00391150
5180.77660400,0.00383579
5182.70541138,0.00385198
5184.63421875,0.00381525
5186.56302612,0.00380966
5188.49183350,0.00384772
5190.42064087,0.00374027
5192.34944824,0.00377296
5194.27825562,0.00375159
5196.20706299,0.00368481
5198.13587036,0.00364483
5200.06467773,0.00374322
5201.99348511,0.00383170
5203.92229248,0.00370293
5205.85109985,0.00366404
5207.77990723,0.00360912
5209.70871460,0.00367876
5211.63752197,0.00369747
5213.56632935,0.00362883
5215.49513672,0.00368959
5217.42394409,0.00365987
5219.35275146,0.00364323
5221.28155884,0.00362842
5223.21036621,0.00366654
5225.13917358,0.00360377
5227.06798096,0.00355731
5228.99678833,0.00363412
5230.92559570,0.00356563
5232.85440308,0.00356940
5234.78321045,0.00363805
5236.71201782,0.00368271
5238.64082520,0.00364029
5240.56963257,0.00361200
5242.49843994,0.00358495
5244.42724731,0.00354749
5246.35605469,0.00356328
5248.28486206,0.00342220
5250.21366943,0.00347126
5252.14247681,0.00359290
5254.07128418,0.00347639
5256.00009155,0.00343998
5257.92889893,0.00354031
5259.85770630,0.00355290
5261.78651367,0.00346668
5263.71532104,0.00340245
5265.64412842,0.00337370
5267.57293579,0.00343954
5269.50174316,0.00346183
5271.43055054,0.00348210
5273.35935791,0.00342634
5275.28816528,0.00339703
5277.21697266,0.00348114
5279.14578003,0.00335048
5281.07458740,0.00341122
5283.00339478,0.00343223
5284.93220215,0.00331228
5286.86100952,0.00342896
5288.78981689,0.00340782
5290.71862427,0.00336537
5292.64743164,0.00337690
5294.57623901,0.00333078
5296.50504639,0.00331702
5298.43385376,0.00334880
5300.36266113,0.00333557
5302.29146851,0.00331497
5304.22027588,0.00335828
5306.14908325,0.00329383
5308.07789062,0.00324214
5310.00669800,0.00329621
5311.93550537,0.00332217
5313.86431274,0.00327734
5315.79312012,0.00327568
5317.72192749,0.00324200
5319.65073486,0.00321860
5321.57954224,0.00327750
5323.50834961,0.00325357
5325.43715698,0.00324222
5327.36596436,0.00312250
5329.29477173,0.00315481
5331.22357910,0.00327928
5333.15238647,0.00316924
5335.08119385,0.00321205
5337.01000122,0.00316761
5338.93880859,0.00304571
5340.86761597,0.00317915
5342.79642334,0.00319671
5344.72523071,0.00298616
5346.65403809,0.00300903
5348.58284546,0.00311966
5350.51165283,0.00312615
5352.44046020,0.00316464
5354.36926758,0.00300952
5356.29807495,0.00305355
5358.22688232,0.00314009
5360.15568970,0.00304244
5362.08449707,0.00307268
5364.01330444,0.00300294
5365.94211182,0.00301482
5367.87091919,0.00308601
5369.79972656,0.00306364
5371.72853394,0.00299519
5373.65734131,0.00301765
5375.58614868,0.00299521
5377.51495605,0.00287977
5379.44376343,0.00301143
5381.37257080,0.00300988
5383.30137817,0.00298757
5385.23018555,0.00294154
5387.15899292,0.00283120
5389.08780029,0.00299113
5391.01660767,0.00302162
5392.94541504,0.00296389
5394.87422241,0.00294405
5396.80302978,0.00287947
5398.73183716,0.00285195
5400.66064453,0.00297060
5402.58945190,0.00299411
5404.51825928,0.00285852
5406.44706665,0.00291832
5408.37587402,0.00291957
5410.30468140,0.00286452
5412.23348877,0.00283459
5414.16229614,0.00280071
5416.09110352,0.00282613
5418.01991089,0.00285642
5419.94871826,0.00292670
5421.87752563,0.00291926
5423.80633301,0.00287047
5425.73514038,0.00280927
5427.66394775,0.00276137
5429.59275513,0.00274376
5431.52156250,0.00286154
5433.45036987,0.00290585
5435.37917725,0.00270530
5437.30798462,0.00274747
5439.23679199,0.00278704
5441.16559936,0.00270093
5443.09440674,0.00272509
5445.02321411,0.00269413
5446.95202148,0.00268946
5448.88082886,0.00275314
5450.80963623,0.00273788
5452.73844360,0.00273965
5454.66725098,0.00279085
5456.59605835,0.00269010
5458.52486572,0.00265052
5460.45367310,0.00265315
5462.38248047,0.00271000
5464.31128784,0.00275928
5466.24009521,0.00264689
5468.16890259,0.00270212
5470.09770996,0.00267779
5472.02651733,0.00265262
5473.95532471,0.00259828
5475.88413208,0.00256497
5477.81293945,0.00269453
5479.74174683,0.00258019
5481.67055420,0.00259140
5483.59936157,0.00262349
5485.52816895,0.00264402
5487.45697632,0.00263940
5489.38578369,0.00261752
5491.31459106,0.00272718
5493.24339844,0.00252489
5495.17220581,0.00254231
5497.10101318,0.00259447
5499.02982056,0.00251183
5500.95862793,0.00256984
5502.88743530,0.00247123
5504.81624268,0.00255734
5506.74505005,0.00263514
5508.67385742,0.00256439
5510.60266479,0.00251516
5512.53147217,0.00255475
5514.46027954,0.00257798
5516.38908691,0.00252071
5518.31789429,0.00256129
5520.24670166,0.00245223
5522.17550903,0.00246037
5524.10431641,0.00251644
5526.03312378,0.00245835
5527.96193115,0.00248833
5529.89073853,0.00246328
5531.81954590,0.00246203
5533.74835327,0.00239643
5535.67716064,0.00243957
5537.60596802,0.00254398
5539.53477539,0.00249824
5541.46358276,0.00248000
5543.39239014,0.00242789
5545.32119751,0.00242653
5547.25000488,0.00238873
5549.17881226,0.00236898
5551.10761963,0.00245667
5553.03642700,0.00240147
5554.96523437,0.00239135
5556.89404175,0.00241887
5558.82284912,0.00234952
5560.75165649,0.00238990
5562.68046387,0.00242880
5564.60927124,0.00235173
5566.53807861,0.00236832
5568.46688599,0.00245262
5570.39569336,0.00235171
5572.32450073,0.00228197
5574.25330811,0.00237811
5576.18211548,0.00233726
5578.11092285,0.00235091
5580.03973022,0.00234343
5581.96853760,0.00225166
5583.89734497,0.00235785
5585.82615234,0.00231901
5587.75495972,0.00223915
5589.68376709,0.00228279
5591.61257446,0.00225318
5593.54138184,0.00225604
5595.47018921,0.00235213
5597.39899658,0.00238065
5599.32780395,0.00228575
5601.25661133,0.00231484
5603.18541870,0.00228267
5605.11422607,0.00227351
5607.04303345,0.00230674
5608.97184082,0.00218767
5610.90064819,0.00222840
5612.82945557,0.00218771
5614.75826294,0.00221798
5616.68707031,0.00225657
5618.61587769,0.00212647
5620.54468506,0.00224237
5622.47349243,0.00217909
5624.40229980,0.00211134
5626.33110718,0.00220590
5628.25991455,0.00213487
5630.18872192,0.00216893
5632.11752930,0.00221141
5634.04633667,0.00221426
5635.97514404,0.00220178
5637.90395142,0.00212976
5639.83275879,0.00216351
5641.76156616,0.00216851
5643.69037353,0.00214831
5645.61918091,0.00216884
5647.54798828,0.00214252
5649.47679565,0.00218041
5651.40560303,0.00214067
5653.33441040,0.00209302
5655.26321777,0.00214003
5657.19202515,0.00204537
5659.12083252,0.00203757
5661.04963989,0.00207400
5662.97844727,0.00208034
5664.90725464,0.00211853
5666.83606201,0.00207493
5668.76486938,0.00210366
5670.69367676,0.00204780
5672.62248413,0.00198217
5674.55129150,0.00204897
5676.48009888,0.00206083
5678.40890625,0.00205858
5680.33771362,0.00207531
5682.26652100,0.00211837
5684.19532837,0.00206207
5686.12413574,0.00197121
5688.05294311,0.00200055
5689.98175049,0.00201276
5691.91055786,0.00197850
5693.83936523,0.00198089
5695.76817261,0.00199215
5697.69697998,0.00197171
5699.62578735,0.00196043
5701.55459473,0.00197705
5703.48340210,0.00200752
5705.41220947,0.00198527
5707.34101685,0.00200029
5709.26982422,0.00202068
5711.19863159,0.00197051
5713.12743896,0.00196829
5715.05624634,0.00192987
5716.98505371,0.00190263
5718.91386108,0.00191309
5720.84266846,0.00193284
5722.77147583,0.00190977
5724.70028320,0.00185199
5726.62909058,0.00189946
5728.55789795,0.00191750
5730.48670532,0.00190124
5732.41551270,0.00188257
5734.34432007,0.00194913
5736.27312744,0.00197189
5738.20193481,0.00186945
5740.13074219,0.00191560
5742.05954956,0.00191591
5743.98835693,0.00186167
5745.91716431,0.00186695
5747.84597168,0.00188018
5749.77477905,0.00185297
5751.70358643,0.00181992
5753.63239380,0.00182362
5755.56120117,0.00178983
5757.49000854,0.00188825
5759.41881592,0.00186214
5761.34762329,0.00176158
5763.27643066,0.00179743
5765.20523804,0.00179621
5767.13404541,0.00185743
5769.06285278,0.00179523
5770.99166016,0.00177666
5772.92046753,0.00180224
5774.84927490,0.00171965
5776.77808228,0.00179230
5778.70688965,0.00177550
5780.63569702,0.00175743
5782.56450439,0.00181757
5784.49331177,0.00171914
5786.42211914,0.00170973
5788.35092651,0.00181225
5790.27973389,0.00178465
5792.20854126,0.00172058
5794.13734863,0.00171445
5796.06615601,0.00173803
5797.99496338,0.00174370
5799.92377075,0.00169118
5801.85257812,0.00168921
5803.78138550,0.00167778
5805.71019287,0.00170279
5807.63900024,0.00170109
5809.56780762,0.00161846
5811.49661499,0.00170152
5813.42542236,0.00171843
5815.35422974,0.00173519
5817.28303711,0.00175131
5819.21184448,0.00166256
5821.14065186,0.00175378
5823.06945923,0.00172478
5824.99826660,0.00164831
5826.92707397,0.00167704
5828.85588135,0.00163226
5830.78468872,0.00163261
5832.71349609,0.00162032
5834.64230347,0.00168369
5836.57111084,0.00171230
5838.49991821,0.00158106
5840.42872559,0.00157234
5842.35753296,0.00161707
5844.28634033,0.00160751
5846.21514770,0.00158501
5848.14395508,0.00158783
5850.07276245,0.00161799
5852.00156982,0.00156600
5853.93037720,0.00155476
5855.85918457,0.00159401
5857.78799194,0.00155658
5859.71679932,0.00156662
5861.64560669,0.00158630
5863.57441406,0.00156362
5865.50322144,0.00157619
5867.43202881,0.00156270
5869.36083618,0.00151792
5871.28964355,0.00151840
5873.21845093,0.00150545
5875.14725830,0.00147570
5877.07606567,0.00155449
5879.00487305,0.00154030
5880.93368042,0.00149094
5882.86248779,0.00157847
5884.79129517,0.00149570
5886.72010254,0.00148226
5888.64890991,0.00154622
5890.57771728,0.00148222
5892.50652466,0.00155823
5894.43533203,0.00147080
5896.36413940,0.00140025
5898.29294678,0.00152568
5900.22175415,0.00143670
5902.15056152,0.00144693
5904.07936890,0.00150734
5906.00817627,0.00146003
5907.93698364,0.00146866
5909.86579102,0.00143485
5911.79459839,0.00147956
5913.72340576,0.00148859
5915.65221313,0.00141154
5917.58102051,0.00141446
5919.50982788,0.00143137
5921.43863525,0.00142344
5923.36744263,0.00134803
5925.29625000,0.00136007
5927.22505737,0.00145520
5929.15386475,0.00143768
5931.08267212,0.00141131
5933.01147949,0.00140904
5934.94028686,0.00138044
5936.86909424,0.00137996
5938.79790161,0.00138443
5940.72670898,0.00137953
5942.65551636,0.00141801
5944.58432373,0.00142968
5946.51313110,0.00141345
5948.44193848,0.00139083
5950.37074585,0.00136186
5952.29955322,0.00136782
5954.22836060,0.00132923
5956.15716797,0.00133820
5958.08597534,0.00139541
5960.01478271,0.00138397
5961.94359009,0.00134248
5963.87239746,0.00132620
5965.80120483,0.00137157
5967.73001221,0.00134482
5969.65881958,0.00131104
5971.58762695,0.00133068
5973.51643433,0.00130518
5975.44524170,0.00130433
5977.37404907,0.00132636
5979.30285645,0.00135576
5981.23166382,0.00134963
5983.16047119,0.00131441
5985.08927856,0.00129659
5987.01808594,0.00129679
5988.94689331,0.00133862
5990.87570068,0.00136917
5992.80450806,0.00134701
5994.73331543,0.00129636
5996.66212280,0.00129554
5998.59093018,0.00129984
6000.51973755,0.00128431
