399.26312622,0.00014065
401.19193359,0.00028658
403.12074097,0.00022018
405.04954834,0.00064451
406.97835571,0.00042784
408.90716309,-0.00004044
410.83597046,0.00063090
412.76477783,0.00035504
414.69358521,0.00032926
416.62239258,0.00038176
418.55119995,0.00000435
420.48000732,0.00015868
422.40881470,0.00041579
424.33762207,0.00054142
426.26642944,0.00057871
428.19523682,0.00075234
430.12404419,0.00024729
432.05285156,0.00016887
433.98165894,0.00048789
435.91046631,0.00044037
437.83927368,0.00061502
439.76808105,0.00023853
441.69688843,0.00054655
443.62569580,0.00088789
445.55450317,0.00012592
447.48331055,-0.00006170
449.41211792,0.00029020
451.34092529,0.00025614
453.26973267,0.00010981
455.19854004,0.00035987
457.12734741,0.00027195
459.05615479,0.00032138
460.98496216,0.00058121
462.91376953,0.00037497
464.84257690,0.00020708
466.77138428,0.00010123
468.70019165,0.00057659
470.62899902,0.00069658
472.55780640,0.00010384
474.48661377,0.00015983
476.41542114,0.00039813
478.34422852,0.00040412
480.27303589,0.00029182
482.20184326,0.00033609
484.13065063,0.00053418
486.05945801,0.00053521
487.98826538,0.00043650
489.91707275,0.00023333
491.84588013,0.00022002
493.77468750,0.00041738
495.70349487,0.00051770
497.63230225,0.00074934
499.56110962,0.00058744
501.48991699,0.00027704
503.41872437,0.00043134
505.34753174,0.00012697
507.27633911,0.00039373
509.20514648,0.00047176
511.13395386,-0.00022477
513.06276123,0.00057421
514.99156860,0.00047090
516.92037598,-0.00015969
518.84918335,0.00036701
520.77799072,0.00037027
522.70679810,0.00050837
524.63560547,-0.00006876
526.56441284,0.00000442
528.49322021,0.00066973
530.42202759,0.00008851
532.35083496,0.00068051
534.27964233,0.00051250
536.20844971,-0.00028416
538.13725708,0.00026569
540.06606445,0.00033453
541.99487183,0.00027944
543.92367920,0.00036305
545.85248657,0.00037179
547.78129395,0.00019576
549.71010132,0.00037080
551.63890869,0.00074034
553.56771606,0.00054746
555.49652344,0.00053457
557.42533081,0.00012910
559.35413818,0.00000557
561.28294556,0.00036779
563.21175293,0.00010966
565.14056030,0.00020820
567.06936768,0.00041150
568.99817505,-0.00001540
570.92698242,0.00008266
572.85578979,0.00035796
574.78459717,-0.00005307
576.71340454,0.00037746
578.64221191,0.00043919
580.57101929,-0.00020875
582.49982666,0.00050464
584.42863403,0.00045931
586.35744141,-0.00017288
588.28624878,0.00029011
590.21505615,0.00065531
592.14386353,0.00035355
594.07267090,0.00016716
596.00147827,0.00048574
597.93028564,0.00014771
599.85909302,0.00006989
601.78790039,0.00020435
603.71670776,-0.00016471
605.64551514,0.00032727
607.57432251,0.00043045
609.50312988,0.00033221
611.43193726,0.00057354
613.36074463,0.00041376
615.28955200,0.00037564
617.21835938,0.00004575
619.14716675,0.00005875
621.07597412,0.00039575
623.00478149,0.00027189
624.93358887,0.00009017
626.86239624,0.00009199
628.79120361,0.00032954
630.72001099,0.00021017
632.64881836,0.00028219
634.57762573,0.00042717
636.50643311,0.00019469
638.43524048,0.00031919
640.36404785,0.00052262
642.29285522,0.00057820
644.22166260,0.00033963
646.15046997,0.00030737
648.07927734,0.00081116
650.00808472,0.00076002
651.93689209,0.00041636
653.86569946,0.00063490
655.79450684,0.00069236
657.72331421,0.00055833
659.65212158,0.00066034
661.58092896,0.00061283
663.50973633,0.00072430
665.43854370,0.00079716
667.36735107,0.00059236
669.29615845,0.00068986
671.22496582,0.00065840
673.15377319,0.00051549
675.08258057,0.00077292
677.01138794,0.00084346
678.94019531,0.00074178
680.86900269,0.00090942
682.79781006,0.00097176
684.72661743,0.00092570
686.65542480,0.00093528
688.58423218,0.00082760
690.51303955,0.00086404
692.44184692,0.00114466
694.37065430,0.00122810
696.29946167,0.00120058
698.22826904,0.00144429
700.15707642,0.00165367
702.08588379,0.00176360
704.01469116,0.00177849
705.94349854,0.00142222
707.87230591,0.00114128
709.80111328,0.00100191
711.72992065,0.00075161
713.65872803,0.00055216
715.58753540,0.00033501
717.51634277,0.00020572
719.44515015,0.00029055
721.37395752,0.00025326
723.30276489,0.00008988
725.23157227,0.00020615
727.16037964,0.00029880
729.08918701,0.00033256
731.01799438,0.00039382
732.94680176,0.00016589
734.87560913,0.00004337
736.80441650,0.00039869
738.73322388,0.00055671
740.66203125,0.00017626
742.59083862,0.00050689
744.51964600,0.00027632
746.44845337,0.00019488
748.37726074,0.00029066
750.30606812,0.00022575
752.23487549,0.00030993
754.16368286,0.00023304
756.09249023,0.00062534
758.02129761,0.00007308
759.95010498,-0.00004157
761.87891235,0.00032656
763.80771973,0.00001801
765.73652710,0.00036314
767.66533447,0.00037199
769.59414185,0.00019892
771.52294922,0.00018916
773.45175659,0.00014931
775.38056396,0.00045573
777.30937134,0.00064423
779.23817871,0.00044724
781.16698608,0.00020511
783.09579346,0.00018692
785.02460083,0.00023244
786.95340820,0.00042075
788.88221558,0.00028676
790.81102295,0.00019714
792.73983032,0.00008676
794.66863770,0.00012439
796.59744507,0.00039985
798.52625244,0.00032556
800.45505981,0.00034458
802.38386719,0.00033757
804.31267456,0.00040083
806.24148193,0.00065185
808.17028931,0.00018036
810.09909668,0.00006877
812.02790405,0.00038303
813.95671143,0.00017864
815.88551880,0.00034156
817.81432617,-0.00011559
819.74313354,-0.00023335
821.67194092,0.00035421
823.60074829,0.00011620
825.52955566,0.00038912
827.45836304,0.00052766
829.38717041,0.00021132
831.31597778,0.00044359
833.24478516,0.00040891
835.17359253,0.00061098
837.10239990,0.00079238
839.03120728,0.00061409
840.96001465,0.00047036
842.88882202,0.00043230
844.81762939,0.00055121
846.74643677,0.00035487
848.67524414,0.00032424
850.60405151,0.00030239
852.53285889,0.00015180
854.46166626,0.00022495
856.39047363,0.00039006
858.31928101,0.00037005
860.24808838,-0.00000279
862.17689575,0.00010496
864.10570313,0.00017232
866.03451050,0.00002474
867.96331787,0.00038986
869.89212524,0.00046113
871.82093262,0.00023358
873.74973999,0.00030284
875.67854736,0.00048898
877.60735474,0.00037432
879.53616211,0.00009976
881.46496948,0.00020318
883.39377686,0.00034724
885.32258423,0.00034360
887.25139160,0.00048435
889.18019897,0.00038118
891.10900635,0.00027477
893.03781372,0.00049244
894.96662109,0.00029481
896.89542847,0.00013253
898.82423584,0.00051096
900.75304321,0.00052318
902.68185059,0.00022352
904.61065796,0.00025385
906.53946533,0.00047685
908.46827271,0.00038269
910.39708008,0.00020205
912.32588745,0.00043326
914.25469482,0.00046814
916.18350220,0.00047814
918.11230957,0.00065527
920.04111694,0.00030472
921.96992432,0.00053386
923.89873169,0.00071311
925.82753906,0.00029573
927.75634644,0.00067583
929.68515381,0.00048622
931.61396118,0.00056843
933.54276855,0.00091636
935.47157593,0.00051553
937.40038330,0.00097517
939.32919067,0.00074881
941.25799805,0.00054438
943.18680542,0.00091696
945.11561279,0.00086174
947.04442017,0.00102845
948.97322754,0.00063301
950.90203491,0.00075891
952.83084229,0.00081939
954.75964966,0.00067674
956.68845703,0.00090628
958.61726440,0.00060664
960.54607178,0.00089674
962.47487915,0.00069805
964.40368652,0.00062024
966.33249390,0.00114716
968.26130127,0.00093705
970.19010864,0.00097841
972.11891602,0.00099017
974.04772339,0.00099053
975.97653076,0.00105276
977.90533813,0.00126449
979.83414551,0.00146498
981.76295288,0.00130261
983.69176025,0.00161656
985.62056763,0.00175478
987.54937500,0.00182230
989.47818237,0.00215645
991.40698975,0.00227722
993.33579712,0.00254733
995.26460449,0.00277698
997.19341187,0.00281415
999.12221924,0.00305499
1001.05102661,0.00329369
1002.97983398,0.00346066
1004.90864136,0.00378255
1006.83744873,0.00386797
1008.76625610,0.00409526
1010.69506348,0.00454686
1012.62387085,0.00480011
1014.55267822,0.00496234
1016.48148560,0.00504269
1018.41029297,0.00534696
1020.33910034,0.00557594
1022.26790771,0.00601465
1024.19671509,0.00641590
1026.12552246,0.00626754
1028.05432983,0.00644538
1029.98313721,0.00652249
1031.91194458,0.00672994
1033.84075195,0.00717630
1035.76955933,0.00725266
1037.69836670,0.00729167
1039.62717407,0.00715806
1041.55598145,0.00721206
1043.48478882,0.00722698
1045.41359619,0.00719735
1047.34240356,0.00731291
1049.27121094,0.00693741
1051.20001831,0.00678538
1053.12882568,0.00675747
1055.05763306,0.00651825
1056.98644043,0.00646260
1058.91524780,0.00638508
1060.84405518,0.00634315
1062.77286255,0.00613534
1064.70166992,0.00589322
1066.63047729,0.00569560
1068.55928467,0.00551262
1070.48809204,0.00528751
1072.41689941,0.00481240
1074.34570679,0.00478379
1076.27451416,0.00460167
1078.20332153,0.00419271
1080.13212891,0.00424586
1082.06093628,0.00399818
1083.98974365,0.00383968
1085.91855103,0.00376138
1087.84735840,0.00354908
1089.77616577,0.00346302
1091.70497314,0.00308015
1093.63378052,0.00302579
1095.56258789,0.00308339
1097.49139526,0.00286759
1099.42020264,0.00285578
1101.34901001,0.00273561
1103.27781738,0.00276492
1105.20662476,0.00270592
1107.13543213,0.00253022
1109.06423950,0.00271809
1110.99304687,0.00259886
1112.92185425,0.00250320
1114.85066162,0.00250408
1116.77946899,0.00250731
1118.70827637,0.00258055
1120.63708374,0.00232985
1122.56589111,0.00264177
1124.49469849,0.00276565
1126.42350586,0.00244201
1128.35231323,0.00267707
1130.28112061,0.00275341
1132.20992798,0.00292067
1134.13873535,0.00317201
1136.06754272,0.00308756
1137.99635010,0.00299099
1139.92515747,0.00312812
1141.85396484,0.00351291
1143.78277222,0.00380676
1145.71157959,0.00403018
1147.64038696,0.00430798
1149.56919434,0.00462329
1151.49800171,0.00460235
1153.42680908,0.00482192
1155.35561646,0.00513757
1157.28442383,0.00518924
1159.21323120,0.00565722
1161.14203857,0.00575764
1163.07084595,0.00606239
1164.99965332,0.00636273
1166.92846069,0.00649353
1168.85726807,0.00695811
1170.78607544,0.00666400
1172.71488281,0.00700747
1174.64369019,0.00759415
1176.57249756,0.00782741
1178.50130493,0.00821416
1180.43011230,0.00822699
1182.35891968,0.00877092
1184.28772705,0.00909607
1186.21653442,0.00938558
1188.14534180,0.00992305
1190.07414917,0.01038706
1192.00295654,0.01108532
1193.93176392,0.01130435
1195.86057129,0.01191026
1197.78937866,0.01248725
1199.71818604,0.01282609
1201.64699341,0.01357343
1203.57580078,0.01399076
1205.50460815,0.01456188
1207.43341553,0.01520475
1209.36222290,0.01576062
1211.29103027,0.01637365
1213.21983765,0.01668127
1215.14864502,0.01699250
1217.07745239,0.01743439
1219.00625977,0.01788729
1220.93506714,0.01819750
1222.86387451,0.01821220
1224.79268188,0.01840612
1226.72148926,0.01866291
1228.65029663,0.01856405
1230.57910400,0.01875725
1232.50791138,0.01885864
1234.43671875,0.01885201
1236.36552612,0.01905196
1238.29433350,0.01871904
1240.22314087,0.01868546
1242.15194824,0.01885556
1244.08075562,0.01863128
1246.00956299,0.01866053
1247.93837036,0.01858549
1249.86717773,0.01833906
1251.79598511,0.01828377
1253.72479248,0.01814033
1255.65359985,0.01791710
1257.58240723,0.01782847
1259.51121460,0.01747712
1261.44002197,0.01718659
1263.36882935,0.01712170
1265.29763672,0.01666182
1267.22644409,0.01644736
1269.15525146,0.01638572
1271.08405884,0.01605530
1273.01286621,0.01592707
1274.94167358,0.01569975
1276.87048096,0.01538766
1278.79928833,0.01509857
1280.72809570,0.01464155
1282.65690308,0.01446264
1284.58571045,0.01437395
1286.51451782,0.01396348
1288.44332520,0.01364205
1290.37213257,0.01349785
1292.30093994,0.01343570
1294.22974731,0.01344678
1296.15855469,0.01349850
1298.08736206,0.01348393
1300.01616943,0.01336827
1301.94497681,0.01346880
1303.87378418,0.01361859
1305.80259155,0.01364145
1307.73139893,0.01376956
1309.66020630,0.01417246
1311.58901367,0.01441058
1313.51782104,0.01459282
1315.44662842,0.01520897
1317.37543579,0.01535512
1319.30424316,0.01552313
1321.23305054,0.01629092
1323.16185791,0.01685357
1325.09066528,0.01736297
1327.01947266,0.01785018
1328.94828003,0.01823082
1330.87708740,0.01862352
1332.80589478,0.01926133
1334.73470215,0.01970243
1336.66350952,0.01961614
1338.59231689,0.01946174
1340.52112427,0.01983139
1342.44993164,0.02074204
1344.37873901,0.02072811
1346.30754639,0.02071269
1348.23635376,0.02095782
1350.16516113,0.02072701
1352.09396851,0.02090913
1354.02277588,0.02040853
1355.95158325,0.02013705
1357.88039062,0.02028913
1359.80919800,0.01980508
1361.73800537,0.01904077
1363.66681274,0.01863279
1365.59562012,0.01963818
1367.52442749,0.01942257
1369.45323486,0.01905024
1371.38204224,0.01946181
1373.31084961,0.01839955
1375.23965698,0.01839340
1377.16846436,0.01895643
1379.09727173,0.01899961
1381.02607910,0.01890652
1382.95488647,0.01893182
1384.88369385,0.01911377
1386.81250122,0.01821466
1388.74130859,0.01845760
1390.67011597,0.01991928
1392.59892334,0.01945205
1394.52773071,0.01811802
1396.45653809,0.01914036
1398.38534546,0.01917740
1400.31415283,0.01879993
1402.24296021,0.02050702
1404.17176758,0.01931057
1406.10057495,0.01947057
1408.02938232,0.02040953
1409.95818970,0.01959181
1411.88699707,0.02014577
1413.81580444,0.01923200
1415.74461182,0.01970524
1417.67341919,0.01790687
1419.60222656,0.01577096
1421.53103394,0.01840590
1423.45984131,0.01777327
1425.38864868,0.01722942
1427.31745605,0.01767352
1429.24626343,0.01616082
1431.17507080,0.01576576
1433.10387817,0.01615979
1435.03268555,0.01460109
1436.96149292,0.01230715
1438.89030029,0.01409679
1440.81910767,0.01445001
1442.74791504,0.01342175
1444.67672241,0.01429723
1446.60552979,0.01312808
1448.53433716,0.01318771
1450.46314453,0.01368594
1452.39195190,0.01396864
1454.32075928,0.01458072
1456.24956665,0.01191518
1458.17837402,0.01228934
1460.10718140,0.01675293
1462.03598877,0.01778986
1463.96479614,0.01756979
1465.89360352,0.01827445
1467.82241089,0.02068841
1469.75121826,0.02245452
1471.68002563,0.01987056
1473.60883301,0.02092174
1475.53764038,0.02395317
1477.46644775,0.02539251
1479.39525513,0.02798480
1481.32406250,0.02863925
1483.25286987,0.03053941
1485.18167725,0.03139896
1487.11048462,0.03066605
1489.03929199,0.03051077
1490.96809937,0.03065262
1492.89690674,0.03575315
1494.82571411,0.03503295
1496.75452148,0.03132545
1498.68332886,0.03537401
1500.61213623,0.03663275
1502.54094360,0.03937880
1504.46975098,0.03730709
1506.39855835,0.02687961
1508.32736572,0.03268349
1510.25617310,0.03872431
1512.18498047,0.03742980
1514.11378784,0.04077307
1516.04259521,0.03669194
1517.97140259,0.03821784
1519.90020996,0.03727238
1521.82901733,0.03182623
1523.75782471,0.03906621
1525.68663208,0.03865261
1527.61543945,0.03830912
1529.54424683,0.04275464
1531.47305420,0.04115865
1533.40186157,0.03732979
1535.33066895,0.03959863
1537.25947632,0.04287111
1539.18828369,0.03044618
1541.11709106,0.03137852
1543.04589844,0.03806834
1544.97470581,0.03646459
1546.90351318,0.04352012
1548.83232056,0.04073246
1550.76112793,0.04172361
1552.68993530,0.04162274
1554.61874268,0.03758877
1556.54755005,0.04038029
1558.47635742,0.02829449
1560.40516479,0.03029373
1562.33397217,0.04383851
1564.26277954,0.04133220
1566.19158691,0.04243889
1568.12039429,0.04227299
1570.04920166,0.03722385
1571.97800903,0.04301444
1573.90681641,0.04385697
1575.83562378,0.03441986
1577.76443115,0.03867201
1579.69323853,0.04406004
1581.62204590,0.04206399
1583.55085327,0.04316632
1585.47966064,0.04245790
1587.40846802,0.04266604
1589.33727539,0.04228938
1591.26608276,0.04223615
1593.19489014,0.04259748
1595.12369751,0.04174750
1597.05250488,0.04213365
1598.98131226,0.04193487
1600.91011963,0.04202431
1602.83892700,0.04134978
1604.76773437,0.04184730
1606.69654175,0.04110089
1608.62534912,0.04095928
1610.55415649,0.04087038
1612.48296387,0.04089845
1614.41177124,0.04151928
1616.34057861,0.03384552
1618.26938599,0.03617650
1620.19819336,0.04267696
1622.12700073,0.03766465
1624.05580811,0.03742218
1625.98461548,0.03956217
1627.91342285,0.03928437
1629.84223022,0.03918351
1631.77103760,0.04174717
1633.69984497,0.03840250
1635.62865234,0.03145047
1637.55745972,0.03662615
1639.48626709,0.04080465
1641.41507446,0.03986014
1643.34388184,0.04120477
1645.27268921,0.03720117
1647.20149658,0.03226138
1649.13030396,0.04047953
1651.05911133,0.03896443
1652.98791870,0.02477459
1654.91672607,0.03358413
1656.84553345,0.04299122
1658.77434082,0.04121616
1660.70314819,0.04271377
1662.63195557,0.03880437
1664.56076294,0.04080375
1666.48957031,0.04461858
1668.41837769,0.03885415
1670.34718506,0.03768507
1672.27599243,0.04319547
1674.20479980,0.03990518
1676.13360718,0.03823934
1678.06241455,0.04443894
1679.99122192,0.04309824
1681.92002930,0.04275986
1683.84883667,0.03484506
1685.77764404,0.03410414
1687.70645142,0.04765208
1689.63525879,0.04157580
1691.56406616,0.04545836
1693.49287354,0.04707327
1695.42168091,0.03396133
1697.35048828,0.04216049
1699.27929565,0.03744222
1701.20810303,0.03321413
1703.13691040,0.04594333
1705.06571777,0.04211822
1706.99452515,0.04242703
1708.92333252,0.04650429
1710.85213989,0.04468327
1712.78094727,0.04575253
1714.70975464,0.04251013
1716.63856201,0.03808757
1718.56736938,0.03733279
1720.49617676,0.04440693
1722.42498413,0.04668640
1724.35379150,0.04321155
1726.28259888,0.04691210
1728.21140625,0.04350360
1730.14021362,0.04367153
1732.06902100,0.04285727
1733.99782837,0.03239117
1735.92663574,0.04033715
1737.85544312,0.04533589
1739.78425049,0.04002354
1741.71305786,0.04362833
1743.64186523,0.04442280
1745.57067261,0.04439382
1747.49947998,0.04483578
1749.42828735,0.04288809
1751.35709473,0.04107213
1753.28590210,0.04536559
1755.21470947,0.04779610
1757.14351685,0.04362467
1759.07232422,0.04790210
1761.00113159,0.04514761
1762.92993896,0.04340261
1764.85874634,0.05007158
1766.78755371,0.04503826
1768.71636108,0.04528320
1770.64516846,0.04513533
1772.57397583,0.04036979
1774.50278320,0.04517122
1776.43159058,0.04801850
1778.36039795,0.04730751
1780.28920532,0.04653497
1782.21801270,0.04717150
1784.14682007,0.04719285
1786.07562744,0.04616229
1788.00443481,0.04870428
1789.93324219,0.04749532
1791.86204956,0.04289231
1793.79085693,0.04466196
1795.71966431,0.04814693
1797.64847168,0.04757356
1799.57727905,0.04680183
1801.50608643,0.04595891
1803.43489380,0.04759753
1805.36370117,0.04889956
1807.29250854,0.04803716
1809.22131592,0.04828973
1811.15012329,0.04695478
1813.07893066,0.04848224
1815.00773804,0.04890187
1816.93654541,0.04812775
1818.86535278,0.04859876
1820.79416016,0.04828651
1822.72296753,0.04922462
1824.65177490,0.04599644
1826.58058228,0.04749602
1828.50938965,0.04786513
1830.43819702,0.04463728
1832.36700439,0.04878139
1834.29581177,0.04857942
1836.22461914,0.04849045
1838.15342651,0.04841085
1840.08223389,0.04861959
1842.01104126,0.04894476
1843.93984863,0.04314549
1845.86865601,0.04594070
1847.79746338,0.04863431
1849.72627075,0.04753808
1851.65507812,0.04925503
1853.58388550,0.04818603
1855.51269287,0.04872526
1857.44150024,0.04839069
1859.37030762,0.04810164
1861.29911499,0.04872090
1863.22792236,0.04805277
1865.15672974,0.04857508
1867.08553711,0.04702199
1869.01434448,0.04498329
1870.94315186,0.04670087
1872.87195923,0.04876995
1874.80076660,0.04807250
1876.72957397,0.04813046
1878.65838135,0.04809628
1880.58718872,0.04788619
1882.51599609,0.04847141
1884.44480347,0.04762211
1886.37361084,0.04818196
1888.30241821,0.04731196
1890.23122559,0.04639439
1892.16003296,0.04814360
1894.08884033,0.04734021
1896.01764771,0.04706836
1897.94645508,0.04779883
1899.87526245,0.04755122
1901.80406982,0.04770111
1903.73287720,0.04751335
1905.66168457,0.04767646
1907.59049194,0.04724019
1909.51929932,0.04700668
1911.44810669,0.04731012
1913.37691406,0.04746088
1915.30572144,0.04789880
1917.23452881,0.04571133
1919.16333618,0.04570525
1921.09214355,0.04767124
1923.02095093,0.04626343
1924.94975830,0.04716533
1926.87856567,0.04780146
1928.80737305,0.04711046
1930.73618042,0.04772109
1932.66498779,0.04711019
1934.59379517,0.04753699
1936.52260254,0.04728985
1938.45140991,0.04726720
1940.38021729,0.04729912
1942.30902466,0.04584590
1944.23783203,0.04673012
1946.16663940,0.04716095
1948.09544678,0.04697286
1950.02425415,0.04732025
1951.95306152,0.04713281
1953.88186890,0.04721186
1955.81067627,0.04700807
1957.73948364,0.04717808
1959.66829102,0.04724922
1961.59709839,0.04707192
1963.52590576,0.04725609
1965.45471313,0.04696831
1967.38352051,0.04650258
1969.31232788,0.04697973
1971.24113525,0.04727180
1973.16994263,0.04701904
1975.09875000,0.04725405
1977.02755737,0.04701409
1978.95636475,0.04701724
1980.88517212,0.04701439
1982.81397949,0.04695263
1984.74278687,0.04715063
1986.67159424,0.04664465
1988.60040161,0.04681982
1990.52920898,0.04636591
1992.45801636,0.04576617
1994.38682373,0.04667468
1996.31563110,0.04669983
1998.24443848,0.04640592
2000.17324585,0.04660839
2002.10205322,0.04646266
2004.03086060,0.04648054
2005.95966797,0.04635717
2007.88847534,0.04615121
2009.81728271,0.04628827
2011.74609009,0.04612161
2013.67489746,0.04616064
2015.60370483,0.04594094
2017.53251221,0.04553710
2019.46131958,0.04585890
2021.39012695,0.04578155
2023.31893433,0.04572203
2025.24774170,0.04563104
2027.17654907,0.04553026
2029.10535645,0.04564175
2031.03416382,0.04545050
2032.96297119,0.04549352
2034.89177856,0.04529101
2036.82058594,0.04528205
2038.74939331,0.04524148
2040.67820068,0.04497601
2042.60700806,0.04512346
2044.53581543,0.04509487
2046.46462280,0.04506448
2048.39343018,0.04500276
2050.32223755,0.04494994
2052.25104492,0.04478298
2054.17985229,0.04470704
2056.10865967,0.04471849
2058.03746704,0.04450630
2059.96627441,0.04446803
2061.89508179,0.04442815
2063.82388916,0.04434217
2065.75269653,0.04407337
2067.68150391,0.04425892
2069.61031128,0.04438813
2071.53911865,0.04416469
2073.46792603,0.04429457
2075.39673340,0.04403736
2077.32554077,0.04404046
2079.25434814,0.04402483
2081.18315552,0.04375904
2083.11196289,0.04388691
2085.04077026,0.04389418
2086.96957764,0.04378810
2088.89838501,0.04360108
2090.82719238,0.04353876
2092.75599976,0.04359598
2094.68480713,0.04362169
2096.61361450,0.04344766
2098.54242187,0.04342901
2100.47122925,0.04351267
2102.40003662,0.04334689
2104.32884399,0.04342468
2106.25765137,0.04335031
2108.18645874,0.04325822
2110.11526611,0.04323085
2112.04407349,0.04319626
2113.97288086,0.04309212
2115.90168823,0.04296091
2117.83049561,0.04319756
2119.75930298,0.04303287
2121.68811035,0.04291348
2123.61691772,0.04297173
2125.54572510,0.04290156
2127.47453247,0.04292978
2129.40333984,0.04280385
2131.33214722,0.04289073
2133.26095459,0.04286468
2135.18976196,0.04268976
2137.11856934,0.04269535
2139.04737671,0.04275351
2140.97618408,0.04271852
2142.90499146,0.04261861
2144.83379883,0.04268125
2146.76260620,0.04265250
2148.69141357,0.04250858
2150.62022095,0.04244282
2152.54902832,0.04270136
2154.47783569,0.04268241
2156.40664307,0.04231631
2158.33545044,0.04244586
2160.26425781,0.04245494
2162.19306519,0.04230067
2164.12187256,0.04238099
2166.05067993,0.04222941
2167.97948730,0.04216741
2169.90829468,0.04242908
2171.83710205,0.04235326
2173.76590942,0.04221042
2175.69471680,0.04227682
2177.62352417,0.04228896
2179.55233154,0.04225568
2181.48113892,0.04213393
2183.40994629,0.04216085
2185.33875366,0.04200310
2187.26756104,0.04198525
2189.19636841,0.04216143
2191.12517578,0.04202645
2193.05398315,0.04213975
2194.98279053,0.04212162
2196.91159790,0.04211392
2198.84040527,0.04213837
2200.76921265,0.04190113
2202.69802002,0.04187703
2204.62682739,0.04181343
2206.55563477,0.04187826
2208.48444214,0.04202035
2210.41324951,0.04183470
2212.34205688,0.04161620
2214.27086426,0.04170338
2216.19967163,0.04178544
2218.12847900,0.04177084
2220.05728638,0.04167936
2221.98609375,0.04147898
2223.91490112,0.04165674
2225.84370850,0.04171071
2227.77251587,0.04158579
2229.70132324,0.04163852
2231.63013062,0.04161520
2233.55893799,0.04150943
2235.48774536,0.04149202
2237.41655273,0.04155595
2239.34536011,0.04138803
2241.27416748,0.04136841
2243.20297485,0.04128032
2245.13178223,0.04124453
2247.06058960,0.04134399
2248.98939697,0.04116601
2250.91820435,0.04122692
2252.84701172,0.04106047
2254.77581909,0.04095864
2256.70462646,0.04102673
2258.63343384,0.04093973
2260.56224121,0.04099181
2262.49104858,0.04088125
2264.41985596,0.04095323
2266.34866333,0.04094828
2268.27747070,0.04084300
2270.20627808,0.04092866
2272.13508545,0.04096219
2274.06389282,0.04088939
2275.99270020,0.04078011
2277.92150757,0.04082171
2279.85031494,0.04074739
2281.77912231,0.04071302
2283.70792969,0.04070023
2285.63673706,0.04068201
2287.56554443,0.04061276
2289.49435181,0.04049470
2291.42315918,0.04053369
2293.35196655,0.04038133
2295.28077393,0.04033984
2297.20958130,0.04025991
2299.13838867,0.04010249
2301.06719604,0.04001106
2302.99600342,0.03983299
2304.92481079,0.03970035
2306.85361816,0.03940124
2308.78242554,0.03909194
2310.71123291,0.03876225
2312.64004028,0.03847074
2314.56884766,0.03809976
2316.49765503,0.03774517
2318.42646240,0.03737792
2320.35526978,0.03675149
2322.28407715,0.03631719
2324.21288452,0.03577496
2326.14169189,0.03544932
2328.07049927,0.03514613
2329.99930664,0.03460654
2331.92811401,0.03440790
2333.85692139,0.03422312
2335.78572876,0.03417284
2337.71453613,0.03413834
2339.64334351,0.03404199
2341.57215088,0.03418904
2343.50095825,0.03465785
2345.42976562,0.03531556
2347.35857300,0.03685568
2349.28738037,0.03821611
2351.21618774,0.03687426
2353.14499512,0.03499252
2355.07380249,0.03381469
2357.00260986,0.03262310
2358.93141724,0.03208556
2360.86022461,0.03178135
2362.78903198,0.03180280
2364.71783936,0.03195794
2366.64664673,0.03228652
2368.57545410,0.03313676
2370.50426147,0.03399477
2372.43306885,0.03480769
2374.36187622,0.03580652
2376.29068359,0.03682785
2378.21949097,0.03759613
2380.14829834,0.03829053
2382.07710571,0.03876109
2384.00591309,0.03908513
2385.93472046,0.03916039
2387.86352783,0.03915512
2389.79233521,0.03929977
2391.72114258,0.03925169
2393.64994995,0.03934871
2395.57875732,0.03925579
2397.50756470,0.03914562
2399.43637207,0.03912590
2401.36517944,0.03900471
2403.29398682,0.03908343
2405.22279419,0.03909333
2407.15160156,0.03905328
2409.08040894,0.03887349
2411.00921631,0.03898829
2412.93802368,0.03906700
2414.86683105,0.03893283
2416.79563843,0.03901672
2418.72444580,0.03885621
2420.65325317,0.03878384
2422.58206055,0.03869464
2424.51086792,0.03874600
2426.43967529,0.03881937
2428.36848267,0.03867897
2430.29729004,0.03873513
2432.22609741,0.03873864
2434.15490479,0.03875373
2436.08371216,0.03863705
2438.01251953,0.03867778
2439.94132690,0.03858345
2441.87013428,0.03846192
2443.79894165,0.03862730
2445.72774902,0.03843313
2447.65655640,0.03852211
2449.58536377,0.03844683
2451.51417114,0.03826358
2453.44297852,0.03835525
2455.37178589,0.03823845
2457.30059326,0.03830478
2459.22940063,0.03822078
2461.15820801,0.03818510
2463.08701538,0.03823391
2465.01582275,0.03815048
2466.94463013,0.03820769
2468.87343750,0.03820165
2470.80224487,0.03813777
2472.73105225,0.03801419
2474.65985962,0.03793551
2476.58866699,0.03791682
2478.51747437,0.03796010
2480.44628174,0.03795446
2482.37508911,0.03791132
2484.30389648,0.03795476
2486.23270386,0.03784750
2488.16151123,0.03778441
2490.09031860,0.03783197
2492.01912598,0.03780206
2493.94793335,0.03772746
2495.87674072,0.03773968
2497.80554810,0.03770138
2499.73435547,0.03759752
2501.66316284,0.03762613
2503.59197021,0.03763860
2505.52077759,0.03755816
2507.44958496,0.03745474
2509.37839233,0.03755362
2511.30719971,0.03758723
2513.23600708,0.03745502
2515.16481445,0.03740755
2517.09362183,0.03736496
2519.02242920,0.03742410
2520.95123657,0.03737102
2522.88004395,0.03729370
2524.80885132,0.03724433
2526.73765869,0.03719754
2528.66646606,0.03724989
2530.59527344,0.03712922
2532.52408081,0.03712165
2534.45288818,0.03717255
2536.38169556,0.03711170
2538.31050293,0.03710852
2540.23931030,0.03707674
2542.16811768,0.03701536
2544.09692505,0.03700995
2546.02573242,0.03706218
2547.95453979,0.03693934
2549.88334717,0.03686134
2551.81215454,0.03691784
2553.74096191,0.03684925
2555.66976929,0.03683792
2557.59857666,0.03686624
2559.52738403,0.03682639
2561.45619141,0.03681984
2563.38499878,0.03679536
2565.31380615,0.03668360
2567.24261353,0.03663741
2569.17142090,0.03663994
2571.10022827,0.03661228
2573.02903564,0.03660681
2574.95784302,0.03653252
2576.88665039,0.03641160
2578.81545776,0.03644867
2580.74426514,0.03653520
2582.67307251,0.03645909
2584.60187988,0.03645601
2586.53068726,0.03645004
2588.45949463,0.03635567
2590.38830200,0.03632554
2592.31710937,0.03630134
2594.24591675,0.03630898
2596.17472412,0.03615786
2598.10353149,0.03605150
2600.03233887,0.03613519
2601.96114624,0.03615851
2603.88995361,0.03609881
2605.81876099,0.03595980
2607.74756836,0.03595615
2609.67637573,0.03598788
2611.60518311,0.03594629
2613.53399048,0.03591944
2615.46279785,0.03588749
2617.39160522,0.03583097
2619.32041260,0.03579279
2621.24921997,0.03583728
2623.17802734,0.03572942
2625.10683472,0.03562338
2627.03564209,0.03568891
2628.96444946,0.03571935
2630.89325684,0.03563092
2632.82206421,0.03558502
2634.75087158,0.03555170
2636.67967895,0.03545650
2638.60848633,0.03556092
2640.53729370,0.03547435
2642.46610107,0.03540264
2644.39490845,0.03550900
2646.32371582,0.03534927
2648.25252319,0.03537836
2650.18133057,0.03535093
2652.11013794,0.03522416
2654.03894531,0.03527833
2655.96775269,0.03517073
2657.89656006,0.03513198
2659.82536743,0.03520253
2661.75417480,0.03515026
2663.68298218,0.03509434
2665.61178955,0.03504266
2667.54059692,0.03494584
2669.46940430,0.03500413
2671.39821167,0.03502800
2673.32701904,0.03490018
2675.25582642,0.03481961
2677.18463379,0.03471744
2679.11344116,0.03465142
2681.04224854,0.03464359
2682.97105591,0.03469889
2684.89986328,0.03469856
2686.82867065,0.03463499
2688.75747803,0.03455145
2690.68628540,0.03454451
2692.61509277,0.03459625
2694.54390015,0.03446714
2696.47270752,0.03452790
2698.40151489,0.03443734
2700.33032227,0.03428333
2702.25912964,0.03445985
2704.18793701,0.03440527
2706.11674438,0.03430311
2708.04555176,0.03423865
2709.97435913,0.03432699
2711.90316650,0.03430314
2713.83197388,0.03406768
2715.76078125,0.03416011
2717.68958862,0.03414645
2719.61839600,0.03405333
2721.54720337,0.03402865
2723.47601074,0.03399684
2725.40481812,0.03401957
2727.33362549,0.03398593
2729.26243286,0.03384959
2731.19124023,0.03378610
2733.12004761,0.03391086
2735.04885498,0.03376459
2736.97766235,0.03368612
2738.90646973,0.03373072
2740.83527710,0.03359795
2742.76408447,0.03364864
2744.69289185,0.03356948
2746.62169922,0.03342564
2748.55050659,0.03353680
2750.47931396,0.03353067
2752.40812134,0.03334713
2754.33692871,0.03342669
2756.26573608,0.03346007
2758.19454346,0.03327920
2760.12335083,0.03323641
2762.05215820,0.03312780
2763.98096558,0.03314715
2765.90977295,0.03310516
2767.83858032,0.03307242
2769.76738770,0.03319601
2771.69619507,0.03300929
2773.62500244,0.03300085
2775.55380981,0.03300074
2777.48261719,0.03286116
2779.41142456,0.03290991
2781.34023193,0.03281523
2783.26903931,0.03271811
2785.19784668,0.03270540
2787.12665405,0.03264341
2789.05546143,0.03266490
2790.98426880,0.03257292
2792.91307617,0.03242555
2794.84188354,0.03254707
2796.77069092,0.03246725
2798.69949829,0.03238606
2800.62830566,0.03243824
2802.55711304,0.03224969
2804.48592041,0.03226769
2806.41472778,0.03223201
2808.34353516,0.03216831
2810.27234253,0.03210124
2812.20114990,0.03197774
2814.12995728,0.03208610
2816.05876465,0.03195781
2817.98757202,0.03191850
2819.91637939,0.03191353
2821.84518677,0.03181596
2823.77399414,0.03179000
2825.70280151,0.03164816
2827.63160889,0.03164215
2829.56041626,0.03153037
2831.48922363,0.03150368
2833.41803101,0.03148659
2835.34683838,0.03134710
2837.27564575,0.03138130
2839.20445312,0.03132896
2841.13326050,0.03123872
2843.06206787,0.03104340
2844.99087524,0.03094789
2846.91968262,0.03089259
2848.84848999,0.03072429
2850.77729736,0.03066326
2852.70610474,0.03060930
2854.63491211,0.03061793
2856.56371948,0.03050355
2858.49252686,0.03046531
2860.42133423,0.03045023
2862.35014160,0.03039590
2864.27894897,0.03051567
2866.20775635,0.03037829
2868.13656372,0.03024976
2870.06537109,0.03025007
2871.99417847,0.03024039
2873.92298584,0.03019116
2875.85179321,0.03006241
2877.78060059,0.03006088
2879.70940796,0.03004786
2881.63821533,0.03013835
2883.56702270,0.03011722
2885.49583008,0.02993713
2887.42463745,0.02995585
2889.35344482,0.02988639
2891.28225220,0.02977177
2893.21105957,0.02979594
2895.13986694,0.02977140
2897.06867432,0.02960681
2898.99748169,0.02946378
2900.92628906,0.02939061
2902.85509644,0.02938708
2904.78390381,0.02936422
2906.71271118,0.02917739
2908.64151855,0.02917608
2910.57032593,0.02922728
2912.49913330,0.02902460
2914.42794067,0.02885254
2916.35674805,0.02876461
2918.28555542,0.02870077
2920.21436279,0.02863208
2922.14317017,0.02853375
2924.07197754,0.02852293
2926.00078491,0.02851544
2927.92959229,0.02840151
2929.85839966,0.02839485
2931.78720703,0.02843056
2933.71601440,0.02832818
2935.64482178,0.02828894
2937.57362915,0.02834130
2939.50243652,0.02833151
2941.43124390,0.02832465
2943.36005127,0.02834608
2945.28885864,0.02822754
2947.21766602,0.02819737
2949.14647339,0.02823466
2951.07528076,0.02809916
2953.00408813,0.02809230
2954.93289551,0.02798890
2956.86170288,0.02784482
2958.79051025,0.02791364
2960.71931763,0.02772238
2962.64812500,0.02756115
2964.57693237,0.02770613
2966.50573975,0.02768130
2968.43454712,0.02752146
2970.36335449,0.02755630
2972.29216187,0.02762378
2974.22096924,0.02754269
2976.14977661,0.02752176
2978.07858398,0.02757297
2980.00739136,0.02758352
2981.93619873,0.02758639
2983.86500610,0.02750131
2985.79381348,0.02742187
2987.72262085,0.02743245
2989.65142822,0.02739183
2991.58023560,0.02736850
2993.50904297,0.02725718
2995.43785034,0.02716957
2997.36665771,0.02720239
2999.29546509,0.02710086
3001.22427246,0.02713995
3003.15307983,0.02711742
3005.08188721,0.02697774
3007.01069458,0.02698112
3008.93950195,0.02683606
3010.86830933,0.02677391
3012.79711670,0.02676569
3014.72592407,0.02660081
3016.65473145,0.02655161
3018.58353882,0.02658498
3020.51234619,0.02644081
3022.44115356,0.02638454
3024.36996094,0.02637814
3026.29876831,0.02615141
3028.22757568,0.02617428
3030.15638306,0.02610873
3032.08519043,0.02593541
3034.01399780,0.02593125
3035.94280518,0.02587290
3037.87161255,0.02587938
3039.80041992,0.02569492
3041.72922729,0.02568723
3043.65803467,0.02568167
3045.58684204,0.02552321
3047.51564941,0.02551426
3049.44445679,0.02533222
3051.37326416,0.02533217
3053.30207153,0.02529344
3055.23087891,0.02516234
3057.15968628,0.02505133
3059.08849365,0.02504862
3061.01730103,0.02512012
3062.94610840,0.02483642
3064.87491577,0.02477929
3066.80372314,0.02469639
3068.73253052,0.02466030
3070.66133789,0.02472372
3072.59014526,0.02454204
3074.51895264,0.02460621
3076.44776001,0.02458604
3078.37656738,0.02441951
3080.30537476,0.02419172
3082.23418213,0.02419477
3084.16298950,0.02422894
3086.09179687,0.02401657
3088.02060425,0.02399084
3089.94941162,0.02390154
3091.87821899,0.02395024
3093.80702637,0.02376655
3095.73583374,0.02352721
3097.66464111,0.02360798
3099.59344849,0.02344573
3101.52225586,0.02340182
3103.45106323,0.02337589
3105.37987061,0.02330506
3107.30867798,0.02321263
3109.23748535,0.02308386
3111.16629272,0.02305787
3113.09510010,0.02299367
3115.02390747,0.02292572
3116.95271484,0.02270431
3118.88152222,0.02263538
3120.81032959,0.02263055
3122.73913696,0.02240881
3124.66794434,0.02227004
3126.59675171,0.02228595
3128.52555908,0.02223726
3130.45436645,0.02202421
3132.38317383,0.02198124
3134.31198120,0.02196210
3136.24078857,0.02190695
3138.16959595,0.02188848
3140.09840332,0.02168600
3142.02721069,0.02152854
3143.95601807,0.02148338
3145.88482544,0.02135067
3147.81363281,0.02122690
3149.74244019,0.02123113
3151.67124756,0.02115117
3153.60005493,0.02097500
3155.52886230,0.02089259
3157.45766968,0.02087629
3159.38647705,0.02072431
3161.31528442,0.02056547
3163.24409180,0.02052221
3165.17289917,0.02043366
3167.10170654,0.02031204
3169.03051392,0.02012189
3170.95932129,0.02022415
3172.88812866,0.02019276
3174.81693604,0.01989566
3176.74574341,0.01994328
3178.67455078,0.01982376
3180.60335815,0.01973125
3182.53216553,0.01966894
3184.46097290,0.01952278
3186.38978027,0.01949342
3188.31858765,0.01942636
3190.24739502,0.01939948
3192.17620239,0.01920090
3194.10500977,0.01917773
3196.03381714,0.01908054
3197.96262451,0.01890240
3199.89143188,0.01901836
3201.82023926,0.01889180
3203.74904663,0.01877617
3205.67785400,0.01877670
3207.60666138,0.01872926
3209.53546875,0.01863345
3211.46427612,0.01856353
3213.39308350,0.01850762
3215.32189087,0.01841610
3217.25069824,0.01830770
3219.17950562,0.01820438
3221.10831299,0.01834911
3223.03712036,0.01824142
3224.96592773,0.01806635
3226.89473511,0.01811347
3228.82354248,0.01804389
3230.75234985,0.01798036
3232.68115723,0.01790492
3234.60996460,0.01788956
3236.53877197,0.01789576
3238.46757935,0.01790150
3240.39638672,0.01778467
3242.32519409,0.01778221
3244.25400146,0.01777175
3246.18280884,0.01765619
3248.11161621,0.01779258
3250.04042358,0.01767831
3251.96923096,0.01773025
3253.89803833,0.01768728
3255.82684570,0.01744170
3257.75565308,0.01753354
3259.68446045,0.01744188
3261.61326782,0.01750838
3263.54207520,0.01752655
3265.47088257,0.01747255
3267.39968994,0.01751725
3269.32849731,0.01745610
3271.25730469,0.01745573
3273.18611206,0.01730560
3275.11491943,0.01734240
3277.04372681,0.01744753
3278.97253418,0.01732073
3280.90134155,0.01725557
3282.83014893,0.01732163
3284.75895630,0.01728674
3286.68776367,0.01722365
3288.61657104,0.01727049
3290.54537842,0.01718923
3292.47418579,0.01719042
3294.40299316,0.01721195
3296.33180054,0.01721300
3298.26060791,0.01717344
3300.18941528,0.01707266
3302.11822266,0.01713119
3304.04703003,0.01717113
3305.97583740,0.01715719
3307.90464478,0.01708456
3309.83345215,0.01707327
3311.76225952,0.01705494
3313.69106689,0.01707173
3315.61987427,0.01709753
3317.54868164,0.01707073
3319.47748901,0.01705919
3321.40629639,0.01687916
3323.33510376,0.01694740
3325.26391113,0.01697084
3327.19271851,0.01696133
3329.12152588,0.01701914
3331.05033325,0.01674770
3332.97914062,0.01677554
3334.90794800,0.01680682
3336.83675537,0.01666151
3338.76556274,0.01676358
3340.69437012,0.01680797
3342.62317749,0.01674156
3344.55198486,0.01678726
3346.48079224,0.01679221
3348.40959961,0.01671769
3350.33840698,0.01669879
3352.26721436,0.01672045
3354.19602173,0.01674905
3356.12482910,0.01656763
3358.05363647,0.01666650
3359.98244385,0.01673666
3361.91125122,0.01648985
3363.84005859,0.01656824
3365.76886597,0.01655088
3367.69767334,0.01652382
3369.62648071,0.01656875
3371.55528809,0.01660565
3373.48409546,0.01656116
3375.41290283,0.01653363
3377.34171020,0.01655810
3379.27051758,0.01635603
3381.19932495,0.01650825
3383.12813232,0.01655360
3385.05693970,0.01652998
3386.98574707,0.01659657
3388.91455444,0.01650317
3390.84336182,0.01649065
3392.77216919,0.01637445
3394.70097656,0.01647341
3396.62978394,0.01640911
3398.55859131,0.01644586
3400.48739868,0.01653296
3402.41620605,0.01634423
3404.34501343,0.01646250
3406.27382080,0.01651238
3408.20262817,0.01650845
3410.13143555,0.01642104
3412.06024292,0.01644162
3413.98905029,0.01648146
3415.91785767,0.01652086
3417.84666504,0.01660598
3419.77547241,0.01646498
3421.70427979,0.01649942
3423.63308716,0.01644129
3425.56189453,0.01657688
3427.49070190,0.01660828
3429.41950928,0.01651219
3431.34831665,0.01654648
3433.27712402,0.01646195
3435.20593140,0.01668512
3437.13473877,0.01657497
3439.06354614,0.01652744
3440.99235352,0.01656004
3442.92116089,0.01653122
3444.84996826,0.01668977
3446.77877563,0.01648679
3448.70758301,0.01655116
3450.63639038,0.01674018
3452.56519775,0.01680433
3454.49400513,0.01678386
3456.42281250,0.01680229
3458.35161987,0.01685867
3460.28042725,0.01672682
3462.20923462,0.01677250
3464.13804199,0.01684172
3466.06684937,0.01688757
3467.99565674,0.01689652
3469.92446411,0.01700138
3471.85327148,0.01694585
3473.78207886,0.01684507
3475.71088623,0.01692496
3477.63969360,0.01702931
3479.56850098,0.01715739
3481.49730835,0.01685825
3483.42611572,0.01697922
3485.35492310,0.01719163
3487.28373047,0.01711330
3489.21253784,0.01721815
3491.14134521,0.01717099
3493.07015259,0.01723207
3494.99895996,0.01716323
3496.92776733,0.01722718
3498.85657471,0.01729761
3500.78538208,0.01724047
3502.71418945,0.01711254
3504.64299683,0.01716552
3506.57180420,0.01753114
3508.50061157,0.01725631
3510.42941895,0.01722954
3512.35822632,0.01746260
3514.28703369,0.01763427
3516.21584106,0.01764399
3518.14464844,0.01737952
3520.07345581,0.01760655
3522.00226318,0.01749646
3523.93107056,0.01725535
3525.85987793,0.01731822
3527.78868530,0.01740852
3529.71749268,0.01742515
3531.64630005,0.01762300
3533.57510742,0.01791460
3535.50391479,0.01772520
3537.43272217,0.01778159
3539.36152954,0.01789904
3541.29033691,0.01789886
3543.21914429,0.01781286
3545.14795166,0.01745817
3547.07675903,0.01729447
3549.00556641,0.01781830
3550.93437378,0.01811977
3552.86318115,0.01758274
3554.79198853,0.01783411
3556.72079590,0.01810634
3558.64960327,0.01803601
3560.57841064,0.01802743
3562.50721802,0.01806422
3564.43602539,0.01814724
3566.36483276,0.01683066
3568.29364014,0.01648927
3570.22244751,0.01798958
3572.15125488,0.01853060
3574.08006226,0.01820700
3576.00886963,0.01828788
3577.93767700,0.01839015
3579.86648437,0.01820379
3581.79529175,0.01827154
3583.72409912,0.01843013
3585.65290649,0.01802000
3587.58171387,0.01660480
3589.51052124,0.01704478
3591.43932861,0.01857660
3593.36813599,0.01807750
3595.29694336,0.01790194
3597.22575073,0.01832449
3599.15455811,0.01842432
3601.08336548,0.01827872
3603.01217285,0.01843150
3604.94098022,0.01884963
3606.86978760,0.01824304
3608.79859497,0.01710320
3610.72740234,0.01743329
3612.65620972,0.01791687
3614.58501709,0.01745691
3616.51382446,0.01874365
3618.44263184,0.01744713
3620.37143921,0.01675105
3622.30024658,0.01894425
3624.22905395,0.01850513
3626.15786133,0.01940385
3628.08666870,0.01655279
3630.01547607,0.01494672
3631.94428345,0.01892701
3633.87309082,0.01846246
3635.80189819,0.01877505
3637.73070557,0.01929406
3639.65951294,0.01893914
3641.58832031,0.01922041
3643.51712769,0.01893405
3645.44593506,0.01918282
3647.37474243,0.01729970
3649.30354980,0.01580584
3651.23235718,0.01607513
3653.16116455,0.01896667
3655.08997192,0.01883611
3657.01877930,0.01693968
3658.94758667,0.01948578
3660.87639404,0.01923022
3662.80520142,0.01946404
3664.73400879,0.01942924
3666.66281616,0.01926377
3668.59162354,0.01875975
3670.52043091,0.01520983
3672.44923828,0.01840220
3674.37804565,0.01776606
3676.30685303,0.01459826
3678.23566040,0.01840819
3680.16446777,0.01893822
3682.09327515,0.01889018
3684.02208252,0.01951504
3685.95088989,0.01918439
3687.87969727,0.01733099
3689.80850464,0.01591232
3691.73731201,0.01817957
3693.66611938,0.01878380
3695.59492676,0.01918644
3697.52373413,0.01919340
3699.45254150,0.01903061
3701.38134888,0.01859003
3703.31015625,0.01783676
3705.23896362,0.01964154
3707.16777100,0.01875295
3709.09657837,0.01824548
3711.02538574,0.01720899
3712.95419312,0.01609088
3714.88300049,0.01887574
3716.81180786,0.01864913
3718.74061523,0.01875764
3720.66942261,0.01841549
3722.59822998,0.01775051
3724.52703735,0.01835730
3726.45584473,0.01704943
3728.38465210,0.01846680
3730.31345947,0.01834820
3732.24226685,0.01690721
3734.17107422,0.01636722
3736.09988159,0.01554129
3738.02868896,0.01649310
3739.95749634,0.01790158
3741.88630371,0.01891617
3743.81511108,0.01465598
3745.74391846,0.01368660
3747.67272583,0.01788564
3749.60153320,0.01535461
3751.53034058,0.01409132
3753.45914795,0.01622297
3755.38795532,0.01744825
3757.31676270,0.01834495
3759.24557007,0.01697508
3761.17437744,0.01746979
3763.10318481,0.01868305
3765.03199219,0.01737500
3766.96079956,0.01778081
3768.88960693,0.01756282
3770.81841431,0.01661075
3772.74722168,0.01814495
3774.67602905,0.01821648
3776.60483643,0.01819940
3778.53364380,0.01768732
3780.46245117,0.01695095
3782.39125854,0.01814224
3784.32006592,0.01771118
3786.24887329,0.01760470
3788.17768066,0.01800136
3790.10648804,0.01796290
3792.03529541,0.01777087
3793.96410278,0.01802209
3795.89291016,0.01708565
3797.82171753,0.01676206
3799.75052490,0.01770695
3801.67933228,0.01402471
3803.60813965,0.01632939
3805.53694702,0.01784092
3807.46575439,0.01445984
3809.39456177,0.01765250
3811.32336914,0.01731815
3813.25217651,0.01785612
3815.18098389,0.01625346
3817.10979126,0.01414737
3819.03859863,0.01793015
3820.96740601,0.01441970
3822.89621338,0.01508573
3824.82502075,0.01789152
3826.75382812,0.01614185
3828.68263550,0.01736188
3830.61144287,0.01672479
3832.54025024,0.01608007
3834.46905762,0.01647499
3836.39786499,0.01573352
3838.32667236,0.01420735
3840.25547974,0.01530332
3842.18428711,0.01649387
3844.11309448,0.01577503
3846.04190186,0.01709260
3847.97070923,0.01679917
3849.89951660,0.01684630
3851.82832397,0.01519300
3853.75713135,0.01124972
3855.68593872,0.01334987
3857.61474609,0.01691781
3859.54355347,0.01646847
3861.47236084,0.01624253
3863.40116821,0.01591372
3865.32997559,0.01474934
3867.25878296,0.01657501
3869.18759033,0.01522991
3871.11639770,0.01393757
3873.04520508,0.01657552
3874.97401245,0.01523242
3876.90281982,0.01638583
3878.83162720,0.01681638
3880.76043457,0.01433395
3882.68924194,0.01655352
3884.61804932,0.01553723
3886.54685669,0.01407868
3888.47566406,0.01660436
3890.40447144,0.01572345
3892.33327881,0.01461421
3894.26208618,0.01614162
3896.19089355,0.01648811
3898.11970093,0.01567140
3900.04850830,0.01482102
3901.97731567,0.01468921
3903.90612305,0.01447614
3905.83493042,0.01465982
3907.76373779,0.01619838
3909.69254517,0.01623430
3911.62135254,0.01599555
3913.55015991,0.01622580
3915.47896728,0.01571720
3917.40777466,0.01529499
3919.33658203,0.01514019
3921.26538940,0.01574712
3923.19419678,0.01568464
3925.12300415,0.01540367
3927.05181152,0.01565694
3928.98061890,0.01578068
3930.90942627,0.01544901
3932.83823364,0.01492250
3934.76704102,0.01567047
3936.69584839,0.01572952
3938.62465576,0.01560660
3940.55346313,0.01590211
3942.48227051,0.01512540
3944.41107788,0.01528595
3946.33988525,0.01561966
3948.26869263,0.01510522
3950.19750000,0.01520234
3952.12630737,0.01550713
3954.05511475,0.01539483
3955.98392212,0.01542079
3957.91272949,0.01539968
3959.84153687,0.01524303
3961.77034424,0.01516723
3963.69915161,0.01519574
3965.62795898,0.01546525
3967.55676636,0.01534425
3969.48557373,0.01522087
3971.41438110,0.01521391
3973.34318848,0.01516974
3975.27199585,0.01514938
3977.20080322,0.01501341
3979.12961060,0.01511819
3981.05841797,0.01509278
3982.98722534,0.01512984
3984.91603271,0.01513141
3986.84484009,0.01512401
3988.77364746,0.01502520
3990.70245483,0.01485982
3992.63126221,0.01500360
3994.56006958,0.01488895
3996.48887695,0.01498112
3998.41768433,0.01492665
4000.34649170,0.01489813
4002.27529907,0.01495996
4004.20410645,0.01474583
4006.13291382,0.01484999
4008.06172119,0.01471967
4009.99052856,0.01468436
4011.91933594,0.01468841
4013.84814331,0.01472285
4015.77695068,0.01471121
4017.70575806,0.01454602
4019.63456543,0.01468354
4021.56337280,0.01459214
4023.49218018,0.01455035
4025.42098755,0.01441873
4027.34979492,0.01446131
4029.27860229,0.01452704
4031.20740967,0.01435814
4033.13621704,0.01443787
4035.06502441,0.01433955
4036.99383179,0.01438956
4038.92263916,0.01431269
4040.85144653,0.01424803
4042.78025391,0.01426161
4044.70906128,0.01415696
4046.63786865,0.01428317
4048.56667603,0.01426227
4050.49548340,0.01417344
4052.42429077,0.01402539
4054.35309814,0.01413472
4056.28190552,0.01418615
4058.21071289,0.01405400
4060.13952026,0.01407713
4062.06832764,0.01397455
4063.99713501,0.01399776
4065.92594238,0.01396653
4067.85474976,0.01397684
4069.78355713,0.01401525
4071.71236450,0.01391235
4073.64117187,0.01381733
4075.56997925,0.01384490
4077.49878662,0.01388209
4079.42759399,0.01382736
4081.35640137,0.01387148
4083.28520874,0.01375739
4085.21401611,0.01380760
4087.14282349,0.01374680
4089.07163086,0.01362968
4091.00043823,0.01370646
4092.92924561,0.01358659
4094.85805298,0.01362342
4096.78686035,0.01356691
4098.71566772,0.01359606
4100.64447510,0.01348338
4102.57328247,0.01339535
4104.50208984,0.01360754
4106.43089722,0.01345380
4108.35970459,0.01345014
4110.28851196,0.01345594
4112.21731934,0.01340489
4114.14612671,0.01338843
4116.07493408,0.01334312
4118.00374145,0.01335567
4119.93254883,0.01332859
4121.86135620,0.01337678
4123.79016357,0.01329022
4125.71897095,0.01332010
4127.64777832,0.01324109
4129.57658569,0.01308286
4131.50539307,0.01305310
4133.43420044,0.01303799
4135.36300781,0.01313803
4137.29181519,0.01305387
4139.22062256,0.01307650
4141.14942993,0.01306957
4143.07823730,0.01299254
4145.00704468,0.01299770
4146.93585205,0.01293895
4148.86465942,0.01293298
4150.79346680,0.01287012
4152.72227417,0.01282646
4154.65108154,0.01280061
4156.57988892,0.01283496
4158.50869629,0.01280501
4160.43750366,0.01277270
4162.36631103,0.01267604
4164.29511841,0.01263839
4166.22392578,0.01281043
4168.15273315,0.01270626
4170.08154053,0.01268397
4172.01034790,0.01258451
4173.93915527,0.01253686
4175.86796265,0.01265475
4177.79677002,0.01256392
4179.72557739,0.01259809
4181.65438477,0.01251003
4183.58319214,0.01250492
4185.51199951,0.01249772
4187.44080688,0.01237840
4189.36961426,0.01238915
4191.29842163,0.01239033
4193.22722900,0.01243200
4195.15603638,0.01232907
4197.08484375,0.01232807
4199.01365112,0.01238723
4200.94245850,0.01232548
4202.87126587,0.01226470
4204.80007324,0.01222768
4206.72888062,0.01222211
4208.65768799,0.01218162
4210.58649536,0.01216166
4212.51530273,0.01208701
4214.44411011,0.01209829
4216.37291748,0.01213509
4218.30172485,0.01215873
4220.23053223,0.01210817
4222.15933960,0.01200198
4224.08814697,0.01198458
4226.01695435,0.01188126
4227.94576172,0.01191196
4229.87456909,0.01188676
4231.80337646,0.01188576
4233.73218384,0.01194837
4235.66099121,0.01183551
4237.58979858,0.01181985
4239.51860596,0.01178405
4241.44741333,0.01178298
4243.37622070,0.01179748
4245.30502808,0.01180067
4247.23383545,0.01179188
4249.16264282,0.01174280
4251.09145020,0.01171199
4253.02025757,0.01170252
4254.94906494,0.01171184
4256.87787231,0.01151641
4258.80667969,0.01145703
4260.73548706,0.01156620
4262.66429443,0.01162614
4264.59310181,0.01157566
4266.52190918,0.01150347
4268.45071655,0.01153591
4270.37952393,0.01146706
4272.30833130,0.01152268
4274.23713867,0.01142059
4276.16594604,0.01139187
4278.09475342,0.01151243
4280.02356079,0.01132351
4281.95236816,0.01132298
4283.88117554,0.01136630
4285.80998291,0.01135317
4287.73879028,0.01127884
4289.66759766,0.01121943
4291.59640503,0.01126528
4293.52521240,0.01120987
4295.45401978,0.01117628
4297.38282715,0.01110038
4299.31163452,0.01120999
4301.24044189,0.01118311
4303.16924927,0.01104795
4305.09805664,0.01114445
4307.02686401,0.01101664
4308.95567139,0.01104696
4310.88447876,0.01113841
4312.81328613,0.01092692
4314.74209351,0.01090469
4316.67090088,0.01096232
4318.59970825,0.01088094
4320.52851562,0.01086852
4322.45732300,0.01086259
4324.38613037,0.01083052
4326.31493774,0.01077447
4328.24374512,0.01071327
4330.17255249,0.01079225
4332.10135986,0.01081190
4334.03016724,0.01076293
4335.95897461,0.01076620
4337.88778198,0.01076278
4339.81658936,0.01072428
4341.74539673,0.01069027
4343.67420410,0.01065633
4345.60301147,0.01063617
4347.53181885,0.01069743
4349.46062622,0.01056950
4351.38943359,0.01050540
4353.31824097,0.01058388
4355.24704834,0.01052540
4357.17585571,0.01055174
4359.10466309,0.01052190
4361.03347046,0.01052864
4362.96227783,0.01058419
4364.89108520,0.01039526
4366.81989258,0.01029274
4368.74869995,0.01042627
4370.67750732,0.01037090
4372.60631470,0.01028400
4374.53512207,0.01037294
4376.46392944,0.01033637
4378.39273682,0.01033587
4380.32154419,0.01027147
4382.25035156,0.01021758
4384.17915894,0.01024793
4386.10796631,0.01017075
4388.03677368,0.01020048
4389.96558105,0.01015668
4391.89438843,0.01013264
4393.82319580,0.01016544
4395.75200317,0.01013664
4397.68081055,0.01008270
4399.60961792,0.01004470
4401.53842529,0.01007444
4403.46723267,0.01000534
4405.39604004,0.00999456
4407.32484741,0.00997158
4409.25365478,0.00995415
4411.18246216,0.00995628
4413.11126953,0.00995571
4415.04007690,0.00992601
4416.96888428,0.00983844
4418.89769165,0.00990571
4420.82649902,0.00978826
4422.75530640,0.00982018
4424.68411377,0.00987953
4426.61292114,0.00972633
4428.54172852,0.00975414
4430.47053589,0.00969437
4432.39934326,0.00971677
4434.32815063,0.00970317
4436.25695801,0.00974389
4438.18576538,0.00978011
4440.11457275,0.00965198
4442.04338013,0.00962995
4443.97218750,0.00958401
4445.90099487,0.00965059
4447.82980225,0.00954100
4449.75860962,0.00955951
4451.68741699,0.00961406
4453.61622437,0.00943997
4455.54503174,0.00952261
4457.47383911,0.00946672
4459.40264648,0.00947252
4461.33145386,0.00947785
4463.26026123,0.00936039
4465.18906860,0.00937122
4467.11787598,0.00935617
4469.04668335,0.00933683
4470.97549072,0.00930178
4472.90429810,0.00938241
4474.83310547,0.00931560
4476.76191284,0.00927613
4478.69072021,0.00930411
4480.61952759,0.00920442
4482.54833496,0.00926084
4484.47714233,0.00919220
4486.40594971,0.00915714
4488.33475708,0.00923409
4490.26356445,0.00915177
4492.19237183,0.00907544
4494.12117920,0.00912707
4496.04998657,0.00910779
4497.97879395,0.00902482
4499.90760132,0.00906962
4501.83640869,0.00904269
4503.76521606,0.00897834
4505.69402344,0.00891043
4507.62283081,0.00898036
4509.55163818,0.00902614
4511.48044556,0.00890923
4513.40925293,0.00893127
4515.33806030,0.00883119
4517.26686768,0.00887126
4519.19567505,0.00894962
4521.12448242,0.00878911
4523.05328979,0.00881026
4524.98209717,0.00887026
4526.91090454,0.00887273
4528.83971191,0.00883156
4530.76851929,0.00874732
4532.69732666,0.00866256
4534.62613403,0.00867155
4536.55494141,0.00871921
4538.48374878,0.00866861
4540.41255615,0.00867748
4542.34136353,0.00865884
4544.27017090,0.00864242
4546.19897827,0.00862740
4548.12778564,0.00861112
4550.05659302,0.00860737
4551.98540039,0.00852632
4553.91420776,0.00854190
4555.84301514,0.00850860
4557.77182251,0.00847072
4559.70062988,0.00849338
4561.62943726,0.00843271
4563.55824463,0.00841285
4565.48705200,0.00842840
4567.41585937,0.00846721
4569.34466675,0.00835411
4571.27347412,0.00831049
4573.20228149,0.00840260
4575.13108887,0.00830295
4577.05989624,0.00837174
4578.98870361,0.00834256
4580.91751099,0.00823556
4582.84631836,0.00830518
4584.77512573,0.00817228
4586.70393311,0.00828276
4588.63274048,0.00830809
4590.56154785,0.00814384
4592.49035522,0.00827878
4594.41916260,0.00819241
4596.34796997,0.00813319
4598.27677734,0.00814838
4600.20558472,0.00807539
4602.13439209,0.00813636
4604.06319946,0.00810273
4605.99200684,0.00808160
4607.92081421,0.00800515
4609.84962158,0.00792107
4611.77842895,0.00800335
4613.70723633,0.00799655
4615.63604370,0.00794946
4617.56485107,0.00793860
4619.49365845,0.00793033
4621.42246582,0.00790207
4623.35127319,0.00787519
4625.28008057,0.00791040
4627.20888794,0.00785909
4629.13769531,0.00786683
4631.06650269,0.00790555
4632.99531006,0.00773001
4634.92411743,0.00777550
4636.85292480,0.00786244
4638.78173218,0.00780163
4640.71053955,0.00780188
4642.63934692,0.00763297
4644.56815430,0.00772647
4646.49696167,0.00777553
4648.42576904,0.00758418
4650.35457642,0.00771544
4652.28338379,0.00769241
4654.21219116,0.00760257
4656.14099853,0.00765817
4658.06980591,0.00758326
4659.99861328,0.00747659
4661.92742065,0.00754376
4663.85622803,0.00761032
4665.78503540,0.00751122
4667.71384277,0.00753370
4669.64265015,0.00751501
4671.57145752,0.00753493
4673.50026489,0.00755201
4675.42907227,0.00744025
4677.35787964,0.00746745
4679.28668701,0.00737415
4681.21549438,0.00739919
4683.14430176,0.00751627
4685.07310913,0.00738904
4687.00191650,0.00736604
4688.93072388,0.00740378
4690.85953125,0.00735469
4692.78833862,0.00737991
4694.71714600,0.00738697
4696.64595337,0.00730336
4698.57476074,0.00726187
4700.50356812,0.00716291
4702.43237549,0.00719668
4704.36118286,0.00725400
4706.28999023,0.00712800
4708.21879761,0.00725287
4710.14760498,0.00730597
4712.07641235,0.00713430
4714.00521973,0.00714256
4715.93402710,0.00722181
4717.86283447,0.00717500
4719.79164185,0.00708204
4721.72044922,0.00709455
4723.64925659,0.00709363
4725.57806396,0.00709006
4727.50687134,0.00712922
4729.43567871,0.00711441
4731.36448608,0.00703748
4733.29329346,0.00701083
4735.22210083,0.00705062
4737.15090820,0.00700702
4739.07971558,0.00696449
4741.00852295,0.00695036
4742.93733032,0.00693260
4744.86613770,0.00694412
4746.79494507,0.00692616
4748.72375244,0.00688032
4750.65255981,0.00689955
4752.58136719,0.00690978
4754.51017456,0.00685259
4756.43898193,0.00684081
4758.36778931,0.00679570
4760.29659668,0.00678524
4762.22540405,0.00679443
4764.15421143,0.00680290
4766.08301880,0.00682913
4768.01182617,0.00674175
4769.94063354,0.00675175
4771.86944092,0.00678132
4773.79824829,0.00671094
4775.72705566,0.00664462
4777.65586304,0.00665423
4779.58467041,0.00667707
4781.51347778,0.00669878
4783.44228516,0.00679297
4785.37109253,0.00659758
4787.29989990,0.00649236
4789.22870728,0.00662380
4791.15751465,0.00657792
4793.08632202,0.00657551
4795.01512939,0.00651143
4796.94393677,0.00651228
4798.87274414,0.00656739
4800.80155151,0.00650054
4802.73035889,0.00650086
4804.65916626,0.00644304
4806.58797363,0.00640258
4808.51678101,0.00641399
4810.44558838,0.00641455
4812.37439575,0.00641624
4814.30320312,0.00636148
4816.23201050,0.00634093
4818.16081787,0.00638627
4820.08962524,0.00639188
4822.01843262,0.00635202
4823.94723999,0.00634485
4825.87604736,0.00627421
4827.80485474,0.00628335
4829.73366211,0.00635473
4831.66246948,0.00623588
4833.59127686,0.00621389
4835.52008423,0.00625618
4837.44889160,0.00624450
4839.37769897,0.00626986
4841.30650635,0.00621167
4843.23531372,0.00622945
4845.16412109,0.00619731
4847.09292847,0.00614347
4849.02173584,0.00623373
4850.95054321,0.00614798
4852.87935059,0.00607776
4854.80815796,0.00607660
4856.73696533,0.00609837
4858.66577270,0.00617161
4860.59458008,0.00609083
4862.52338745,0.00605266
4864.45219482,0.00603197
4866.38100220,0.00602039
4868.30980957,0.00600036
4870.23861694,0.00599489
4872.16742432,0.00606328
4874.09623169,0.00596104
4876.02503906,0.00594094
4877.95384644,0.00596388
4879.88265381,0.00593172
4881.81146118,0.00591130
4883.74026855,0.00587648
4885.66907593,0.00590720
4887.59788330,0.00586063
4889.52669067,0.00588440
4891.45549805,0.00584355
4893.38430542,0.00579233
4895.31311279,0.00584693
4897.24192017,0.00582560
4899.17072754,0.00587919
4901.09953491,0.00579179
4903.02834228,0.00578739
4904.95714966,0.00583029
4906.88595703,0.00567621
4908.81476440,0.00571508
4910.74357178,0.00572939
4912.67237915,0.00571327
4914.60118652,0.00573697
4916.52999390,0.00567526
4918.45880127,0.00570338
4920.38760864,0.00566776
4922.31641602,0.00563239
4924.24522339,0.00568031
4926.17403076,0.00562784
4928.10283813,0.00564949
4930.03164551,0.00558144
4931.96045288,0.00548157
4933.88926025,0.00563421
4935.81806763,0.00561640
4937.74687500,0.00558883
4939.67568237,0.00558582
4941.60448975,0.00545073
4943.53329712,0.00551794
4945.46210449,0.00554121
4947.39091187,0.00546974
4949.31971924,0.00544948
4951.24852661,0.00550212
4953.17733398,0.00548355
4955.10614136,0.00539854
4957.03494873,0.00550126
4958.96375610,0.00545840
4960.89256348,0.00535845
4962.82137085,0.00537191
4964.75017822,0.00533348
4966.67898560,0.00529596
4968.60779297,0.00528645
4970.53660034,0.00536355
4972.46540771,0.00538796
4974.39421509,0.00531844
4976.32302246,0.00526963
4978.25182983,0.00527762
4980.18063721,0.00523818
4982.10944458,0.00518990
4984.03825195,0.00523630
4985.96705933,0.00519705
4987.89586670,0.00521553
4989.82467407,0.00527963
4991.75348145,0.00521947
4993.68228882,0.00519094
4995.61109619,0.00518568
4997.53990356,0.00520922
4999.46871094,0.00521511
5001.39751831,0.00511570
5003.32632568,0.00512835
5005.25513306,0.00514137
5007.18394043,0.00505755
5009.11274780,0.00517361
5011.04155518,0.00521133
5012.97036255,0.00509062
5014.89916992,0.00505507
5016.82797729,0.00504150
5018.75678467,0.00503820
5020.68559204,0.00497751
5022.61439941,0.00501733
5024.54320679,0.00505779
5026.47201416,0.00499709
5028.40082153,0.00498414
5030.32962891,0.00493701
5032.25843628,0.00494422
5034.18724365,0.00494511
5036.11605103,0.00495720
5038.04485840,0.00498628
5039.97366577,0.00494919
5041.90247314,0.00493961
5043.83128052,0.00487882
5045.76008789,0.00482991
5047.68889526,0.00486568
5049.61770264,0.00487471
5051.54651001,0.00481622
5053.47531738,0.00481424
5055.40412476,0.00490032
5057.33293213,0.00494565
5059.26173950,0.00485236
5061.19054687,0.00475453
5063.11935425,0.00476571
5065.04816162,0.00473613
5066.97696899,0.00476782
5068.90577637,0.00477816
5070.83458374,0.00472694
5072.76339111,0.00474612
5074.69219849,0.00470620
5076.62100586,0.00463575
5078.54981323,0.00460906
5080.47862061,0.00471326
5082.40742798,0.00475751
5084.33623535,0.00469540
5086.26504272,0.00466061
5088.19385010,0.00462568
5090.12265747,0.00463902
5092.05146484,0.00461726
5093.98027222,0.00466141
5095.90907959,0.00463858
5097.83788696,0.00459383
5099.76669434,0.00468376
5101.69550171,0.00462564
5103.62430908,0.00451203
5105.55311645,0.00449778
5107.48192383,0.00456951
5109.41073120,0.00452844
5111.33953857,0.00449582
5113.26834595,0.00456780
5115.19715332,0.00448883
5117.12596069,0.00443911
5119.05476807,0.00442616
5120.98357544,0.00444481
5122.91238281,0.00445848
5124.84119019,0.00437218
5126.76999756,0.00439481
5128.69880493,0.00444532
5130.62761230,0.00439236
5132.55641968,0.00436659
5134.48522705,0.00437990
5136.41403442,0.00433605
5138.34284180,0.00436534
5140.27164917,0.00436852
5142.20045654,0.00423568
5144.12926392,0.00426048
5146.05807129,0.00435513
5147.98687866,0.00431238
5149.91568603,0.00431477
5151.84449341,0.00433940
5153.77330078,0.00431086
5155.70210815,0.00433823
5157.63091553,0.00426613
5159.55972290,0.00420884
5161.48853027,0.00424069
5163.41733765,0.00420647
5165.34614502,0.00419980
5167.27495239,0.00416799
5169.20375977,0.00417060
5171.13256714,0.00416552
5173.06137451,0.00415924
5174.99018188,0.00417979
5176.91898926,0.00418523
5178.84779663,0.00420061
5180.77660400,0.00410670
5182.70541138,0.00418561
5184.63421875,0.00420516
5186.56302612,0.00406402
5188.49183350,0.00413402
5190.42064087,0.00411592
5192.34944824,0.00406375
5194.27825562,0.00408665
5196.20706299,0.00404727
5198.13587036,0.00403613
5200.06467773,0.00406910
5201.99348511,0.00404967
5203.92229248,0.00402792
5205.85109985,0.00395914
5207.77990723,0.00388724
5209.70871460,0.00396867
5211.63752197,0.00398787
5213.56632935,0.00403011
5215.49513672,0.00399669
5217.42394409,0.00395031
5219.35275146,0.00401441
5221.28155884,0.00392483
5223.21036621,0.00395262
5225.13917358,0.00395672
5227.06798096,0.00391796
5228.99678833,0.00391019
5230.92559570,0.00388592
5232.85440308,0.00395406
5234.78321045,0.00392178
5236.71201782,0.00394760
5238.64082520,0.00390860
5240.56963257,0.00387747
5242.49843994,0.00388952
5244.42724731,0.00376515
5246.35605469,0.00375172
5248.28486206,0.00374000
5250.21366943,0.00383708
5252.14247681,0.00391668
5254.07128418,0.00379483
5256.00009155,0.00375999
5257.92889893,0.00377954
5259.85770630,0.00375490
5261.78651367,0.00369428
5263.71532104,0.00364624
5265.64412842,0.00375346
5267.57293579,0.00385609
5269.50174316,0.00371904
5271.43055054,0.00368892
5273.35935791,0.00371561
5275.28816528,0.00368914
5277.21697266,0.00369188
5279.14578003,0.00365787
5281.07458740,0.00372901
5283.00339478,0.00366017
5284.93220215,0.00366057
5286.86100952,0.00366942
5288.78981689,0.00363252
5290.71862427,0.00372844
5292.64743164,0.00357470
5294.57623901,0.00366929
5296.50504639,0.00371552
5298.43385376,0.00353768
5300.36266113,0.00364192
5302.29146851,0.00359013
5304.22027588,0.00354289
5306.14908325,0.00357099
5308.07789062,0.00355321
5310.00669800,0.00359166
5311.93550537,0.00361189
5313.86431274,0.00360422
5315.79312012,0.00355821
5317.72192749,0.00355926
5319.65073486,0.00358164
5321.57954224,0.00355593
5323.50834961,0.00349767
5325.43715698,0.00347485
5327.36596436,0.00338233
5329.29477173,0.00338058
5331.22357910,0.00349673
5333.15238647,0.00344845
5335.08119385,0.00346387
5337.01000122,0.00338507
5338.93880859,0.00326889
5340.86761597,0.00343115
5342.79642334,0.00339481
5344.72523071,0.00323880
5346.65403809,0.00336987
5348.58284546,0.00339921
5350.51165283,0.00335189
5352.44046020,0.00340017
5354.36926758,0.00332235
5356.29807495,0.00336669
5358.22688232,0.00339458
5360.15568970,0.00340090
5362.08449707,0.00343472
5364.01330444,0.00326201
5365.94211182,0.00330137
5367.87091919,0.00338358
5369.79972656,0.00335488
5371.72853394,0.00333285
5373.65734131,0.00328084
5375.58614868,0.00330182
5377.51495605,0.00324738
5379.44376343,0.00329036
5381.37257080,0.00332926
5383.30137817,0.00323941
5385.23018555,0.00325083
5387.15899292,0.00325683
5389.08780029,0.00320595
5391.01660767,0.00318211
5392.94541504,0.00318647
5394.87422241,0.00315915
5396.80302978,0.00317579
5398.73183716,0.00321628
5400.66064453,0.00321124
5402.58945190,0.00318957
5404.51825928,0.00316811
5406.44706665,0.00317441
5408.37587402,0.00320405
5410.30468140,0.00320498
5412.23348877,0.00310001
5414.16229614,0.00305515
5416.09110352,0.00310817
5418.01991089,0.00313964
5419.94871826,0.00315503
5421.87752563,0.00317970
5423.80633301,0.00314529
5425.73514038,0.00310629
5427.66394775,0.00306879
5429.59275513,0.00290617
5431.52156250,0.00307124
5433.45036987,0.00312962
5435.37917725,0.00286174
5437.30798462,0.00301221
5439.23679199,0.00303875
5441.16559936,0.00291581
5443.09440674,0.00296673
5445.02321411,0.00294672
5446.95202148,0.00296934
5448.88082886,0.00301302
5450.80963623,0.00299575
5452.73844360,0.00298260
5454.66725098,0.00304723
5456.59605835,0.00301627
5458.52486572,0.00296649
5460.45367310,0.00290401
5462.38248047,0.00290421
5464.31128784,0.00301951
5466.24009521,0.00292816
5468.16890259,0.00291880
5470.09770996,0.00293230
5472.02651733,0.00293309
5473.95532471,0.00293436
5475.88413208,0.00278686
5477.81293945,0.00283255
5479.74174683,0.00290265
5481.67055420,0.00287980
5483.59936157,0.00285407
5485.52816895,0.00289041
5487.45697632,0.00284638
5489.38578369,0.00275547
5491.31459106,0.00286089
5493.24339844,0.00280681
5495.17220581,0.00278672
5497.10101318,0.00287048
5499.02982056,0.00280434
5500.95862793,0.00277421
5502.88743530,0.00280229
5504.81624268,0.00282452
5506.74505005,0.00280583
5508.67385742,0.00279143
5510.60266479,0.00277691
5512.53147217,0.00280112
5514.46027954,0.00273639
5516.38908691,0.00267820
5518.31789429,0.00278212
5520.24670166,0.00275226
5522.17550903,0.00272682
5524.10431641,0.00270795
5526.03312378,0.00266928
5527.96193115,0.00271700
5529.89073853,0.00268828
5531.81954590,0.00269757
5533.74835327,0.00270517
5535.67716064,0.00268695
5537.60596802,0.00267331
5539.53477539,0.00262419
5541.46358276,0.00270045
5543.39239014,0.00268061
5545.32119751,0.00260850
5547.25000488,0.00268441
5549.17881226,0.00261645
5551.10761963,0.00264284
5553.03642700,0.00270308
5554.96523437,0.00258769
5556.89404175,0.00265676
5558.82284912,0.00270682
5560.75165649,0.00269373
5562.68046387,0.00266687
5564.60927124,0.00261462
5566.53807861,0.00264454
5568.46688599,0.00260171
5570.39569336,0.00255234
5572.32450073,0.00248599
5574.25330811,0.00253528
5576.18211548,0.00258132
5578.11092285,0.00252734
5580.03973022,0.00262342
5581.96853760,0.00259439
5583.89734497,0.00251891
5585.82615234,0.00255222
5587.75495972,0.00259346
5589.68376709,0.00260440
5591.61257446,0.00254049
5593.54138184,0.00251260
5595.47018921,0.00250698
5597.39899658,0.00249448
5599.32780395,0.00246557
5601.25661133,0.00247589
5603.18541870,0.00253490
5605.11422607,0.00253957
5607.04303345,0.00248642
5608.97184082,0.00250079
5610.90064819,0.00250169
5612.82945557,0.00245062
5614.75826294,0.00252523
5616.68707031,0.00251111
5618.61587769,0.00243240
5620.54468506,0.00237237
5622.47349243,0.00238629
5624.40229980,0.00248983
5626.33110718,0.00249164
5628.25991455,0.00248741
5630.18872192,0.00236870
5632.11752930,0.00239323
5634.04633667,0.00244081
5635.97514404,0.00235835
5637.90395142,0.00245863
5639.83275879,0.00236300
5641.76156616,0.00235387
5643.69037353,0.00245579
5645.61918091,0.00233675
5647.54798828,0.00229525
5649.47679565,0.00237466
5651.40560303,0.00242816
5653.33441040,0.00235538
5655.26321777,0.00235713
5657.19202515,0.00233252
5659.12083252,0.00229026
5661.04963989,0.00233624
5662.97844727,0.00234092
5664.90725464,0.00235749
5666.83606201,0.00230151
5668.76486938,0.00228754
5670.69367676,0.00226083
5672.62248413,0.00227957
5674.55129150,0.00235275
5676.48009888,0.00226324
5678.40890625,0.00222721
5680.33771362,0.00224055
5682.26652100,0.00224452
5684.19532837,0.00225125
5686.12413574,0.00229199
5688.05294311,0.00224384
5689.98175049,0.00215054
5691.91055786,0.00222371
5693.83936523,0.00220598
5695.76817261,0.00217302
5697.69697998,0.00224878
5699.62578735,0.00226738
5701.55459473,0.00217571
5703.48340210,0.00215975
5705.41220947,0.00218846
5707.34101685,0.00213778
5709.26982422,0.00217238
5711.19863159,0.00212527
5713.12743896,0.00218042
5715.05624634,0.00223612
5716.98505371,0.00210603
5718.91386108,0.00217142
5720.84266846,0.00216019
5722.77147583,0.00213031
5724.70028320,0.00217197
5726.62909058,0.00212877
5728.55789795,0.00210763
5730.48670532,0.00206878
5732.41551270,0.00216921
5734.34432007,0.00217524
5736.27312744,0.00206493
5738.20193481,0.00212094
5740.13074219,0.00212412
5742.05954956,0.00207264
5743.98835693,0.00201609
5745.91716431,0.00205378
5747.84597168,0.00216130
5749.77477905,0.00210238
5751.70358643,0.00205305
5753.63239380,0.00208866
5755.56120117,0.00209191
5757.49000854,0.00205862
5759.41881592,0.00203566
5761.34762329,0.00203266
5763.27643066,0.00203542
5765.20523804,0.00205307
5767.13404541,0.00200952
5769.06285278,0.00199026
5770.99166016,0.00198927
5772.92046753,0.00195994
5774.84927490,0.00195684
5776.77808228,0.00194571
5778.70688965,0.00199090
5780.63569702,0.00197305
5782.56450439,0.00193940
5784.49331177,0.00194165
5786.42211914,0.00190156
5788.35092651,0.00193542
5790.27973389,0.00196567
5792.20854126,0.00200393
5794.13734863,0.00196127
5796.06615601,0.00192288
5797.99496338,0.00200853
5799.92377075,0.00197029
5801.85257812,0.00187312
5803.78138550,0.00188861
5805.71019287,0.00196501
5807.63900024,0.00186419
5809.56780762,0.00186512
5811.49661499,0.00193010
5813.42542236,0.00180903
5815.35422974,0.00187280
5817.28303711,0.00184506
5819.21184448,0.00182774
5821.14065186,0.00190259
5823.06945923,0.00179949
5824.99826660,0.00183286
5826.92707397,0.00188786
5828.85588135,0.00185084
5830.78468872,0.00180529
5832.71349609,0.00182019
5834.64230347,0.00179656
5836.57111084,0.00178036
5838.49991821,0.00188144
5840.42872559,0.00181866
5842.35753296,0.00177705
5844.28634033,0.00182330
5846.21514770,0.00178188
5848.14395508,0.00172115
5850.07276245,0.00178173
5852.00156982,0.00179144
5853.93037720,0.00169589
5855.85918457,0.00178746
5857.78799194,0.00178653
5859.71679932,0.00175378
5861.64560669,0.00176620
5863.57441406,0.00174737
5865.50322144,0.00177687
5867.43202881,0.00172548
5869.36083618,0.00176561
5871.28964355,0.00171836
5873.21845093,0.00168817
5875.14725830,0.00172363
5877.07606567,0.00169703
5879.00487305,0.00177303
5880.93368042,0.00172722
5882.86248779,0.00178857
5884.79129517,0.00177698
5886.72010254,0.00170012
5888.64890991,0.00178330
5890.57771728,0.00164504
5892.50652466,0.00164504
5894.43533203,0.00172413
5896.36413940,0.00169111
5898.29294678,0.00167733
5900.22175415,0.00163334
5902.15056152,0.00164549
5904.07936890,0.00162959
5906.00817627,0.00168214
5907.93698364,0.00170610
5909.86579102,0.00165540
5911.79459839,0.00161717
5913.72340576,0.00160961
5915.65221313,0.00166713
5917.58102051,0.00159137
5919.50982788,0.00157162
5921.43863525,0.00156019
5923.36744263,0.00155781
5925.29625000,0.00169198
5927.22505737,0.00159785
5929.15386475,0.00149447
5931.08267212,0.00153756
5933.01147949,0.00154078
5934.94028686,0.00154153
5936.86909424,0.00159388
5938.79790161,0.00165310
5940.72670898,0.00159665
5942.65551636,0.00156243
5944.58432373,0.00155643
5946.51313110,0.00156763
5948.44193848,0.00156825
5950.37074585,0.00151706
5952.29955322,0.00153428
5954.22836060,0.00147023
5956.15716797,0.00148639
5958.08597534,0.00153166
5960.01478271,0.00146082
5961.94359009,0.00152983
5963.87239746,0.00152953
5965.80120483,0.00151350
5967.73001221,0.00154938
5969.65881958,0.00148500
5971.58762695,0.00146299
5973.51643433,0.00145051
5975.44524170,0.00146802
5977.37404907,0.00152348
5979.30285645,0.00154823
5981.23166382,0.00153795
5983.16047119,0.00146849
5985.08927856,0.00137620
5987.01808594,0.00141090
5988.94689331,0.00151287
5990.87570068,0.00147853
5992.80450806,0.00148499
5994.73331543,0.00144875
5996.66212280,0.00138537
5998.59093018,0.00146733
6000.51973755,0.00143639
