399.26312622,0.00001033
401.19193359,0.00015292
403.12074097,0.00026216
405.04954834,0.00005982
406.97835571,0.00008731
408.90716309,-0.00001832
410.83597046,0.00014724
412.76477783,0.00053596
414.69358521,0.00029111
416.62239258,0.00012051
418.55119995,-0.00014769
420.48000732,0.00008146
422.40881470,0.00035761
424.33762207,0.00016968
426.26642944,0.00010980
428.19523682,0.00026524
430.12404419,0.00036737
432.05285156,0.00030502
433.98165894,-0.00005604
435.91046631,-0.00037576
437.83927368,0.00003621
439.76808105,0.00008922
441.69688843,-0.00002907
443.62569580,0.00038912
445.55450317,0.00020371
447.48331055,0.00007629
449.41211792,0.00025618
451.34092529,0.00030670
453.26973267,0.00028924
455.19854004,0.00015995
457.12734741,0.00023473
459.05615479,0.00012840
460.98496216,0.00013539
462.91376953,0.00021196
464.84257690,0.00030988
466.77138428,0.00033793
468.70019165,-0.00023118
470.62899902,-0.00012725
472.55780640,0.00013262
474.48661377,-0.00001773
476.41542114,0.00000174
478.34422852,0.00019562
480.27303589,0.00044591
482.20184326,0.00019951
484.13065063,0.00018211
486.05945801,0.00023657
487.98826538,-0.00006528
489.91707275,-0.00001992
491.84588013,0.00031813
493.77468750,0.00030784
495.70349487,0.00009948
497.63230225,0.00008448
499.56110962,-0.00011049
501.48991699,0.00034697
503.41872437,0.00062661
505.34753174,0.00042036
507.27633911,0.00035529
509.20514648,0.00008466
511.13395386,0.00027143
513.06276123,0.00004384
514.99156860,0.00004642
516.92037598,0.00022647
518.84918335,-0.00004910
520.77799072,-0.00002496
522.70679810,-0.00019332
524.63560547,0.00014171
526.56441284,0.00029768
528.49322021,0.00023858
530.42202759,0.00024643
532.35083496,-0.00016149
534.27964233,0.00002036
536.20844971,0.00011386
538.13725708,0.00010653
540.06606445,0.00029750
541.99487183,0.00017372
543.92367920,-0.00000901
545.85248657,0.00013338
547.78129395,0.00029163
549.71010132,0.00003619
551.63890869,0.00007335
553.56771606,0.00018982
555.49652344,0.00016885
557.42533081,0.00011306
559.35413818,-0.00008532
561.28294556,-0.00002681
563.21175293,0.00015971
565.14056030,0.00030640
567.06936768,0.00017427
568.99817505,0.00012805
570.92698242,0.00021563
572.85578979,0.00013434
574.78459717,0.00027975
576.71340454,0.00005581
578.64221191,-0.00014091
580.57101929,0.00012688
582.49982666,-0.00005137
584.42863403,0.00014426
586.35744141,0.00039864
588.28624878,0.00011778
590.21505615,0.00016614
592.14386353,-0.00010064
594.07267090,0.00004867
596.00147827,0.00042218
597.93028564,0.00003344
599.85909302,0.00008169
601.78790039,-0.00002784
603.71670776,-0.00022733
605.64551514,0.00031646
607.57432251,0.00043068
609.50312988,-0.00001843
611.43193726,0.00014750
613.36074463,0.00028777
615.28955200,-0.00002528
617.21835938,0.00023744
619.14716675,0.00023952
621.07597412,0.00008294
623.00478149,0.00016858
624.93358887,0.00007069
626.86239624,0.00038136
628.79120361,0.00017226
630.72001099,-0.00002066
632.64881836,0.00015740
634.57762573,-0.00000949
636.50643311,0.00015166
638.43524048,-0.00017216
640.36404785,-0.00012173
642.29285522,0.00033004
644.22166260,0.00002118
646.15046997,0.00018100
648.07927734,0.00018248
650.00808472,-0.00010791
651.93689209,0.00019948
653.86569946,0.00026746
655.79450684,0.00006657
657.72331421,0.00018247
659.65212158,0.00016354
661.58092896,0.00021378
663.50973633,0.00017443
665.43854370,0.00022011
667.36735107,0.00015178
669.29615845,-0.00010498
671.22496582,0.00014532
673.15377319,0.00025957
675.08258057,0.00029627
677.01138794,0.00034232
678.94019531,0.00014652
680.86900269,0.00024118
682.79781006,0.00036390
684.72661743,0.00015430
686.65542480,0.00005197
688.58423218,-0.00001078
690.51303955,-0.00006266
692.44184692,0.00023675
694.37065430,0.00029487
696.29946167,0.00024571
698.22826904,0.00042619
700.15707642,0.00035274
702.08588379,0.00018336
704.01469116,0.00006228
705.94349854,0.00013908
707.87230591,0.00028551
709.80111328,0.00004519
711.72992065,0.00015408
713.65872803,0.00000876
715.58753540,-0.00010192
717.51634277,0.00020930
719.44515015,0.00026071
721.37395752,0.00036188
723.30276489,0.00007801
725.23157227,0.00018247
727.16037964,0.00025327
729.08918701,-0.00012101
731.01799438,0.00023247
732.94680176,0.00024587
734.87560913,0.00006825
736.80441650,0.00031157
738.73322388,0.00016859
740.66203125,-0.00001869
742.59083862,0.00015628
744.51964600,0.00007553
746.44845337,0.00003491
748.37726074,0.00035465
750.30606812,0.00017107
752.23487549,0.00000617
754.16368286,0.00017594
756.09249023,0.00010776
758.02129761,0.00007217
759.95010498,0.00015055
761.87891235,0.00010722
763.80771973,0.00009212
765.73652710,0.00019285
767.66533447,0.00012941
769.59414185,0.00027764
771.52294922,0.00021517
773.45175659,0.00006561
775.38056396,0.00023104
777.30937134,-0.00000360
779.23817871,0.00012497
781.16698608,0.00017383
783.09579346,-0.00009280
785.02460083,0.00007272
786.95340820,0.00012501
788.88221558,0.00028400
790.81102295,0.00002729
792.73983032,-0.00027668
794.66863770,-0.00000323
796.59744507,-0.00003953
798.52625244,0.00027530
800.45505981,0.00043604
802.38386719,0.00012039
804.31267456,0.00014129
806.24148193,0.00001120
808.17028931,0.00016632
810.09909668,0.00032069
812.02790405,0.00012395
813.95671143,0.00016946
815.88551880,0.00018423
817.81432617,0.00024138
819.74313354,0.00017129
821.67194092,0.00007554
823.60074829,0.00015800
825.52955566,0.00024371
827.45836304,0.00016638
829.38717041,0.00005223
831.31597778,0.00033958
833.24478516,0.00020696
835.17359253,-0.00002823
837.10239990,0.00010101
839.03120728,0.00005288
840.96001465,0.00024103
842.88882202,0.00030243
844.81762939,0.00024440
846.74643677,0.00020971
848.67524414,-0.00001741
850.60405151,0.00000794
852.53285889,0.00005836
854.46166626,0.00014553
856.39047363,0.00043764
858.31928101,0.00032719
860.24808838,-0.00011968
862.17689575,-0.00001224
864.10570313,0.00023435
866.03451050,0.00018236
867.96331787,0.00019878
869.89212524,0.00000490
871.82093262,0.00011030
873.74973999,0.00031682
875.67854736,0.00015126
877.60735474,0.00009228
879.53616211,-0.00001544
881.46496948,0.00018293
883.39377686,0.00023301
885.32258423,0.00006231
887.25139160,0.00037183
889.18019897,0.00036285
891.10900635,0.00008884
893.03781372,0.00015215
894.96662109,0.00032243
896.89542847,0.00014501
898.82423584,-0.00000895
900.75304321,0.00028627
902.68185059,0.00031993
904.61065796,0.00016247
906.53946533,0.00002035
908.46827271,0.00014997
910.39708008,0.00039912
912.32588745,0.00015287
914.25469482,0.00021549
916.18350220,0.00023264
918.11230957,0.00001115
920.04111694,0.00018267
921.96992432,0.00017276
923.89873169,0.00015091
925.82753906,0.00026357
927.75634644,0.00019313
929.68515381,0.00002446
931.61396118,0.00020278
933.54276855,0.00025076
935.47157593,-0.00015619
937.40038330,0.00013583
939.32919067,0.00037798
941.25799805,0.00024001
943.18680542,0.00028750
945.11561279,0.00003475
947.04442017,0.00013861
948.97322754,0.00027669
950.90203491,0.00015546
952.83084229,0.00025970
954.75964966,0.00036928
956.68845703,0.00053261
958.61726440,0.00038276
960.54607178,0.00017717
962.47487915,0.00029118
964.40368652,0.00047583
966.33249390,0.00032558
968.26130127,0.00006670
970.19010864,0.00018714
972.11891602,0.00007728
974.04772339,0.00010611
975.97653076,0.00028637
977.90533813,0.00027337
979.83414551,0.00036779
981.76295288,0.00014706
983.69176025,0.00010676
985.62056763,0.00036944
987.54937500,0.00032726
989.47818237,0.00035154
991.40698975,0.00051221
993.33579712,0.00042461
995.26460449,0.00038316
997.19341187,0.00043746
999.12221924,0.00041866
1001.05102661,0.00073179
1002.97983398,0.00078570
1004.90864136,0.00058095
1006.83744873,0.00074284
1008.76625610,0.00057457
1010.69506348,0.00056159
1012.62387085,0.00069394
1014.55267822,0.00038501
1016.48148560,0.00052615
1018.41029297,0.00078021
1020.33910034,0.00074893
1022.26790771,0.00096912
1024.19671509,0.00104889
1026.12552246,0.00075552
1028.05432983,0.00086457
1029.98313721,0.00104907
1031.91194458,0.00098852
1033.84075195,0.00118429
1035.76955933,0.00104885
1037.69836670,0.00103931
1039.62717407,0.00111387
1041.55598145,0.00087497
1043.48478882,0.00103177
1045.41359619,0.00082372
1047.34240356,0.00071451
1049.27121094,0.00103329
1051.20001831,0.00099732
1053.12882568,0.00094285
1055.05763306,0.00089251
1056.98644043,0.00092882
1058.91524780,0.00091222
1060.84405518,0.00095124
1062.77286255,0.00097677
1064.70166992,0.00070117
1066.63047729,0.00081323
1068.55928467,0.00101589
1070.48809204,0.00073232
1072.41689941,0.00064247
1074.34570679,0.00086202
1076.27451416,0.00070905
1078.20332153,0.00064175
1080.13212891,0.00072925
1082.06093628,0.00066153
1083.98974365,0.00085638
1085.91855103,0.00071745
1087.84735840,0.00044878
1089.77616577,0.00069600
1091.70497314,0.00069354
1093.63378052,0.00038913
1095.56258789,0.00047199
1097.49139526,0.00062753
1099.42020264,0.00050349
1101.34901001,0.00046322
1103.27781738,0.00049217
1105.20662476,0.00045777
1107.13543213,0.00035237
1109.06423950,0.00045321
1110.99304687,0.00056498
1112.92185425,0.00040819
1114.85066162,0.00043551
1116.77946899,0.00033066
1118.70827637,0.00027877
1120.63708374,0.00041498
1122.56589111,0.00052981
1124.49469849,0.00082728
1126.42350586,0.00064942
1128.35231323,0.00041342
1130.28112061,0.00045912
1132.20992798,0.00050681
1134.13873535,0.00067780
1136.06754272,0.00056929
1137.99635010,0.00042830
1139.92515747,0.00042089
1141.85396484,0.00060458
1143.78277222,0.00064094
1145.71157959,0.00046787
1147.64038696,0.00084839
1149.56919434,0.00086764
1151.49800171,0.00056432
1153.42680908,0.00073608
1155.35561646,0.00084539
1157.28442383,0.00090395
1159.21323120,0.00089015
1161.14203857,0.00087018
1163.07084595,0.00092770
1164.99965332,0.00089945
1166.92846069,0.00095512
1168.85726807,0.00101805
1170.78607544,0.00098830
1172.71488281,0.00097960
1174.64369019,0.00114291
1176.57249756,0.00111949
1178.50130493,0.00107546
1180.43011230,0.00125826
1182.35891968,0.00110717
1184.28772705,0.00128157
1186.21653442,0.00147972
1188.14534180,0.00127577
1190.07414917,0.00150805
1192.00295654,0.00147617
1193.93176392,0.00144644
1195.86057129,0.00158820
1197.78937866,0.00156616
1199.71818604,0.00185918
1201.64699341,0.00190081
1203.57580078,0.00198903
1205.50460815,0.00199253
1207.43341553,0.00189957
1209.36222290,0.00215132
1211.29103027,0.00214197
1213.21983765,0.00229626
1215.14864502,0.00225648
1217.07745239,0.00212876
1219.00625977,0.00228366
1220.93506714,0.00226246
1222.86387451,0.00250389
1224.79268188,0.00245374
1226.72148926,0.00232654
1228.65029663,0.00243398
1230.57910400,0.00230578
1232.50791138,0.00240050
1234.43671875,0.00250072
1236.36552612,0.00245380
1238.29433350,0.00239997
1240.22314087,0.00243436
1242.15194824,0.00246524
1244.08075562,0.00243364
1246.00956299,0.00251761
1247.93837036,0.00233574
1249.86717773,0.00224564
1251.79598511,0.00246869
1253.72479248,0.00245403
1255.65359985,0.00218435
1257.58240723,0.00218409
1259.51121460,0.00235337
1261.44002197,0.00218762
1263.36882935,0.00226489
1265.29763672,0.00231084
1267.22644409,0.00209906
1269.15525146,0.00213827
1271.08405884,0.00210734
1273.01286621,0.00220527
1274.94167358,0.00219601
1276.87048096,0.00208009
1278.79928833,0.00214768
1280.72809570,0.00207499
1282.65690308,0.00200342
1284.58571045,0.00180227
1286.51451782,0.00179429
1288.44332520,0.00185587
1290.37213257,0.00183405
1292.30093994,0.00197806
1294.22974731,0.00180348
1296.15855469,0.00192846
1298.08736206,0.00190501
1300.01616943,0.00168569
1301.94497681,0.00213335
1303.87378418,0.00194683
1305.80259155,0.00180193
1307.73139893,0.00214174
1309.66020630,0.00193962
1311.58901367,0.00203138
1313.51782104,0.00222959
1315.44662842,0.00208631
1317.37543579,0.00204017
1319.30424316,0.00215916
1321.23305054,0.00232949
1323.16185791,0.00235659
1325.09066528,0.00234147
1327.01947266,0.00240812
1328.94828003,0.00247143
1330.87708740,0.00248262
1332.80589478,0.00261747
1334.73470215,0.00262651
1336.66350952,0.00254137
1338.59231689,0.00261675
1340.52112427,0.00256227
1342.44993164,0.00268469
1344.37873901,0.00280346
1346.30754639,0.00279885
1348.23635376,0.00282883
1350.16516113,0.00275227
1352.09396851,0.00290205
1354.02277588,0.00275091
1355.95158325,0.00263312
1357.88039062,0.00290742
1359.80919800,0.00274645
1361.73800537,0.00260384
1363.66681274,0.00273846
1365.59562012,0.00286967
1367.52442749,0.00271102
1369.45323486,0.00259026
1371.38204224,0.00279019
1373.31084961,0.00268819
1375.23965698,0.00267728
1377.16846436,0.00267205
1379.09727173,0.00258698
1381.02607910,0.00273208
1382.95488647,0.00263096
1384.88369385,0.00258152
1386.81250122,0.00252735
1388.74130859,0.00243812
1390.67011597,0.00262459
1392.59892334,0.00255317
1394.52773071,0.00248461
1396.45653809,0.00264330
1398.38534546,0.00258336
1400.31415283,0.00263993
1402.24296021,0.00271409
1404.17176758,0.00264678
1406.10057495,0.00271079
1408.02938232,0.00263655
1409.95818970,0.00274024
1411.88699707,0.00277374
1413.81580444,0.00261664
1415.74461182,0.00273710
1417.67341919,0.00251036
1419.60222656,0.00234269
1421.53103394,0.00249627
1423.45984131,0.00249632
1425.38864868,0.00243974
1427.31745605,0.00252143
1429.24626343,0.00254009
1431.17507080,0.00225737
1433.10387817,0.00223547
1435.03268555,0.00200476
1436.96149292,0.00200869
1438.89030029,0.00233517
1440.81910767,0.00201478
1442.74791504,0.00211335
1444.67672241,0.00216962
1446.60552979,0.00202389
1448.53433716,0.00206268
1450.46314453,0.00195067
1452.39195190,0.00215473
1454.32075928,0.00204639
1456.24956665,0.00173668
1458.17837402,0.00177428
1460.10718140,0.00223854
1462.03598877,0.00254933
1463.96479614,0.00239576
1465.89360352,0.00260944
1467.82241089,0.00298773
1469.75121826,0.00314515
1471.68002563,0.00283958
1473.60883301,0.00293669
1475.53764038,0.00333291
1477.46644775,0.00343464
1479.39525513,0.00392417
1481.32406250,0.00395234
1483.25286987,0.00398121
1485.18167725,0.00423040
1487.11048462,0.00407855
1489.03929199,0.00407001
1490.96809937,0.00435577
1492.89690674,0.00493082
1494.82571411,0.00473766
1496.75452148,0.00433929
1498.68332886,0.00480912
1500.61213623,0.00513111
1502.54094360,0.00537475
1504.46975098,0.00493365
1506.39855835,0.00380446
1508.32736572,0.00445748
1510.25617310,0.00527463
1512.18498047,0.00515811
1514.11378784,0.00557446
1516.04259521,0.00506706
1517.97140259,0.00503018
1519.90020996,0.00498574
1521.82901733,0.00438891
1523.75782471,0.00533632
1525.68663208,0.00530779
1527.61543945,0.00519383
1529.54424683,0.00572645
1531.47305420,0.00557086
1533.40186157,0.00524604
1535.33066895,0.00546722
1537.25947632,0.00578576
1539.18828369,0.00420738
1541.11709106,0.00439920
1543.04589844,0.00533002
1544.97470581,0.00510561
1546.90351318,0.00594072
1548.83232056,0.00546271
1550.76112793,0.00560880
1552.68993530,0.00563478
1554.61874268,0.00530440
1556.54755005,0.00559696
1558.47635742,0.00390044
1560.40516479,0.00438589
1562.33397217,0.00598081
1564.26277954,0.00559157
1566.19158691,0.00584461
1568.12039429,0.00596255
1570.04920166,0.00534476
1571.97800903,0.00587755
1573.90681641,0.00610459
1575.83562378,0.00473469
1577.76443115,0.00544832
1579.69323853,0.00673001
1581.62204590,0.00612978
1583.55085327,0.00586281
1585.47966064,0.00594901
1587.40846802,0.00601909
1589.33727539,0.00591938
1591.26608276,0.00601746
1593.19489014,0.00600030
1595.12369751,0.00588583
1597.05250488,0.00608550
1598.98131226,0.00610756
1600.91011963,0.00610905
1602.83892700,0.00595836
1604.76773437,0.00603038
1606.69654175,0.00587675
1608.62534912,0.00595552
1610.55415649,0.00613362
1612.48296387,0.00613125
1614.41177124,0.00620136
1616.34057861,0.00522702
1618.26938599,0.00569232
1620.19819336,0.00651132
1622.12700073,0.00584497
1624.05580811,0.00595318
1625.98461548,0.00621021
1627.91342285,0.00620438
1629.84223022,0.00621487
1631.77103760,0.00679815
1633.69984497,0.00643484
1635.62865234,0.00532927
1637.55745972,0.00633208
1639.48626709,0.00696593
1641.41507446,0.00668840
1643.34388184,0.00711616
1645.27268921,0.00634565
1647.20149658,0.00552542
1649.13030396,0.00713121
1651.05911133,0.00671173
1652.98791870,0.00444787
1654.91672607,0.00604563
1656.84553345,0.00750467
1658.77434082,0.00709789
1660.70314819,0.00728183
1662.63195557,0.00683756
1664.56076294,0.00715145
1666.48957031,0.00766559
1668.41837769,0.00680579
1670.34718506,0.00668779
1672.27599243,0.00746543
1674.20479980,0.00699761
1676.13360718,0.00681018
1678.06241455,0.00747786
1679.99122192,0.00739579
1681.92002930,0.00730177
1683.84883667,0.00584120
1685.77764404,0.00595852
1687.70645142,0.00787610
1689.63525879,0.00687792
1691.56406616,0.00760219
1693.49287354,0.00774616
1695.42168091,0.00570660
1697.35048828,0.00692378
1699.27929565,0.00620038
1701.20810303,0.00550456
1703.13691040,0.00751672
1705.06571777,0.00705212
1706.99452515,0.00709731
1708.92333252,0.00762009
1710.85213989,0.00712416
1712.78094727,0.00737667
1714.70975464,0.00701089
1716.63856201,0.00611650
1718.56736938,0.00600396
1720.49617676,0.00720029
1722.42498413,0.00737485
1724.35379150,0.00683467
1726.28259888,0.00746993
1728.21140625,0.00692470
1730.14021362,0.00685499
1732.06902100,0.00661226
1733.99782837,0.00520045
1735.92663574,0.00637920
1737.85544312,0.00698062
1739.78425049,0.00622198
1741.71305786,0.00673579
1743.64186523,0.00682966
1745.57067261,0.00680606
1747.49947998,0.00694212
1749.42828735,0.00661284
1751.35709473,0.00629517
1753.28590210,0.00692508
1755.21470947,0.00717239
1757.14351685,0.00667259
1759.07232422,0.00729332
1761.00113159,0.00686597
1762.92993896,0.00667183
1764.85874634,0.00744803
1766.78755371,0.00679061
1768.71636108,0.00698524
1770.64516846,0.00689307
1772.57397583,0.00624955
1774.50278320,0.00685772
1776.43159058,0.00720748
1778.36039795,0.00713297
1780.28920532,0.00682799
1782.21801270,0.00694007
1784.14682007,0.00702136
1786.07562744,0.00699863
1788.00443481,0.00749741
1789.93324219,0.00707154
1791.86204956,0.00643256
1793.79085693,0.00676730
1795.71966431,0.00719043
1797.64847168,0.00708516
1799.57727905,0.00683943
1801.50608643,0.00685154
1803.43489380,0.00709481
1805.36370117,0.00718263
1807.29250854,0.00716578
1809.22131592,0.00712406
1811.15012329,0.00702760
1813.07893066,0.00725210
1815.00773804,0.00709201
1816.93654541,0.00719568
1818.86535278,0.00723767
1820.79416016,0.00700949
1822.72296753,0.00733355
1824.65177490,0.00680036
1826.58058228,0.00704739
1828.50938965,0.00711146
1830.43819702,0.00655605
1832.36700439,0.00732830
1834.29581177,0.00722865
1836.22461914,0.00720310
1838.15342651,0.00713923
1840.08223389,0.00716186
1842.01104126,0.00727755
1843.93984863,0.00635302
1845.86865601,0.00691930
1847.79746338,0.00715075
1849.72627075,0.00697201
1851.65507812,0.00727095
1853.58388550,0.00694142
1855.51269287,0.00728831
1857.44150024,0.00711137
1859.37030762,0.00689010
1861.29911499,0.00709800
1863.22792236,0.00696601
1865.15672974,0.00717578
1867.08553711,0.00703887
1869.01434448,0.00671104
1870.94315186,0.00687181
1872.87195923,0.00715531
1874.80076660,0.00717095
1876.72957397,0.00714585
1878.65838135,0.00699109
1880.58718872,0.00697040
1882.51599609,0.00714740
1884.44480347,0.00712155
1886.37361084,0.00724880
1888.30241821,0.00693092
1890.23122559,0.00677465
1892.16003296,0.00706440
1894.08884033,0.00698686
1896.01764771,0.00704506
1897.94645508,0.00701887
1899.87526245,0.00700592
1901.80406982,0.00701704
1903.73287720,0.00698312
1905.66168457,0.00701947
1907.59049194,0.00686023
1909.51929932,0.00696667
1911.44810669,0.00703058
1913.37691406,0.00703342
1915.30572144,0.00704142
1917.23452881,0.00667458
1919.16333618,0.00676385
1921.09214355,0.00702447
1923.02095093,0.00681258
1924.94975830,0.00677418
1926.87856567,0.00685259
1928.80737305,0.00689701
1930.73618042,0.00691299
1932.66498779,0.00684233
1934.59379517,0.00702950
1936.52260254,0.00699538
1938.45140991,0.00683527
1940.38021729,0.00704261
1942.30902466,0.00688343
1944.23783203,0.00674755
1946.16663940,0.00693403
1948.09544678,0.00678489
1950.02425415,0.00683188
1951.95306152,0.00696692
1953.88186890,0.00690889
1955.81067627,0.00698739
1957.73948364,0.00679460
1959.66829102,0.00679695
1961.59709839,0.00698170
1963.52590576,0.00682089
1965.45471313,0.00683898
1967.38352051,0.00684172
1969.31232788,0.00685997
1971.24113525,0.00691396
1973.16994263,0.00692834
1975.09875000,0.00702079
1977.02755737,0.00685411
1978.95636475,0.00690458
1980.88517212,0.00703157
1982.81397949,0.00695987
1984.74278687,0.00690397
1986.67159424,0.00683872
1988.60040161,0.00694931
1990.52920898,0.00686539
1992.45801636,0.00684587
1994.38682373,0.00702184
1996.31563110,0.00690026
1998.24443848,0.00678592
2000.17324585,0.00681499
2002.10205322,0.00683461
2004.03086060,0.00684569
2005.95966797,0.00687496
2007.88847534,0.00683065
2009.81728271,0.00687193
2011.74609009,0.00690900
2013.67489746,0.00675099
2015.60370483,0.00671609
2017.53251221,0.00664712
2019.46131958,0.00660831
2021.39012695,0.00676508
2023.31893433,0.00688932
2025.24774170,0.00693888
2027.17654907,0.00681921
2029.10535645,0.00670005
2031.03416382,0.00667393
2032.96297119,0.00663280
2034.89177856,0.00670051
2036.82058594,0.00676834
2038.74939331,0.00666264
2040.67820068,0.00663607
2042.60700806,0.00674012
2044.53581543,0.00665448
2046.46462280,0.00661575
2048.39343018,0.00675213
2050.32223755,0.00668931
2052.25104492,0.00666398
2054.17985229,0.00670750
2056.10865967,0.00666110
2058.03746704,0.00669777
2059.96627441,0.00655942
2061.89508179,0.00655797
2063.82388916,0.00668993
2065.75269653,0.00663704
2067.68150391,0.00672560
2069.61031128,0.00656983
2071.53911865,0.00650273
2073.46792603,0.00660029
2075.39673340,0.00645820
2077.32554077,0.00660674
2079.25434814,0.00657468
2081.18315552,0.00639723
2083.11196289,0.00645818
2085.04077026,0.00650908
2086.96957764,0.00663023
2088.89838501,0.00654735
2090.82719238,0.00639185
2092.75599976,0.00639223
2094.68480713,0.00643754
2096.61361450,0.00648918
2098.54242187,0.00651216
2100.47122925,0.00653805
2102.40003662,0.00645116
2104.32884399,0.00636517
2106.25765137,0.00645806
2108.18645874,0.00655014
2110.11526611,0.00649407
2112.04407349,0.00654205
2113.97288086,0.00656467
2115.90168823,0.00641059
2117.83049561,0.00643389
2119.75930298,0.00648403
2121.68811035,0.00649288
2123.61691772,0.00640685
2125.54572510,0.00631651
2127.47453247,0.00648785
2129.40333984,0.00652892
2131.33214722,0.00647856
2133.26095459,0.00639972
2135.18976196,0.00635019
2137.11856934,0.00649064
2139.04737671,0.00640147
2140.97618408,0.00634266
2142.90499146,0.00643985
2144.83379883,0.00640179
2146.76260620,0.00648356
2148.69141357,0.00649499
2150.62022095,0.00641612
2152.54902832,0.00647342
2154.47783569,0.00645762
2156.40664307,0.00648010
2158.33545044,0.00640123
2160.26425781,0.00624130
2162.19306519,0.00639561
2164.12187256,0.00634876
2166.05067993,0.00621736
2167.97948730,0.00638380
2169.90829468,0.00629518
2171.83710205,0.00632300
2173.76590942,0.00650804
2175.69471680,0.00642191
2177.62352417,0.00649019
2179.55233154,0.00647589
2181.48113892,0.00633497
2183.40994629,0.00630821
2185.33875366,0.00634999
2187.26756104,0.00651489
2189.19636841,0.00641835
2191.12517578,0.00633593
2193.05398315,0.00642915
2194.98279053,0.00634670
2196.91159790,0.00628997
2198.84040527,0.00632905
2200.76921265,0.00641486
2202.69802002,0.00639459
2204.62682739,0.00637738
2206.55563477,0.00636415
2208.48444214,0.00626390
2210.41324951,0.00631810
2212.34205688,0.00636278
2214.27086426,0.00633402
2216.19967163,0.00623871
2218.12847900,0.00629161
2220.05728638,0.00637206
2221.98609375,0.00622829
2223.91490112,0.00625573
2225.84370850,0.00624553
2227.77251587,0.00631914
2229.70132324,0.00639797
2231.63013062,0.00622917
2233.55893799,0.00629609
2235.48774536,0.00627126
2237.41655273,0.00619676
2239.34536011,0.00624988
2241.27416748,0.00625076
2243.20297485,0.00633172
2245.13178223,0.00625361
2247.06058960,0.00616135
2248.98939697,0.00621588
2250.91820435,0.00629648
2252.84701172,0.00628558
2254.77581909,0.00616908
2256.70462646,0.00613946
2258.63343384,0.00609390
2260.56224121,0.00618667
2262.49104858,0.00620407
2264.41985596,0.00615344
2266.34866333,0.00625268
2268.27747070,0.00604407
2270.20627808,0.00619223
2272.13508545,0.00641233
2274.06389282,0.00610701
2275.99270020,0.00611526
2277.92150757,0.00615145
2279.85031494,0.00622239
2281.77912231,0.00627448
2283.70792969,0.00618085
2285.63673706,0.00627134
2287.56554443,0.00608697
2289.49435181,0.00607132
2291.42315918,0.00614348
2293.35196655,0.00604355
2295.28077393,0.00617247
2297.20958130,0.00612240
2299.13838867,0.00602561
2301.06719604,0.00607348
2302.99600342,0.00605395
2304.92481079,0.00593968
2306.85361816,0.00597430
2308.78242554,0.00591001
2310.71123291,0.00573270
2312.64004028,0.00588464
2314.56884766,0.00576277
2316.49765503,0.00573283
2318.42646240,0.00570335
2320.35526978,0.00535286
2322.28407715,0.00553313
2324.21288452,0.00550001
2326.14169189,0.00528253
2328.07049927,0.00534850
2329.99930664,0.00528294
2331.92811401,0.00527683
2333.85692139,0.00516482
2335.78572876,0.00511694
2337.71453613,0.00527651
2339.64334351,0.00517882
2341.57215088,0.00507830
2343.50095825,0.00537544
2345.42976562,0.00550801
2347.35857300,0.00553971
2349.28738037,0.00578525
2351.21618774,0.00557114
2353.14499512,0.00529313
2355.07380249,0.00521024
2357.00260986,0.00503538
2358.93141724,0.00494637
2360.86022461,0.00485064
2362.78903198,0.00494421
2364.71783936,0.00497043
2366.64664673,0.00492223
2368.57545410,0.00509546
2370.50426147,0.00520790
2372.43306885,0.00531153
2374.36187622,0.00540749
2376.29068359,0.00558327
2378.21949097,0.00578460
2380.14829834,0.00585526
2382.07710571,0.00585218
2384.00591309,0.00586221
2385.93472046,0.00600008
2387.86352783,0.00595179
2389.79233521,0.00590099
2391.72114258,0.00598582
2393.64994995,0.00591697
2395.57875732,0.00585603
2397.50756470,0.00584698
2399.43637207,0.00590392
2401.36517944,0.00587745
2403.29398682,0.00581659
2405.22279419,0.00590648
2407.15160156,0.00589958
2409.08040894,0.00583791
2411.00921631,0.00585614
2412.93802368,0.00585695
2414.86683105,0.00578021
2416.79563843,0.00591741
2418.72444580,0.00599164
2420.65325317,0.00571737
2422.58206055,0.00580403
2424.51086792,0.00591605
2426.43967529,0.00584518
2428.36848267,0.00590815
2430.29729004,0.00570632
2432.22609741,0.00569967
2434.15490479,0.00589492
2436.08371216,0.00579121
2438.01251953,0.00571304
2439.94132690,0.00575617
2441.87013428,0.00579499
2443.79894165,0.00574864
2445.72774902,0.00574638
2447.65655640,0.00574650
2449.58536377,0.00571414
2451.51417114,0.00574398
2453.44297852,0.00565148
2455.37178589,0.00570533
2457.30059326,0.00576160
2459.22940063,0.00562102
2461.15820801,0.00566228
2463.08701538,0.00568024
2465.01582275,0.00569950
2466.94463013,0.00571694
2468.87343750,0.00564513
2470.80224487,0.00581725
2472.73105225,0.00580226
2474.65985962,0.00555943
2476.58866699,0.00562912
2478.51747437,0.00564851
2480.44628174,0.00555684
2482.37508911,0.00568264
2484.30389648,0.00578024
2486.23270386,0.00568035
2488.16151123,0.00554454
2490.09031860,0.00561792
2492.01912598,0.00568210
2493.94793335,0.00558486
2495.87674072,0.00565612
2497.80554810,0.00568027
2499.73435547,0.00561283
2501.66316284,0.00558281
2503.59197021,0.00553113
2505.52077759,0.00562324
2507.44958496,0.00564328
2509.37839233,0.00556392
2511.30719971,0.00554758
2513.23600708,0.00560786
2515.16481445,0.00562947
2517.09362183,0.00554585
2519.02242920,0.00560443
2520.95123657,0.00562087
2522.88004395,0.00557046
2524.80885132,0.00553228
2526.73765869,0.00554714
2528.66646606,0.00561499
2530.59527344,0.00550370
2532.52408081,0.00551116
2534.45288818,0.00548684
2536.38169556,0.00540580
2538.31050293,0.00552150
2540.23931030,0.00555454
2542.16811768,0.00553607
2544.09692505,0.00547803
2546.02573242,0.00543398
2547.95453979,0.00543138
2549.88334717,0.00546880
2551.81215454,0.00550103
2553.74096191,0.00548746
2555.66976929,0.00556668
2557.59857666,0.00554871
2559.52738403,0.00548211
2561.45619141,0.00550042
2563.38499878,0.00552532
2565.31380615,0.00539663
2567.24261353,0.00532516
2569.17142090,0.00540819
2571.10022827,0.00535147
2573.02903564,0.00544575
2574.95784302,0.00548751
2576.88665039,0.00541048
2578.81545776,0.00542518
2580.74426514,0.00536784
2582.67307251,0.00537629
2584.60187988,0.00539482
2586.53068726,0.00543255
2588.45949463,0.00541326
2590.38830200,0.00541638
2592.31710937,0.00540479
2594.24591675,0.00530906
2596.17472412,0.00533604
2598.10353149,0.00535973
2600.03233887,0.00543651
2601.96114624,0.00533795
2603.88995361,0.00531517
2605.81876099,0.00538369
2607.74756836,0.00527637
2609.67637573,0.00534878
2611.60518311,0.00531170
2613.53399048,0.00540881
2615.46279785,0.00543287
2617.39160522,0.00524100
2619.32041260,0.00532078
2621.24921997,0.00522618
2623.17802734,0.00520446
2625.10683472,0.00530122
2627.03564209,0.00529182
2628.96444946,0.00532668
2630.89325684,0.00524509
2632.82206421,0.00527401
2634.75087158,0.00537487
2636.67967895,0.00528130
2638.60848633,0.00528069
2640.53729370,0.00530354
2642.46610107,0.00516894
2644.39490845,0.00524081
2646.32371582,0.00528110
2648.25252319,0.00523179
2650.18133057,0.00523651
2652.11013794,0.00521321
2654.03894531,0.00528400
2655.96775269,0.00512630
2657.89656006,0.00517044
2659.82536743,0.00535171
2661.75417480,0.00517381
2663.68298218,0.00509664
2665.61178955,0.00511600
2667.54059692,0.00518827
2669.46940430,0.00513061
2671.39821167,0.00510976
2673.32701904,0.00519998
2675.25582642,0.00511348
2677.18463379,0.00512362
2679.11344116,0.00510511
2681.04224854,0.00509174
2682.97105591,0.00516573
2684.89986328,0.00521121
2686.82867065,0.00515847
2688.75747803,0.00507790
2690.68628540,0.00511543
2692.61509277,0.00506582
2694.54390015,0.00506395
2696.47270752,0.00512098
2698.40151489,0.00508463
2700.33032227,0.00500681
2702.25912964,0.00502744
2704.18793701,0.00512052
2706.11674438,0.00510082
2708.04555176,0.00508045
2709.97435913,0.00504416
2711.90316650,0.00501176
2713.83197388,0.00494539
2715.76078125,0.00494191
2717.68958862,0.00501009
2719.61839600,0.00497840
2721.54720337,0.00505141
2723.47601074,0.00504570
2725.40481812,0.00491744
2727.33362549,0.00492775
2729.26243286,0.00497945
2731.19124023,0.00488532
2733.12004761,0.00493786
2735.04885498,0.00510485
2736.97766235,0.00498131
2738.90646973,0.00490974
2740.83527710,0.00491079
2742.76408447,0.00498801
2744.69289185,0.00496708
2746.62169922,0.00483572
2748.55050659,0.00496933
2750.47931396,0.00488707
2752.40812134,0.00490014
2754.33692871,0.00493895
2756.26573608,0.00475543
2758.19454346,0.00485746
2760.12335083,0.00485464
2762.05215820,0.00482523
2763.98096558,0.00487361
2765.90977295,0.00484147
2767.83858032,0.00477795
2769.76738770,0.00475000
2771.69619507,0.00488143
2773.62500244,0.00476697
2775.55380981,0.00473864
2777.48261719,0.00491085
2779.41142456,0.00485342
2781.34023193,0.00483152
2783.26903931,0.00471335
2785.19784668,0.00467791
2787.12665405,0.00477921
2789.05546143,0.00469814
2790.98426880,0.00479211
2792.91307617,0.00483512
2794.84188354,0.00473019
2796.77069092,0.00473128
2798.69949829,0.00471256
2800.62830566,0.00478020
2802.55711304,0.00479214
2804.48592041,0.00475797
2806.41472778,0.00480719
2808.34353516,0.00476831
2810.27234253,0.00465341
2812.20114990,0.00460493
2814.12995728,0.00458610
2816.05876465,0.00450054
2817.98757202,0.00458658
2819.91637939,0.00463588
2821.84518677,0.00452852
2823.77399414,0.00448563
2825.70280151,0.00448214
2827.63160889,0.00461607
2829.56041626,0.00460907
2831.48922363,0.00458670
2833.41803101,0.00463335
2835.34683838,0.00451045
2837.27564575,0.00455215
2839.20445312,0.00466059
2841.13326050,0.00456019
2843.06206787,0.00443318
2844.99087524,0.00450147
2846.91968262,0.00447128
2848.84848999,0.00443936
2850.77729736,0.00448345
2852.70610474,0.00434473
2854.63491211,0.00452123
2856.56371948,0.00459798
2858.49252686,0.00440007
2860.42133423,0.00445163
2862.35014160,0.00448012
2864.27894897,0.00442603
2866.20775635,0.00432813
2868.13656372,0.00437261
2870.06537109,0.00442921
2871.99417847,0.00434833
2873.92298584,0.00438217
2875.85179321,0.00440864
2877.78060059,0.00437859
2879.70940796,0.00434122
2881.63821533,0.00439182
2883.56702270,0.00439744
2885.49583008,0.00428718
2887.42463745,0.00429570
2889.35344482,0.00428895
2891.28225220,0.00423169
2893.21105957,0.00432369
2895.13986694,0.00435767
2897.06867432,0.00432285
2898.99748169,0.00437507
2900.92628906,0.00420514
2902.85509644,0.00417210
2904.78390381,0.00429433
2906.71271118,0.00419717
2908.64151855,0.00420442
2910.57032593,0.00414162
2912.49913330,0.00413920
2914.42794067,0.00418836
2916.35674805,0.00419432
2918.28555542,0.00423384
2920.21436279,0.00407482
2922.14317017,0.00420655
2924.07197754,0.00424834
2926.00078491,0.00409897
2927.92959229,0.00423220
2929.85839966,0.00415686
2931.78720703,0.00410204
2933.71601440,0.00412909
2935.64482178,0.00407504
2937.57362915,0.00406587
2939.50243652,0.00406831
2941.43124390,0.00409357
2943.36005127,0.00403078
2945.28885864,0.00409149
2947.21766602,0.00411923
2949.14647339,0.00406178
2951.07528076,0.00407356
2953.00408813,0.00398305
2954.93289551,0.00403361
2956.86170288,0.00402348
2958.79051025,0.00391907
2960.71931763,0.00393398
2962.64812500,0.00389883
2964.57693237,0.00402353
2966.50573975,0.00414173
2968.43454712,0.00402947
2970.36335449,0.00398586
2972.29216187,0.00409364
2974.22096924,0.00401406
2976.14977661,0.00391717
2978.07858398,0.00403359
2980.00739136,0.00397525
2981.93619873,0.00407134
2983.86500610,0.00413948
2985.79381348,0.00392967
2987.72262085,0.00400313
2989.65142822,0.00407764
2991.58023560,0.00407028
2993.50904297,0.00405513
2995.43785034,0.00398487
2997.36665771,0.00393065
2999.29546509,0.00395898
3001.22427246,0.00402932
3003.15307983,0.00393089
3005.08188721,0.00396681
3007.01069458,0.00396510
3008.93950195,0.00398007
3010.86830933,0.00399503
3012.79711670,0.00378017
3014.72592407,0.00384354
3016.65473145,0.00392150
3018.58353882,0.00395799
3020.51234619,0.00393055
3022.44115356,0.00394056
3024.36996094,0.00404587
3026.29876831,0.00383634
3028.22757568,0.00392279
3030.15638306,0.00395820
3032.08519043,0.00377688
3034.01399780,0.00386444
3035.94280518,0.00383498
3037.87161255,0.00381079
3039.80041992,0.00384002
3041.72922729,0.00385055
3043.65803467,0.00382033
3045.58684204,0.00370455
3047.51564941,0.00373618
3049.44445679,0.00392983
3051.37326416,0.00388612
3053.30207153,0.00371628
3055.23087891,0.00378754
3057.15968628,0.00379813
3059.08849365,0.00379864
3061.01730103,0.00374184
3062.94610840,0.00367682
3064.87491577,0.00378680
3066.80372314,0.00379901
3068.73253052,0.00370272
3070.66133789,0.00365356
3072.59014526,0.00380658
3074.51895264,0.00376688
3076.44776001,0.00369817
3078.37656738,0.00377121
3080.30537476,0.00377594
3082.23418213,0.00383568
3084.16298950,0.00364079
3086.09179687,0.00367470
3088.02060425,0.00378058
3089.94941162,0.00368728
3091.87821899,0.00377115
3093.80702637,0.00369078
3095.73583374,0.00365594
3097.66464111,0.00365664
3099.59344849,0.00365925
3101.52225586,0.00365197
3103.45106323,0.00366584
3105.37987061,0.00369809
3107.30867798,0.00356084
3109.23748535,0.00370291
3111.16629272,0.00376683
3113.09510010,0.00367975
3115.02390747,0.00362385
3116.95271484,0.00358347
3118.88152222,0.00371342
3120.81032959,0.00367873
3122.73913696,0.00365885
3124.66794434,0.00368958
3126.59675171,0.00369981
3128.52555908,0.00361813
3130.45436645,0.00356330
3132.38317383,0.00360998
3134.31198120,0.00356994
3136.24078857,0.00365312
3138.16959595,0.00358260
3140.09840332,0.00361002
3142.02721069,0.00363282
3143.95601807,0.00356613
3145.88482544,0.00364932
3147.81363281,0.00347198
3149.74244019,0.00356253
3151.67124756,0.00355876
3153.60005493,0.00343809
3155.52886230,0.00356842
3157.45766968,0.00349253
3159.38647705,0.00359658
3161.31528442,0.00355977
3163.24409180,0.00352298
3165.17289917,0.00362598
3167.10170654,0.00353846
3169.03051392,0.00361550
3170.95932129,0.00353876
3172.88812866,0.00349860
3174.81693604,0.00361530
3176.74574341,0.00353226
3178.67455078,0.00350336
3180.60335815,0.00349520
3182.53216553,0.00342457
3184.46097290,0.00355514
3186.38978027,0.00366807
3188.31858765,0.00351467
3190.24739502,0.00353001
3192.17620239,0.00359234
3194.10500977,0.00361992
3196.03381714,0.00365528
3197.96262451,0.00345253
3199.89143188,0.00349180
3201.82023926,0.00362932
3203.74904663,0.00362636
3205.67785400,0.00361113
3207.60666138,0.00353057
3209.53546875,0.00364852
3211.46427612,0.00364077
3213.39308350,0.00360709
3215.32189087,0.00372984
3217.25069824,0.00360924
3219.17950562,0.00358215
3221.10831299,0.00367531
3223.03712036,0.00367444
3224.96592773,0.00364744
3226.89473511,0.00361721
3228.82354248,0.00362781
3230.75234985,0.00362369
3232.68115723,0.00366785
3234.60996460,0.00366258
3236.53877197,0.00365045
3238.46757935,0.00368683
3240.39638672,0.00368675
3242.32519409,0.00372521
3244.25400146,0.00370910
3246.18280884,0.00371948
3248.11161621,0.00367505
3250.04042358,0.00365040
3251.96923096,0.00375563
3253.89803833,0.00377972
3255.82684570,0.00385547
3257.75565308,0.00377886
3259.68446045,0.00377487
3261.61326782,0.00392671
3263.54207520,0.00377750
3265.47088257,0.00370486
3267.39968994,0.00373086
3269.32849731,0.00377285
3271.25730469,0.00377300
3273.18611206,0.00374367
3275.11491943,0.00389764
3277.04372681,0.00383083
3278.97253418,0.00380270
3280.90134155,0.00387884
3282.83014893,0.00379842
3284.75895630,0.00382154
3286.68776367,0.00378783
3288.61657104,0.00387797
3290.54537842,0.00395904
3292.47418579,0.00383007
3294.40299316,0.00391311
3296.33180054,0.00393410
3298.26060791,0.00387457
3300.18941528,0.00391145
3302.11822266,0.00392400
3304.04703003,0.00391963
3305.97583740,0.00377891
3307.90464478,0.00385253
3309.83345215,0.00401150
3311.76225952,0.00384297
3313.69106689,0.00380518
3315.61987427,0.00391284
3317.54868164,0.00392051
3319.47748901,0.00393751
3321.40629639,0.00400698
3323.33510376,0.00398239
3325.26391113,0.00393669
3327.19271851,0.00405599
3329.12152588,0.00403856
3331.05033325,0.00400067
3332.97914062,0.00405186
3334.90794800,0.00399697
3336.83675537,0.00406122
3338.76556274,0.00409476
3340.69437012,0.00398345
3342.62317749,0.00397766
3344.55198486,0.00408368
3346.48079224,0.00411778
3348.40959961,0.00401019
3350.33840698,0.00399134
3352.26721436,0.00407150
3354.19602173,0.00410496
3356.12482910,0.00416057
3358.05363647,0.00416715
3359.98244385,0.00415553
3361.91125122,0.00420316
3363.84005859,0.00413911
3365.76886597,0.00413921
3367.69767334,0.00417528
3369.62648071,0.00414479
3371.55528809,0.00425821
3373.48409546,0.00426235
3375.41290283,0.00425144
3377.34171020,0.00427143
3379.27051758,0.00418815
3381.19932495,0.00421919
3383.12813232,0.00420739
3385.05693970,0.00420385
3386.98574707,0.00420883
3388.91455444,0.00422132
3390.84336182,0.00432892
3392.77216919,0.00429977
3394.70097656,0.00428913
3396.62978394,0.00432225
3398.55859131,0.00428972
3400.48739868,0.00428213
3402.41620605,0.00428373
3404.34501343,0.00430706
3406.27382080,0.00434486
3408.20262817,0.00439035
3410.13143555,0.00445065
3412.06024292,0.00444211
3413.98905029,0.00440802
3415.91785767,0.00447674
3417.84666504,0.00445617
3419.77547241,0.00436832
3421.70427979,0.00443148
3423.63308716,0.00448083
3425.56189453,0.00440756
3427.49070190,0.00438649
3429.41950928,0.00444934
3431.34831665,0.00445830
3433.27712402,0.00442682
3435.20593140,0.00434210
3437.13473877,0.00442732
3439.06354614,0.00452230
3440.99235352,0.00442804
3442.92116089,0.00454522
3444.84996826,0.00449056
3446.77877563,0.00438663
3448.70758301,0.00453292
3450.63639038,0.00449157
3452.56519775,0.00451533
3454.49400513,0.00461018
3456.42281250,0.00454440
3458.35161987,0.00454124
3460.28042725,0.00463762
3462.20923462,0.00457719
3464.13804199,0.00451468
3466.06684937,0.00455349
3467.99565674,0.00455544
3469.92446411,0.00461872
3471.85327148,0.00456443
3473.78207886,0.00456371
3475.71088623,0.00462092
3477.63969360,0.00454200
3479.56850098,0.00452238
3481.49730835,0.00456695
3483.42611572,0.00457416
3485.35492310,0.00450198
3487.28373047,0.00455139
3489.21253784,0.00453703
3491.14134521,0.00460071
3493.07015259,0.00468732
3494.99895996,0.00451943
3496.92776733,0.00455658
3498.85657471,0.00457486
3500.78538208,0.00460822
3502.71418945,0.00457578
3504.64299683,0.00452088
3506.57180420,0.00466986
3508.50061157,0.00459691
3510.42941895,0.00458064
3512.35822632,0.00455634
3514.28703369,0.00463842
3516.21584106,0.00468865
3518.14464844,0.00451701
3520.07345581,0.00462991
3522.00226318,0.00459935
3523.93107056,0.00454362
3525.85987793,0.00461348
3527.78868530,0.00451499
3529.71749268,0.00449643
3531.64630005,0.00468291
3533.57510742,0.00471346
3535.50391479,0.00454996
3537.43272217,0.00461126
3539.36152954,0.00460369
3541.29033691,0.00459562
3543.21914429,0.00465157
3545.14795166,0.00451549
3547.07675903,0.00443401
3549.00556641,0.00450945
3550.93437378,0.00458739
3552.86318115,0.00453952
3554.79198853,0.00460824
3556.72079590,0.00463032
3558.64960327,0.00458260
3560.57841064,0.00454719
3562.50721802,0.00453950
3564.43602539,0.00459617
3566.36483276,0.00421670
3568.29364014,0.00415543
3570.22244751,0.00452027
3572.15125488,0.00452258
3574.08006226,0.00457210
3576.00886963,0.00460001
3577.93767700,0.00457823
3579.86648437,0.00459100
3581.79529175,0.00445258
3583.72409912,0.00455649
3585.65290649,0.00453968
3587.58171387,0.00407905
3589.51052124,0.00419248
3591.43932861,0.00456305
3593.36813599,0.00445618
3595.29694336,0.00438750
3597.22575073,0.00444809
3599.15455811,0.00451152
3601.08336548,0.00449616
3603.01217285,0.00455310
3604.94098022,0.00456050
3606.86978760,0.00435704
3608.79859497,0.00414066
3610.72740234,0.00417812
3612.65620972,0.00427719
3614.58501709,0.00416027
3616.51382446,0.00446325
3618.44263184,0.00420697
3620.37143921,0.00402503
3622.30024658,0.00452212
3624.22905395,0.00436447
3626.15786133,0.00453851
3628.08666870,0.00389505
3630.01547607,0.00349865
3631.94428345,0.00443492
3633.87309082,0.00436567
3635.80189819,0.00443952
3637.73070557,0.00450353
3639.65951294,0.00442282
3641.58832031,0.00451852
3643.51712769,0.00442459
3645.44593506,0.00448418
3647.37474243,0.00407214
3649.30354980,0.00375961
3651.23235718,0.00378927
3653.16116455,0.00443686
3655.08997192,0.00443148
3657.01877930,0.00398736
3658.94758667,0.00456913
3660.87639404,0.00445562
3662.80520142,0.00455797
3664.73400879,0.00457982
3666.66281616,0.00443363
3668.59162354,0.00434053
3670.52043091,0.00359663
3672.44923828,0.00429928
3674.37804565,0.00407862
3676.30685303,0.00336420
3678.23566040,0.00428172
3680.16446777,0.00435771
3682.09327515,0.00433476
3684.02208252,0.00449421
3685.95088989,0.00434900
3687.87969727,0.00391851
3689.80850464,0.00373031
3691.73731201,0.00425787
3693.66611938,0.00424072
3695.59492676,0.00429200
3697.52373413,0.00435548
3699.45254150,0.00423835
3701.38134888,0.00409894
3703.31015625,0.00401472
3705.23896362,0.00438304
3707.16777100,0.00413623
3709.09657837,0.00403114
3711.02538574,0.00381237
3712.95419312,0.00354004
3714.88300049,0.00414179
3716.81180786,0.00405438
3718.74061523,0.00397047
3720.66942261,0.00394534
3722.59822998,0.00386627
3724.52703735,0.00398965
3726.45584473,0.00365667
3728.38465210,0.00396429
3730.31345947,0.00397587
3732.24226685,0.00359919
3734.17107422,0.00351886
3736.09988159,0.00331105
3738.02868896,0.00353540
3739.95749634,0.00382302
3741.88630371,0.00387947
3743.81511108,0.00304056
3745.74391846,0.00278820
3747.67272583,0.00368345
3749.60153320,0.00316564
3751.53034058,0.00284444
3753.45914795,0.00344966
3755.38795532,0.00362438
3757.31676270,0.00371476
3759.24557007,0.00343726
3761.17437744,0.00348332
3763.10318481,0.00379537
3765.03199219,0.00353587
3766.96079956,0.00354993
3768.88960693,0.00355633
3770.81841431,0.00344679
3772.74722168,0.00369848
3774.67602905,0.00365032
3776.60483643,0.00358418
3778.53364380,0.00347147
3780.46245117,0.00337124
3782.39125854,0.00354935
3784.32006592,0.00343055
3786.24887329,0.00349496
3788.17768066,0.00359182
3790.10648804,0.00344136
3792.03529541,0.00349118
3793.96410278,0.00357782
3795.89291016,0.00326764
3797.82171753,0.00328163
3799.75052490,0.00341117
3801.67933228,0.00273309
3803.60813965,0.00324367
3805.53694702,0.00345171
3807.46575439,0.00276845
3809.39456177,0.00333432
3811.32336914,0.00334000
3813.25217651,0.00342663
3815.18098389,0.00308333
3817.10979126,0.00265983
3819.03859863,0.00337226
3820.96740601,0.00282858
3822.89621338,0.00288988
3824.82502075,0.00334108
3826.75382812,0.00302912
3828.68263550,0.00324812
3830.61144287,0.00309116
3832.54025024,0.00306210
3834.46905762,0.00318508
3836.39786499,0.00288609
3838.32667236,0.00266999
3840.25547974,0.00291326
3842.18428711,0.00308123
3844.11309448,0.00294494
3846.04190186,0.00313250
3847.97070923,0.00314847
3849.89951660,0.00312727
3851.82832397,0.00282059
3853.75713135,0.00217724
3855.68593872,0.00249623
3857.61474609,0.00312327
3859.54355347,0.00301996
3861.47236084,0.00288467
3863.40116821,0.00288969
3865.32997559,0.00282716
3867.25878296,0.00299320
3869.18759033,0.00266067
3871.11639770,0.00257275
3873.04520508,0.00298658
3874.97401245,0.00272055
3876.90281982,0.00303642
3878.83162720,0.00313554
3880.76043457,0.00260298
3882.68924194,0.00299439
3884.61804932,0.00287265
3886.54685669,0.00253275
3888.47566406,0.00298086
3890.40447144,0.00285625
3892.33327881,0.00262557
3894.26208618,0.00292626
3896.19089355,0.00299348
3898.11970093,0.00281475
3900.04850830,0.00268223
3901.97731567,0.00271898
3903.90612305,0.00264344
3905.83493042,0.00260007
3907.76373779,0.00286011
3909.69254517,0.00287660
3911.62135254,0.00290581
3913.55015991,0.00294726
3915.47896728,0.00276274
3917.40777466,0.00272066
3919.33658203,0.00272459
3921.26538940,0.00280093
3923.19419678,0.00281118
3925.12300415,0.00272891
3927.05181152,0.00279455
3928.98061890,0.00280161
3930.90942627,0.00271910
3932.83823364,0.00269012
3934.76704102,0.00271996
3936.69584839,0.00278018
3938.62465576,0.00275484
3940.55346313,0.00270931
3942.48227051,0.00269189
3944.41107788,0.00262379
3946.33988525,0.00275563
3948.26869263,0.00272542
3950.19750000,0.00253604
3952.12630737,0.00269921
3954.05511475,0.00275039
3955.98392212,0.00269180
3957.91272949,0.00267750
3959.84153687,0.00268040
3961.77034424,0.00268677
3963.69915161,0.00266723
3965.62795898,0.00270486
3967.55676636,0.00265412
3969.48557373,0.00272641
3971.41438110,0.00271369
3973.34318848,0.00265845
3975.27199585,0.00263151
3977.20080322,0.00258037
3979.12961060,0.00273545
3981.05841797,0.00257506
3982.98722534,0.00254991
3984.91603271,0.00271335
3986.84484009,0.00263116
3988.77364746,0.00263471
3990.70245483,0.00249445
3992.63126221,0.00250722
3994.56006958,0.00269541
3996.48887695,0.00269625
3998.41768433,0.00259908
4000.34649170,0.00252293
4002.27529907,0.00257361
4004.20410645,0.00257006
4006.13291382,0.00257558
4008.06172119,0.00264505
4009.99052856,0.00260940
4011.91933594,0.00251272
4013.84814331,0.00250496
4015.77695068,0.00247321
4017.70575806,0.00246501
4019.63456543,0.00257052
4021.56337280,0.00249916
4023.49218018,0.00244621
4025.42098755,0.00249860
4027.34979492,0.00243114
4029.27860229,0.00242215
4031.20740967,0.00254810
4033.13621704,0.00255776
4035.06502441,0.00247545
4036.99383179,0.00243571
4038.92263916,0.00240126
4040.85144653,0.00248936
4042.78025391,0.00245527
4044.70906128,0.00234913
4046.63786865,0.00237809
4048.56667603,0.00239463
4050.49548340,0.00248303
4052.42429077,0.00241471
4054.35309814,0.00233797
4056.28190552,0.00242427
4058.21071289,0.00240737
4060.13952026,0.00237106
4062.06832764,0.00232310
4063.99713501,0.00232884
4065.92594238,0.00240064
4067.85474976,0.00237122
4069.78355713,0.00230787
4071.71236450,0.00234398
4073.64117187,0.00237271
4075.56997925,0.00235657
4077.49878662,0.00235494
4079.42759399,0.00236857
4081.35640137,0.00237868
4083.28520874,0.00226231
4085.21401611,0.00226540
4087.14282349,0.00231208
4089.07163086,0.00227546
4091.00043823,0.00238132
4092.92924561,0.00231450
4094.85805298,0.00222235
4096.78686035,0.00225410
4098.71566772,0.00224240
4100.64447510,0.00228639
4102.57328247,0.00226402
4104.50208984,0.00234249
4106.43089722,0.00237510
4108.35970459,0.00221344
4110.28851196,0.00225329
4112.21731934,0.00227607
4114.14612671,0.00222567
4116.07493408,0.00228237
4118.00374145,0.00226541
4119.93254883,0.00224140
4121.86135620,0.00224076
4123.79016357,0.00220494
4125.71897095,0.00218834
4127.64777832,0.00220105
4129.57658569,0.00220080
4131.50539307,0.00216861
4133.43420044,0.00213368
4135.36300781,0.00213931
4137.29181519,0.00219240
4139.22062256,0.00217249
4141.14942993,0.00219703
4143.07823730,0.00221222
4145.00704468,0.00214760
4146.93585205,0.00220586
4148.86465942,0.00217174
4150.79346680,0.00216776
4152.72227417,0.00217357
4154.65108154,0.00205105
4156.57988892,0.00210701
4158.50869629,0.00211462
4160.43750366,0.00202405
4162.36631103,0.00201110
4164.29511841,0.00207224
4166.22392578,0.00206972
4168.15273315,0.00204255
4170.08154053,0.00215237
4172.01034790,0.00212083
4173.93915527,0.00207582
4175.86796265,0.00206635
4177.79677002,0.00205595
4179.72557739,0.00209475
4181.65438477,0.00201581
4183.58319214,0.00203968
4185.51199951,0.00202917
4187.44080688,0.00198479
4189.36961426,0.00206263
4191.29842163,0.00201769
4193.22722900,0.00198801
4195.15603638,0.00202761
4197.08484375,0.00206118
4199.01365112,0.00210637
4200.94245850,0.00208580
4202.87126587,0.00201167
4204.80007324,0.00197466
4206.72888062,0.00201020
4208.65768799,0.00203860
4210.58649536,0.00202317
4212.51530273,0.00201257
4214.44411011,0.00202823
4216.37291748,0.00200946
4218.30172485,0.00192947
4220.23053223,0.00191795
4222.15933960,0.00201317
4224.08814697,0.00207313
4226.01695435,0.00203552
4227.94576172,0.00196712
4229.87456909,0.00201516
4231.80337646,0.00206025
4233.73218384,0.00193446
4235.66099121,0.00190397
4237.58979858,0.00196842
4239.51860596,0.00189442
4241.44741333,0.00182384
4243.37622070,0.00193428
4245.30502808,0.00203625
4247.23383545,0.00202553
4249.16264282,0.00196670
4251.09145020,0.00186265
4253.02025757,0.00187687
4254.94906494,0.00190647
4256.87787231,0.00193452
4258.80667969,0.00196096
4260.73548706,0.00193343
4262.66429443,0.00197453
4264.59310181,0.00190491
4266.52190918,0.00187890
4268.45071655,0.00185057
4270.37952393,0.00181095
4272.30833130,0.00189036
4274.23713867,0.00185084
4276.16594604,0.00187313
4278.09475342,0.00188215
4280.02356079,0.00184736
4281.95236816,0.00179997
4283.88117554,0.00179516
4285.80998291,0.00188082
4287.73879028,0.00179710
4289.66759766,0.00177982
4291.59640503,0.00176863
4293.52521240,0.00176025
4295.45401978,0.00180175
4297.38282715,0.00178635
4299.31163452,0.00186434
4301.24044189,0.00185668
4303.16924927,0.00179451
4305.09805664,0.00176441
4307.02686401,0.00178808
4308.95567139,0.00178060
4310.88447876,0.00176590
4312.81328613,0.00180267
4314.74209351,0.00177272
4316.67090088,0.00178702
4318.59970825,0.00171901
4320.52851562,0.00172154
4322.45732300,0.00173022
4324.38613037,0.00170523
4326.31493774,0.00181864
4328.24374512,0.00177175
4330.17255249,0.00175432
4332.10135986,0.00174083
4334.03016724,0.00170019
4335.95897461,0.00175585
4337.88778198,0.00174669
4339.81658936,0.00168970
4341.74539673,0.00168761
4343.67420410,0.00174306
4345.60301147,0.00165055
4347.53181885,0.00170887
4349.46062622,0.00180764
4351.38943359,0.00168455
4353.31824097,0.00167520
4355.24704834,0.00168464
4357.17585571,0.00167338
4359.10466309,0.00164188
4361.03347046,0.00163608
4362.96227783,0.00163602
4364.89108520,0.00162733
4366.81989258,0.00168394
4368.74869995,0.00165719
4370.67750732,0.00166350
4372.60631470,0.00164522
4374.53512207,0.00162565
4376.46392944,0.00165037
4378.39273682,0.00162075
4380.32154419,0.00161679
4382.25035156,0.00157811
4384.17915894,0.00158060
4386.10796631,0.00157969
4388.03677368,0.00157050
4389.96558105,0.00157913
4391.89438843,0.00153671
4393.82319580,0.00159406
4395.75200317,0.00157308
4397.68081055,0.00147743
4399.60961792,0.00156552
4401.53842529,0.00161750
4403.46723267,0.00159486
4405.39604004,0.00163377
4407.32484741,0.00158870
4409.25365478,0.00156100
4411.18246216,0.00164676
4413.11126953,0.00161898
4415.04007690,0.00153949
4416.96888428,0.00157834
4418.89769165,0.00154149
4420.82649902,0.00148462
4422.75530640,0.00158535
4424.68411377,0.00158090
4426.61292114,0.00152196
4428.54172852,0.00151291
4430.47053589,0.00152856
4432.39934326,0.00154478
4434.32815063,0.00144354
4436.25695801,0.00149653
4438.18576538,0.00153816
4440.11457275,0.00149319
4442.04338013,0.00150758
4443.97218750,0.00146982
4445.90099487,0.00161305
4447.82980225,0.00160872
4449.75860962,0.00147200
4451.68741699,0.00152097
4453.61622437,0.00146270
4455.54503174,0.00141371
4457.47383911,0.00144702
4459.40264648,0.00150042
4461.33145386,0.00152675
4463.26026123,0.00146109
4465.18906860,0.00139465
4467.11787598,0.00142000
4469.04668335,0.00151184
4470.97549072,0.00145240
4472.90429810,0.00142213
4474.83310547,0.00146973
4476.76191284,0.00136743
4478.69072021,0.00138279
4480.61952759,0.00145459
4482.54833496,0.00140336
4484.47714233,0.00145021
4486.40594971,0.00143800
4488.33475708,0.00136130
4490.26356445,0.00140017
4492.19237183,0.00141892
4494.12117920,0.00144869
4496.04998657,0.00144447
4497.97879395,0.00141886
4499.90760132,0.00142903
4501.83640869,0.00144350
4503.76521606,0.00146513
4505.69402344,0.00139172
4507.62283081,0.00143082
4509.55163818,0.00146508
4511.48044556,0.00137960
4513.40925293,0.00141066
4515.33806030,0.00138001
4517.26686768,0.00138091
4519.19567505,0.00144432
4521.12448242,0.00142568
4523.05328979,0.00139983
4524.98209717,0.00135269
4526.91090454,0.00134407
4528.83971191,0.00135056
4530.76851929,0.00138075
4532.69732666,0.00137041
4534.62613403,0.00133752
4536.55494141,0.00139424
4538.48374878,0.00135310
4540.41255615,0.00135655
4542.34136353,0.00136247
4544.27017090,0.00125192
4546.19897827,0.00131882
4548.12778564,0.00134301
4550.05659302,0.00131195
4551.98540039,0.00133903
4553.91420776,0.00125717
4555.84301514,0.00130939
4557.77182251,0.00137284
4559.70062988,0.00126154
4561.62943726,0.00121836
4563.55824463,0.00130806
4565.48705200,0.00133958
4567.41585937,0.00126423
4569.34466675,0.00129654
4571.27347412,0.00126623
4573.20228149,0.00124590
4575.13108887,0.00133822
4577.05989624,0.00125012
4578.98870361,0.00124411
4580.91751099,0.00132169
4582.84631836,0.00132567
4584.77512573,0.00130493
4586.70393311,0.00124125
4588.63274048,0.00128596
4590.56154785,0.00126468
4592.49035522,0.00121365
4594.41916260,0.00121484
4596.34796997,0.00116975
4598.27677734,0.00121035
4600.20558472,0.00120648
4602.13439209,0.00122660
4604.06319946,0.00125015
4605.99200684,0.00121809
4607.92081421,0.00126609
4609.84962158,0.00121134
4611.77842895,0.00127205
4613.70723633,0.00130119
4615.63604370,0.00115155
4617.56485107,0.00123632
4619.49365845,0.00124025
4621.42246582,0.00119632
4623.35127319,0.00121996
4625.28008057,0.00116204
4627.20888794,0.00122819
4629.13769531,0.00118963
4631.06650269,0.00112237
4632.99531006,0.00118031
4634.92411743,0.00116920
4636.85292480,0.00117038
4638.78173218,0.00119909
4640.71053955,0.00117363
4642.63934692,0.00114909
4644.56815430,0.00121863
4646.49696167,0.00118681
4648.42576904,0.00111012
4650.35457642,0.00118064
4652.28338379,0.00120437
4654.21219116,0.00116963
4656.14099853,0.00119134
4658.06980591,0.00121323
4659.99861328,0.00112886
4661.92742065,0.00112105
4663.85622803,0.00117306
4665.78503540,0.00112885
4667.71384277,0.00116633
4669.64265015,0.00121436
4671.57145752,0.00112180
4673.50026489,0.00105344
4675.42907227,0.00117195
4677.35787964,0.00113034
4679.28668701,0.00101377
4681.21549438,0.00110882
4683.14430176,0.00109837
4685.07310913,0.00109416
4687.00191650,0.00107756
4688.93072388,0.00105928
4690.85953125,0.00112288
4692.78833862,0.00107507
4694.71714600,0.00105268
4696.64595337,0.00105014
4698.57476074,0.00108478
4700.50356812,0.00107787
4702.43237549,0.00107236
4704.36118286,0.00110626
4706.28999023,0.00103931
4708.21879761,0.00108489
4710.14760498,0.00107012
4712.07641235,0.00103269
4714.00521973,0.00110857
4715.93402710,0.00105310
4717.86283447,0.00101806
4719.79164185,0.00106812
4721.72044922,0.00107126
4723.64925659,0.00106277
4725.57806396,0.00109456
4727.50687134,0.00107841
4729.43567871,0.00101335
4731.36448608,0.00104852
4733.29329346,0.00106430
4735.22210083,0.00095922
4737.15090820,0.00101947
4739.07971558,0.00109010
4741.00852295,0.00100320
4742.93733032,0.00106795
4744.86613770,0.00106085
4746.79494507,0.00103095
4748.72375244,0.00106154
4750.65255981,0.00100702
4752.58136719,0.00104899
4754.51017456,0.00101035
4756.43898193,0.00102525
4758.36778931,0.00104137
4760.29659668,0.00097131
4762.22540405,0.00101941
4764.15421143,0.00095781
4766.08301880,0.00097934
4768.01182617,0.00104146
4769.94063354,0.00097968
4771.86944092,0.00098137
4773.79824829,0.00099697
4775.72705566,0.00098548
4777.65586304,0.00096158
4779.58467041,0.00100139
4781.51347778,0.00099361
4783.44228516,0.00095471
4785.37109253,0.00103522
4787.29989990,0.00105930
4789.22870728,0.00094885
4791.15751465,0.00093948
4793.08632202,0.00101470
4795.01512939,0.00099143
4796.94393677,0.00102934
4798.87274414,0.00105612
4800.80155151,0.00100848
4802.73035889,0.00098577
4804.65916626,0.00095685
4806.58797363,0.00095845
4808.51678101,0.00098580
4810.44558838,0.00099589
4812.37439575,0.00093027
4814.30320312,0.00096548
4816.23201050,0.00096074
4818.16081787,0.00087424
4820.08962524,0.00095978
4822.01843262,0.00098243
4823.94723999,0.00098771
4825.87604736,0.00094846
4827.80485474,0.00095481
4829.73366211,0.00100415
4831.66246948,0.00086607
4833.59127686,0.00091962
4835.52008423,0.00091350
4837.44889160,0.00084461
4839.37769897,0.00093583
4841.30650635,0.00086413
4843.23531372,0.00092629
4845.16412109,0.00099373
4847.09292847,0.00084116
4849.02173584,0.00087221
4850.95054321,0.00093762
4852.87935059,0.00084653
4854.80815796,0.00090904
4856.73696533,0.00098247
4858.66577270,0.00089958
4860.59458008,0.00089693
4862.52338745,0.00085356
4864.45219482,0.00083836
4866.38100220,0.00089907
4868.30980957,0.00088243
4870.23861694,0.00088128
4872.16742432,0.00085785
4874.09623169,0.00087841
4876.02503906,0.00090229
4877.95384644,0.00087231
4879.88265381,0.00082482
4881.81146118,0.00079507
4883.74026855,0.00087900
4885.66907593,0.00088828
4887.59788330,0.00086656
4889.52669067,0.00087437
4891.45549805,0.00082473
4893.38430542,0.00078732
4895.31311279,0.00079282
4897.24192017,0.00084813
4899.17072754,0.00084481
4901.09953491,0.00086133
4903.02834228,0.00083255
4904.95714966,0.00074786
4906.88595703,0.00085995
4908.81476440,0.00088556
4910.74357178,0.00077785
4912.67237915,0.00080032
4914.60118652,0.00084022
4916.52999390,0.00083108
4918.45880127,0.00081821
4920.38760864,0.00078862
4922.31641602,0.00079566
4924.24522339,0.00083919
4926.17403076,0.00084414
4928.10283813,0.00085863
4930.03164551,0.00085693
4931.96045288,0.00083273
4933.88926025,0.00079322
4935.81806763,0.00077899
4937.74687500,0.00078976
4939.67568237,0.00073477
4941.60448975,0.00077432
4943.53329712,0.00080501
4945.46210449,0.00078577
4947.39091187,0.00078990
4949.31971924,0.00077200
4951.24852661,0.00086405
4953.17733398,0.00082104
4955.10614136,0.00075692
4957.03494873,0.00086429
4958.96375610,0.00081244
4960.89256348,0.00078994
4962.82137085,0.00082652
4964.75017822,0.00068540
4966.67898560,0.00068916
4968.60779297,0.00080296
4970.53660034,0.00075831
4972.46540771,0.00074519
4974.39421509,0.00070156
4976.32302246,0.00068726
4978.25182983,0.00074344
4980.18063721,0.00071947
4982.10944458,0.00076305
4984.03825195,0.00071757
4985.96705933,0.00069430
4987.89586670,0.00079679
4989.82467407,0.00078946
4991.75348145,0.00071053
4993.68228882,0.00066225
4995.61109619,0.00071962
4997.53990356,0.00070657
4999.46871094,0.00069949
5001.39751831,0.00076113
5003.32632568,0.00079143
5005.25513306,0.00076456
5007.18394043,0.00067632
5009.11274780,0.00075379
5011.04155518,0.00076190
5012.97036255,0.00064891
5014.89916992,0.00065193
5016.82797729,0.00068842
5018.75678467,0.00065775
5020.68559204,0.00069733
5022.61439941,0.00075995
5024.54320679,0.00062563
5026.47201416,0.00072036
5028.40082153,0.00077913
5030.32962891,0.00068022
5032.25843628,0.00069825
5034.18724365,0.00063794
5036.11605103,0.00076779
5038.04485840,0.00071401
5039.97366577,0.00066905
5041.90247314,0.00082363
5043.83128052,0.00069631
5045.76008789,0.00068253
5047.68889526,0.00068732
5049.61770264,0.00065107
5051.54651001,0.00063868
5053.47531738,0.00064776
5055.40412476,0.00067911
5057.33293213,0.00059165
5059.26173950,0.00067410
5061.19054687,0.00069927
5063.11935425,0.00062762
5065.04816162,0.00066334
5066.97696899,0.00068174
5068.90577637,0.00070248
5070.83458374,0.00067635
5072.76339111,0.00070223
5074.69219849,0.00072836
5076.62100586,0.00063814
5078.54981323,0.00063376
5080.47862061,0.00069479
5082.40742798,0.00063433
5084.33623535,0.00057841
5086.26504272,0.00061979
5088.19385010,0.00067123
5090.12265747,0.00065310
5092.05146484,0.00061973
5093.98027222,0.00066118
5095.90907959,0.00064801
5097.83788696,0.00064401
5099.76669434,0.00065778
5101.69550171,0.00064605
5103.62430908,0.00061395
5105.55311645,0.00060032
5107.48192383,0.00069381
5109.41073120,0.00066759
5111.33953857,0.00065994
5113.26834595,0.00067299
5115.19715332,0.00059520
5117.12596069,0.00061123
5119.05476807,0.00066322
5120.98357544,0.00066441
5122.91238281,0.00060167
5124.84119019,0.00063929
5126.76999756,0.00064106
5128.69880493,0.00061872
5130.62761230,0.00058890
5132.55641968,0.00056224
5134.48522705,0.00069918
5136.41403442,0.00063876
5138.34284180,0.00059403
5140.27164917,0.00059846
5142.20045654,0.00064093
5144.12926392,0.00073797
5146.05807129,0.00059629
5147.98687866,0.00061614
5149.91568603,0.00064367
5151.84449341,0.00060848
5153.77330078,0.00061393
5155.70210815,0.00059968
5157.63091553,0.00063903
5159.55972290,0.00056044
5161.48853027,0.00058488
5163.41733765,0.00062282
5165.34614502,0.00058604
5167.27495239,0.00056071
5169.20375977,0.00050807
5171.13256714,0.00055994
5173.06137451,0.00060884
5174.99018188,0.00053181
5176.91898926,0.00049089
5178.84779663,0.00060125
5180.77660400,0.00060743
5182.70541138,0.00056018
5184.63421875,0.00050536
5186.56302612,0.00053636
5188.49183350,0.00064745
5190.42064087,0.00056123
5192.34944824,0.00057605
5194.27825562,0.00055977
5196.20706299,0.00053501
5198.13587036,0.00057903
5200.06467773,0.00052692
5201.99348511,0.00056836
5203.92229248,0.00060136
5205.85109985,0.00061282
5207.77990723,0.00053115
5209.70871460,0.00053178
5211.63752197,0.00057062
5213.56632935,0.00055433
5215.49513672,0.00057400
5217.42394409,0.00048763
5219.35275146,0.00053378
5221.28155884,0.00049480
5223.21036621,0.00049896
5225.13917358,0.00055543
5227.06798096,0.00049618
5228.99678833,0.00052875
5230.92559570,0.00045925
5232.85440308,0.00056275
5234.78321045,0.00056951
5236.71201782,0.00048066
5238.64082520,0.00049972
5240.56963257,0.00043826
5242.49843994,0.00055665
5244.42724731,0.00057269
5246.35605469,0.00058384
5248.28486206,0.00052801
5250.21366943,0.00042176
5252.14247681,0.00051935
5254.07128418,0.00046842
5256.00009155,0.00046978
5257.92889893,0.00055077
5259.85770630,0.00059303
5261.78651367,0.00051813
5263.71532104,0.00042810
5265.64412842,0.00053427
5267.57293579,0.00054356
5269.50174316,0.00050546
5271.43055054,0.00054079
5273.35935791,0.00052222
5275.28816528,0.00047724
5277.21697266,0.00052880
5279.14578003,0.00050824
5281.07458740,0.00046482
5283.00339478,0.00051342
5284.93220215,0.00049519
5286.86100952,0.00049245
5288.78981689,0.00045282
5290.71862427,0.00048031
5292.64743164,0.00047942
5294.57623901,0.00045348
5296.50504639,0.00049706
5298.43385376,0.00044617
5300.36266113,0.00052759
5302.29146851,0.00048327
5304.22027588,0.00045714
5306.14908325,0.00053919
5308.07789062,0.00041303
5310.00669800,0.00044525
5311.93550537,0.00051163
5313.86431274,0.00053562
5315.79312012,0.00051855
5317.72192749,0.00042763
5319.65073486,0.00043469
5321.57954224,0.00046542
5323.50834961,0.00048716
5325.43715698,0.00043166
5327.36596436,0.00044292
5329.29477173,0.00041329
5331.22357910,0.00037919
5333.15238647,0.00047676
5335.08119385,0.00045220
5337.01000122,0.00046925
5338.93880859,0.00047206
5340.86761597,0.00045985
5342.79642334,0.00046328
5344.72523071,0.00041630
5346.65403809,0.00050760
5348.58284546,0.00048849
5350.51165283,0.00043057
5352.44046020,0.00046576
5354.36926758,0.00042868
5356.29807495,0.00043118
5358.22688232,0.00046232
5360.15568970,0.00042825
5362.08449707,0.00039157
5364.01330444,0.00047335
5365.94211182,0.00047322
5367.87091919,0.00040372
5369.79972656,0.00045391
5371.72853394,0.00044745
5373.65734131,0.00042139
5375.58614868,0.00041855
5377.51495605,0.00049872
5379.44376343,0.00051209
5381.37257080,0.00037700
5383.30137817,0.00046036
5385.23018555,0.00047310
5387.15899292,0.00039937
5389.08780029,0.00049965
5391.01660767,0.00046405
5392.94541504,0.00039505
5394.87422241,0.00041526
5396.80302978,0.00042364
5398.73183716,0.00043702
5400.66064453,0.00043471
5402.58945190,0.00043831
5404.51825928,0.00043426
5406.44706665,0.00040893
5408.37587402,0.00039180
5410.30468140,0.00037454
5412.23348877,0.00037025
5414.16229614,0.00040179
5416.09110352,0.00038028
5418.01991089,0.00036533
5419.94871826,0.00044857
5421.87752563,0.00046982
5423.80633301,0.00043505
5425.73514038,0.00042340
5427.66394775,0.00037826
5429.59275513,0.00034693
5431.52156250,0.00038705
5433.45036987,0.00040764
5435.37917725,0.00041461
5437.30798462,0.00042031
5439.23679199,0.00037275
5441.16559936,0.00040534
5443.09440674,0.00039776
5445.02321411,0.00032882
5446.95202148,0.00039197
5448.88082886,0.00040704
5450.80963623,0.00039949
5452.73844360,0.00041772
5454.66725098,0.00037817
5456.59605835,0.00039963
5458.52486572,0.00042127
5460.45367310,0.00038169
5462.38248047,0.00037425
5464.31128784,0.00042054
5466.24009521,0.00043473
5468.16890259,0.00038505
5470.09770996,0.00037578
5472.02651733,0.00038266
5473.95532471,0.00035301
5475.88413208,0.00038351
5477.81293945,0.00041198
5479.74174683,0.00033421
5481.67055420,0.00030947
5483.59936157,0.00036386
5485.52816895,0.00037037
5487.45697632,0.00033500
5489.38578369,0.00027438
5491.31459106,0.00033080
5493.24339844,0.00041350
5495.17220581,0.00031468
5497.10101318,0.00033401
5499.02982056,0.00042211
5500.95862793,0.00037341
5502.88743530,0.00037680
5504.81624268,0.00037057
5506.74505005,0.00035637
5508.67385742,0.00030353
5510.60266479,0.00025575
5512.53147217,0.00033254
5514.46027954,0.00035118
5516.38908691,0.00040581
5518.31789429,0.00041071
5520.24670166,0.00035030
5522.17550903,0.00037329
5524.10431641,0.00034621
5526.03312378,0.00034550
5527.96193115,0.00032029
5529.89073853,0.00034656
5531.81954590,0.00039555
5533.74835327,0.00032096
5535.67716064,0.00030909
5537.60596802,0.00028816
5539.53477539,0.00028381
5541.46358276,0.00031678
5543.39239014,0.00028723
5545.32119751,0.00027040
5547.25000488,0.00031980
5549.17881226,0.00034147
5551.10761963,0.00030007
5553.03642700,0.00037219
5554.96523437,0.00036639
5556.89404175,0.00028982
5558.82284912,0.00035605
5560.75165649,0.00031989
5562.68046387,0.00022554
5564.60927124,0.00025267
5566.53807861,0.00033059
5568.46688599,0.00036623
5570.39569336,0.00034649
5572.32450073,0.00032603
5574.25330811,0.00030718
5576.18211548,0.00026377
5578.11092285,0.00024480
5580.03973022,0.00028657
5581.96853760,0.00029130
5583.89734497,0.00028069
5585.82615234,0.00028670
5587.75495972,0.00031606
5589.68376709,0.00035528
5591.61257446,0.00034174
5593.54138184,0.00030313
5595.47018921,0.00025139
5597.39899658,0.00029706
5599.32780395,0.00031395
5601.25661133,0.00024408
5603.18541870,0.00024604
5605.11422607,0.00028356
5607.04303345,0.00037236
5608.97184082,0.00032956
5610.90064819,0.00026359
5612.82945557,0.00029207
5614.75826294,0.00022533
5616.68707031,0.00024817
5618.61587769,0.00028534
5620.54468506,0.00029484
5622.47349243,0.00036675
5624.40229980,0.00037304
5626.33110718,0.00037314
5628.25991455,0.00035780
5630.18872192,0.00032706
5632.11752930,0.00029720
5634.04633667,0.00027249
5635.97514404,0.00031312
5637.90395142,0.00027987
5639.83275879,0.00024965
5641.76156616,0.00030667
5643.69037353,0.00024744
5645.61918091,0.00027631
5647.54798828,0.00032041
5649.47679565,0.00020458
5651.40560303,0.00027186
5653.33441040,0.00027550
5655.26321777,0.00024392
5657.19202515,0.00031315
5659.12083252,0.00022090
5661.04963989,0.00026132
5662.97844727,0.00033029
5664.90725464,0.00031556
5666.83606201,0.00027720
5668.76486938,0.00023000
5670.69367676,0.00033557
5672.62248413,0.00029047
5674.55129150,0.00021634
5676.48009888,0.00026344
5678.40890625,0.00026050
5680.33771362,0.00025240
5682.26652100,0.00025911
5684.19532837,0.00027831
5686.12413574,0.00024404
5688.05294311,0.00023607
5689.98175049,0.00021370
5691.91055786,0.00025715
5693.83936523,0.00025792
5695.76817261,0.00015156
5697.69697998,0.00026035
5699.62578735,0.00027601
5701.55459473,0.00027329
5703.48340210,0.00024780
5705.41220947,0.00016422
5707.34101685,0.00033386
5709.26982422,0.00029228
5711.19863159,0.00024807
5713.12743896,0.00032917
5715.05624634,0.00023407
5716.98505371,0.00025426
5718.91386108,0.00025139
5720.84266846,0.00024738
5722.77147583,0.00031170
5724.70028320,0.00022308
5726.62909058,0.00022857
5728.55789795,0.00028847
5730.48670532,0.00019699
5732.41551270,0.00024694
5734.34432007,0.00032532
5736.27312744,0.00024647
5738.20193481,0.00022460
5740.13074219,0.00024649
5742.05954956,0.00027045
5743.98835693,0.00024718
5745.91716431,0.00023910
5747.84597168,0.00024064
5749.77477905,0.00021150
5751.70358643,0.00025754
5753.63239380,0.00025411
5755.56120117,0.00026368
5757.49000854,0.00025866
5759.41881592,0.00020806
5761.34762329,0.00023325
5763.27643066,0.00023555
5765.20523804,0.00023017
5767.13404541,0.00027366
5769.06285278,0.00028812
5770.99166016,0.00023722
5772.92046753,0.00028197
5774.84927490,0.00022819
5776.77808228,0.00012907
5778.70688965,0.00022108
5780.63569702,0.00021745
5782.56450439,0.00024436
5784.49331177,0.00025954
5786.42211914,0.00024378
5788.35092651,0.00027462
5790.27973389,0.00021249
5792.20854126,0.00023821
5794.13734863,0.00019746
5796.06615601,0.00018121
5797.99496338,0.00030493
5799.92377075,0.00025033
5801.85257812,0.00012353
5803.78138550,0.00017346
5805.71019287,0.00025475
5807.63900024,0.00022293
5809.56780762,0.00023166
5811.49661499,0.00021024
5813.42542236,0.00018477
5815.35422974,0.00021229
5817.28303711,0.00019978
5819.21184448,0.00019958
5821.14065186,0.00021014
5823.06945923,0.00021543
5824.99826660,0.00020782
5826.92707397,0.00027166
5828.85588135,0.00023556
5830.78468872,0.00018383
5832.71349609,0.00022070
5834.64230347,0.00017078
5836.57111084,0.00027038
5838.49991821,0.00029530
5840.42872559,0.00021320
5842.35753296,0.00019225
5844.28634033,0.00018357
5846.21514770,0.00029342
5848.14395508,0.00029551
5850.07276245,0.00025871
5852.00156982,0.00022329
5853.93037720,0.00019620
5855.85918457,0.00021005
5857.78799194,0.00018967
5859.71679932,0.00024857
5861.64560669,0.00021098
5863.57441406,0.00019513
5865.50322144,0.00019455
5867.43202881,0.00011543
5869.36083618,0.00020421
5871.28964355,0.00022726
5873.21845093,0.00021266
5875.14725830,0.00029931
5877.07606567,0.00019426
5879.00487305,0.00016095
5880.93368042,0.00029239
5882.86248779,0.00021513
5884.79129517,0.00020226
5886.72010254,0.00021783
5888.64890991,0.00018230
5890.57771728,0.00026140
5892.50652466,0.00019138
5894.43533203,0.00016700
5896.36413940,0.00018133
5898.29294678,0.00015789
5900.22175415,0.00020201
5902.15056152,0.00020919
5904.07936890,0.00019780
5906.00817627,0.00013955
5907.93698364,0.00025766
5909.86579102,0.00026386
5911.79459839,0.00011815
5913.72340576,0.00012249
5915.65221313,0.00010225
5917.58102051,0.00021053
5919.50982788,0.00018078
5921.43863525,0.00012484
5923.36744263,0.00021514
5925.29625000,0.00021151
5927.22505737,0.00024350
5929.15386475,0.00016257
5931.08267212,0.00019888
5933.01147949,0.00025356
5934.94028686,0.00020393
5936.86909424,0.00028889
5938.79790161,0.00020416
5940.72670898,0.00014957
5942.65551636,0.00020639
5944.58432373,0.00020557
5946.51313110,0.00022051
5948.44193848,0.00017508
5950.37074585,0.00015731
5952.29955322,0.00016037
5954.22836060,0.00014181
5956.15716797,0.00017253
5958.08597534,0.00020844
5960.01478271,0.00016713
5961.94359009,0.00010282
5963.87239746,0.00014297
5965.80120483,0.00020253
5967.73001221,0.00018420
5969.65881958,0.00018222
5971.58762695,0.00016221
5973.51643433,0.00012274
5975.44524170,0.00018844
5977.37404907,0.00020684
5979.30285645,0.00016192
5981.23166382,0.00015785
5983.16047119,0.00016132
5985.08927856,0.00016711
5987.01808594,0.00013182
5988.94689331,0.00019267
5990.87570068,0.00023310
5992.80450806,0.00014340
5994.73331543,0.00015654
5996.66212280,0.00015549
5998.59093018,0.00016362
6000.51973755,0.00019902
