399.26312622,-0.00006583
401.19193359,0.00013607
403.12074097,0.00025504
405.04954834,0.00006821
406.97835571,-0.00005951
408.90716309,0.00000191
410.83597046,-0.00007724
412.76477783,0.00000739
414.69358521,0.00007133
416.62239258,-0.00019873
418.55119995,0.00002845
420.48000732,0.00009991
422.40881470,-0.00007924
424.33762207,0.00027907
426.26642944,0.00022720
428.19523682,0.00011094
430.12404419,0.00037326
432.05285156,0.00026170
433.98165894,0.00010920
435.91046631,0.00008159
437.83927368,0.00004164
439.76808105,0.00011970
441.69688843,0.00014994
443.62569580,0.00018128
445.55450317,0.00012913
447.48331055,0.00006159
449.41211792,0.00020791
451.34092529,0.00037457
453.26973267,0.00035422
455.19854004,0.00004182
457.12734741,0.00013434
459.05615479,0.00043112
460.98496216,0.00012920
462.91376953,0.00003586
464.84257690,0.00017688
466.77138428,0.00020841
468.70019165,0.00014740
470.62899902,0.00004328
472.55780640,0.00008929
474.48661377,0.00003618
476.41542114,0.00018838
478.34422852,0.00031261
480.27303589,0.00033906
482.20184326,0.00029993
484.13065063,0.00016513
486.05945801,0.00034371
487.98826538,0.00011001
489.91707275,0.00000259
491.84588013,0.00031546
493.77468750,0.00025443
495.70349487,-0.00000636
497.63230225,-0.00002210
499.56110962,0.00021978
501.48991699,0.00016474
503.41872437,0.00007879
505.34753174,0.00003218
507.27633911,0.00010263
509.20514648,0.00006461
511.13395386,-0.00008719
513.06276123,0.00009605
514.99156860,0.00030097
516.92037598,0.00042494
518.84918335,0.00019464
520.77799072,0.00006602
522.70679810,0.00037463
524.63560547,0.00027786
526.56441284,0.00008573
528.49322021,0.00019689
530.42202759,0.00006798
532.35083496,0.00007439
534.27964233,0.00020069
536.20844971,0.00014444
538.13725708,0.00030826
540.06606445,0.00018396
541.99487183,0.00017495
543.92367920,0.00050247
545.85248657,0.00024737
547.78129395,0.00000825
549.71010132,0.00004345
551.63890869,0.00006475
553.56771606,0.00015468
555.49652344,0.00022073
557.42533081,0.00017234
559.35413818,-0.00001467
561.28294556,0.00019616
563.21175293,0.00029712
565.14056030,0.00009545
567.06936768,0.00010777
568.99817505,-0.00005593
570.92698242,0.00022016
572.85578979,0.00031217
574.78459717,0.00007284
576.71340454,0.00038924
578.64221191,0.00027050
580.57101929,0.00015593
582.49982666,0.00023686
584.42863403,0.00033179
586.35744141,0.00031218
588.28624878,-0.00004166
590.21505615,0.00009377
592.14386353,0.00011329
594.07267090,0.00009334
596.00147827,0.00018821
597.93028564,0.00013865
599.85909302,0.00007909
601.78790039,-0.00007529
603.71670776,0.00002311
605.64551514,0.00008729
607.57432251,0.00012593
609.50312988,0.00014075
611.43193726,0.00021334
613.36074463,0.00014788
615.28955200,0.00005500
617.21835938,0.00027589
619.14716675,-0.00002878
621.07597412,0.00009297
623.00478149,0.00037423
624.93358887,0.00002118
626.86239624,0.00001554
628.79120361,0.00010265
630.72001099,0.00029949
632.64881836,0.00025836
634.57762573,0.00006694
636.50643311,0.00017974
638.43524048,0.00021644
640.36404785,0.00032315
642.29285522,0.00022800
644.22166260,0.00013554
646.15046997,0.00028372
648.07927734,0.00030257
650.00808472,0.00023288
651.93689209,0.00020031
653.86569946,0.00027269
655.79450684,0.00020006
657.72331421,0.00008843
659.65212158,0.00013635
661.58092896,0.00001307
663.50973633,-0.00006679
665.43854370,0.00014506
667.36735107,0.00013690
669.29615845,0.00000573
671.22496582,0.00021415
673.15377319,0.00013802
675.08258057,-0.00003352
677.01138794,0.00015054
678.94019531,0.00013293
680.86900269,0.00005806
682.79781006,0.00016130
684.72661743,0.00023572
686.65542480,0.00010129
688.58423218,-0.00005816
690.51303955,0.00007199
692.44184692,0.00006463
694.37065430,0.00007648
696.29946167,0.00022550
698.22826904,0.00017118
700.15707642,0.00006943
702.08588379,0.00008885
704.01469116,-0.00002277
705.94349854,0.00014105
707.87230591,0.00027657
709.80111328,0.00004787
711.72992065,0.00002041
713.65872803,0.00008232
715.58753540,0.00026891
717.51634277,0.00014155
719.44515015,0.00011178
721.37395752,0.00011479
723.30276489,-0.00002600
725.23157227,0.00014248
727.16037964,0.00003642
729.08918701,0.00012352
731.01799438,0.00028345
732.94680176,0.00028095
734.87560913,0.00027878
736.80441650,0.00013245
738.73322388,0.00026630
740.66203125,0.00030300
742.59083862,0.00013217
744.51964600,0.00013085
746.44845337,0.00026968
748.37726074,0.00024645
750.30606812,0.00008550
752.23487549,0.00017584
754.16368286,0.00014979
756.09249023,0.00012465
758.02129761,0.00028746
759.95010498,0.00017945
761.87891235,0.00008520
763.80771973,0.00016698
765.73652710,0.00021439
767.66533447,0.00022422
769.59414185,0.00010631
771.52294922,0.00020776
773.45175659,0.00035946
775.38056396,0.00005886
777.30937134,0.00009581
779.23817871,0.00032775
781.16698608,0.00009012
783.09579346,0.00008691
785.02460083,0.00013212
786.95340820,-0.00001718
788.88221558,0.00013749
790.81102295,0.00028602
792.73983032,0.00032478
794.66863770,0.00023688
796.59744507,0.00004820
798.52625244,0.00010266
800.45505981,0.00022212
802.38386719,0.00028824
804.31267456,0.00014388
806.24148193,0.00006030
808.17028931,0.00028717
810.09909668,0.00022905
812.02790405,0.00007857
813.95671143,0.00014621
815.88551880,0.00009321
817.81432617,-0.00013128
819.74313354,-0.00000856
821.67194092,0.00011693
823.60074829,0.00004027
825.52955566,0.00037108
827.45836304,0.00025258
829.38717041,-0.00000502
831.31597778,0.00022085
833.24478516,0.00019205
835.17359253,0.00006075
837.10239990,0.00001645
839.03120728,0.00011338
840.96001465,0.00018695
842.88882202,0.00010030
844.81762939,0.00011750
846.74643677,0.00025348
848.67524414,0.00026367
850.60405151,0.00001839
852.53285889,0.00003579
854.46166626,0.00021953
856.39047363,0.00016811
858.31928101,0.00036367
860.24808838,0.00046654
862.17689575,0.00010081
864.10570313,0.00012938
866.03451050,0.00033569
867.96331787,0.00008888
869.89212524,0.00000289
871.82093262,0.00022601
873.74973999,0.00035569
875.67854736,0.00011082
877.60735474,0.00000015
879.53616211,0.00018362
881.46496948,0.00013581
883.39377686,0.00028774
885.32258423,0.00016427
887.25139160,0.00018525
889.18019897,0.00040418
891.10900635,0.00011504
893.03781372,0.00026939
894.96662109,0.00021663
896.89542847,0.00020071
898.82423584,0.00028415
900.75304321,0.00013154
902.68185059,0.00023714
904.61065796,0.00011100
906.53946533,0.00027496
908.46827271,0.00019570
910.39708008,0.00012531
912.32588745,0.00025976
914.25469482,0.00016048
916.18350220,0.00031298
918.11230957,0.00006733
920.04111694,0.00019327
921.96992432,0.00039832
923.89873169,0.00015133
925.82753906,0.00010214
927.75634644,0.00010543
929.68515381,0.00037398
931.61396118,0.00029419
933.54276855,0.00017684
935.47157593,0.00027669
937.40038330,0.00013347
939.32919067,0.00009210
941.25799805,0.00018814
943.18680542,0.00030385
945.11561279,0.00019816
947.04442017,0.00020334
948.97322754,0.00024422
950.90203491,0.00026891
952.83084229,0.00026389
954.75964966,0.00016762
956.68845703,0.00036161
958.61726440,0.00021644
960.54607178,0.00019826
962.47487915,0.00037511
964.40368652,0.00015893
966.33249390,0.00010977
968.26130127,0.00020088
970.19010864,0.00028227
972.11891602,0.00018186
974.04772339,0.00021645
975.97653076,0.00030295
977.90533813,0.00021154
979.83414551,0.00027953
981.76295288,0.00030673
983.69176025,0.00027395
985.62056763,0.00008115
987.54937500,0.00012268
989.47818237,0.00032529
991.40698975,0.00028053
993.33579712,0.00028757
995.26460449,0.00024062
997.19341187,0.00035475
999.12221924,0.00037552
1001.05102661,0.00038027
1002.97983398,0.00052238
1004.90864136,0.00039975
1006.83744873,0.00036150
1008.76625610,0.00020976
1010.69506348,0.00024541
1012.62387085,0.00029834
1014.55267822,0.00022993
1016.48148560,0.00054270
1018.41029297,0.00043106
1020.33910034,0.00037262
1022.26790771,0.00038437
1024.19671509,0.00030181
1026.12552246,0.00055374
1028.05432983,0.00055053
1029.98313721,0.00063848
1031.91194458,0.00054733
1033.84075195,0.00050170
1035.76955933,0.00071315
1037.69836670,0.00046771
1039.62717407,0.00041005
1041.55598145,0.00052818
1043.48478882,0.00047544
1045.41359619,0.00040255
1047.34240356,0.00053737
1049.27121094,0.00051309
1051.20001831,0.00021190
1053.12882568,0.00050527
1055.05763306,0.00054601
1056.98644043,0.00038792
1058.91524780,0.00070389
1060.84405518,0.00047148
1062.77286255,0.00033147
1064.70166992,0.00054887
1066.63047729,0.00051601
1068.55928467,0.00063316
1070.48809204,0.00067400
1072.41689941,0.00044842
1074.34570679,0.00027952
1076.27451416,0.00051988
1078.20332153,0.00067431
1080.13212891,0.00050904
1082.06093628,0.00055677
1083.98974365,0.00048672
1085.91855103,0.00037613
1087.84735840,0.00044954
1089.77616577,0.00048823
1091.70497314,0.00044333
1093.63378052,0.00042944
1095.56258789,0.00053216
1097.49139526,0.00047372
1099.42020264,0.00040198
1101.34901001,0.00039130
1103.27781738,0.00025540
1105.20662476,0.00025714
1107.13543213,0.00042548
1109.06423950,0.00037951
1110.99304687,0.00038761
1112.92185425,0.00053443
1114.85066162,0.00043376
1116.77946899,0.00049110
1118.70827637,0.00046165
1120.63708374,0.00034962
1122.56589111,0.00053726
1124.49469849,0.00049027
1126.42350586,0.00043306
1128.35231323,0.00046907
1130.28112061,0.00041313
1132.20992798,0.00045770
1134.13873535,0.00044766
1136.06754272,0.00041411
1137.99635010,0.00053081
1139.92515747,0.00045412
1141.85396484,0.00034328
1143.78277222,0.00041868
1145.71157959,0.00030926
1147.64038696,0.00047159
1149.56919434,0.00066627
1151.49800171,0.00057117
1153.42680908,0.00061060
1155.35561646,0.00060080
1157.28442383,0.00071340
1159.21323120,0.00067794
1161.14203857,0.00058216
1163.07084595,0.00081774
1164.99965332,0.00072606
1166.92846069,0.00054874
1168.85726807,0.00072236
1170.78607544,0.00075315
1172.71488281,0.00079861
1174.64369019,0.00092016
1176.57249756,0.00079586
1178.50130493,0.00087355
1180.43011230,0.00077152
1182.35891968,0.00061464
1184.28772705,0.00080362
1186.21653442,0.00071780
1188.14534180,0.00075353
1190.07414917,0.00092397
1192.00295654,0.00103389
1193.93176392,0.00091772
1195.86057129,0.00093180
1197.78937866,0.00113536
1199.71818604,0.00092077
1201.64699341,0.00121688
1203.57580078,0.00127266
1205.50460815,0.00109468
1207.43341553,0.00127749
1209.36222290,0.00113927
1211.29103027,0.00125947
1213.21983765,0.00117492
1215.14864502,0.00125575
1217.07745239,0.00147277
1219.00625977,0.00134555
1220.93506714,0.00151977
1222.86387451,0.00145875
1224.79268188,0.00134556
1226.72148926,0.00137300
1228.65029663,0.00144180
1230.57910400,0.00144625
1232.50791138,0.00150493
1234.43671875,0.00147744
1236.36552612,0.00122104
1238.29433350,0.00145780
1240.22314087,0.00145363
1242.15194824,0.00132387
1244.08075562,0.00134289
1246.00956299,0.00137004
1247.93837036,0.00146361
1249.86717773,0.00125399
1251.79598511,0.00152987
1253.72479248,0.00159846
1255.65359985,0.00137479
1257.58240723,0.00150615
1259.51121460,0.00138185
1261.44002197,0.00135349
1263.36882935,0.00135980
1265.29763672,0.00138691
1267.22644409,0.00141770
1269.15525146,0.00129818
1271.08405884,0.00129353
1273.01286621,0.00125411
1274.94167358,0.00122730
1276.87048096,0.00134855
1278.79928833,0.00141697
1280.72809570,0.00132924
1282.65690308,0.00128864
1284.58571045,0.00115585
1286.51451782,0.00118174
1288.44332520,0.00139853
1290.37213257,0.00131821
1292.30093994,0.00122964
1294.22974731,0.00115202
1296.15855469,0.00120373
1298.08736206,0.00133789
1300.01616943,0.00115626
1301.94497681,0.00111770
1303.87378418,0.00129094
1305.80259155,0.00122593
1307.73139893,0.00116785
1309.66020630,0.00124690
1311.58901367,0.00126674
1313.51782104,0.00134332
1315.44662842,0.00133258
1317.37543579,0.00142189
1319.30424316,0.00153705
1321.23305054,0.00133587
1323.16185791,0.00135444
1325.09066528,0.00151521
1327.01947266,0.00151932
1328.94828003,0.00152810
1330.87708740,0.00158149
1332.80589478,0.00171372
1334.73470215,0.00178236
1336.66350952,0.00162295
1338.59231689,0.00157795
1340.52112427,0.00173571
1342.44993164,0.00166406
1344.37873901,0.00158469
1346.30754639,0.00164314
1348.23635376,0.00169393
1350.16516113,0.00173740
1352.09396851,0.00181167
1354.02277588,0.00177098
1355.95158325,0.00169222
1357.88039062,0.00190701
1359.80919800,0.00175526
1361.73800537,0.00147976
1363.66681274,0.00167636
1365.59562012,0.00179119
1367.52442749,0.00164705
1369.45323486,0.00154692
1371.38204224,0.00166219
1373.31084961,0.00159962
1375.23965698,0.00160106
1377.16846436,0.00172370
1379.09727173,0.00167048
1381.02607910,0.00167686
1382.95488647,0.00160770
1384.88369385,0.00158445
1386.81250122,0.00166851
1388.74130859,0.00167889
1390.67011597,0.00162581
1392.59892334,0.00170179
1394.52773071,0.00166766
1396.45653809,0.00171690
1398.38534546,0.00185553
1400.31415283,0.00166331
1402.24296021,0.00186687
1404.17176758,0.00187977
1406.10057495,0.00178939
1408.02938232,0.00188241
1409.95818970,0.00178551
1411.88699707,0.00198421
1413.81580444,0.00188470
1415.74461182,0.00188236
1417.67341919,0.00168161
1419.60222656,0.00151620
1421.53103394,0.00184792
1423.45984131,0.00168181
1425.38864868,0.00170788
1427.31745605,0.00164080
1429.24626343,0.00157876
1431.17507080,0.00154270
1433.10387817,0.00148890
1435.03268555,0.00156275
1436.96149292,0.00125589
1438.89030029,0.00151712
1440.81910767,0.00142297
1442.74791504,0.00130752
1444.67672241,0.00163896
1446.60552979,0.00138375
1448.53433716,0.00137582
1450.46314453,0.00136046
1452.39195190,0.00149378
1454.32075928,0.00156771
1456.24956665,0.00138833
1458.17837402,0.00147170
1460.10718140,0.00150089
1462.03598877,0.00181012
1463.96479614,0.00182578
1465.89360352,0.00164362
1467.82241089,0.00185323
1469.75121826,0.00190205
1471.68002563,0.00181951
1473.60883301,0.00199847
1475.53764038,0.00219608
1477.46644775,0.00219834
1479.39525513,0.00250365
1481.32406250,0.00264197
1483.25286987,0.00253450
1485.18167725,0.00272856
1487.11048462,0.00276513
1489.03929199,0.00258727
1490.96809937,0.00260860
1492.89690674,0.00289430
1494.82571411,0.00286887
1496.75452148,0.00271211
1498.68332886,0.00284067
1500.61213623,0.00291193
1502.54094360,0.00324864
1504.46975098,0.00319222
1506.39855835,0.00258897
1508.32736572,0.00290031
1510.25617310,0.00313259
1512.18498047,0.00307896
1514.11378784,0.00328709
1516.04259521,0.00296907
1517.97140259,0.00324639
1519.90020996,0.00310679
1521.82901733,0.00265070
1523.75782471,0.00328656
1525.68663208,0.00320714
1527.61543945,0.00322121
1529.54424683,0.00355413
1531.47305420,0.00351119
1533.40186157,0.00331022
1535.33066895,0.00327655
1537.25947632,0.00346582
1539.18828369,0.00267553
1541.11709106,0.00286972
1543.04589844,0.00327828
1544.97470581,0.00306353
1546.90351318,0.00361326
1548.83232056,0.00341992
1550.76112793,0.00351801
1552.68993530,0.00345750
1554.61874268,0.00338278
1556.54755005,0.00359428
1558.47635742,0.00255721
1560.40516479,0.00282850
1562.33397217,0.00367778
1564.26277954,0.00358679
1566.19158691,0.00366836
1568.12039429,0.00353299
1570.04920166,0.00345638
1571.97800903,0.00379018
1573.90681641,0.00368744
1575.83562378,0.00304410
1577.76443115,0.00335467
1579.69323853,0.00379457
1581.62204590,0.00358917
1583.55085327,0.00371177
1585.47966064,0.00373122
1587.40846802,0.00367611
1589.33727539,0.00371895
1591.26608276,0.00380035
1593.19489014,0.00374884
1595.12369751,0.00367263
1597.05250488,0.00377785
1598.98131226,0.00372985
1600.91011963,0.00374291
1602.83892700,0.00386463
1604.76773437,0.00392998
1606.69654175,0.00380250
1608.62534912,0.00378918
1610.55415649,0.00380351
1612.48296387,0.00390707
1614.41177124,0.00396301
1616.34057861,0.00339895
1618.26938599,0.00373216
1620.19819336,0.00428297
1622.12700073,0.00389623
1624.05580811,0.00392620
1625.98461548,0.00413861
1627.91342285,0.00418146
1629.84223022,0.00428662
1631.77103760,0.00440328
1633.69984497,0.00406156
1635.62865234,0.00367019
1637.55745972,0.00409100
1639.48626709,0.00433839
1641.41507446,0.00427081
1643.34388184,0.00449805
1645.27268921,0.00412911
1647.20149658,0.00359952
1649.13030396,0.00439803
1651.05911133,0.00418140
1652.98791870,0.00289691
1654.91672607,0.00378374
1656.84553345,0.00463971
1658.77434082,0.00453703
1660.70314819,0.00469227
1662.63195557,0.00427053
1664.56076294,0.00434177
1666.48957031,0.00474260
1668.41837769,0.00425304
1670.34718506,0.00408361
1672.27599243,0.00460867
1674.20479980,0.00429595
1676.13360718,0.00416467
1678.06241455,0.00461652
1679.99122192,0.00443038
1681.92002930,0.00456353
1683.84883667,0.00376241
1685.77764404,0.00353230
1687.70645142,0.00487604
1689.63525879,0.00449709
1691.56406616,0.00462438
1693.49287354,0.00459712
1695.42168091,0.00364793
1697.35048828,0.00427047
1699.27929565,0.00371832
1701.20810303,0.00349244
1703.13691040,0.00460456
1705.06571777,0.00422306
1706.99452515,0.00416570
1708.92333252,0.00449365
1710.85213989,0.00439505
1712.78094727,0.00452909
1714.70975464,0.00419782
1716.63856201,0.00367826
1718.56736938,0.00369498
1720.49617676,0.00428388
1722.42498413,0.00441704
1724.35379150,0.00416174
1726.28259888,0.00438167
1728.21140625,0.00416956
1730.14021362,0.00417052
1732.06902100,0.00407035
1733.99782837,0.00333800
1735.92663574,0.00390101
1737.85544312,0.00426823
1739.78425049,0.00386256
1741.71305786,0.00406805
1743.64186523,0.00412483
1745.57067261,0.00417441
1747.49947998,0.00421330
1749.42828735,0.00401029
1751.35709473,0.00391234
1753.28590210,0.00430564
1755.21470947,0.00433453
1757.14351685,0.00396975
1759.07232422,0.00447298
1761.00113159,0.00422153
1762.92993896,0.00402289
1764.85874634,0.00457142
1766.78755371,0.00413034
1768.71636108,0.00409314
1770.64516846,0.00407384
1772.57397583,0.00380123
1774.50278320,0.00427725
1776.43159058,0.00440552
1778.36039795,0.00426326
1780.28920532,0.00431238
1782.21801270,0.00436541
1784.14682007,0.00434380
1786.07562744,0.00429851
1788.00443481,0.00442904
1789.93324219,0.00437031
1791.86204956,0.00399538
1793.79085693,0.00410520
1795.71966431,0.00436023
1797.64847168,0.00428774
1799.57727905,0.00437702
1801.50608643,0.00421178
1803.43489380,0.00430192
1805.36370117,0.00456618
1807.29250854,0.00436415
1809.22131592,0.00437910
1811.15012329,0.00443373
1813.07893066,0.00439828
1815.00773804,0.00429045
1816.93654541,0.00436245
1818.86535278,0.00435069
1820.79416016,0.00432344
1822.72296753,0.00453267
1824.65177490,0.00421306
1826.58058228,0.00426578
1828.50938965,0.00428255
1830.43819702,0.00412072
1832.36700439,0.00439568
1834.29581177,0.00448075
1836.22461914,0.00460745
1838.15342651,0.00428667
1840.08223389,0.00438757
1842.01104126,0.00452030
1843.93984863,0.00402712
1845.86865601,0.00428966
1847.79746338,0.00440683
1849.72627075,0.00439486
1851.65507812,0.00437992
1853.58388550,0.00433722
1855.51269287,0.00451491
1857.44150024,0.00443909
1859.37030762,0.00453439
1861.29911499,0.00439029
1863.22792236,0.00430829
1865.15672974,0.00447652
1867.08553711,0.00428715
1869.01434448,0.00413720
1870.94315186,0.00429512
1872.87195923,0.00441204
1874.80076660,0.00439458
1876.72957397,0.00451289
1878.65838135,0.00431154
1880.58718872,0.00440222
1882.51599609,0.00460082
1884.44480347,0.00435122
1886.37361084,0.00444634
1888.30241821,0.00430499
1890.23122559,0.00428795
1892.16003296,0.00447632
1894.08884033,0.00441543
1896.01764771,0.00445068
1897.94645508,0.00443217
1899.87526245,0.00452599
1901.80406982,0.00438614
1903.73287720,0.00430322
1905.66168457,0.00437886
1907.59049194,0.00432855
1909.51929932,0.00444165
1911.44810669,0.00433526
1913.37691406,0.00428016
1915.30572144,0.00428891
1917.23452881,0.00417378
1919.16333618,0.00427435
1921.09214355,0.00436687
1923.02095093,0.00439879
1924.94975830,0.00444512
1926.87856567,0.00440685
1928.80737305,0.00441499
1930.73618042,0.00444639
1932.66498779,0.00447668
1934.59379517,0.00451701
1936.52260254,0.00435077
1938.45140991,0.00436145
1940.38021729,0.00436408
1942.30902466,0.00428149
1944.23783203,0.00447078
1946.16663940,0.00436738
1948.09544678,0.00436092
1950.02425415,0.00441207
1951.95306152,0.00436229
1953.88186890,0.00447161
1955.81067627,0.00435124
1957.73948364,0.00436141
1959.66829102,0.00431303
1961.59709839,0.00432346
1963.52590576,0.00451788
1965.45471313,0.00439056
1967.38352051,0.00433317
1969.31232788,0.00440128
1971.24113525,0.00439086
1973.16994263,0.00433259
1975.09875000,0.00437407
1977.02755737,0.00437323
1978.95636475,0.00434885
1980.88517212,0.00439848
1982.81397949,0.00435551
1984.74278687,0.00438296
1986.67159424,0.00430327
1988.60040161,0.00433761
1990.52920898,0.00445067
1992.45801636,0.00431261
1994.38682373,0.00432979
1996.31563110,0.00439124
1998.24443848,0.00432250
2000.17324585,0.00426734
2002.10205322,0.00422752
2004.03086060,0.00430994
2005.95966797,0.00446635
2007.88847534,0.00438928
2009.81728271,0.00435007
2011.74609009,0.00442269
2013.67489746,0.00436708
2015.60370483,0.00438150
2017.53251221,0.00437362
2019.46131958,0.00445189
2021.39012695,0.00443251
2023.31893433,0.00427772
2025.24774170,0.00429130
2027.17654907,0.00427283
2029.10535645,0.00430171
2031.03416382,0.00431095
2032.96297119,0.00428876
2034.89177856,0.00422899
2036.82058594,0.00424060
2038.74939331,0.00428401
2040.67820068,0.00419701
2042.60700806,0.00426830
2044.53581543,0.00428820
2046.46462280,0.00427975
2048.39343018,0.00422124
2050.32223755,0.00424527
2052.25104492,0.00432284
2054.17985229,0.00412630
2056.10865967,0.00421130
2058.03746704,0.00429879
2059.96627441,0.00417123
2061.89508179,0.00418567
2063.82388916,0.00420130
2065.75269653,0.00411684
2067.68150391,0.00414201
2069.61031128,0.00424671
2071.53911865,0.00412590
2073.46792603,0.00414411
2075.39673340,0.00422605
2077.32554077,0.00418381
2079.25434814,0.00411070
2081.18315552,0.00415420
2083.11196289,0.00427207
2085.04077026,0.00410025
2086.96957764,0.00417374
2088.89838501,0.00430772
2090.82719238,0.00422733
2092.75599976,0.00419110
2094.68480713,0.00421396
2096.61361450,0.00433026
2098.54242187,0.00426853
2100.47122925,0.00429721
2102.40003662,0.00426486
2104.32884399,0.00420158
2106.25765137,0.00425396
2108.18645874,0.00418165
2110.11526611,0.00422520
2112.04407349,0.00416181
2113.97288086,0.00410521
2115.90168823,0.00413043
2117.83049561,0.00416819
2119.75930298,0.00418877
2121.68811035,0.00414582
2123.61691772,0.00415004
2125.54572510,0.00403142
2127.47453247,0.00407276
2129.40333984,0.00415300
2131.33214722,0.00417657
2133.26095459,0.00413298
2135.18976196,0.00409028
2137.11856934,0.00421587
2139.04737671,0.00412681
2140.97618408,0.00413954
2142.90499146,0.00410538
2144.83379883,0.00405139
2146.76260620,0.00412045
2148.69141357,0.00403064
2150.62022095,0.00411494
2152.54902832,0.00408821
2154.47783569,0.00415950
2156.40664307,0.00429565
2158.33545044,0.00408513
2160.26425781,0.00404561
2162.19306519,0.00411761
2164.12187256,0.00409324
2166.05067993,0.00409889
2167.97948730,0.00418239
2169.90829468,0.00418174
2171.83710205,0.00410517
2173.76590942,0.00413746
2175.69471680,0.00416415
2177.62352417,0.00416007
2179.55233154,0.00416140
2181.48113892,0.00407951
2183.40994629,0.00403689
2185.33875366,0.00415262
2187.26756104,0.00416894
2189.19636841,0.00414222
2191.12517578,0.00410351
2193.05398315,0.00400656
2194.98279053,0.00404692
2196.91159790,0.00417373
2198.84040527,0.00424516
2200.76921265,0.00409676
2202.69802002,0.00409070
2204.62682739,0.00420823
2206.55563477,0.00408884
2208.48444214,0.00398974
2210.41324951,0.00401680
2212.34205688,0.00409484
2214.27086426,0.00406726
2216.19967163,0.00414425
2218.12847900,0.00409391
2220.05728638,0.00399793
2221.98609375,0.00417060
2223.91490112,0.00401181
2225.84370850,0.00407751
2227.77251587,0.00421586
2229.70132324,0.00402800
2231.63013062,0.00406633
2233.55893799,0.00404325
2235.48774536,0.00406881
2237.41655273,0.00406280
2239.34536011,0.00403574
2241.27416748,0.00405946
2243.20297485,0.00398443
2245.13178223,0.00404372
2247.06058960,0.00400766
2248.98939697,0.00409850
2250.91820435,0.00416999
2252.84701172,0.00406287
2254.77581909,0.00408200
2256.70462646,0.00403984
2258.63343384,0.00406803
2260.56224121,0.00401042
2262.49104858,0.00398986
2264.41985596,0.00407672
2266.34866333,0.00406940
2268.27747070,0.00413872
2270.20627808,0.00403135
2272.13508545,0.00395909
2274.06389282,0.00394084
2275.99270020,0.00390955
2277.92150757,0.00401430
2279.85031494,0.00401011
2281.77912231,0.00404633
2283.70792969,0.00400964
2285.63673706,0.00403135
2287.56554443,0.00408717
2289.49435181,0.00393055
2291.42315918,0.00392765
2293.35196655,0.00393849
2295.28077393,0.00393261
2297.20958130,0.00391498
2299.13838867,0.00392586
2301.06719604,0.00398156
2302.99600342,0.00390389
2304.92481079,0.00393742
2306.85361816,0.00390602
2308.78242554,0.00385561
2310.71123291,0.00384555
2312.64004028,0.00378229
2314.56884766,0.00377128
2316.49765503,0.00368939
2318.42646240,0.00373744
2320.35526978,0.00370007
2322.28407715,0.00353624
2324.21288452,0.00353734
2326.14169189,0.00356555
2328.07049927,0.00353266
2329.99930664,0.00341131
2331.92811401,0.00343644
2333.85692139,0.00348921
2335.78572876,0.00346218
2337.71453613,0.00345058
2339.64334351,0.00341632
2341.57215088,0.00342874
2343.50095825,0.00342090
2345.42976562,0.00354916
2347.35857300,0.00370920
2349.28738037,0.00379694
2351.21618774,0.00372989
2353.14499512,0.00350213
2355.07380249,0.00345229
2357.00260986,0.00328927
2358.93141724,0.00323729
2360.86022461,0.00330214
2362.78903198,0.00318253
2364.71783936,0.00330984
2366.64664673,0.00331913
2368.57545410,0.00330128
2370.50426147,0.00351799
2372.43306885,0.00355482
2374.36187622,0.00357348
2376.29068359,0.00362286
2378.21949097,0.00374511
2380.14829834,0.00387296
2382.07710571,0.00383668
2384.00591309,0.00383303
2385.93472046,0.00387628
2387.86352783,0.00390858
2389.79233521,0.00387256
2391.72114258,0.00383654
2393.64994995,0.00381123
2395.57875732,0.00379990
2397.50756470,0.00383345
2399.43637207,0.00384277
2401.36517944,0.00388461
2403.29398682,0.00379225
2405.22279419,0.00381357
2407.15160156,0.00387943
2409.08040894,0.00373961
2411.00921631,0.00385217
2412.93802368,0.00381780
2414.86683105,0.00369605
2416.79563843,0.00386269
2418.72444580,0.00387986
2420.65325317,0.00380318
2422.58206055,0.00378936
2424.51086792,0.00386425
2426.43967529,0.00381179
2428.36848267,0.00372389
2430.29729004,0.00374373
2432.22609741,0.00367750
2434.15490479,0.00380247
2436.08371216,0.00385078
2438.01251953,0.00372152
2439.94132690,0.00378337
2441.87013428,0.00380196
2443.79894165,0.00378239
2445.72774902,0.00379196
2447.65655640,0.00371222
2449.58536377,0.00374315
2451.51417114,0.00382208
2453.44297852,0.00373846
2455.37178589,0.00373564
2457.30059326,0.00386378
2459.22940063,0.00385295
2461.15820801,0.00369734
2463.08701538,0.00371351
2465.01582275,0.00373648
2466.94463013,0.00360063
2468.87343750,0.00371059
2470.80224487,0.00376685
2472.73105225,0.00371016
2474.65985962,0.00373367
2476.58866699,0.00366636
2478.51747437,0.00367469
2480.44628174,0.00367206
2482.37508911,0.00372508
2484.30389648,0.00378233
2486.23270386,0.00374829
2488.16151123,0.00372913
2490.09031860,0.00368027
2492.01912598,0.00373543
2493.94793335,0.00367232
2495.87674072,0.00360746
2497.80554810,0.00374910
2499.73435547,0.00372722
2501.66316284,0.00363729
2503.59197021,0.00377626
2505.52077759,0.00380072
2507.44958496,0.00363988
2509.37839233,0.00370982
2511.30719971,0.00376916
2513.23600708,0.00370338
2515.16481445,0.00359847
2517.09362183,0.00366363
2519.02242920,0.00379296
2520.95123657,0.00361468
2522.88004395,0.00365292
2524.80885132,0.00366265
2526.73765869,0.00362313
2528.66646606,0.00370190
2530.59527344,0.00354056
2532.52408081,0.00364417
2534.45288818,0.00371693
2536.38169556,0.00363214
2538.31050293,0.00363752
2540.23931030,0.00356640
2542.16811768,0.00364771
2544.09692505,0.00367290
2546.02573242,0.00363518
2547.95453979,0.00365256
2549.88334717,0.00362135
2551.81215454,0.00360245
2553.74096191,0.00363402
2555.66976929,0.00363451
2557.59857666,0.00350549
2559.52738403,0.00358408
2561.45619141,0.00364207
2563.38499878,0.00345350
2565.31380615,0.00357786
2567.24261353,0.00361269
2569.17142090,0.00345197
2571.10022827,0.00362420
2573.02903564,0.00360794
2574.95784302,0.00349103
2576.88665039,0.00350261
2578.81545776,0.00348408
2580.74426514,0.00364248
2582.67307251,0.00355549
2584.60187988,0.00345419
2586.53068726,0.00355535
2588.45949463,0.00345790
2590.38830200,0.00339871
2592.31710937,0.00341864
2594.24591675,0.00349923
2596.17472412,0.00347812
2598.10353149,0.00344842
2600.03233887,0.00358699
2601.96114624,0.00361011
2603.88995361,0.00359690
2605.81876099,0.00355586
2607.74756836,0.00347038
2609.67637573,0.00340153
2611.60518311,0.00349370
2613.53399048,0.00357419
2615.46279785,0.00343624
2617.39160522,0.00348223
2619.32041260,0.00347174
2621.24921997,0.00341720
2623.17802734,0.00361002
2625.10683472,0.00354407
2627.03564209,0.00343130
2628.96444946,0.00356986
2630.89325684,0.00354253
2632.82206421,0.00349556
2634.75087158,0.00350443
2636.67967895,0.00343699
2638.60848633,0.00345336
2640.53729370,0.00347570
2642.46610107,0.00354505
2644.39490845,0.00351525
2646.32371582,0.00341839
2648.25252319,0.00348487
2650.18133057,0.00349012
2652.11013794,0.00347184
2654.03894531,0.00342549
2655.96775269,0.00346807
2657.89656006,0.00350641
2659.82536743,0.00340229
2661.75417480,0.00343693
2663.68298218,0.00336289
2665.61178955,0.00330748
2667.54059692,0.00341844
2669.46940430,0.00340505
2671.39821167,0.00339393
2673.32701904,0.00344550
2675.25582642,0.00344267
2677.18463379,0.00341407
2679.11344116,0.00335878
2681.04224854,0.00336329
2682.97105591,0.00348084
2684.89986328,0.00335647
2686.82867065,0.00329338
2688.75747803,0.00339258
2690.68628540,0.00329916
2692.61509277,0.00334632
2694.54390015,0.00338146
2696.47270752,0.00335924
2698.40151489,0.00334423
2700.33032227,0.00334944
2702.25912964,0.00340943
2704.18793701,0.00329926
2706.11674438,0.00330578
2708.04555176,0.00329166
2709.97435913,0.00327064
2711.90316650,0.00329925
2713.83197388,0.00327926
2715.76078125,0.00341603
2717.68958862,0.00338828
2719.61839600,0.00333248
2721.54720337,0.00331495
2723.47601074,0.00331942
2725.40481812,0.00336440
2727.33362549,0.00320165
2729.26243286,0.00317665
2731.19124023,0.00322800
2733.12004761,0.00320880
2735.04885498,0.00321207
2736.97766235,0.00325815
2738.90646973,0.00332939
2740.83527710,0.00329287
2742.76408447,0.00331439
2744.69289185,0.00329256
2746.62169922,0.00317810
2748.55050659,0.00317404
2750.47931396,0.00322450
2752.40812134,0.00319853
2754.33692871,0.00323311
2756.26573608,0.00326904
2758.19454346,0.00308546
2760.12335083,0.00320197
2762.05215820,0.00329970
2763.98096558,0.00310480
2765.90977295,0.00328796
2767.83858032,0.00328480
2769.76738770,0.00312058
2771.69619507,0.00324154
2773.62500244,0.00327600
2775.55380981,0.00329070
2777.48261719,0.00314508
2779.41142456,0.00311856
2781.34023193,0.00324949
2783.26903931,0.00310972
2785.19784668,0.00311276
2787.12665405,0.00310042
2789.05546143,0.00304201
2790.98426880,0.00313767
2792.91307617,0.00313276
2794.84188354,0.00314257
2796.77069092,0.00309827
2798.69949829,0.00307644
2800.62830566,0.00311742
2802.55711304,0.00314288
2804.48592041,0.00318601
2806.41472778,0.00311361
2808.34353516,0.00308765
2810.27234253,0.00309365
2812.20114990,0.00313562
2814.12995728,0.00315609
2816.05876465,0.00308035
2817.98757202,0.00310012
2819.91637939,0.00305582
2821.84518677,0.00304873
2823.77399414,0.00310685
2825.70280151,0.00310814
2827.63160889,0.00309999
2829.56041626,0.00303131
2831.48922363,0.00307494
2833.41803101,0.00305313
2835.34683838,0.00294020
2837.27564575,0.00303263
2839.20445312,0.00307672
2841.13326050,0.00306446
2843.06206787,0.00306358
2844.99087524,0.00293159
2846.91968262,0.00292461
2848.84848999,0.00290211
2850.77729736,0.00278174
2852.70610474,0.00288719
2854.63491211,0.00297131
2856.56371948,0.00298795
2858.49252686,0.00294945
2860.42133423,0.00289777
2862.35014160,0.00300879
2864.27894897,0.00293169
2866.20775635,0.00281320
2868.13656372,0.00288607
2870.06537109,0.00296746
2871.99417847,0.00293774
2873.92298584,0.00289350
2875.85179321,0.00298767
2877.78060059,0.00290938
2879.70940796,0.00282761
2881.63821533,0.00293598
2883.56702270,0.00292981
2885.49583008,0.00290790
2887.42463745,0.00292378
2889.35344482,0.00287535
2891.28225220,0.00287445
2893.21105957,0.00292922
2895.13986694,0.00289171
2897.06867432,0.00286082
2898.99748169,0.00281587
2900.92628906,0.00276865
2902.85509644,0.00273748
2904.78390381,0.00270077
2906.71271118,0.00286141
2908.64151855,0.00281473
2910.57032593,0.00269768
2912.49913330,0.00283200
2914.42794067,0.00281681
2916.35674805,0.00275177
2918.28555542,0.00273748
2920.21436279,0.00276528
2922.14317017,0.00274868
2924.07197754,0.00270602
2926.00078491,0.00270310
2927.92959229,0.00272428
2929.85839966,0.00271375
2931.78720703,0.00261068
2933.71601440,0.00281255
2935.64482178,0.00283471
2937.57362915,0.00266394
2939.50243652,0.00274159
2941.43124390,0.00267862
2943.36005127,0.00274994
2945.28885864,0.00278126
2947.21766602,0.00271466
2949.14647339,0.00273428
2951.07528076,0.00274037
2953.00408813,0.00284741
2954.93289551,0.00275923
2956.86170288,0.00267932
2958.79051025,0.00270968
2960.71931763,0.00272995
2962.64812500,0.00276516
2964.57693237,0.00273273
2966.50573975,0.00268590
2968.43454712,0.00265701
2970.36335449,0.00269836
2972.29216187,0.00261959
2974.22096924,0.00260919
2976.14977661,0.00265411
2978.07858398,0.00265976
2980.00739136,0.00268681
2981.93619873,0.00259405
2983.86500610,0.00267686
2985.79381348,0.00267864
2987.72262085,0.00264434
2989.65142822,0.00266449
2991.58023560,0.00257639
2993.50904297,0.00265701
2995.43785034,0.00267768
2997.36665771,0.00266152
2999.29546509,0.00259990
3001.22427246,0.00255946
3003.15307983,0.00260604
3005.08188721,0.00262424
3007.01069458,0.00268209
3008.93950195,0.00262137
3010.86830933,0.00264950
3012.79711670,0.00266001
3014.72592407,0.00262564
3016.65473145,0.00266002
3018.58353882,0.00260137
3020.51234619,0.00262615
3022.44115356,0.00273333
3024.36996094,0.00272004
3026.29876831,0.00258463
3028.22757568,0.00265987
3030.15638306,0.00263704
3032.08519043,0.00253551
3034.01399780,0.00264117
3035.94280518,0.00258358
3037.87161255,0.00259779
3039.80041992,0.00258279
3041.72922729,0.00249959
3043.65803467,0.00250627
3045.58684204,0.00250687
3047.51564941,0.00251224
3049.44445679,0.00252606
3051.37326416,0.00260772
3053.30207153,0.00246752
3055.23087891,0.00249878
3057.15968628,0.00264571
3059.08849365,0.00252742
3061.01730103,0.00250965
3062.94610840,0.00254767
3064.87491577,0.00261426
3066.80372314,0.00255317
3068.73253052,0.00253013
3070.66133789,0.00254068
3072.59014526,0.00247494
3074.51895264,0.00254060
3076.44776001,0.00253223
3078.37656738,0.00255001
3080.30537476,0.00255534
3082.23418213,0.00252490
3084.16298950,0.00246747
3086.09179687,0.00251950
3088.02060425,0.00261786
3089.94941162,0.00253878
3091.87821899,0.00257199
3093.80702637,0.00247529
3095.73583374,0.00247170
3097.66464111,0.00251956
3099.59344849,0.00246724
3101.52225586,0.00258117
3103.45106323,0.00248297
3105.37987061,0.00248171
3107.30867798,0.00249685
3109.23748535,0.00244820
3111.16629272,0.00256859
3113.09510010,0.00251843
3115.02390747,0.00242945
3116.95271484,0.00240519
3118.88152222,0.00247829
3120.81032959,0.00249500
3122.73913696,0.00242863
3124.66794434,0.00243366
3126.59675171,0.00241919
3128.52555908,0.00245672
3130.45436645,0.00244855
3132.38317383,0.00239826
3134.31198120,0.00241475
3136.24078857,0.00249749
3138.16959595,0.00251175
3140.09840332,0.00237209
3142.02721069,0.00239283
3143.95601807,0.00257345
3145.88482544,0.00252063
3147.81363281,0.00238184
3149.74244019,0.00245908
3151.67124756,0.00247075
3153.60005493,0.00236587
3155.52886230,0.00236585
3157.45766968,0.00245024
3159.38647705,0.00248769
3161.31528442,0.00243871
3163.24409180,0.00240555
3165.17289917,0.00241156
3167.10170654,0.00241975
3169.03051392,0.00236995
3170.95932129,0.00242744
3172.88812866,0.00248847
3174.81693604,0.00243703
3176.74574341,0.00246087
3178.67455078,0.00236211
3180.60335815,0.00230199
3182.53216553,0.00246467
3184.46097290,0.00257979
3186.38978027,0.00247312
3188.31858765,0.00237377
3190.24739502,0.00246749
3192.17620239,0.00243010
3194.10500977,0.00239300
3196.03381714,0.00243735
3197.96262451,0.00242629
3199.89143188,0.00245526
3201.82023926,0.00241890
3203.74904663,0.00242112
3205.67785400,0.00247439
3207.60666138,0.00240145
3209.53546875,0.00233259
3211.46427612,0.00239090
3213.39308350,0.00245121
3215.32189087,0.00246139
3217.25069824,0.00246950
3219.17950562,0.00247753
3221.10831299,0.00248764
3223.03712036,0.00247796
3224.96592773,0.00244345
3226.89473511,0.00244722
3228.82354248,0.00254493
3230.75234985,0.00254018
3232.68115723,0.00253142
3234.60996460,0.00260459
3236.53877197,0.00250817
3238.46757935,0.00249352
3240.39638672,0.00254474
3242.32519409,0.00246134
3244.25400146,0.00250490
3246.18280884,0.00260756
3248.11161621,0.00253230
3250.04042358,0.00250995
3251.96923096,0.00257488
3253.89803833,0.00255698
3255.82684570,0.00257201
3257.75565308,0.00254805
3259.68446045,0.00255584
3261.61326782,0.00254094
3263.54207520,0.00254669
3265.47088257,0.00264359
3267.39968994,0.00253201
3269.32849731,0.00252856
3271.25730469,0.00256696
3273.18611206,0.00253071
3275.11491943,0.00256472
3277.04372681,0.00257138
3278.97253418,0.00260766
3280.90134155,0.00255611
3282.83014893,0.00260457
3284.75895630,0.00260337
3286.68776367,0.00257082
3288.61657104,0.00266559
3290.54537842,0.00260786
3292.47418579,0.00262211
3294.40299316,0.00258817
3296.33180054,0.00252143
3298.26060791,0.00255810
3300.18941528,0.00262657
3302.11822266,0.00270222
3304.04703003,0.00265628
3305.97583740,0.00265121
3307.90464478,0.00261592
3309.83345215,0.00265066
3311.76225952,0.00267243
3313.69106689,0.00261867
3315.61987427,0.00272535
3317.54868164,0.00267298
3319.47748901,0.00261332
3321.40629639,0.00267309
3323.33510376,0.00264437
3325.26391113,0.00264187
3327.19271851,0.00270386
3329.12152588,0.00274490
3331.05033325,0.00274973
3332.97914062,0.00275041
3334.90794800,0.00265295
3336.83675537,0.00266645
3338.76556274,0.00275546
3340.69437012,0.00265439
3342.62317749,0.00262678
3344.55198486,0.00272415
3346.48079224,0.00279642
3348.40959961,0.00276815
3350.33840698,0.00275257
3352.26721436,0.00282254
3354.19602173,0.00276629
3356.12482910,0.00277342
3358.05363647,0.00285474
3359.98244385,0.00279716
3361.91125122,0.00277395
3363.84005859,0.00280162
3365.76886597,0.00284481
3367.69767334,0.00284595
3369.62648071,0.00277935
3371.55528809,0.00276084
3373.48409546,0.00275275
3375.41290283,0.00274314
3377.34171020,0.00281538
3379.27051758,0.00290684
3381.19932495,0.00280870
3383.12813232,0.00282695
3385.05693970,0.00292952
3386.98574707,0.00279837
3388.91455444,0.00283676
3390.84336182,0.00283113
3392.77216919,0.00279173
3394.70097656,0.00291701
3396.62978394,0.00287084
3398.55859131,0.00289710
3400.48739868,0.00292143
3402.41620605,0.00287498
3404.34501343,0.00293574
3406.27382080,0.00289474
3408.20262817,0.00279324
3410.13143555,0.00291974
3412.06024292,0.00307082
3413.98905029,0.00293686
3415.91785767,0.00283403
3417.84666504,0.00288093
3419.77547241,0.00296837
3421.70427979,0.00293825
3423.63308716,0.00288130
3425.56189453,0.00290554
3427.49070190,0.00284674
3429.41950928,0.00291789
3431.34831665,0.00287246
3433.27712402,0.00282541
3435.20593140,0.00299188
3437.13473877,0.00297179
3439.06354614,0.00297339
3440.99235352,0.00298860
3442.92116089,0.00289236
3444.84996826,0.00289449
3446.77877563,0.00295329
3448.70758301,0.00291859
3450.63639038,0.00294796
3452.56519775,0.00297775
3454.49400513,0.00289144
3456.42281250,0.00294887
3458.35161987,0.00293747
3460.28042725,0.00288172
3462.20923462,0.00295355
3464.13804199,0.00302620
3466.06684937,0.00299675
3467.99565674,0.00287613
3469.92446411,0.00292128
3471.85327148,0.00301842
3473.78207886,0.00306943
3475.71088623,0.00304279
3477.63969360,0.00295870
3479.56850098,0.00295091
3481.49730835,0.00296181
3483.42611572,0.00295394
3485.35492310,0.00295387
3487.28373047,0.00296622
3489.21253784,0.00293454
3491.14134521,0.00297386
3493.07015259,0.00290096
3494.99895996,0.00291314
3496.92776733,0.00307134
3498.85657471,0.00298362
3500.78538208,0.00295203
3502.71418945,0.00291329
3504.64299683,0.00297706
3506.57180420,0.00299107
3508.50061157,0.00292425
3510.42941895,0.00303821
3512.35822632,0.00291548
3514.28703369,0.00299237
3516.21584106,0.00303678
3518.14464844,0.00293133
3520.07345581,0.00305872
3522.00226318,0.00293245
3523.93107056,0.00283300
3525.85987793,0.00283954
3527.78868530,0.00282478
3529.71749268,0.00293309
3531.64630005,0.00298031
3533.57510742,0.00294991
3535.50391479,0.00292413
3537.43272217,0.00296421
3539.36152954,0.00297211
3541.29033691,0.00289025
3543.21914429,0.00300634
3545.14795166,0.00303852
3547.07675903,0.00278077
3549.00556641,0.00285280
3550.93437378,0.00290704
3552.86318115,0.00288487
3554.79198853,0.00302295
3556.72079590,0.00295464
3558.64960327,0.00291627
3560.57841064,0.00285730
3562.50721802,0.00293447
3564.43602539,0.00290433
3566.36483276,0.00263186
3568.29364014,0.00264115
3570.22244751,0.00279899
3572.15125488,0.00289787
3574.08006226,0.00278786
3576.00886963,0.00285920
3577.93767700,0.00283229
3579.86648437,0.00277703
3581.79529175,0.00291717
3583.72409912,0.00281715
3585.65290649,0.00281654
3587.58171387,0.00260001
3589.51052124,0.00267398
3591.43932861,0.00287347
3593.36813599,0.00268050
3595.29694336,0.00272878
3597.22575073,0.00271347
3599.15455811,0.00279477
3601.08336548,0.00275309
3603.01217285,0.00272495
3604.94098022,0.00283865
3606.86978760,0.00268610
3608.79859497,0.00254536
3610.72740234,0.00255645
3612.65620972,0.00270693
3614.58501709,0.00262761
3616.51382446,0.00273750
3618.44263184,0.00257630
3620.37143921,0.00240165
3622.30024658,0.00280692
3624.22905395,0.00277354
3626.15786133,0.00280063
3628.08666870,0.00243233
3630.01547607,0.00222729
3631.94428345,0.00272573
3633.87309082,0.00268725
3635.80189819,0.00272452
3637.73070557,0.00277872
3639.65951294,0.00275647
3641.58832031,0.00270339
3643.51712769,0.00263798
3645.44593506,0.00266504
3647.37474243,0.00241711
3649.30354980,0.00218530
3651.23235718,0.00225464
3653.16116455,0.00267982
3655.08997192,0.00255188
3657.01877930,0.00243982
3658.94758667,0.00275182
3660.87639404,0.00264077
3662.80520142,0.00267336
3664.73400879,0.00260026
3666.66281616,0.00264546
3668.59162354,0.00244700
3670.52043091,0.00207646
3672.44923828,0.00251106
3674.37804565,0.00229931
3676.30685303,0.00199909
3678.23566040,0.00239358
3680.16446777,0.00255344
3682.09327515,0.00253798
3684.02208252,0.00249502
3685.95088989,0.00257572
3687.87969727,0.00227441
3689.80850464,0.00211027
3691.73731201,0.00244234
3693.66611938,0.00237997
3695.59492676,0.00237899
3697.52373413,0.00242319
3699.45254150,0.00244543
3701.38134888,0.00243637
3703.31015625,0.00228628
3705.23896362,0.00247823
3707.16777100,0.00245310
3709.09657837,0.00234449
3711.02538574,0.00218411
3712.95419312,0.00198797
3714.88300049,0.00234901
3716.81180786,0.00241563
3718.74061523,0.00226562
3720.66942261,0.00228039
3722.59822998,0.00222117
3724.52703735,0.00218327
3726.45584473,0.00218146
3728.38465210,0.00224531
3730.31345947,0.00217006
3732.24226685,0.00209995
3734.17107422,0.00202237
3736.09988159,0.00200368
3738.02868896,0.00205646
3739.95749634,0.00219871
3741.88630371,0.00225996
3743.81511108,0.00174143
3745.74391846,0.00183344
3747.67272583,0.00219051
3749.60153320,0.00181817
3751.53034058,0.00178776
3753.45914795,0.00196486
3755.38795532,0.00209234
3757.31676270,0.00225441
3759.24557007,0.00205989
3761.17437744,0.00205291
3763.10318481,0.00223829
3765.03199219,0.00202806
3766.96079956,0.00207360
3768.88960693,0.00215954
3770.81841431,0.00199561
3772.74722168,0.00214699
3774.67602905,0.00215961
3776.60483643,0.00220368
3778.53364380,0.00216567
3780.46245117,0.00206547
3782.39125854,0.00219554
3784.32006592,0.00209930
3786.24887329,0.00210892
3788.17768066,0.00207295
3790.10648804,0.00207843
3792.03529541,0.00220569
3793.96410278,0.00218576
3795.89291016,0.00202001
3797.82171753,0.00196829
3799.75052490,0.00205976
3801.67933228,0.00172831
3803.60813965,0.00193533
3805.53694702,0.00205054
3807.46575439,0.00176323
3809.39456177,0.00203620
3811.32336914,0.00203170
3813.25217651,0.00212143
3815.18098389,0.00192015
3817.10979126,0.00177180
3819.03859863,0.00198747
3820.96740601,0.00161892
3822.89621338,0.00183130
3824.82502075,0.00207576
3826.75382812,0.00190183
3828.68263550,0.00205999
3830.61144287,0.00201238
3832.54025024,0.00183703
3834.46905762,0.00190104
3836.39786499,0.00188460
3838.32667236,0.00170299
3840.25547974,0.00179206
3842.18428711,0.00188550
3844.11309448,0.00188261
3846.04190186,0.00191396
3847.97070923,0.00190264
3849.89951660,0.00189904
3851.82832397,0.00169666
3853.75713135,0.00144704
3855.68593872,0.00159424
3857.61474609,0.00201999
3859.54355347,0.00191550
3861.47236084,0.00174545
3863.40116821,0.00178525
3865.32997559,0.00170109
3867.25878296,0.00193465
3869.18759033,0.00175386
3871.11639770,0.00162175
3873.04520508,0.00187329
3874.97401245,0.00174741
3876.90281982,0.00188401
3878.83162720,0.00184018
3880.76043457,0.00166806
3882.68924194,0.00188897
3884.61804932,0.00171444
3886.54685669,0.00160589
3888.47566406,0.00185875
3890.40447144,0.00174444
3892.33327881,0.00168832
3894.26208618,0.00186835
3896.19089355,0.00181960
3898.11970093,0.00173831
3900.04850830,0.00170085
3901.97731567,0.00171457
3903.90612305,0.00170306
3905.83493042,0.00169551
3907.76373779,0.00180935
3909.69254517,0.00183750
3911.62135254,0.00186084
3913.55015991,0.00186108
3915.47896728,0.00179264
3917.40777466,0.00174733
3919.33658203,0.00175936
3921.26538940,0.00177943
3923.19419678,0.00179782
3925.12300415,0.00183122
3927.05181152,0.00179687
3928.98061890,0.00177672
3930.90942627,0.00171354
3932.83823364,0.00173754
3934.76704102,0.00177861
3936.69584839,0.00174901
3938.62465576,0.00180405
3940.55346313,0.00175624
3942.48227051,0.00178751
3944.41107788,0.00182146
3946.33988525,0.00172900
3948.26869263,0.00172574
3950.19750000,0.00177404
3952.12630737,0.00172392
3954.05511475,0.00165947
3955.98392212,0.00177160
3957.91272949,0.00172679
3959.84153687,0.00166237
3961.77034424,0.00171130
3963.69915161,0.00170306
3965.62795898,0.00172760
3967.55676636,0.00165153
3969.48557373,0.00166479
3971.41438110,0.00171641
3973.34318848,0.00171267
3975.27199585,0.00173096
3977.20080322,0.00170391
3979.12961060,0.00170375
3981.05841797,0.00165105
3982.98722534,0.00167515
3984.91603271,0.00173705
3986.84484009,0.00165563
3988.77364746,0.00160503
3990.70245483,0.00166931
3992.63126221,0.00167233
3994.56006958,0.00165989
3996.48887695,0.00171581
3998.41768433,0.00170018
4000.34649170,0.00169559
4002.27529907,0.00162265
4004.20410645,0.00160736
4006.13291382,0.00169496
4008.06172119,0.00165526
4009.99052856,0.00159466
4011.91933594,0.00154118
4013.84814331,0.00163229
4015.77695068,0.00165882
4017.70575806,0.00156641
4019.63456543,0.00161866
4021.56337280,0.00163958
4023.49218018,0.00158481
4025.42098755,0.00151231
4027.34979492,0.00157760
4029.27860229,0.00162195
4031.20740967,0.00159385
4033.13621704,0.00164323
4035.06502441,0.00158947
4036.99383179,0.00160271
4038.92263916,0.00161472
4040.85144653,0.00158130
4042.78025391,0.00160807
4044.70906128,0.00153539
4046.63786865,0.00153403
4048.56667603,0.00159049
4050.49548340,0.00159828
4052.42429077,0.00152142
4054.35309814,0.00143611
4056.28190552,0.00150946
4058.21071289,0.00151956
4060.13952026,0.00152986
4062.06832764,0.00153820
4063.99713501,0.00149232
4065.92594238,0.00151407
4067.85474976,0.00148745
4069.78355713,0.00155029
4071.71236450,0.00148461
4073.64117187,0.00146651
4075.56997925,0.00164551
4077.49878662,0.00150751
4079.42759399,0.00148997
4081.35640137,0.00155984
4083.28520874,0.00150103
4085.21401611,0.00150310
4087.14282349,0.00149231
4089.07163086,0.00153808
4091.00043823,0.00145153
4092.92924561,0.00148239
4094.85805298,0.00156913
4096.78686035,0.00151409
4098.71566772,0.00151025
4100.64447510,0.00145951
4102.57328247,0.00152317
4104.50208984,0.00153489
4106.43089722,0.00146598
4108.35970459,0.00147519
4110.28851196,0.00148545
4112.21731934,0.00146563
4114.14612671,0.00143508
4116.07493408,0.00144417
4118.00374145,0.00137452
4119.93254883,0.00142429
4121.86135620,0.00146534
4123.79016357,0.00144310
4125.71897095,0.00144296
4127.64777832,0.00138409
4129.57658569,0.00148184
4131.50539307,0.00152406
4133.43420044,0.00148495
4135.36300781,0.00137878
4137.29181519,0.00139655
4139.22062256,0.00146765
4141.14942993,0.00134037
4143.07823730,0.00141778
4145.00704468,0.00138510
4146.93585205,0.00137031
4148.86465942,0.00139971
4150.79346680,0.00130882
4152.72227417,0.00142811
4154.65108154,0.00133217
4156.57988892,0.00128881
4158.50869629,0.00136916
4160.43750366,0.00130327
4162.36631103,0.00134536
4164.29511841,0.00135514
4166.22392578,0.00135725
4168.15273315,0.00137233
4170.08154053,0.00138954
4172.01034790,0.00135317
4173.93915527,0.00131620
4175.86796265,0.00140939
4177.79677002,0.00137864
4179.72557739,0.00133391
4181.65438477,0.00140297
4183.58319214,0.00139946
4185.51199951,0.00136279
4187.44080688,0.00133853
4189.36961426,0.00130127
4191.29842163,0.00130032
4193.22722900,0.00135117
4195.15603638,0.00136643
4197.08484375,0.00131407
4199.01365112,0.00133365
4200.94245850,0.00134052
4202.87126587,0.00129712
4204.80007324,0.00129228
4206.72888062,0.00119478
4208.65768799,0.00122553
4210.58649536,0.00133041
4212.51530273,0.00127634
4214.44411011,0.00128778
4216.37291748,0.00133306
4218.30172485,0.00130797
4220.23053223,0.00126570
4222.15933960,0.00128597
4224.08814697,0.00127321
4226.01695435,0.00128983
4227.94576172,0.00135450
4229.87456909,0.00128218
4231.80337646,0.00126634
4233.73218384,0.00125036
4235.66099121,0.00126842
4237.58979858,0.00132601
4239.51860596,0.00125046
4241.44741333,0.00127633
4243.37622070,0.00130906
4245.30502808,0.00125474
4247.23383545,0.00123498
4249.16264282,0.00121037
4251.09145020,0.00121230
4253.02025757,0.00125909
4254.94906494,0.00123474
4256.87787231,0.00121429
4258.80667969,0.00126723
4260.73548706,0.00124980
4262.66429443,0.00124476
4264.59310181,0.00121289
4266.52190918,0.00118679
4268.45071655,0.00124728
4270.37952393,0.00120929
4272.30833130,0.00112661
4274.23713867,0.00110780
4276.16594604,0.00118945
4278.09475342,0.00125772
4280.02356079,0.00120871
4281.95236816,0.00118854
4283.88117554,0.00122609
4285.80998291,0.00116585
4287.73879028,0.00113708
4289.66759766,0.00125099
4291.59640503,0.00127023
4293.52521240,0.00121314
4295.45401978,0.00118468
4297.38282715,0.00123537
4299.31163452,0.00119536
4301.24044189,0.00111790
4303.16924927,0.00120149
4305.09805664,0.00115418
4307.02686401,0.00113024
4308.95567139,0.00113408
4310.88447876,0.00113730
4312.81328613,0.00121315
4314.74209351,0.00113378
4316.67090088,0.00111561
4318.59970825,0.00114640
4320.52851562,0.00117497
4322.45732300,0.00114127
4324.38613037,0.00111440
4326.31493774,0.00114401
4328.24374512,0.00102139
4330.17255249,0.00109724
4332.10135986,0.00111365
4334.03016724,0.00104841
4335.95897461,0.00115148
4337.88778198,0.00102503
4339.81658936,0.00105125
4341.74539673,0.00119197
4343.67420410,0.00110016
4345.60301147,0.00106334
4347.53181885,0.00106153
4349.46062622,0.00109817
4351.38943359,0.00110448
4353.31824097,0.00108483
4355.24704834,0.00115699
4357.17585571,0.00109666
4359.10466309,0.00108343
4361.03347046,0.00114577
4362.96227783,0.00105975
4364.89108520,0.00105707
4366.81989258,0.00108128
4368.74869995,0.00105735
4370.67750732,0.00108114
4372.60631470,0.00105969
4374.53512207,0.00100876
4376.46392944,0.00108116
4378.39273682,0.00110038
4380.32154419,0.00101755
4382.25035156,0.00111284
4384.17915894,0.00103420
4386.10796631,0.00096391
4388.03677368,0.00105093
4389.96558105,0.00096782
4391.89438843,0.00100412
4393.82319580,0.00096240
4395.75200317,0.00098953
4397.68081055,0.00106608
4399.60961792,0.00102164
4401.53842529,0.00108607
4403.46723267,0.00099075
4405.39604004,0.00102830
4407.32484741,0.00100631
4409.25365478,0.00095301
4411.18246216,0.00105652
4413.11126953,0.00093550
4415.04007690,0.00105542
4416.96888428,0.00110875
4418.89769165,0.00099254
4420.82649902,0.00104588
4422.75530640,0.00100983
4424.68411377,0.00099965
4426.61292114,0.00096894
4428.54172852,0.00102831
4430.47053589,0.00106543
4432.39934326,0.00095316
4434.32815063,0.00099266
4436.25695801,0.00099336
4438.18576538,0.00097303
4440.11457275,0.00101303
4442.04338013,0.00100031
4443.97218750,0.00105568
4445.90099487,0.00101354
4447.82980225,0.00093149
4449.75860962,0.00102532
4451.68741699,0.00100261
4453.61622437,0.00095790
4455.54503174,0.00096827
4457.47383911,0.00091690
4459.40264648,0.00101325
4461.33145386,0.00102350
4463.26026123,0.00090103
4465.18906860,0.00090861
4467.11787598,0.00093004
4469.04668335,0.00095141
4470.97549072,0.00095394
4472.90429810,0.00089807
4474.83310547,0.00092424
4476.76191284,0.00094538
4478.69072021,0.00095175
4480.61952759,0.00095106
4482.54833496,0.00084044
4484.47714233,0.00090620
4486.40594971,0.00092324
4488.33475708,0.00083974
4490.26356445,0.00093793
4492.19237183,0.00089450
4494.12117920,0.00093173
4496.04998657,0.00100265
4497.97879395,0.00094666
4499.90760132,0.00094650
4501.83640869,0.00090981
4503.76521606,0.00092247
4505.69402344,0.00088335
4507.62283081,0.00092841
4509.55163818,0.00096209
4511.48044556,0.00090349
4513.40925293,0.00093441
4515.33806030,0.00083877
4517.26686768,0.00081656
4519.19567505,0.00085751
4521.12448242,0.00091151
4523.05328979,0.00095268
4524.98209717,0.00085383
4526.91090454,0.00082339
4528.83971191,0.00081684
4530.76851929,0.00083203
4532.69732666,0.00087677
4534.62613403,0.00092126
4536.55494141,0.00089280
4538.48374878,0.00085479
4540.41255615,0.00086452
4542.34136353,0.00087999
4544.27017090,0.00093053
4546.19897827,0.00081435
4548.12778564,0.00084745
4550.05659302,0.00090313
4551.98540039,0.00079184
4553.91420776,0.00089231
4555.84301514,0.00090031
4557.77182251,0.00084732
4559.70062988,0.00082469
4561.62943726,0.00085614
4563.55824463,0.00094659
4565.48705200,0.00086963
4567.41585937,0.00085786
4569.34466675,0.00085376
4571.27347412,0.00084753
4573.20228149,0.00090316
4575.13108887,0.00087140
4577.05989624,0.00082797
4578.98870361,0.00083976
4580.91751099,0.00085241
4582.84631836,0.00080658
4584.77512573,0.00081272
4586.70393311,0.00077494
4588.63274048,0.00073526
4590.56154785,0.00078505
4592.49035522,0.00078730
4594.41916260,0.00082165
4596.34796997,0.00079533
4598.27677734,0.00077935
4600.20558472,0.00086115
4602.13439209,0.00085223
4604.06319946,0.00078114
4605.99200684,0.00079190
4607.92081421,0.00083078
4609.84962158,0.00074439
4611.77842895,0.00077205
4613.70723633,0.00080171
4615.63604370,0.00070654
4617.56485107,0.00080123
4619.49365845,0.00078611
4621.42246582,0.00073419
4623.35127319,0.00085674
4625.28008057,0.00080494
4627.20888794,0.00074939
4629.13769531,0.00081885
4631.06650269,0.00081149
4632.99531006,0.00074487
4634.92411743,0.00077188
4636.85292480,0.00080726
4638.78173218,0.00074797
4640.71053955,0.00079044
4642.63934692,0.00079392
4644.56815430,0.00073131
4646.49696167,0.00075604
4648.42576904,0.00075206
4650.35457642,0.00077737
4652.28338379,0.00076684
4654.21219116,0.00075293
4656.14099853,0.00080428
4658.06980591,0.00074358
4659.99861328,0.00067352
4661.92742065,0.00069548
4663.85622803,0.00071609
4665.78503540,0.00074262
4667.71384277,0.00077047
4669.64265015,0.00069852
4671.57145752,0.00071079
4673.50026489,0.00077218
4675.42907227,0.00072727
4677.35787964,0.00075323
4679.28668701,0.00069647
4681.21549438,0.00069392
4683.14430176,0.00073272
4685.07310913,0.00067587
4687.00191650,0.00075141
4688.93072388,0.00069985
4690.85953125,0.00072248
4692.78833862,0.00077063
4694.71714600,0.00068640
4696.64595337,0.00079331
4698.57476074,0.00077970
4700.50356812,0.00076314
4702.43237549,0.00074519
4704.36118286,0.00070524
4706.28999023,0.00078632
4708.21879761,0.00069977
4710.14760498,0.00074783
4712.07641235,0.00077330
4714.00521973,0.00071197
4715.93402710,0.00079582
4717.86283447,0.00072985
4719.79164185,0.00069733
4721.72044922,0.00069972
4723.64925659,0.00068007
4725.57806396,0.00069466
4727.50687134,0.00070138
4729.43567871,0.00072615
4731.36448608,0.00069691
4733.29329346,0.00076483
4735.22210083,0.00076428
4737.15090820,0.00067572
4739.07971558,0.00065220
4741.00852295,0.00061536
4742.93733032,0.00065927
4744.86613770,0.00062785
4746.79494507,0.00064883
4748.72375244,0.00075362
4750.65255981,0.00070899
4752.58136719,0.00065059
4754.51017456,0.00057891
4756.43898193,0.00061493
4758.36778931,0.00067829
4760.29659668,0.00063636
4762.22540405,0.00064261
4764.15421143,0.00058989
4766.08301880,0.00060445
4768.01182617,0.00068682
4769.94063354,0.00062894
4771.86944092,0.00063286
4773.79824829,0.00068298
4775.72705566,0.00063513
4777.65586304,0.00058067
4779.58467041,0.00059525
4781.51347778,0.00065139
4783.44228516,0.00061089
4785.37109253,0.00062650
4787.29989990,0.00069551
4789.22870728,0.00057547
4791.15751465,0.00063289
4793.08632202,0.00072750
4795.01512939,0.00060542
4796.94393677,0.00069310
4798.87274414,0.00066135
4800.80155151,0.00055191
4802.73035889,0.00065788
4804.65916626,0.00060261
4806.58797363,0.00063768
4808.51678101,0.00062639
4810.44558838,0.00053408
4812.37439575,0.00071186
4814.30320312,0.00064128
4816.23201050,0.00058319
4818.16081787,0.00066987
4820.08962524,0.00056082
4822.01843262,0.00062074
4823.94723999,0.00060719
4825.87604736,0.00055705
4827.80485474,0.00062779
4829.73366211,0.00056915
4831.66246948,0.00062369
4833.59127686,0.00066206
4835.52008423,0.00060152
4837.44889160,0.00060337
4839.37769897,0.00059241
4841.30650635,0.00053588
4843.23531372,0.00054413
4845.16412109,0.00064487
4847.09292847,0.00056734
4849.02173584,0.00054889
4850.95054321,0.00064385
4852.87935059,0.00056203
4854.80815796,0.00056521
4856.73696533,0.00058762
4858.66577270,0.00059136
4860.59458008,0.00064430
4862.52338745,0.00055267
4864.45219482,0.00051680
4866.38100220,0.00056450
4868.30980957,0.00056886
4870.23861694,0.00064276
4872.16742432,0.00063866
4874.09623169,0.00052850
4876.02503906,0.00053451
4877.95384644,0.00059119
4879.88265381,0.00058242
4881.81146118,0.00057730
4883.74026855,0.00059271
4885.66907593,0.00054044
4887.59788330,0.00050032
4889.52669067,0.00051179
4891.45549805,0.00054077
4893.38430542,0.00059363
4895.31311279,0.00050070
4897.24192017,0.00047131
4899.17072754,0.00056572
4901.09953491,0.00056530
4903.02834228,0.00059076
4904.95714966,0.00055159
4906.88595703,0.00053731
4908.81476440,0.00056057
4910.74357178,0.00054327
4912.67237915,0.00058237
4914.60118652,0.00053477
4916.52999390,0.00055330
4918.45880127,0.00053526
4920.38760864,0.00042345
4922.31641602,0.00052408
4924.24522339,0.00060228
4926.17403076,0.00056604
4928.10283813,0.00056238
4930.03164551,0.00052750
4931.96045288,0.00049082
4933.88926025,0.00053537
4935.81806763,0.00055717
4937.74687500,0.00053230
4939.67568237,0.00055227
4941.60448975,0.00055495
4943.53329712,0.00055020
4945.46210449,0.00054180
4947.39091187,0.00048882
4949.31971924,0.00049320
4951.24852661,0.00055791
4953.17733398,0.00054102
4955.10614136,0.00052305
4957.03494873,0.00052704
4958.96375610,0.00049466
4960.89256348,0.00053046
4962.82137085,0.00050966
4964.75017822,0.00049955
4966.67898560,0.00052566
4968.60779297,0.00048702
4970.53660034,0.00050282
4972.46540771,0.00047339
4974.39421509,0.00049627
4976.32302246,0.00047461
4978.25182983,0.00040172
4980.18063721,0.00054599
4982.10944458,0.00053165
4984.03825195,0.00040341
4985.96705933,0.00047138
4987.89586670,0.00048456
4989.82467407,0.00041076
4991.75348145,0.00042641
4993.68228882,0.00048251
4995.61109619,0.00052402
4997.53990356,0.00052695
4999.46871094,0.00047722
5001.39751831,0.00044695
5003.32632568,0.00045693
5005.25513306,0.00051759
5007.18394043,0.00050116
5009.11274780,0.00045791
5011.04155518,0.00052710
5012.97036255,0.00055861
5014.89916992,0.00053551
5016.82797729,0.00048959
5018.75678467,0.00046750
5020.68559204,0.00045348
5022.61439941,0.00046476
5024.54320679,0.00050716
5026.47201416,0.00045736
5028.40082153,0.00038935
5030.32962891,0.00041452
5032.25843628,0.00050808
5034.18724365,0.00042331
5036.11605103,0.00039177
5038.04485840,0.00048676
5039.97366577,0.00045235
5041.90247314,0.00052016
5043.83128052,0.00047986
5045.76008789,0.00046353
5047.68889526,0.00049040
5049.61770264,0.00038881
5051.54651001,0.00050560
5053.47531738,0.00049946
5055.40412476,0.00040676
5057.33293213,0.00040736
5059.26173950,0.00038891
5061.19054687,0.00038474
5063.11935425,0.00040073
5065.04816162,0.00048884
5066.97696899,0.00042851
5068.90577637,0.00044367
5070.83458374,0.00044881
5072.76339111,0.00036875
5074.69219849,0.00048795
5076.62100586,0.00048792
5078.54981323,0.00044436
5080.47862061,0.00046011
5082.40742798,0.00053022
5084.33623535,0.00050848
5086.26504272,0.00037530
5088.19385010,0.00046398
5090.12265747,0.00050825
5092.05146484,0.00048224
5093.98027222,0.00046827
5095.90907959,0.00042233
5097.83788696,0.00043956
5099.76669434,0.00047127
5101.69550171,0.00042388
5103.62430908,0.00035824
5105.55311645,0.00044386
5107.48192383,0.00043170
5109.41073120,0.00039041
5111.33953857,0.00041060
5113.26834595,0.00037671
5115.19715332,0.00042140
5117.12596069,0.00043849
5119.05476807,0.00044021
5120.98357544,0.00037682
5122.91238281,0.00035368
5124.84119019,0.00040331
5126.76999756,0.00041428
5128.69880493,0.00044301
5130.62761230,0.00039738
5132.55641968,0.00044127
5134.48522705,0.00041283
5136.41403442,0.00036463
5138.34284180,0.00040195
5140.27164917,0.00036552
5142.20045654,0.00045473
5144.12926392,0.00042504
5146.05807129,0.00037051
5147.98687866,0.00041737
5149.91568603,0.00042400
5151.84449341,0.00041637
5153.77330078,0.00036423
5155.70210815,0.00040127
5157.63091553,0.00034140
5159.55972290,0.00034121
5161.48853027,0.00041182
5163.41733765,0.00036344
5165.34614502,0.00035684
5167.27495239,0.00028299
5169.20375977,0.00035974
5171.13256714,0.00044109
5173.06137451,0.00037510
5174.99018188,0.00039580
5176.91898926,0.00036921
5178.84779663,0.00036499
5180.77660400,0.00037220
5182.70541138,0.00034521
5184.63421875,0.00038499
5186.56302612,0.00042375
5188.49183350,0.00036018
5190.42064087,0.00035865
5192.34944824,0.00041822
5194.27825562,0.00030817
5196.20706299,0.00029317
5198.13587036,0.00038084
5200.06467773,0.00036266
5201.99348511,0.00035781
5203.92229248,0.00038648
5205.85109985,0.00035990
5207.77990723,0.00031983
5209.70871460,0.00036258
5211.63752197,0.00036702
5213.56632935,0.00035242
5215.49513672,0.00033792
5217.42394409,0.00032661
5219.35275146,0.00037525
5221.28155884,0.00036497
5223.21036621,0.00035662
5225.13917358,0.00036998
5227.06798096,0.00036981
5228.99678833,0.00036621
5230.92559570,0.00035978
5232.85440308,0.00035756
5234.78321045,0.00033712
5236.71201782,0.00034113
5238.64082520,0.00037426
5240.56963257,0.00040548
5242.49843994,0.00036651
5244.42724731,0.00033456
5246.35605469,0.00032193
5248.28486206,0.00031160
5250.21366943,0.00033651
5252.14247681,0.00031337
5254.07128418,0.00034177
5256.00009155,0.00033857
5257.92889893,0.00031464
5259.85770630,0.00036678
5261.78651367,0.00034915
5263.71532104,0.00031283
5265.64412842,0.00032286
5267.57293579,0.00033368
5269.50174316,0.00030030
5271.43055054,0.00030679
5273.35935791,0.00030655
5275.28816528,0.00032478
5277.21697266,0.00039051
5279.14578003,0.00033409
5281.07458740,0.00032136
5283.00339478,0.00036557
5284.93220215,0.00036041
5286.86100952,0.00028941
5288.78981689,0.00028292
5290.71862427,0.00036253
5292.64743164,0.00030073
5294.57623901,0.00026709
5296.50504639,0.00028123
5298.43385376,0.00030985
5300.36266113,0.00030252
5302.29146851,0.00026826
5304.22027588,0.00030281
5306.14908325,0.00024825
5308.07789062,0.00033156
5310.00669800,0.00036004
5311.93550537,0.00029149
5313.86431274,0.00040539
5315.79312012,0.00034416
5317.72192749,0.00032304
5319.65073486,0.00040849
5321.57954224,0.00029389
5323.50834961,0.00024170
5325.43715698,0.00030083
5327.36596436,0.00027576
5329.29477173,0.00022656
5331.22357910,0.00025938
5333.15238647,0.00029968
5335.08119385,0.00029873
5337.01000122,0.00029244
5338.93880859,0.00033766
5340.86761597,0.00032569
5342.79642334,0.00025435
5344.72523071,0.00035667
5346.65403809,0.00037490
5348.58284546,0.00025587
5350.51165283,0.00032986
5352.44046020,0.00039852
5354.36926758,0.00034025
5356.29807495,0.00030568
5358.22688232,0.00028891
5360.15568970,0.00025901
5362.08449707,0.00028266
5364.01330444,0.00032082
5365.94211182,0.00026536
5367.87091919,0.00028745
5369.79972656,0.00029070
5371.72853394,0.00020059
5373.65734131,0.00029001
5375.58614868,0.00036158
5377.51495605,0.00031871
5379.44376343,0.00028220
5381.37257080,0.00028335
5383.30137817,0.00029866
5385.23018555,0.00026532
5387.15899292,0.00029681
5389.08780029,0.00025304
5391.01660767,0.00027103
5392.94541504,0.00031519
5394.87422241,0.00021958
5396.80302978,0.00033508
5398.73183716,0.00029601
5400.66064453,0.00023264
5402.58945190,0.00040384
5404.51825928,0.00027706
5406.44706665,0.00023058
5408.37587402,0.00031852
5410.30468140,0.00019290
5412.23348877,0.00020724
5414.16229614,0.00027265
5416.09110352,0.00021890
5418.01991089,0.00025448
5419.94871826,0.00025258
5421.87752563,0.00025921
5423.80633301,0.00029865
5425.73514038,0.00019373
5427.66394775,0.00027964
5429.59275513,0.00033417
5431.52156250,0.00022723
5433.45036987,0.00032945
5435.37917725,0.00030190
5437.30798462,0.00026215
5439.23679199,0.00030213
5441.16559936,0.00017555
5443.09440674,0.00019337
5445.02321411,0.00026384
5446.95202148,0.00022841
5448.88082886,0.00022191
5450.80963623,0.00020136
5452.73844360,0.00023331
5454.66725098,0.00026727
5456.59605835,0.00022779
5458.52486572,0.00022573
5460.45367310,0.00023732
5462.38248047,0.00029350
5464.31128784,0.00027664
5466.24009521,0.00019540
5468.16890259,0.00022310
5470.09770996,0.00021249
5472.02651733,0.00025216
5473.95532471,0.00024610
5475.88413208,0.00020269
5477.81293945,0.00027124
5479.74174683,0.00026660
5481.67055420,0.00031264
5483.59936157,0.00028211
5485.52816895,0.00019134
5487.45697632,0.00023331
5489.38578369,0.00027444
5491.31459106,0.00024419
5493.24339844,0.00020107
5495.17220581,0.00025191
5497.10101318,0.00020581
5499.02982056,0.00022413
5500.95862793,0.00024543
5502.88743530,0.00015727
5504.81624268,0.00024204
5506.74505005,0.00024246
5508.67385742,0.00024843
5510.60266479,0.00020123
5512.53147217,0.00011197
5514.46027954,0.00020954
5516.38908691,0.00019374
5518.31789429,0.00020496
5520.24670166,0.00025192
5522.17550903,0.00025158
5524.10431641,0.00023163
5526.03312378,0.00019808
5527.96193115,0.00025393
5529.89073853,0.00023621
5531.81954590,0.00023285
5533.74835327,0.00024024
5535.67716064,0.00022522
5537.60596802,0.00027116
5539.53477539,0.00023743
5541.46358276,0.00021620
5543.39239014,0.00018775
5545.32119751,0.00013573
5547.25000488,0.00021864
5549.17881226,0.00024221
5551.10761963,0.00020659
5553.03642700,0.00020275
5554.96523437,0.00014469
5556.89404175,0.00019037
5558.82284912,0.00024327
5560.75165649,0.00021099
5562.68046387,0.00017278
5564.60927124,0.00015179
5566.53807861,0.00019865
5568.46688599,0.00015009
5570.39569336,0.00020223
5572.32450073,0.00026515
5574.25330811,0.00017818
5576.18211548,0.00021908
5578.11092285,0.00017498
5580.03973022,0.00015050
5581.96853760,0.00018924
5583.89734497,0.00021554
5585.82615234,0.00027734
5587.75495972,0.00018401
5589.68376709,0.00018142
5591.61257446,0.00018821
5593.54138184,0.00018343
5595.47018921,0.00022056
5597.39899658,0.00018379
5599.32780395,0.00024864
5601.25661133,0.00016751
5603.18541870,0.00016694
5605.11422607,0.00027466
5607.04303345,0.00018446
5608.97184082,0.00024614
5610.90064819,0.00021785
5612.82945557,0.00012993
5614.75826294,0.00021000
5616.68707031,0.00017787
5618.61587769,0.00021464
5620.54468506,0.00024737
5622.47349243,0.00018419
5624.40229980,0.00023180
5626.33110718,0.00020812
5628.25991455,0.00016716
5630.18872192,0.00020804
5632.11752930,0.00017883
5634.04633667,0.00017670
5635.97514404,0.00021067
5637.90395142,0.00019422
5639.83275879,0.00018063
5641.76156616,0.00018422
5643.69037353,0.00020494
5645.61918091,0.00018315
5647.54798828,0.00015949
5649.47679565,0.00016588
5651.40560303,0.00012917
5653.33441040,0.00019450
5655.26321777,0.00020725
5657.19202515,0.00014262
5659.12083252,0.00019796
5661.04963989,0.00014273
5662.97844727,0.00013914
5664.90725464,0.00013257
5666.83606201,0.00010194
5668.76486938,0.00025655
5670.69367676,0.00019520
5672.62248413,0.00018283
5674.55129150,0.00023433
5676.48009888,0.00012397
5678.40890625,0.00018794
5680.33771362,0.00016784
5682.26652100,0.00010463
5684.19532837,0.00015843
5686.12413574,0.00016214
5688.05294311,0.00014826
5689.98175049,0.00013674
5691.91055786,0.00013117
5693.83936523,0.00008752
5695.76817261,0.00010550
5697.69697998,0.00016027
5699.62578735,0.00018688
5701.55459473,0.00021898
5703.48340210,0.00018098
5705.41220947,0.00013588
5707.34101685,0.00014992
5709.26982422,0.00016429
5711.19863159,0.00013852
5713.12743896,0.00016923
5715.05624634,0.00020648
5716.98505371,0.00020658
5718.91386108,0.00021623
5720.84266846,0.00019169
5722.77147583,0.00020052
5724.70028320,0.00016537
5726.62909058,0.00014376
5728.55789795,0.00013952
5730.48670532,0.00010094
5732.41551270,0.00016705
5734.34432007,0.00012677
5736.27312744,0.00008887
5738.20193481,0.00018600
5740.13074219,0.00017453
5742.05954956,0.00017990
5743.98835693,0.00021886
5745.91716431,0.00016648
5747.84597168,0.00015271
5749.77477905,0.00016170
5751.70358643,0.00016446
5753.63239380,0.00019981
5755.56120117,0.00011663
5757.49000854,0.00008405
5759.41881592,0.00012641
5761.34762329,0.00009965
5763.27643066,0.00013479
5765.20523804,0.00012260
5767.13404541,0.00015749
5769.06285278,0.00018410
5770.99166016,0.00015760
5772.92046753,0.00016512
5774.84927490,0.00014937
5776.77808228,0.00023991
5778.70688965,0.00016461
5780.63569702,0.00012377
5782.56450439,0.00019952
5784.49331177,0.00014238
5786.42211914,0.00017898
5788.35092651,0.00010636
5790.27973389,0.00009846
5792.20854126,0.00015011
5794.13734863,0.00010978
5796.06615601,0.00020714
5797.99496338,0.00019202
5799.92377075,0.00016271
5801.85257812,0.00019623
5803.78138550,0.00011449
5805.71019287,0.00010169
5807.63900024,0.00019820
5809.56780762,0.00012553
5811.49661499,0.00007800
5813.42542236,0.00019413
5815.35422974,0.00013787
5817.28303711,0.00013482
5819.21184448,0.00011214
5821.14065186,0.00010113
5823.06945923,0.00021879
5824.99826660,0.00013907
5826.92707397,0.00016024
5828.85588135,0.00013581
5830.78468872,0.00010947
5832.71349609,0.00020520
5834.64230347,0.00012695
5836.57111084,0.00014884
5838.49991821,0.00012164
5840.42872559,0.00011471
5842.35753296,0.00019980
5844.28634033,0.00017781
5846.21514770,0.00018560
5848.14395508,0.00014373
5850.07276245,0.00012862
5852.00156982,0.00010894
5853.93037720,0.00009390
5855.85918457,0.00012811
5857.78799194,0.00011927
5859.71679932,0.00008424
5861.64560669,0.00009109
5863.57441406,0.00015312
5865.50322144,0.00008752
5867.43202881,0.00008470
5869.36083618,0.00011160
5871.28964355,0.00015556
5873.21845093,0.00020956
5875.14725830,0.00010797
5877.07606567,0.00016810
5879.00487305,0.00012762
5880.93368042,0.00007276
5882.86248779,0.00017679
5884.79129517,0.00015316
5886.72010254,0.00013331
5888.64890991,0.00009999
5890.57771728,0.00015312
5892.50652466,0.00009255
5894.43533203,0.00004499
5896.36413940,0.00016397
5898.29294678,0.00010464
5900.22175415,0.00013411
5902.15056152,0.00015917
5904.07936890,0.00010336
5906.00817627,0.00007334
5907.93698364,0.00008043
5909.86579102,0.00011957
5911.79459839,0.00005945
5913.72340576,0.00011913
5915.65221313,0.00011053
5917.58102051,0.00008543
5919.50982788,0.00015082
5921.43863525,0.00009883
5923.36744263,0.00010940
5925.29625000,0.00008063
5927.22505737,0.00009894
5929.15386475,0.00014577
5931.08267212,0.00014564
5933.01147949,0.00018781
5934.94028686,0.00006147
5936.86909424,0.00008218
5938.79790161,0.00021230
5940.72670898,0.00013350
5942.65551636,0.00011868
5944.58432373,0.00013636
5946.51313110,0.00014430
5948.44193848,0.00015446
5950.37074585,0.00005730
5952.29955322,0.00006919
5954.22836060,0.00013906
5956.15716797,0.00011993
5958.08597534,0.00015107
5960.01478271,0.00016655
5961.94359009,0.00010644
5963.87239746,0.00005524
5965.80120483,0.00008188
5967.73001221,0.00008434
5969.65881958,0.00007323
5971.58762695,0.00010696
5973.51643433,0.00006631
5975.44524170,0.00009842
5977.37404907,0.00011883
5979.30285645,0.00009718
5981.23166382,0.00010322
5983.16047119,0.00004767
5985.08927856,0.00014435
5987.01808594,0.00014230
5988.94689331,0.00003408
5990.87570068,0.00011100
5992.80450806,0.00012297
5994.73331543,0.00010913
5996.66212280,0.00010161
5998.59093018,0.00007273
6000.51973755,0.00011529
