399.26312622,-0.00010325
401.19193359,0.00022515
403.12074097,0.00031035
405.04954834,0.00000598
406.97835571,0.00013224
408.90716309,0.00028121
410.83597046,0.00038061
412.76477783,-0.00004305
414.69358521,-0.00000328
416.62239258,0.00055271
418.55119995,0.00006152
420.48000732,0.00000224
422.40881470,0.00030236
424.33762207,0.00032658
426.26642944,0.00050828
428.19523682,-0.00006638
430.12404419,0.00039314
432.05285156,0.00078579
433.98165894,0.00035710
435.91046631,0.00048358
437.83927368,0.00005781
439.76808105,0.00035346
441.69688843,0.00066159
443.62569580,0.00047145
445.55450317,0.00060778
447.48331055,0.00013855
449.41211792,0.00014412
451.34092529,0.00017121
453.26973267,0.00037450
455.19854004,0.00083526
457.12734741,0.00037970
459.05615479,0.00026457
460.98496216,0.00025383
462.91376953,0.00018245
464.84257690,0.00031664
466.77138428,0.00036537
468.70019165,0.00038347
470.62899902,0.00027463
472.55780640,0.00049121
474.48661377,-0.00005914
476.41542114,-0.00037763
478.34422852,0.00044944
480.27303589,0.00017913
482.20184326,0.00010642
484.13065063,0.00070802
486.05945801,0.00034285
487.98826538,-0.00010350
489.91707275,0.00020699
491.84588013,0.00040132
493.77468750,-0.00011233
495.70349487,0.00012509
497.63230225,0.00062758
499.56110962,0.00050092
501.48991699,0.00037889
503.41872437,0.00039630
505.34753174,0.00023388
507.27633911,-0.00005272
509.20514648,0.00028026
511.13395386,0.00040231
513.06276123,0.00018619
514.99156860,0.00038434
516.92037598,0.00050496
518.84918335,0.00046365
520.77799072,0.00045087
522.70679810,0.00021175
524.63560547,0.00006236
526.56441284,0.00032460
528.49322021,0.00047871
530.42202759,0.00051141
532.35083496,0.00088075
534.27964233,0.00056512
536.20844971,-0.00016930
538.13725708,0.00013718
540.06606445,0.00016462
541.99487183,-0.00004391
543.92367920,0.00024720
545.85248657,0.00023067
547.78129395,0.00030304
549.71010132,0.00026744
551.63890869,0.00027072
553.56771606,0.00048432
555.49652344,0.00003094
557.42533081,0.00022250
559.35413818,0.00070095
561.28294556,-0.00007799
563.21175293,0.00002552
565.14056030,0.00008565
567.06936768,-0.00043041
568.99817505,0.00034946
570.92698242,0.00021086
572.85578979,-0.00013788
574.78459717,0.00029288
576.71340454,0.00037681
578.64221191,0.00033608
580.57101929,-0.00005794
582.49982666,0.00037005
584.42863403,0.00030072
586.35744141,0.00014133
588.28624878,0.00064139
590.21505615,-0.00004617
592.14386353,0.00027858
594.07267090,0.00033048
596.00147827,0.00002505
597.93028564,0.00005751
599.85909302,-0.00050489
601.78790039,0.00010945
603.71670776,0.00027882
605.64551514,0.00041246
607.57432251,0.00070705
609.50312988,0.00034373
611.43193726,0.00049098
613.36074463,0.00033327
615.28955200,0.00021217
617.21835938,0.00013747
619.14716675,0.00013874
621.07597412,0.00055213
623.00478149,0.00053841
624.93358887,0.00035966
626.86239624,0.00037157
628.79120361,0.00000693
630.72001099,0.00028029
632.64881836,0.00016908
634.57762573,0.00001831
636.50643311,0.00083587
638.43524048,0.00031396
640.36404785,0.00017110
642.29285522,0.00045256
644.22166260,0.00053734
646.15046997,0.00051676
648.07927734,0.00014751
650.00808472,0.00038372
651.93689209,0.00049585
653.86569946,0.00050830
655.79450684,0.00021893
657.72331421,0.00041915
659.65212158,0.00062596
661.58092896,0.00068452
663.50973633,0.00089874
665.43854370,0.00048423
667.36735107,0.00066667
669.29615845,0.00059871
671.22496582,0.00074927
673.15377319,0.00077106
675.08258057,0.00054955
677.01138794,0.00119788
678.94019531,0.00081631
680.86900269,0.00082562
682.79781006,0.00106885
684.72661743,0.00058516
686.65542480,0.00067885
688.58423218,0.00082444
690.51303955,0.00065105
692.44184692,0.00068486
694.37065430,0.00114425
696.29946167,0.00103921
698.22826904,0.00099544
700.15707642,0.00106697
702.08588379,0.00113613
704.01469116,0.00150144
705.94349854,0.00112981
707.87230591,0.00092528
709.80111328,0.00074317
711.72992065,0.00056855
713.65872803,0.00044411
715.58753540,-0.00005082
717.51634277,0.00017485
719.44515015,0.00030486
721.37395752,0.00042952
723.30276489,0.00054615
725.23157227,0.00009813
727.16037964,0.00007990
729.08918701,0.00017249
731.01799438,0.00019298
732.94680176,-0.00001028
734.87560913,0.00013544
736.80441650,0.00027691
738.73322388,0.00006501
740.66203125,0.00047343
742.59083862,0.00024322
744.51964600,0.00006774
746.44845337,0.00026015
748.37726074,0.00029192
750.30606812,0.00043603
752.23487549,0.00023522
754.16368286,0.00022375
756.09249023,0.00019112
758.02129761,0.00026323
759.95010498,0.00031809
761.87891235,0.00021129
763.80771973,0.00018780
765.73652710,0.00024303
767.66533447,0.00039030
769.59414185,0.00019048
771.52294922,0.00030437
773.45175659,0.00048893
775.38056396,0.00046094
777.30937134,0.00049968
779.23817871,0.00032187
781.16698608,0.00021567
783.09579346,0.00003691
785.02460083,0.00015759
786.95340820,0.00036543
788.88221558,0.00021320
790.81102295,0.00020350
792.73983032,0.00035781
794.66863770,0.00027073
796.59744507,0.00014651
798.52625244,0.00029383
800.45505981,0.00034054
802.38386719,0.00043842
804.31267456,0.00029139
806.24148193,0.00031466
808.17028931,0.00046324
810.09909668,0.00029148
812.02790405,0.00032415
813.95671143,0.00042459
815.88551880,0.00043045
817.81432617,0.00020748
819.74313354,0.00048351
821.67194092,0.00038568
823.60074829,0.00026526
825.52955566,0.00042169
827.45836304,0.00003429
829.38717041,0.00040569
831.31597778,0.00037393
833.24478516,0.00046854
835.17359253,0.00047090
837.10239990,0.00031027
839.03120728,0.00092802
840.96001465,0.00042678
842.88882202,0.00048144
844.81762939,0.00070243
846.74643677,0.00057790
848.67524414,0.00067232
850.60405151,0.00017816
852.53285889,0.00046711
854.46166626,0.00056513
856.39047363,0.00034515
858.31928101,0.00030112
860.24808838,0.00024575
862.17689575,0.00041247
864.10570313,0.00053524
866.03451050,0.00051852
867.96331787,0.00012632
869.89212524,0.00029177
871.82093262,0.00029359
873.74973999,0.00037160
875.67854736,0.00047862
877.60735474,-0.00008795
879.53616211,0.00017278
881.46496948,0.00031799
883.39377686,0.00047400
885.32258423,0.00040260
887.25139160,0.00006365
889.18019897,0.00048237
891.10900635,0.00021885
893.03781372,0.00019087
894.96662109,0.00058314
896.89542847,0.00030779
898.82423584,0.00017183
900.75304321,0.00021600
902.68185059,0.00038192
904.61065796,0.00050595
906.53946533,0.00028700
908.46827271,0.00040299
910.39708008,0.00062143
912.32588745,0.00037340
914.25469482,0.00041555
916.18350220,0.00019910
918.11230957,0.00033381
920.04111694,0.00071393
921.96992432,0.00038274
923.89873169,0.00061950
925.82753906,0.00056591
927.75634644,0.00045411
929.68515381,0.00081840
931.61396118,0.00078917
933.54276855,0.00076769
935.47157593,0.00071530
937.40038330,0.00087019
939.32919067,0.00093155
941.25799805,0.00075350
943.18680542,0.00080782
945.11561279,0.00087412
947.04442017,0.00077032
948.97322754,0.00071663
950.90203491,0.00082385
952.83084229,0.00066656
954.75964966,0.00061212
956.68845703,0.00062999
958.61726440,0.00062032
960.54607178,0.00080757
962.47487915,0.00072081
964.40368652,0.00074535
966.33249390,0.00084732
968.26130127,0.00081668
970.19010864,0.00089011
972.11891602,0.00082747
974.04772339,0.00089917
975.97653076,0.00105039
977.90533813,0.00100506
979.83414551,0.00108610
981.76295288,0.00126749
983.69176025,0.00154191
985.62056763,0.00169090
987.54937500,0.00169599
989.47818237,0.00195064
991.40698975,0.00194047
993.33579712,0.00209905
995.26460449,0.00242446
997.19341187,0.00241681
999.12221924,0.00270762
1001.05102661,0.00290884
1002.97983398,0.00334332
1004.90864136,0.00366958
1006.83744873,0.00357863
1008.76625610,0.00385416
1010.69506348,0.00402863
1012.62387085,0.00428919
1014.55267822,0.00434043
1016.48148560,0.00452827
1018.41029297,0.00497688
1020.33910034,0.00512934
1022.26790771,0.00559751
1024.19671509,0.00562900
1026.12552246,0.00568551
1028.05432983,0.00614459
1029.98313721,0.00618412
1031.91194458,0.00621884
1033.84075195,0.00645224
1035.76955933,0.00668658
1037.69836670,0.00661183
1039.62717407,0.00667186
1041.55598145,0.00684684
1043.48478882,0.00669514
1045.41359619,0.00639210
1047.34240356,0.00628742
1049.27121094,0.00658571
1051.20001831,0.00650674
1053.12882568,0.00613201
1055.05763306,0.00600288
1056.98644043,0.00603773
1058.91524780,0.00595638
1060.84405518,0.00564238
1062.77286255,0.00551079
1064.70166992,0.00534923
1066.63047729,0.00509470
1068.55928467,0.00491198
1070.48809204,0.00470876
1072.41689941,0.00447541
1074.34570679,0.00429182
1076.27451416,0.00419366
1078.20332153,0.00394627
1080.13212891,0.00387915
1082.06093628,0.00383623
1083.98974365,0.00352928
1085.91855103,0.00341810
1087.84735840,0.00323292
1089.77616577,0.00294966
1091.70497314,0.00280781
1093.63378052,0.00268496
1095.56258789,0.00263721
1097.49139526,0.00256253
1099.42020264,0.00255805
1101.34901001,0.00259048
1103.27781738,0.00252351
1105.20662476,0.00238556
1107.13543213,0.00232903
1109.06423950,0.00247155
1110.99304687,0.00234081
1112.92185425,0.00212805
1114.85066162,0.00216454
1116.77946899,0.00233464
1118.70827637,0.00227535
1120.63708374,0.00206205
1122.56589111,0.00239789
1124.49469849,0.00256612
1126.42350586,0.00252241
1128.35231323,0.00242633
1130.28112061,0.00236225
1132.20992798,0.00265214
1134.13873535,0.00255766
1136.06754272,0.00276207
1137.99635010,0.00296409
1139.92515747,0.00304831
1141.85396484,0.00343336
1143.78277222,0.00342905
1145.71157959,0.00365879
1147.64038696,0.00378198
1149.56919434,0.00390615
1151.49800171,0.00419070
1153.42680908,0.00441226
1155.35561646,0.00476937
1157.28442383,0.00490328
1159.21323120,0.00514729
1161.14203857,0.00525591
1163.07084595,0.00555801
1164.99965332,0.00572181
1166.92846069,0.00578328
1168.85726807,0.00632350
1170.78607544,0.00636645
1172.71488281,0.00647620
1174.64369019,0.00676534
1176.57249756,0.00716458
1178.50130493,0.00741029
1180.43011230,0.00746164
1182.35891968,0.00805351
1184.28772705,0.00850560
1186.21653442,0.00884212
1188.14534180,0.00910116
1190.07414917,0.00950413
1192.00295654,0.00999818
1193.93176392,0.01049719
1195.86057129,0.01105039
1197.78937866,0.01142507
1199.71818604,0.01219011
1201.64699341,0.01262205
1203.57580078,0.01290998
1205.50460815,0.01341168
1207.43341553,0.01390523
1209.36222290,0.01447311
1211.29103027,0.01492121
1213.21983765,0.01547934
1215.14864502,0.01572070
1217.07745239,0.01610877
1219.00625977,0.01639884
1220.93506714,0.01662392
1222.86387451,0.01690762
1224.79268188,0.01680488
1226.72148926,0.01728638
1228.65029663,0.01734972
1230.57910400,0.01724042
1232.50791138,0.01750331
1234.43671875,0.01743501
1236.36552612,0.01746204
1238.29433350,0.01738699
1240.22314087,0.01733962
1242.15194824,0.01727002
1244.08075562,0.01729688
1246.00956299,0.01724343
1247.93837036,0.01714216
1249.86717773,0.01722180
1251.79598511,0.01699373
1253.72479248,0.01670947
1255.65359985,0.01649317
1257.58240723,0.01642642
1259.51121460,0.01606374
1261.44002197,0.01583737
1263.36882935,0.01580071
1265.29763672,0.01538804
1267.22644409,0.01528436
1269.15525146,0.01518521
1271.08405884,0.01509519
1273.01286621,0.01478767
1274.94167358,0.01442574
1276.87048096,0.01429987
1278.79928833,0.01396373
1280.72809570,0.01371164
1282.65690308,0.01349593
1284.58571045,0.01349468
1286.51451782,0.01313721
1288.44332520,0.01265458
1290.37213257,0.01270665
1292.30093994,0.01269107
1294.22974731,0.01247123
1296.15855469,0.01227887
1298.08736206,0.01253286
1300.01616943,0.01257019
1301.94497681,0.01247209
1303.87378418,0.01258397
1305.80259155,0.01265321
1307.73139893,0.01293711
1309.66020630,0.01314104
1311.58901367,0.01328054
1313.51782104,0.01345395
1315.44662842,0.01402292
1317.37543579,0.01434668
1319.30424316,0.01442083
1321.23305054,0.01518681
1323.16185791,0.01579195
1325.09066528,0.01628449
1327.01947266,0.01675194
1328.94828003,0.01710835
1330.87708740,0.01755305
1332.80589478,0.01788507
1334.73470215,0.01817151
1336.66350952,0.01828658
1338.59231689,0.01827326
1340.52112427,0.01855550
1342.44993164,0.01919786
1344.37873901,0.01920219
1346.30754639,0.01917993
1348.23635376,0.01934479
1350.16516113,0.01918486
1352.09396851,0.01926960
1354.02277588,0.01894190
1355.95158325,0.01886319
1357.88039062,0.01885393
1359.80919800,0.01847240
1361.73800537,0.01781559
1363.66681274,0.01749625
1365.59562012,0.01848152
1367.52442749,0.01792965
1369.45323486,0.01759295
1371.38204224,0.01808142
1373.31084961,0.01692086
1375.23965698,0.01707745
1377.16846436,0.01758735
1379.09727173,0.01760165
1381.02607910,0.01779358
1382.95488647,0.01747999
1384.88369385,0.01757918
1386.81250122,0.01695210
1388.74130859,0.01685616
1390.67011597,0.01846635
1392.59892334,0.01806784
1394.52773071,0.01672194
1396.45653809,0.01779187
1398.38534546,0.01770703
1400.31415283,0.01774329
1402.24296021,0.01914054
1404.17176758,0.01796477
1406.10057495,0.01837510
1408.02938232,0.01900877
1409.95818970,0.01834613
1411.88699707,0.01861720
1413.81580444,0.01790307
1415.74461182,0.01845340
1417.67341919,0.01657177
1419.60222656,0.01493859
1421.53103394,0.01718504
1423.45984131,0.01656817
1425.38864868,0.01609494
1427.31745605,0.01632746
1429.24626343,0.01536943
1431.17507080,0.01495378
1433.10387817,0.01501198
1435.03268555,0.01372878
1436.96149292,0.01147386
1438.89030029,0.01318935
1440.81910767,0.01374939
1442.74791504,0.01244146
1444.67672241,0.01320064
1446.60552979,0.01215003
1448.53433716,0.01207458
1450.46314453,0.01274504
1452.39195190,0.01302295
1454.32075928,0.01350958
1456.24956665,0.01115993
1458.17837402,0.01162419
1460.10718140,0.01547446
1462.03598877,0.01634072
1463.96479614,0.01629059
1465.89360352,0.01694686
1467.82241089,0.01936937
1469.75121826,0.02089378
1471.68002563,0.01845644
1473.60883301,0.01942177
1475.53764038,0.02224548
1477.46644775,0.02386152
1479.39525513,0.02621534
1481.32406250,0.02659096
1483.25286987,0.02811166
1485.18167725,0.02927539
1487.11048462,0.02885022
1489.03929199,0.02845596
1490.96809937,0.02876431
1492.89690674,0.03349055
1494.82571411,0.03267981
1496.75452148,0.02924982
1498.68332886,0.03300008
1500.61213623,0.03415243
1502.54094360,0.03671417
1504.46975098,0.03482684
1506.39855835,0.02518009
1508.32736572,0.03055234
1510.25617310,0.03615024
1512.18498047,0.03499915
1514.11378784,0.03783757
1516.04259521,0.03418984
1517.97140259,0.03569297
1519.90020996,0.03451783
1521.82901733,0.02975070
1523.75782471,0.03650293
1525.68663208,0.03604224
1527.61543945,0.03568780
1529.54424683,0.03954654
1531.47305420,0.03808274
1533.40186157,0.03475330
1535.33066895,0.03688197
1537.25947632,0.03966882
1539.18828369,0.02829611
1541.11709106,0.02938988
1543.04589844,0.03568793
1544.97470581,0.03420154
1546.90351318,0.04045470
1548.83232056,0.03774250
1550.76112793,0.03869521
1552.68993530,0.03873459
1554.61874268,0.03503744
1556.54755005,0.03759298
1558.47635742,0.02637317
1560.40516479,0.02830531
1562.33397217,0.04079133
1564.26277954,0.03829757
1566.19158691,0.03940435
1568.12039429,0.03907444
1570.04920166,0.03449550
1571.97800903,0.03975508
1573.90681641,0.04026537
1575.83562378,0.03189393
1577.76443115,0.03574076
1579.69323853,0.04078732
1581.62204590,0.03909386
1583.55085327,0.03984166
1585.47966064,0.03908583
1587.40846802,0.03923900
1589.33727539,0.03902450
1591.26608276,0.03873464
1593.19489014,0.03877319
1595.12369751,0.03822973
1597.05250488,0.03859117
1598.98131226,0.03827575
1600.91011963,0.03830189
1602.83892700,0.03756049
1604.76773437,0.03810857
1606.69654175,0.03742904
1608.62534912,0.03701203
1610.55415649,0.03682074
1612.48296387,0.03692633
1614.41177124,0.03732618
1616.34057861,0.03022975
1618.26938599,0.03253237
1620.19819336,0.03814686
1622.12700073,0.03358964
1624.05580811,0.03345213
1625.98461548,0.03500898
1627.91342285,0.03493413
1629.84223022,0.03461244
1631.77103760,0.03687958
1633.69984497,0.03420307
1635.62865234,0.02785550
1637.55745972,0.03266205
1639.48626709,0.03627414
1641.41507446,0.03543051
1643.34388184,0.03667049
1645.27268921,0.03316714
1647.20149658,0.02900033
1649.13030396,0.03626672
1651.05911133,0.03501429
1652.98791870,0.02234620
1654.91672607,0.03036289
1656.84553345,0.03876077
1658.77434082,0.03711182
1660.70314819,0.03850244
1662.63195557,0.03507392
1664.56076294,0.03722427
1666.48957031,0.04051780
1668.41837769,0.03546891
1670.34718506,0.03455942
1672.27599243,0.03944190
1674.20479980,0.03660720
1676.13360718,0.03505281
1678.06241455,0.04085466
1679.99122192,0.03963651
1681.92002930,0.03922243
1683.84883667,0.03210747
1685.77764404,0.03168333
1687.70645142,0.04408363
1689.63525879,0.03842167
1691.56406616,0.04226451
1693.49287354,0.04362915
1695.42168091,0.03166106
1697.35048828,0.03937845
1699.27929565,0.03477766
1701.20810303,0.03098856
1703.13691040,0.04299319
1705.06571777,0.03960972
1706.99452515,0.03996503
1708.92333252,0.04367548
1710.85213989,0.04192257
1712.78094727,0.04300684
1714.70975464,0.04002346
1716.63856201,0.03589192
1718.56736938,0.03515998
1720.49617676,0.04179572
1722.42498413,0.04394528
1724.35379150,0.04057178
1726.28259888,0.04429992
1728.21140625,0.04116788
1730.14021362,0.04131477
1732.06902100,0.04063568
1733.99782837,0.03081471
1735.92663574,0.03827323
1737.85544312,0.04259001
1739.78425049,0.03788655
1741.71305786,0.04132900
1743.64186523,0.04193668
1745.57067261,0.04234404
1747.49947998,0.04260898
1749.42828735,0.04058232
1751.35709473,0.03879796
1753.28590210,0.04322366
1755.21470947,0.04538026
1757.14351685,0.04108903
1759.07232422,0.04567318
1761.00113159,0.04288352
1762.92993896,0.04121651
1764.85874634,0.04760122
1766.78755371,0.04272930
1768.71636108,0.04317296
1770.64516846,0.04291601
1772.57397583,0.03858098
1774.50278320,0.04311182
1776.43159058,0.04565301
1778.36039795,0.04507989
1780.28920532,0.04447486
1782.21801270,0.04518394
1784.14682007,0.04496444
1786.07562744,0.04382157
1788.00443481,0.04615942
1789.93324219,0.04507207
1791.86204956,0.04096557
1793.79085693,0.04273501
1795.71966431,0.04590642
1797.64847168,0.04527911
1799.57727905,0.04459301
1801.50608643,0.04380716
1803.43489380,0.04519868
1805.36370117,0.04634510
1807.29250854,0.04587203
1809.22131592,0.04603530
1811.15012329,0.04469303
1813.07893066,0.04631629
1815.00773804,0.04648325
1816.93654541,0.04582359
1818.86535278,0.04631642
1820.79416016,0.04610312
1822.72296753,0.04698510
1824.65177490,0.04372087
1826.58058228,0.04541903
1828.50938965,0.04583502
1830.43819702,0.04275046
1832.36700439,0.04662308
1834.29581177,0.04629080
1836.22461914,0.04631077
1838.15342651,0.04632835
1840.08223389,0.04647777
1842.01104126,0.04674666
1843.93984863,0.04135730
1845.86865601,0.04390574
1847.79746338,0.04662338
1849.72627075,0.04567445
1851.65507812,0.04701538
1853.58388550,0.04606328
1855.51269287,0.04653068
1857.44150024,0.04640698
1859.37030762,0.04614584
1861.29911499,0.04628987
1863.22792236,0.04586134
1865.15672974,0.04663146
1867.08553711,0.04501917
1869.01434448,0.04299951
1870.94315186,0.04469484
1872.87195923,0.04650767
1874.80076660,0.04588136
1876.72957397,0.04625164
1878.65838135,0.04607404
1880.58718872,0.04571261
1882.51599609,0.04623900
1884.44480347,0.04548099
1886.37361084,0.04614886
1888.30241821,0.04514944
1890.23122559,0.04416586
1892.16003296,0.04599065
1894.08884033,0.04545449
1896.01764771,0.04521156
1897.94645508,0.04575626
1899.87526245,0.04562763
1901.80406982,0.04571855
1903.73287720,0.04532109
1905.66168457,0.04556344
1907.59049194,0.04509935
1909.51929932,0.04489654
1911.44810669,0.04529759
1913.37691406,0.04529776
1915.30572144,0.04587185
1917.23452881,0.04392134
1919.16333618,0.04380107
1921.09214355,0.04550152
1923.02095093,0.04402870
1924.94975830,0.04508774
1926.87856567,0.04573613
1928.80737305,0.04492851
1930.73618042,0.04541210
1932.66498779,0.04496383
1934.59379517,0.04551906
1936.52260254,0.04516308
1938.45140991,0.04526931
1940.38021729,0.04525212
1942.30902466,0.04367151
1944.23783203,0.04463474
1946.16663940,0.04519219
1948.09544678,0.04501454
1950.02425415,0.04532018
1951.95306152,0.04521867
1953.88186890,0.04509139
1955.81067627,0.04494699
1957.73948364,0.04526460
1959.66829102,0.04516234
1961.59709839,0.04516409
1963.52590576,0.04530185
1965.45471313,0.04502283
1967.38352051,0.04470377
1969.31232788,0.04491932
1971.24113525,0.04523126
1973.16994263,0.04502115
1975.09875000,0.04510506
1977.02755737,0.04483851
1978.95636475,0.04485983
1980.88517212,0.04494140
1982.81397949,0.04483954
1984.74278687,0.04500723
1986.67159424,0.04465098
1988.60040161,0.04478498
1990.52920898,0.04443953
1992.45801636,0.04403997
1994.38682373,0.04470247
1996.31563110,0.04474971
1998.24443848,0.04445076
2000.17324585,0.04446433
2002.10205322,0.04446316
2004.03086060,0.04442663
2005.95966797,0.04433852
2007.88847534,0.04409760
2009.81728271,0.04422450
2011.74609009,0.04419790
2013.67489746,0.04403348
2015.60370483,0.04394419
2017.53251221,0.04350834
2019.46131958,0.04364312
2021.39012695,0.04371328
2023.31893433,0.04375380
2025.24774170,0.04379888
2027.17654907,0.04359587
2029.10535645,0.04365975
2031.03416382,0.04339775
2032.96297119,0.04339545
2034.89177856,0.04331557
2036.82058594,0.04319822
2038.74939331,0.04326780
2040.67820068,0.04298957
2042.60700806,0.04299838
2044.53581543,0.04296447
2046.46462280,0.04288801
2048.39343018,0.04287016
2050.32223755,0.04286277
2052.25104492,0.04278354
2054.17985229,0.04257800
2056.10865967,0.04261037
2058.03746704,0.04252292
2059.96627441,0.04243164
2061.89508179,0.04242382
2063.82388916,0.04229990
2065.75269653,0.04219793
2067.68150391,0.04224845
2069.61031128,0.04230744
2071.53911865,0.04224989
2073.46792603,0.04213361
2075.39673340,0.04205784
2077.32554077,0.04196917
2079.25434814,0.04182106
2081.18315552,0.04195160
2083.11196289,0.04182634
2085.04077026,0.04171334
2086.96957764,0.04185937
2088.89838501,0.04158800
2090.82719238,0.04146932
2092.75599976,0.04151509
2094.68480713,0.04153097
2096.61361450,0.04155152
2098.54242187,0.04146086
2100.47122925,0.04133893
2102.40003662,0.04131900
2104.32884399,0.04131093
2106.25765137,0.04127088
2108.18645874,0.04136392
2110.11526611,0.04121660
2112.04407349,0.04121840
2113.97288086,0.04118252
2115.90168823,0.04103953
2117.83049561,0.04106268
2119.75930298,0.04091663
2121.68811035,0.04106742
2123.61691772,0.04107168
2125.54572510,0.04099495
2127.47453247,0.04085395
2129.40333984,0.04068810
2131.33214722,0.04083750
2133.26095459,0.04076902
2135.18976196,0.04090175
2137.11856934,0.04077791
2139.04737671,0.04058538
2140.97618408,0.04076102
2142.90499146,0.04072229
2144.83379883,0.04065328
2146.76260620,0.04069637
2148.69141357,0.04074574
2150.62022095,0.04054843
2152.54902832,0.04067673
2154.47783569,0.04072390
2156.40664307,0.04051956
2158.33545044,0.04062289
2160.26425781,0.04054511
2162.19306519,0.04054147
2164.12187256,0.04045822
2166.05067993,0.04040018
2167.97948730,0.04043305
2169.90829468,0.04034167
2171.83710205,0.04032777
2173.76590942,0.04030650
2175.69471680,0.04035839
2177.62352417,0.04025848
2179.55233154,0.04024359
2181.48113892,0.04024398
2183.40994629,0.04022070
2185.33875366,0.04022283
2187.26756104,0.04014412
2189.19636841,0.04020236
2191.12517578,0.04011286
2193.05398315,0.04027618
2194.98279053,0.04028950
2196.91159790,0.03998193
2198.84040527,0.04002968
2200.76921265,0.04008252
2202.69802002,0.04011002
2204.62682739,0.04000698
2206.55563477,0.03991153
2208.48444214,0.03999697
2210.41324951,0.04000184
2212.34205688,0.03996042
2214.27086426,0.04000915
2216.19967163,0.03999592
2218.12847900,0.03991318
2220.05728638,0.03998170
2221.98609375,0.03990955
2223.91490112,0.03987131
2225.84370850,0.03988669
2227.77251587,0.03987721
2229.70132324,0.03992687
2231.63013062,0.03976595
2233.55893799,0.03977831
2235.48774536,0.03982092
2237.41655273,0.03961853
2239.34536011,0.03957770
2241.27416748,0.03963146
2243.20297485,0.03954872
2245.13178223,0.03943193
2247.06058960,0.03932225
2248.98939697,0.03935619
2250.91820435,0.03946803
2252.84701172,0.03935138
2254.77581909,0.03933538
2256.70462646,0.03934047
2258.63343384,0.03930777
2260.56224121,0.03935556
2262.49104858,0.03928103
2264.41985596,0.03925020
2266.34866333,0.03921926
2268.27747070,0.03919863
2270.20627808,0.03917989
2272.13508545,0.03916858
2274.06389282,0.03912787
2275.99270020,0.03915997
2277.92150757,0.03922147
2279.85031494,0.03910076
2281.77912231,0.03910550
2283.70792969,0.03902211
2285.63673706,0.03907488
2287.56554443,0.03897383
2289.49435181,0.03872113
2291.42315918,0.03891959
2293.35196655,0.03872682
2295.28077393,0.03858393
2297.20958130,0.03858835
2299.13838867,0.03848597
2301.06719604,0.03849482
2302.99600342,0.03814210
2304.92481079,0.03800562
2306.85361816,0.03787226
2308.78242554,0.03749670
2310.71123291,0.03727170
2312.64004028,0.03694310
2314.56884766,0.03655692
2316.49765503,0.03608730
2318.42646240,0.03568193
2320.35526978,0.03531673
2322.28407715,0.03472613
2324.21288452,0.03426298
2326.14169189,0.03391311
2328.07049927,0.03345232
2329.99930664,0.03324413
2331.92811401,0.03308100
2333.85692139,0.03283787
2335.78572876,0.03278980
2337.71453613,0.03276934
2339.64334351,0.03268886
2341.57215088,0.03267211
2343.50095825,0.03313909
2345.42976562,0.03389839
2347.35857300,0.03533086
2349.28738037,0.03662426
2351.21618774,0.03545827
2353.14499512,0.03354367
2355.07380249,0.03236300
2357.00260986,0.03127309
2358.93141724,0.03069989
2360.86022461,0.03042328
2362.78903198,0.03033032
2364.71783936,0.03055088
2366.64664673,0.03109825
2368.57545410,0.03176782
2370.50426147,0.03246172
2372.43306885,0.03349049
2374.36187622,0.03448105
2376.29068359,0.03533115
2378.21949097,0.03616245
2380.14829834,0.03685338
2382.07710571,0.03730300
2384.00591309,0.03745916
2385.93472046,0.03771289
2387.86352783,0.03795267
2389.79233521,0.03778140
2391.72114258,0.03772074
2393.64994995,0.03775157
2395.57875732,0.03765047
2397.50756470,0.03776031
2399.43637207,0.03766685
2401.36517944,0.03754346
2403.29398682,0.03762674
2405.22279419,0.03757239
2407.15160156,0.03756703
2409.08040894,0.03754275
2411.00921631,0.03752461
2412.93802368,0.03746717
2414.86683105,0.03744934
2416.79563843,0.03754352
2418.72444580,0.03743663
2420.65325317,0.03734449
2422.58206055,0.03734165
2424.51086792,0.03736521
2426.43967529,0.03739021
2428.36848267,0.03733096
2430.29729004,0.03721987
2432.22609741,0.03716569
2434.15490479,0.03721916
2436.08371216,0.03714155
2438.01251953,0.03703838
2439.94132690,0.03707403
2441.87013428,0.03705466
2443.79894165,0.03703614
2445.72774902,0.03711284
2447.65655640,0.03702538
2449.58536377,0.03686888
2451.51417114,0.03688546
2453.44297852,0.03697383
2455.37178589,0.03695375
2457.30059326,0.03683245
2459.22940063,0.03687869
2461.15820801,0.03675285
2463.08701538,0.03665616
2465.01582275,0.03682713
2466.94463013,0.03681242
2468.87343750,0.03685122
2470.80224487,0.03673298
2472.73105225,0.03664231
2474.65985962,0.03665956
2476.58866699,0.03662376
2478.51747437,0.03674193
2480.44628174,0.03652365
2482.37508911,0.03650041
2484.30389648,0.03655477
2486.23270386,0.03641037
2488.16151123,0.03652145
2490.09031860,0.03640452
2492.01912598,0.03632189
2493.94793335,0.03635352
2495.87674072,0.03637942
2497.80554810,0.03642847
2499.73435547,0.03642931
2501.66316284,0.03632769
2503.59197021,0.03605473
2505.52077759,0.03627465
2507.44958496,0.03632523
2509.37839233,0.03608551
2511.30719971,0.03620391
2513.23600708,0.03604769
2515.16481445,0.03604481
2517.09362183,0.03608115
2519.02242920,0.03585965
2520.95123657,0.03592061
2522.88004395,0.03593255
2524.80885132,0.03595063
2526.73765869,0.03603565
2528.66646606,0.03596397
2530.59527344,0.03584252
2532.52408081,0.03578561
2534.45288818,0.03586672
2536.38169556,0.03588416
2538.31050293,0.03577632
2540.23931030,0.03572822
2542.16811768,0.03574971
2544.09692505,0.03564513
2546.02573242,0.03563704
2547.95453979,0.03575517
2549.88334717,0.03565016
2551.81215454,0.03564286
2553.74096191,0.03560644
2555.66976929,0.03545357
2557.59857666,0.03551503
2559.52738403,0.03554562
2561.45619141,0.03548332
2563.38499878,0.03535488
2565.31380615,0.03529924
2567.24261353,0.03533098
2569.17142090,0.03528997
2571.10022827,0.03526057
2573.02903564,0.03530473
2574.95784302,0.03530394
2576.88665039,0.03516757
2578.81545776,0.03526065
2580.74426514,0.03520615
2582.67307251,0.03499541
2584.60187988,0.03507391
2586.53068726,0.03498913
2588.45949463,0.03495785
2590.38830200,0.03491143
2592.31710937,0.03492898
2594.24591675,0.03505930
2596.17472412,0.03490798
2598.10353149,0.03492649
2600.03233887,0.03486294
2601.96114624,0.03479485
2603.88995361,0.03483491
2605.81876099,0.03473712
2607.74756836,0.03473318
2609.67637573,0.03469560
2611.60518311,0.03472859
2613.53399048,0.03464729
2615.46279785,0.03459003
2617.39160522,0.03461748
2619.32041260,0.03455693
2621.24921997,0.03463122
2623.17802734,0.03447635
2625.10683472,0.03433105
2627.03564209,0.03437804
2628.96444946,0.03453844
2630.89325684,0.03459314
2632.82206421,0.03429148
2634.75087158,0.03427377
2636.67967895,0.03440917
2638.60848633,0.03437550
2640.53729370,0.03424983
2642.46610107,0.03417190
2644.39490845,0.03419929
2646.32371582,0.03414825
2648.25252319,0.03417817
2650.18133057,0.03416582
2652.11013794,0.03401763
2654.03894531,0.03388229
2655.96775269,0.03402250
2657.89656006,0.03413652
2659.82536743,0.03390210
2661.75417480,0.03386897
2663.68298218,0.03386919
2665.61178955,0.03380727
2667.54059692,0.03382809
2669.46940430,0.03384189
2671.39821167,0.03387443
2673.32701904,0.03376278
2675.25582642,0.03361885
2677.18463379,0.03360087
2679.11344116,0.03369352
2681.04224854,0.03357936
2682.97105591,0.03348043
2684.89986328,0.03352695
2686.82867065,0.03337308
2688.75747803,0.03332854
2690.68628540,0.03332669
2692.61509277,0.03339832
2694.54390015,0.03339115
2696.47270752,0.03323677
2698.40151489,0.03326144
2700.33032227,0.03322160
2702.25912964,0.03324424
2704.18793701,0.03315234
2706.11674438,0.03305914
2708.04555176,0.03311802
2709.97435913,0.03305720
2711.90316650,0.03305289
2713.83197388,0.03297397
2715.76078125,0.03296747
2717.68958862,0.03293655
2719.61839600,0.03286334
2721.54720337,0.03282807
2723.47601074,0.03275162
2725.40481812,0.03287581
2727.33362549,0.03276996
2729.26243286,0.03263473
2731.19124023,0.03262975
2733.12004761,0.03255941
2735.04885498,0.03258118
2736.97766235,0.03246164
2738.90646973,0.03243620
2740.83527710,0.03251286
2742.76408447,0.03247785
2744.69289185,0.03239157
2746.62169922,0.03235662
2748.55050659,0.03230367
2750.47931396,0.03220314
2752.40812134,0.03226486
2754.33692871,0.03217603
2756.26573608,0.03213669
2758.19454346,0.03217593
2760.12335083,0.03205066
2762.05215820,0.03201032
2763.98096558,0.03195595
2765.90977295,0.03191072
2767.83858032,0.03183496
2769.76738770,0.03187122
2771.69619507,0.03185912
2773.62500244,0.03175246
2775.55380981,0.03182083
2777.48261719,0.03172175
2779.41142456,0.03170465
2781.34023193,0.03159348
2783.26903931,0.03144789
2785.19784668,0.03155334
2787.12665405,0.03146358
2789.05546143,0.03152264
2790.98426880,0.03148955
2792.91307617,0.03131175
2794.84188354,0.03125016
2796.77069092,0.03111520
2798.69949829,0.03124689
2800.62830566,0.03118310
2802.55711304,0.03100228
2804.48592041,0.03110829
2806.41472778,0.03099919
2808.34353516,0.03096112
2810.27234253,0.03097840
2812.20114990,0.03082369
2814.12995728,0.03083351
2816.05876465,0.03081907
2817.98757202,0.03075011
2819.91637939,0.03074431
2821.84518677,0.03068895
2823.77399414,0.03066425
2825.70280151,0.03054573
2827.63160889,0.03044305
2829.56041626,0.03042718
2831.48922363,0.03029189
2833.41803101,0.03029526
2835.34683838,0.03022535
2837.27564575,0.03006618
2839.20445312,0.03012909
2841.13326050,0.03004777
2843.06206787,0.02992614
2844.99087524,0.02980385
2846.91968262,0.02961976
2848.84848999,0.02952369
2850.77729736,0.02942825
2852.70610474,0.02943795
2854.63491211,0.02937973
2856.56371948,0.02928291
2858.49252686,0.02925646
2860.42133423,0.02922287
2862.35014160,0.02923431
2864.27894897,0.02924331
2866.20775635,0.02920523
2868.13656372,0.02903174
2870.06537109,0.02912496
2871.99417847,0.02914764
2873.92298584,0.02893388
2875.85179321,0.02900395
2877.78060059,0.02880935
2879.70940796,0.02874168
2881.63821533,0.02888705
2883.56702270,0.02877555
2885.49583008,0.02873839
2887.42463745,0.02870641
2889.35344482,0.02869946
2891.28225220,0.02856679
2893.21105957,0.02846340
2895.13986694,0.02838337
2897.06867432,0.02836317
2898.99748169,0.02839381
2900.92628906,0.02815448
2902.85509644,0.02817894
2904.78390381,0.02804599
2906.71271118,0.02794425
2908.64151855,0.02806899
2910.57032593,0.02778762
2912.49913330,0.02762670
2914.42794067,0.02753028
2916.35674805,0.02752111
2918.28555542,0.02746349
2920.21436279,0.02734831
2922.14317017,0.02737365
2924.07197754,0.02721498
2926.00078491,0.02715829
2927.92959229,0.02712990
2929.85839966,0.02717216
2931.78720703,0.02710111
2933.71601440,0.02701218
2935.64482178,0.02709244
2937.57362915,0.02698911
2939.50243652,0.02707684
2941.43124390,0.02705508
2943.36005127,0.02694248
2945.28885864,0.02694387
2947.21766602,0.02689895
2949.14647339,0.02688820
2951.07528076,0.02678304
2953.00408813,0.02672102
2954.93289551,0.02657764
2956.86170288,0.02651383
2958.79051025,0.02639680
2960.71931763,0.02631116
2962.64812500,0.02645333
2964.57693237,0.02627745
2966.50573975,0.02618413
2968.43454712,0.02619609
2970.36335449,0.02617321
2972.29216187,0.02613337
2974.22096924,0.02604974
2976.14977661,0.02619174
2978.07858398,0.02614384
2980.00739136,0.02601377
2981.93619873,0.02606143
2983.86500610,0.02605083
2985.79381348,0.02594832
2987.72262085,0.02592359
2989.65142822,0.02596362
2991.58023560,0.02586585
2993.50904297,0.02573830
2995.43785034,0.02570655
2997.36665771,0.02567725
2999.29546509,0.02555419
3001.22427246,0.02556407
3003.15307983,0.02549688
3005.08188721,0.02536471
3007.01069458,0.02536586
3008.93950195,0.02521000
3010.86830933,0.02512438
3012.79711670,0.02501680
3014.72592407,0.02503124
3016.65473145,0.02501166
3018.58353882,0.02475767
3020.51234619,0.02479072
3022.44115356,0.02466946
3024.36996094,0.02454941
3026.29876831,0.02450552
3028.22757568,0.02432463
3030.15638306,0.02435469
3032.08519043,0.02426305
3034.01399780,0.02413972
3035.94280518,0.02413896
3037.87161255,0.02404132
3039.80041992,0.02397718
3041.72922729,0.02397593
3043.65803467,0.02385012
3045.58684204,0.02368386
3047.51564941,0.02361094
3049.44445679,0.02356889
3051.37326416,0.02347851
3053.30207153,0.02338440
3055.23087891,0.02337636
3057.15968628,0.02323494
3059.08849365,0.02316828
3061.01730103,0.02307101
3062.94610840,0.02290798
3064.87491577,0.02287196
3066.80372314,0.02261923
3068.73253052,0.02270864
3070.66133789,0.02268920
3072.59014526,0.02238147
3074.51895264,0.02248312
3076.44776001,0.02236415
3078.37656738,0.02228225
3080.30537476,0.02223330
3082.23418213,0.02203023
3084.16298950,0.02204863
3086.09179687,0.02193093
3088.02060425,0.02174412
3089.94941162,0.02165325
3091.87821899,0.02153367
3093.80702637,0.02144006
3095.73583374,0.02143386
3097.66464111,0.02135611
3099.59344849,0.02116810
3101.52225586,0.02100958
3103.45106323,0.02099104
3105.37987061,0.02095575
3107.30867798,0.02070709
3109.23748535,0.02060993
3111.16629272,0.02061548
3113.09510010,0.02050522
3115.02390747,0.02035136
3116.95271484,0.02020981
3118.88152222,0.02009401
3120.81032959,0.01995975
3122.73913696,0.01988511
3124.66794434,0.01975490
3126.59675171,0.01963646
3128.52555908,0.01956609
3130.45436645,0.01954265
3132.38317383,0.01947004
3134.31198120,0.01928475
3136.24078857,0.01923118
3138.16959595,0.01909284
3140.09840332,0.01891193
3142.02721069,0.01881110
3143.95601807,0.01879297
3145.88482544,0.01869966
3147.81363281,0.01846158
3149.74244019,0.01840183
3151.67124756,0.01831234
3153.60005493,0.01818382
3155.52886230,0.01807129
3157.45766968,0.01805098
3159.38647705,0.01798374
3161.31528442,0.01778497
3163.24409180,0.01775061
3165.17289917,0.01753847
3167.10170654,0.01737137
3169.03051392,0.01736978
3170.95932129,0.01730004
3172.88812866,0.01718988
3174.81693604,0.01699619
3176.74574341,0.01698430
3178.67455078,0.01702257
3180.60335815,0.01685114
3182.53216553,0.01662648
3184.46097290,0.01657631
3186.38978027,0.01651023
3188.31858765,0.01643543
3190.24739502,0.01632545
3192.17620239,0.01617173
3194.10500977,0.01624040
3196.03381714,0.01609542
3197.96262451,0.01597083
3199.89143188,0.01593191
3201.82023926,0.01578267
3203.74904663,0.01577697
3205.67785400,0.01573665
3207.60666138,0.01570041
3209.53546875,0.01558971
3211.46427612,0.01555304
3213.39308350,0.01550700
3215.32189087,0.01542726
3217.25069824,0.01537567
3219.17950562,0.01521657
3221.10831299,0.01525107
3223.03712036,0.01520995
3224.96592773,0.01520971
3226.89473511,0.01518689
3228.82354248,0.01503142
3230.75234985,0.01506244
3232.68115723,0.01500852
3234.60996460,0.01488948
3236.53877197,0.01489936
3238.46757935,0.01499781
3240.39638672,0.01483491
3242.32519409,0.01476745
3244.25400146,0.01481553
3246.18280884,0.01472891
3248.11161621,0.01487528
3250.04042358,0.01482334
3251.96923096,0.01472030
3253.89803833,0.01474495
3255.82684570,0.01469546
3257.75565308,0.01465247
3259.68446045,0.01466836
3261.61326782,0.01465054
3263.54207520,0.01459362
3265.47088257,0.01466360
3267.39968994,0.01455434
3269.32849731,0.01467893
3271.25730469,0.01469293
3273.18611206,0.01446846
3275.11491943,0.01459450
3277.04372681,0.01448362
3278.97253418,0.01442608
3280.90134155,0.01441665
3282.83014893,0.01443748
3284.75895630,0.01452263
3286.68776367,0.01439494
3288.61657104,0.01446865
3290.54537842,0.01448107
3292.47418579,0.01435280
3294.40299316,0.01435520
3296.33180054,0.01444847
3298.26060791,0.01438363
3300.18941528,0.01439239
3302.11822266,0.01441946
3304.04703003,0.01434161
3305.97583740,0.01438618
3307.90464478,0.01424930
3309.83345215,0.01431250
3311.76225952,0.01431370
3313.69106689,0.01432243
3315.61987427,0.01439395
3317.54868164,0.01424245
3319.47748901,0.01444400
3321.40629639,0.01437232
3323.33510376,0.01427869
3325.26391113,0.01426061
3327.19271851,0.01417089
3329.12152588,0.01425801
3331.05033325,0.01415104
3332.97914062,0.01427238
3334.90794800,0.01416400
3336.83675537,0.01407407
3338.76556274,0.01428833
3340.69437012,0.01426258
3342.62317749,0.01425825
3344.55198486,0.01411510
3346.48079224,0.01406809
3348.40959961,0.01408417
3350.33840698,0.01402252
3352.26721436,0.01411589
3354.19602173,0.01410499
3356.12482910,0.01405294
3358.05363647,0.01414519
3359.98244385,0.01412581
3361.91125122,0.01408226
3363.84005859,0.01409378
3365.76886597,0.01395977
3367.69767334,0.01406148
3369.62648071,0.01408030
3371.55528809,0.01404552
3373.48409546,0.01422977
3375.41290283,0.01413298
3377.34171020,0.01412099
3379.27051758,0.01411864
3381.19932495,0.01405772
3383.12813232,0.01414111
3385.05693970,0.01406226
3386.98574707,0.01404381
3388.91455444,0.01418254
3390.84336182,0.01412653
3392.77216919,0.01408396
3394.70097656,0.01418702
3396.62978394,0.01416243
3398.55859131,0.01426985
3400.48739868,0.01424734
3402.41620605,0.01417264
3404.34501343,0.01429912
3406.27382080,0.01431622
3408.20262817,0.01436983
3410.13143555,0.01433157
3412.06024292,0.01435842
3413.98905029,0.01431944
3415.91785767,0.01430619
3417.84666504,0.01442168
3419.77547241,0.01435119
3421.70427979,0.01436683
3423.63308716,0.01437052
3425.56189453,0.01452168
3427.49070190,0.01453795
3429.41950928,0.01448655
3431.34831665,0.01452544
3433.27712402,0.01445471
3435.20593140,0.01462376
3437.13473877,0.01461286
3439.06354614,0.01457624
3440.99235352,0.01455669
3442.92116089,0.01466885
3444.84996826,0.01480051
3446.77877563,0.01457733
3448.70758301,0.01470032
3450.63639038,0.01481380
3452.56519775,0.01481499
3454.49400513,0.01484656
3456.42281250,0.01480480
3458.35161987,0.01484414
3460.28042725,0.01487639
3462.20923462,0.01493823
3464.13804199,0.01502680
3466.06684937,0.01509167
3467.99565674,0.01497053
3469.92446411,0.01504783
3471.85327148,0.01509898
3473.78207886,0.01508680
3475.71088623,0.01521912
3477.63969360,0.01523737
3479.56850098,0.01528210
3481.49730835,0.01506068
3483.42611572,0.01527508
3485.35492310,0.01553619
3487.28373047,0.01529526
3489.21253784,0.01542756
3491.14134521,0.01545554
3493.07015259,0.01540288
3494.99895996,0.01556248
3496.92776733,0.01564276
3498.85657471,0.01557531
3500.78538208,0.01559089
3502.71418945,0.01541413
3504.64299683,0.01542118
3506.57180420,0.01591650
3508.50061157,0.01569987
3510.42941895,0.01561303
3512.35822632,0.01589514
3514.28703369,0.01585634
3516.21584106,0.01599894
3518.14464844,0.01599997
3520.07345581,0.01597127
3522.00226318,0.01598434
3523.93107056,0.01581327
3525.85987793,0.01582148
3527.78868530,0.01604085
3529.71749268,0.01607071
3531.64630005,0.01617064
3533.57510742,0.01642716
3535.50391479,0.01633893
3537.43272217,0.01626065
3539.36152954,0.01639579
3541.29033691,0.01643537
3543.21914429,0.01646205
3545.14795166,0.01621878
3547.07675903,0.01582709
3549.00556641,0.01641887
3550.93437378,0.01665901
3552.86318115,0.01619523
3554.79198853,0.01661575
3556.72079590,0.01676644
3558.64960327,0.01676066
3560.57841064,0.01664997
3562.50721802,0.01658958
3564.43602539,0.01678326
3566.36483276,0.01563809
3568.29364014,0.01524779
3570.22244751,0.01658715
3572.15125488,0.01714258
3574.08006226,0.01686491
3576.00886963,0.01697999
3577.93767700,0.01701889
3579.86648437,0.01698469
3581.79529175,0.01701963
3583.72409912,0.01704881
3585.65290649,0.01680309
3587.58171387,0.01543642
3589.51052124,0.01589332
3591.43932861,0.01732380
3593.36813599,0.01685864
3595.29694336,0.01670728
3597.22575073,0.01702855
3599.15455811,0.01718096
3601.08336548,0.01701108
3603.01217285,0.01720678
3604.94098022,0.01763634
3606.86978760,0.01704674
3608.79859497,0.01606020
3610.72740234,0.01646587
3612.65620972,0.01691901
3614.58501709,0.01641051
3616.51382446,0.01757494
3618.44263184,0.01629123
3620.37143921,0.01575565
3622.30024658,0.01788495
3624.22905395,0.01741080
3626.15786133,0.01820184
3628.08666870,0.01550315
3630.01547607,0.01406822
3631.94428345,0.01783452
3633.87309082,0.01751278
3635.80189819,0.01767122
3637.73070557,0.01810664
3639.65951294,0.01794776
3641.58832031,0.01807261
3643.51712769,0.01784235
3645.44593506,0.01814733
3647.37474243,0.01634770
3649.30354980,0.01490689
3651.23235718,0.01516176
3653.16116455,0.01809419
3655.08997192,0.01789641
3657.01877930,0.01603854
3658.94758667,0.01857451
3660.87639404,0.01821819
3662.80520142,0.01828206
3664.73400879,0.01833422
3666.66281616,0.01830254
3668.59162354,0.01783507
3670.52043091,0.01462094
3672.44923828,0.01773505
3674.37804565,0.01698280
3676.30685303,0.01398393
3678.23566040,0.01761576
3680.16446777,0.01809427
3682.09327515,0.01811743
3684.02208252,0.01863440
3685.95088989,0.01837121
3687.87969727,0.01666244
3689.80850464,0.01519536
3691.73731201,0.01736525
3693.66611938,0.01793076
3695.59492676,0.01837486
3697.52373413,0.01834770
3699.45254150,0.01815274
3701.38134888,0.01783807
3703.31015625,0.01700053
3705.23896362,0.01870829
3707.16777100,0.01795980
3709.09657837,0.01748257
3711.02538574,0.01645057
3712.95419312,0.01539300
3714.88300049,0.01810478
3716.81180786,0.01784166
3718.74061523,0.01799807
3720.66942261,0.01763060
3722.59822998,0.01698129
3724.52703735,0.01766145
3726.45584473,0.01637102
3728.38465210,0.01774679
3730.31345947,0.01760413
3732.24226685,0.01618510
3734.17107422,0.01574154
3736.09988159,0.01496236
3738.02868896,0.01584927
3739.95749634,0.01712433
3741.88630371,0.01799880
3743.81511108,0.01401221
3745.74391846,0.01314718
3747.67272583,0.01714351
3749.60153320,0.01477999
3751.53034058,0.01352400
3753.45914795,0.01566542
3755.38795532,0.01684225
3757.31676270,0.01748729
3759.24557007,0.01619111
3761.17437744,0.01664398
3763.10318481,0.01785940
3765.03199219,0.01665397
3766.96079956,0.01698536
3768.88960693,0.01683645
3770.81841431,0.01594851
3772.74722168,0.01742988
3774.67602905,0.01749005
3776.60483643,0.01750619
3778.53364380,0.01696218
3780.46245117,0.01622925
3782.39125854,0.01741840
3784.32006592,0.01691909
3786.24887329,0.01689878
3788.17768066,0.01721325
3790.10648804,0.01707206
3792.03529541,0.01707633
3793.96410278,0.01725267
3795.89291016,0.01628179
3797.82171753,0.01607284
3799.75052490,0.01695713
3801.67933228,0.01346571
3803.60813965,0.01567147
3805.53694702,0.01710811
3807.46575439,0.01395452
3809.39456177,0.01693277
3811.32336914,0.01662125
3813.25217651,0.01715416
3815.18098389,0.01556313
3817.10979126,0.01360727
3819.03859863,0.01712107
3820.96740601,0.01387096
3822.89621338,0.01457694
3824.82502075,0.01700777
3826.75382812,0.01541752
3828.68263550,0.01656624
3830.61144287,0.01588197
3832.54025024,0.01544773
3834.46905762,0.01580483
3836.39786499,0.01502815
3838.32667236,0.01356393
3840.25547974,0.01458055
3842.18428711,0.01576339
3844.11309448,0.01507620
3846.04190186,0.01627460
3847.97070923,0.01605301
3849.89951660,0.01610683
3851.82832397,0.01451478
3853.75713135,0.01081217
3855.68593872,0.01278568
3857.61474609,0.01621070
3859.54355347,0.01572964
3861.47236084,0.01548673
3863.40116821,0.01533361
3865.32997559,0.01421612
3867.25878296,0.01581755
3869.18759033,0.01450109
3871.11639770,0.01340278
3873.04520508,0.01585771
3874.97401245,0.01447512
3876.90281982,0.01568339
3878.83162720,0.01606747
3880.76043457,0.01372543
3882.68924194,0.01581969
3884.61804932,0.01486497
3886.54685669,0.01358118
3888.47566406,0.01585460
3890.40447144,0.01503002
3892.33327881,0.01409313
3894.26208618,0.01548642
3896.19089355,0.01570665
3898.11970093,0.01497308
3900.04850830,0.01413809
3901.97731567,0.01393901
3903.90612305,0.01393366
3905.83493042,0.01407171
3907.76373779,0.01540117
3909.69254517,0.01537617
3911.62135254,0.01515063
3913.55015991,0.01556136
3915.47896728,0.01503745
3917.40777466,0.01466946
3919.33658203,0.01454709
3921.26538940,0.01504235
3923.19419678,0.01502855
3925.12300415,0.01470216
3927.05181152,0.01501979
3928.98061890,0.01514516
3930.90942627,0.01473551
3932.83823364,0.01422341
3934.76704102,0.01490033
3936.69584839,0.01505761
3938.62465576,0.01489159
3940.55346313,0.01501802
3942.48227051,0.01432619
3944.41107788,0.01449982
3946.33988525,0.01483249
3948.26869263,0.01448644
3950.19750000,0.01450435
3952.12630737,0.01468977
3954.05511475,0.01474296
3955.98392212,0.01477242
3957.91272949,0.01478897
3959.84153687,0.01473928
3961.77034424,0.01457661
3963.69915161,0.01449416
3965.62795898,0.01469198
3967.55676636,0.01462325
3969.48557373,0.01445868
3971.41438110,0.01443215
3973.34318848,0.01438929
3975.27199585,0.01432288
3977.20080322,0.01435296
3979.12961060,0.01440599
3981.05841797,0.01430340
3982.98722534,0.01441249
3984.91603271,0.01428511
3986.84484009,0.01428152
3988.77364746,0.01428860
3990.70245483,0.01415052
3992.63126221,0.01435041
3994.56006958,0.01417964
3996.48887695,0.01418173
3998.41768433,0.01416779
4000.34649170,0.01409608
4002.27529907,0.01409472
4004.20410645,0.01398455
4006.13291382,0.01411780
4008.06172119,0.01394679
4009.99052856,0.01400531
4011.91933594,0.01403954
4013.84814331,0.01396155
4015.77695068,0.01398071
4017.70575806,0.01388543
4019.63456543,0.01397176
4021.56337280,0.01383984
4023.49218018,0.01383591
4025.42098755,0.01379052
4027.34979492,0.01380263
4029.27860229,0.01387170
4031.20740967,0.01375077
4033.13621704,0.01377994
4035.06502441,0.01367338
4036.99383179,0.01370647
4038.92263916,0.01370547
4040.85144653,0.01367140
4042.78025391,0.01357163
4044.70906128,0.01348804
4046.63786865,0.01357073
4048.56667603,0.01347266
4050.49548340,0.01349673
4052.42429077,0.01342285
4054.35309814,0.01341569
4056.28190552,0.01344158
4058.21071289,0.01338361
4060.13952026,0.01336153
4062.06832764,0.01336479
4063.99713501,0.01341049
4065.92594238,0.01326711
4067.85474976,0.01330452
4069.78355713,0.01319732
4071.71236450,0.01317771
4073.64117187,0.01322376
4075.56997925,0.01307915
4077.49878662,0.01316451
4079.42759399,0.01310769
4081.35640137,0.01315863
4083.28520874,0.01312967
4085.21401611,0.01307490
4087.14282349,0.01299971
4089.07163086,0.01293414
4091.00043823,0.01310560
4092.92924561,0.01295397
4094.85805298,0.01294174
4096.78686035,0.01290163
4098.71566772,0.01287283
4100.64447510,0.01295549
4102.57328247,0.01281378
4104.50208984,0.01280030
4106.43089722,0.01280170
4108.35970459,0.01280198
4110.28851196,0.01276249
4112.21731934,0.01274799
4114.14612671,0.01263963
4116.07493408,0.01266637
4118.00374145,0.01271454
4119.93254883,0.01253962
4121.86135620,0.01259275
4123.79016357,0.01253269
4125.71897095,0.01254668
4127.64777832,0.01250710
4129.57658569,0.01245387
4131.50539307,0.01252232
4133.43420044,0.01241270
4135.36300781,0.01250333
4137.29181519,0.01242456
4139.22062256,0.01233731
4141.14942993,0.01237812
4143.07823730,0.01235737
4145.00704468,0.01235058
4146.93585205,0.01222453
4148.86465942,0.01224010
4150.79346680,0.01229079
4152.72227417,0.01222149
4154.65108154,0.01214701
4156.57988892,0.01217419
4158.50869629,0.01208603
4160.43750366,0.01206562
4162.36631103,0.01216397
4164.29511841,0.01204483
4166.22392578,0.01203688
4168.15273315,0.01204287
4170.08154053,0.01203258
4172.01034790,0.01197254
4173.93915527,0.01192438
4175.86796265,0.01194067
4177.79677002,0.01181440
4179.72557739,0.01181598
4181.65438477,0.01185277
4183.58319214,0.01188011
4185.51199951,0.01186985
4187.44080688,0.01184166
4189.36961426,0.01177735
4191.29842163,0.01172124
4193.22722900,0.01178220
4195.15603638,0.01169086
4197.08484375,0.01163380
4199.01365112,0.01161782
4200.94245850,0.01165848
4202.87126587,0.01160312
4204.80007324,0.01148646
4206.72888062,0.01158883
4208.65768799,0.01158911
4210.58649536,0.01157261
4212.51530273,0.01145161
4214.44411011,0.01138577
4216.37291748,0.01148416
4218.30172485,0.01147568
4220.23053223,0.01143983
4222.15933960,0.01136827
4224.08814697,0.01136373
4226.01695435,0.01126916
4227.94576172,0.01128891
4229.87456909,0.01136068
4231.80337646,0.01119332
4233.73218384,0.01125911
4235.66099121,0.01128915
4237.58979858,0.01115051
4239.51860596,0.01119101
4241.44741333,0.01119022
4243.37622070,0.01111678
4245.30502808,0.01104495
4247.23383545,0.01102015
4249.16264282,0.01104209
4251.09145020,0.01097599
4253.02025757,0.01105278
4254.94906494,0.01107662
4256.87787231,0.01097341
4258.80667969,0.01098609
4260.73548706,0.01090749
4262.66429443,0.01097101
4264.59310181,0.01092487
4266.52190918,0.01079812
4268.45071655,0.01092915
4270.37952393,0.01088909
4272.30833130,0.01076225
4274.23713867,0.01069079
4276.16594604,0.01078583
4278.09475342,0.01076450
4280.02356079,0.01070230
4281.95236816,0.01078803
4283.88117554,0.01058702
4285.80998291,0.01060609
4287.73879028,0.01076379
4289.66759766,0.01070173
4291.59640503,0.01063910
4293.52521240,0.01061016
4295.45401978,0.01058243
4297.38282715,0.01049993
4299.31163452,0.01051721
4301.24044189,0.01051322
4303.16924927,0.01051460
4305.09805664,0.01044868
4307.02686401,0.01034500
4308.95567139,0.01038260
4310.88447876,0.01039610
4312.81328613,0.01042765
4314.74209351,0.01030437
4316.67090088,0.01026190
4318.59970825,0.01032208
4320.52851562,0.01022276
4322.45732300,0.01023819
4324.38613037,0.01021327
4326.31493774,0.01015946
4328.24374512,0.01015594
4330.17255249,0.01012771
4332.10135986,0.01018350
4334.03016724,0.01014975
4335.95897461,0.01008352
4337.88778198,0.01007909
4339.81658936,0.01003672
4341.74539673,0.01006825
4343.67420410,0.00998683
4345.60301147,0.00995011
4347.53181885,0.01005413
4349.46062622,0.00992209
4351.38943359,0.00988706
4353.31824097,0.00991951
4355.24704834,0.00990327
4357.17585571,0.00990896
4359.10466309,0.00986739
4361.03347046,0.00990617
4362.96227783,0.00987746
4364.89108520,0.00988728
4366.81989258,0.00978859
4368.74869995,0.00974642
4370.67750732,0.00988530
4372.60631470,0.00981915
4374.53512207,0.00974624
4376.46392944,0.00968300
4378.39273682,0.00969961
4380.32154419,0.00964068
4382.25035156,0.00963185
4384.17915894,0.00970760
4386.10796631,0.00958804
4388.03677368,0.00962295
4389.96558105,0.00955114
4391.89438843,0.00952405
4393.82319580,0.00958845
4395.75200317,0.00946223
4397.68081055,0.00945921
4399.60961792,0.00950087
4401.53842529,0.00946957
4403.46723267,0.00938566
4405.39604004,0.00944501
4407.32484741,0.00944253
4409.25365478,0.00931285
4411.18246216,0.00937073
4413.11126953,0.00939211
4415.04007690,0.00930433
4416.96888428,0.00927657
4418.89769165,0.00924737
4420.82649902,0.00914549
4422.75530640,0.00918968
4424.68411377,0.00920319
4426.61292114,0.00915719
4428.54172852,0.00918725
4430.47053589,0.00914662
4432.39934326,0.00916051
4434.32815063,0.00910408
4436.25695801,0.00904253
4438.18576538,0.00904797
4440.11457275,0.00905287
4442.04338013,0.00905184
4443.97218750,0.00904927
4445.90099487,0.00903490
4447.82980225,0.00892888
4449.75860962,0.00899367
4451.68741699,0.00901496
4453.61622437,0.00891634
4455.54503174,0.00884735
4457.47383911,0.00885415
4459.40264648,0.00891923
4461.33145386,0.00883781
4463.26026123,0.00878872
4465.18906860,0.00868498
4467.11787598,0.00875148
4469.04668335,0.00884445
4470.97549072,0.00876281
4472.90429810,0.00874725
4474.83310547,0.00864387
4476.76191284,0.00869419
4478.69072021,0.00861686
4480.61952759,0.00856602
4482.54833496,0.00866526
4484.47714233,0.00854608
4486.40594971,0.00856807
4488.33475708,0.00861472
4490.26356445,0.00858514
4492.19237183,0.00851296
4494.12117920,0.00851498
4496.04998657,0.00852985
4497.97879395,0.00848420
4499.90760132,0.00849030
4501.83640869,0.00840037
4503.76521606,0.00840228
4505.69402344,0.00840082
4507.62283081,0.00839669
4509.55163818,0.00841429
4511.48044556,0.00838111
4513.40925293,0.00832964
4515.33806030,0.00826740
4517.26686768,0.00828219
4519.19567505,0.00821645
4521.12448242,0.00831419
4523.05328979,0.00836365
4524.98209717,0.00827503
4526.91090454,0.00826469
4528.83971191,0.00814422
4530.76851929,0.00817388
4532.69732666,0.00816176
4534.62613403,0.00809693
4536.55494141,0.00816168
4538.48374878,0.00817582
4540.41255615,0.00813655
4542.34136353,0.00806264
4544.27017090,0.00805590
4546.19897827,0.00807127
4548.12778564,0.00805278
4550.05659302,0.00797830
4551.98540039,0.00800780
4553.91420776,0.00803975
4555.84301514,0.00791133
4557.77182251,0.00789986
4559.70062988,0.00790658
4561.62943726,0.00784525
4563.55824463,0.00790039
4565.48705200,0.00794114
4567.41585937,0.00783616
4569.34466675,0.00786414
4571.27347412,0.00781551
4573.20228149,0.00770870
4575.13108887,0.00783400
4577.05989624,0.00776670
4578.98870361,0.00772079
4580.91751099,0.00775243
4582.84631836,0.00768324
4584.77512573,0.00768111
4586.70393311,0.00768750
4588.63274048,0.00769701
4590.56154785,0.00758509
4592.49035522,0.00760674
4594.41916260,0.00769828
4596.34796997,0.00762116
4598.27677734,0.00761219
4600.20558472,0.00758162
4602.13439209,0.00755270
4604.06319946,0.00757292
4605.99200684,0.00752264
4607.92081421,0.00747621
4609.84962158,0.00746363
4611.77842895,0.00737636
4613.70723633,0.00739409
4615.63604370,0.00746542
4617.56485107,0.00736223
4619.49365845,0.00736964
4621.42246582,0.00740762
4623.35127319,0.00736640
4625.28008057,0.00738759
4627.20888794,0.00735874
4629.13769531,0.00731823
4631.06650269,0.00730114
4632.99531006,0.00727715
4634.92411743,0.00729955
4636.85292480,0.00723511
4638.78173218,0.00716281
4640.71053955,0.00727558
4642.63934692,0.00726618
4644.56815430,0.00715672
4646.49696167,0.00716353
4648.42576904,0.00721130
4650.35457642,0.00719998
4652.28338379,0.00715308
4654.21219116,0.00719873
4656.14099853,0.00712538
4658.06980591,0.00710249
4659.99861328,0.00712547
4661.92742065,0.00704289
4663.85622803,0.00707121
4665.78503540,0.00699590
4667.71384277,0.00700036
4669.64265015,0.00703305
4671.57145752,0.00696217
4673.50026489,0.00699180
4675.42907227,0.00696503
4677.35787964,0.00693429
4679.28668701,0.00682807
4681.21549438,0.00683145
4683.14430176,0.00692981
4685.07310913,0.00684153
4687.00191650,0.00689803
4688.93072388,0.00693048
4690.85953125,0.00680782
4692.78833862,0.00682220
4694.71714600,0.00676739
4696.64595337,0.00668811
4698.57476074,0.00674296
4700.50356812,0.00668228
4702.43237549,0.00668095
4704.36118286,0.00676480
4706.28999023,0.00673679
4708.21879761,0.00673389
4710.14760498,0.00669327
4712.07641235,0.00664485
4714.00521973,0.00662455
4715.93402710,0.00662123
4717.86283447,0.00663875
4719.79164185,0.00662701
4721.72044922,0.00660021
4723.64925659,0.00650281
4725.57806396,0.00653477
4727.50687134,0.00661128
4729.43567871,0.00650847
4731.36448608,0.00647677
4733.29329346,0.00651590
4735.22210083,0.00651447
4737.15090820,0.00651969
4739.07971558,0.00645455
4741.00852295,0.00641441
4742.93733032,0.00646218
4744.86613770,0.00643544
4746.79494507,0.00639335
4748.72375244,0.00637234
4750.65255981,0.00636003
4752.58136719,0.00637211
4754.51017456,0.00635421
4756.43898193,0.00631049
4758.36778931,0.00632392
4760.29659668,0.00637359
4762.22540405,0.00628864
4764.15421143,0.00625644
4766.08301880,0.00628631
4768.01182617,0.00625346
4769.94063354,0.00625159
4771.86944092,0.00626761
4773.79824829,0.00624741
4775.72705566,0.00613615
4777.65586304,0.00618698
4779.58467041,0.00619253
4781.51347778,0.00613487
4783.44228516,0.00612285
4785.37109253,0.00598288
4787.29989990,0.00608917
4789.22870728,0.00607040
4791.15751465,0.00603333
4793.08632202,0.00612250
4795.01512939,0.00600830
4796.94393677,0.00610319
4798.87274414,0.00605557
4800.80155151,0.00594816
4802.73035889,0.00604303
4804.65916626,0.00603023
4806.58797363,0.00600410
4808.51678101,0.00598576
4810.44558838,0.00592582
4812.37439575,0.00586602
4814.30320312,0.00592510
4816.23201050,0.00589909
4818.16081787,0.00588446
4820.08962524,0.00591464
4822.01843262,0.00585071
4823.94723999,0.00588703
4825.87604736,0.00584705
4827.80485474,0.00583584
4829.73366211,0.00581690
4831.66246948,0.00573451
4833.59127686,0.00574321
4835.52008423,0.00573218
4837.44889160,0.00578953
4839.37769897,0.00576591
4841.30650635,0.00569611
4843.23531372,0.00574834
4845.16412109,0.00572300
4847.09292847,0.00566952
4849.02173584,0.00570888
4850.95054321,0.00566709
4852.87935059,0.00561423
4854.80815796,0.00569117
4856.73696533,0.00566383
4858.66577270,0.00554655
4860.59458008,0.00553726
4862.52338745,0.00557881
4864.45219482,0.00557513
4866.38100220,0.00559497
4868.30980957,0.00555967
4870.23861694,0.00550402
4872.16742432,0.00549265
4874.09623169,0.00541533
4876.02503906,0.00541190
4877.95384644,0.00544821
4879.88265381,0.00555839
4881.81146118,0.00554033
4883.74026855,0.00543334
4885.66907593,0.00548302
4887.59788330,0.00539246
4889.52669067,0.00539737
4891.45549805,0.00536584
4893.38430542,0.00532075
4895.31311279,0.00540228
4897.24192017,0.00536605
4899.17072754,0.00542363
4901.09953491,0.00528329
4903.02834228,0.00519401
4904.95714966,0.00536048
4906.88595703,0.00533892
4908.81476440,0.00524504
4910.74357178,0.00519810
4912.67237915,0.00524514
4914.60118652,0.00531274
4916.52999390,0.00528619
4918.45880127,0.00521775
4920.38760864,0.00523236
4922.31641602,0.00521326
4924.24522339,0.00519845
4926.17403076,0.00520763
4928.10283813,0.00511971
4930.03164551,0.00513838
4931.96045288,0.00511475
4933.88926025,0.00509435
4935.81806763,0.00504198
4937.74687500,0.00496087
4939.67568237,0.00503960
4941.60448975,0.00502291
4943.53329712,0.00502270
4945.46210449,0.00503282
4947.39091187,0.00502824
4949.31971924,0.00504005
4951.24852661,0.00504631
4953.17733398,0.00505344
4955.10614136,0.00499500
4957.03494873,0.00498640
4958.96375610,0.00491597
4960.89256348,0.00495304
4962.82137085,0.00499520
4964.75017822,0.00487231
4966.67898560,0.00490641
4968.60779297,0.00492043
4970.53660034,0.00485119
4972.46540771,0.00485574
4974.39421509,0.00485715
4976.32302246,0.00486014
4978.25182983,0.00490113
4980.18063721,0.00485074
4982.10944458,0.00479710
4984.03825195,0.00479135
4985.96705933,0.00477444
4987.89586670,0.00482479
4989.82467407,0.00480812
4991.75348145,0.00474335
4993.68228882,0.00469203
4995.61109619,0.00471102
4997.53990356,0.00471046
4999.46871094,0.00470403
5001.39751831,0.00477528
5003.32632568,0.00473370
5005.25513306,0.00471768
5007.18394043,0.00466323
5009.11274780,0.00464307
5011.04155518,0.00463654
5012.97036255,0.00455457
5014.89916992,0.00459188
5016.82797729,0.00462488
5018.75678467,0.00469130
5020.68559204,0.00462796
5022.61439941,0.00457990
5024.54320679,0.00456448
5026.47201416,0.00446730
5028.40082153,0.00456884
5030.32962891,0.00458524
5032.25843628,0.00455933
5034.18724365,0.00457175
5036.11605103,0.00452933
5038.04485840,0.00448384
5039.97366577,0.00448327
5041.90247314,0.00449451
5043.83128052,0.00442089
5045.76008789,0.00442550
5047.68889526,0.00442883
5049.61770264,0.00443313
5051.54651001,0.00441389
5053.47531738,0.00443676
5055.40412476,0.00443791
5057.33293213,0.00436707
5059.26173950,0.00444479
5061.19054687,0.00437059
5063.11935425,0.00437020
5065.04816162,0.00443703
5066.97696899,0.00435118
5068.90577637,0.00434287
5070.83458374,0.00434565
5072.76339111,0.00435237
5074.69219849,0.00433524
5076.62100586,0.00436496
5078.54981323,0.00432307
5080.47862061,0.00426966
5082.40742798,0.00429224
5084.33623535,0.00432180
5086.26504272,0.00433007
5088.19385010,0.00421123
5090.12265747,0.00426223
5092.05146484,0.00425014
5093.98027222,0.00417462
5095.90907959,0.00423642
5097.83788696,0.00419893
5099.76669434,0.00417930
5101.69550171,0.00415453
5103.62430908,0.00412931
5105.55311645,0.00414591
5107.48192383,0.00415098
5109.41073120,0.00410637
5111.33953857,0.00416438
5113.26834595,0.00413230
5115.19715332,0.00401138
5117.12596069,0.00414052
5119.05476807,0.00408315
5120.98357544,0.00398701
5122.91238281,0.00397693
5124.84119019,0.00393373
5126.76999756,0.00397458
5128.69880493,0.00398984
5130.62761230,0.00404045
5132.55641968,0.00398240
5134.48522705,0.00397051
5136.41403442,0.00398491
5138.34284180,0.00393162
5140.27164917,0.00393142
5142.20045654,0.00391511
5144.12926392,0.00394647
5146.05807129,0.00393790
5147.98687866,0.00392847
5149.91568603,0.00389926
5151.84449341,0.00390500
5153.77330078,0.00392740
5155.70210815,0.00388069
5157.63091553,0.00384101
5159.55972290,0.00383746
5161.48853027,0.00389642
5163.41733765,0.00384490
5165.34614502,0.00388650
5167.27495239,0.00389016
5169.20375977,0.00378655
5171.13256714,0.00381324
5173.06137451,0.00377215
5174.99018188,0.00372676
5176.91898926,0.00374141
5178.84779663,0.00381466
5180.77660400,0.00377280
5182.70541138,0.00376202
5184.63421875,0.00374840
5186.56302612,0.00367679
5188.49183350,0.00381704
5190.42064087,0.00374014
5192.34944824,0.00365589
5194.27825562,0.00368681
5196.20706299,0.00367260
5198.13587036,0.00368690
5200.06467773,0.00363724
5201.99348511,0.00368676
5203.92229248,0.00366571
5205.85109985,0.00358123
5207.77990723,0.00356731
5209.70871460,0.00363744
5211.63752197,0.00365237
5213.56632935,0.00364591
5215.49513672,0.00367370
5217.42394409,0.00356556
5219.35275146,0.00360872
5221.28155884,0.00364181
5223.21036621,0.00357536
5225.13917358,0.00348587
5227.06798096,0.00346022
5228.99678833,0.00352507
5230.92559570,0.00351557
5232.85440308,0.00359194
5234.78321045,0.00355606
5236.71201782,0.00358799
5238.64082520,0.00355029
5240.56963257,0.00339080
5242.49843994,0.00344566
5244.42724731,0.00341319
5246.35605469,0.00342203
5248.28486206,0.00338381
5250.21366943,0.00338368
5252.14247681,0.00343890
5254.07128418,0.00337407
5256.00009155,0.00341708
5257.92889893,0.00339679
5259.85770630,0.00336439
5261.78651367,0.00338470
5263.71532104,0.00332641
5265.64412842,0.00331197
5267.57293579,0.00343536
5269.50174316,0.00334926
5271.43055054,0.00331758
5273.35935791,0.00342726
5275.28816528,0.00328872
5277.21697266,0.00342285
5279.14578003,0.00343320
5281.07458740,0.00331293
5283.00339478,0.00335622
5284.93220215,0.00322241
5286.86100952,0.00328620
5288.78981689,0.00327817
5290.71862427,0.00318295
5292.64743164,0.00318764
5294.57623901,0.00321259
5296.50504639,0.00330944
5298.43385376,0.00332752
5300.36266113,0.00330884
5302.29146851,0.00324506
5304.22027588,0.00325267
5306.14908325,0.00320384
5308.07789062,0.00318098
5310.00669800,0.00323220
5311.93550537,0.00319375
5313.86431274,0.00324542
5315.79312012,0.00320032
5317.72192749,0.00316145
5319.65073486,0.00316516
5321.57954224,0.00312705
5323.50834961,0.00317858
5325.43715698,0.00315223
5327.36596436,0.00308567
5329.29477173,0.00312810
5331.22357910,0.00312757
5333.15238647,0.00304759
5335.08119385,0.00313298
5337.01000122,0.00308838
5338.93880859,0.00296067
5340.86761597,0.00311867
5342.79642334,0.00309639
5344.72523071,0.00294033
5346.65403809,0.00300781
5348.58284546,0.00302575
5350.51165283,0.00294135
5352.44046020,0.00296266
5354.36926758,0.00300606
5356.29807495,0.00300585
5358.22688232,0.00298444
5360.15568970,0.00302741
5362.08449707,0.00307422
5364.01330444,0.00298510
5365.94211182,0.00297757
5367.87091919,0.00296143
5369.79972656,0.00294316
5371.72853394,0.00296721
5373.65734131,0.00288345
5375.58614868,0.00286478
5377.51495605,0.00289059
5379.44376343,0.00294804
5381.37257080,0.00298527
5383.30137817,0.00296731
5385.23018555,0.00290015
5387.15899292,0.00278717
5389.08780029,0.00283779
5391.01660767,0.00296155
5392.94541504,0.00290055
5394.87422241,0.00278475
5396.80302978,0.00286117
5398.73183716,0.00287602
5400.66064453,0.00291437
5402.58945190,0.00291345
5404.51825928,0.00275134
5406.44706665,0.00286648
5408.37587402,0.00283507
5410.30468140,0.00274231
5412.23348877,0.00279795
5414.16229614,0.00271354
5416.09110352,0.00278229
5418.01991089,0.00280236
5419.94871826,0.00276415
5421.87752563,0.00281087
5423.80633301,0.00274002
5425.73514038,0.00269656
5427.66394775,0.00271393
5429.59275513,0.00266322
5431.52156250,0.00273328
5433.45036987,0.00278499
5435.37917725,0.00262562
5437.30798462,0.00273655
5439.23679199,0.00282098
5441.16559936,0.00265028
5443.09440674,0.00266300
5445.02321411,0.00268263
5446.95202148,0.00266042
5448.88082886,0.00262746
5450.80963623,0.00260975
5452.73844360,0.00267163
5454.66725098,0.00264700
5456.59605835,0.00265420
5458.52486572,0.00269105
5460.45367310,0.00254606
5462.38248047,0.00255532
5464.31128784,0.00269240
5466.24009521,0.00262087
5468.16890259,0.00261721
5470.09770996,0.00258195
5472.02651733,0.00257228
5473.95532471,0.00262463
5475.88413208,0.00252713
5477.81293945,0.00255581
5479.74174683,0.00251225
5481.67055420,0.00248437
5483.59936157,0.00261827
5485.52816895,0.00258743
5487.45697632,0.00252469
5489.38578369,0.00252219
5491.31459106,0.00247763
5493.24339844,0.00247278
5495.17220581,0.00252607
5497.10101318,0.00245574
5499.02982056,0.00246730
5500.95862793,0.00251694
5502.88743530,0.00246602
5504.81624268,0.00251078
5506.74505005,0.00247886
5508.67385742,0.00249051
5510.60266479,0.00253271
5512.53147217,0.00249457
5514.46027954,0.00248328
5516.38908691,0.00246756
5518.31789429,0.00246836
5520.24670166,0.00240177
5522.17550903,0.00241285
5524.10431641,0.00244748
5526.03312378,0.00241509
5527.96193115,0.00238641
5529.89073853,0.00236002
5531.81954590,0.00241682
5533.74835327,0.00236790
5535.67716064,0.00234969
5537.60596802,0.00240717
5539.53477539,0.00236754
5541.46358276,0.00238690
5543.39239014,0.00239298
5545.32119751,0.00237285
5547.25000488,0.00236369
5549.17881226,0.00237256
5551.10761963,0.00239338
5553.03642700,0.00232004
5554.96523437,0.00234903
5556.89404175,0.00242620
5558.82284912,0.00234252
5560.75165649,0.00229462
5562.68046387,0.00231208
5564.60927124,0.00230347
5566.53807861,0.00225725
5568.46688599,0.00228623
5570.39569336,0.00234947
5572.32450073,0.00227037
5574.25330811,0.00224902
5576.18211548,0.00221821
5578.11092285,0.00221352
5580.03973022,0.00229271
5581.96853760,0.00225279
5583.89734497,0.00226587
5585.82615234,0.00222300
5587.75495972,0.00216983
5589.68376709,0.00225581
5591.61257446,0.00227741
5593.54138184,0.00220476
5595.47018921,0.00218949
5597.39899658,0.00224991
5599.32780395,0.00222223
5601.25661133,0.00224236
5603.18541870,0.00219492
5605.11422607,0.00217638
5607.04303345,0.00227206
5608.97184082,0.00215426
5610.90064819,0.00214471
5612.82945557,0.00216726
5614.75826294,0.00213454
5616.68707031,0.00216747
5618.61587769,0.00209644
5620.54468506,0.00212642
5622.47349243,0.00219546
5624.40229980,0.00215901
5626.33110718,0.00214507
5628.25991455,0.00213306
5630.18872192,0.00209460
5632.11752930,0.00214118
5634.04633667,0.00209971
5635.97514404,0.00207082
5637.90395142,0.00219450
5639.83275879,0.00211301
5641.76156616,0.00209773
5643.69037353,0.00209547
5645.61918091,0.00196290
5647.54798828,0.00204262
5649.47679565,0.00211539
5651.40560303,0.00210660
5653.33441040,0.00208253
5655.26321777,0.00201355
5657.19202515,0.00199390
5659.12083252,0.00208166
5661.04963989,0.00210176
5662.97844727,0.00201841
5664.90725464,0.00202028
5666.83606201,0.00201663
5668.76486938,0.00198869
5670.69367676,0.00198585
5672.62248413,0.00199070
5674.55129150,0.00197230
5676.48009888,0.00202464
5678.40890625,0.00204741
5680.33771362,0.00198337
5682.26652100,0.00200513
5684.19532837,0.00195356
5686.12413574,0.00199045
5688.05294311,0.00204144
5689.98175049,0.00196770
5691.91055786,0.00195885
5693.83936523,0.00192689
5695.76817261,0.00191323
5697.69697998,0.00190546
5699.62578735,0.00195486
5701.55459473,0.00195973
5703.48340210,0.00194017
5705.41220947,0.00195540
5707.34101685,0.00185786
5709.26982422,0.00183169
5711.19863159,0.00182096
5713.12743896,0.00184250
5715.05624634,0.00190652
5716.98505371,0.00192473
5718.91386108,0.00187219
5720.84266846,0.00184789
5722.77147583,0.00189331
5724.70028320,0.00180473
5726.62909058,0.00185398
5728.55789795,0.00188986
5730.48670532,0.00183961
5732.41551270,0.00187735
5734.34432007,0.00182936
5736.27312744,0.00180196
5738.20193481,0.00178071
5740.13074219,0.00183262
5742.05954956,0.00184892
5743.98835693,0.00184532
5745.91716431,0.00183382
5747.84597168,0.00177689
5749.77477905,0.00182977
5751.70358643,0.00176581
5753.63239380,0.00179815
5755.56120117,0.00180267
5757.49000854,0.00171617
5759.41881592,0.00177406
5761.34762329,0.00175924
5763.27643066,0.00178235
5765.20523804,0.00176169
5767.13404541,0.00171406
5769.06285278,0.00173083
5770.99166016,0.00179001
5772.92046753,0.00180622
5774.84927490,0.00175394
5776.77808228,0.00174490
5778.70688965,0.00169550
5780.63569702,0.00176471
5782.56450439,0.00170189
5784.49331177,0.00163902
5786.42211914,0.00171816
5788.35092651,0.00161518
5790.27973389,0.00165184
5792.20854126,0.00169689
5794.13734863,0.00168038
5796.06615601,0.00168011
5797.99496338,0.00169684
5799.92377075,0.00171493
5801.85257812,0.00161765
5803.78138550,0.00165735
5805.71019287,0.00162860
5807.63900024,0.00160698
5809.56780762,0.00166401
5811.49661499,0.00163601
5813.42542236,0.00164902
5815.35422974,0.00159709
5817.28303711,0.00164008
5819.21184448,0.00164544
5821.14065186,0.00159138
5823.06945923,0.00160014
5824.99826660,0.00153371
5826.92707397,0.00160865
5828.85588135,0.00160620
5830.78468872,0.00154935
5832.71349609,0.00169286
5834.64230347,0.00166418
5836.57111084,0.00154106
5838.49991821,0.00153657
5840.42872559,0.00152916
5842.35753296,0.00156678
5844.28634033,0.00155448
5846.21514770,0.00152294
5848.14395508,0.00155148
5850.07276245,0.00151541
5852.00156982,0.00154970
5853.93037720,0.00153260
5855.85918457,0.00145854
5857.78799194,0.00151933
5859.71679932,0.00151864
5861.64560669,0.00149692
5863.57441406,0.00149696
5865.50322144,0.00146545
5867.43202881,0.00147480
5869.36083618,0.00150285
5871.28964355,0.00151209
5873.21845093,0.00152766
5875.14725830,0.00151143
5877.07606567,0.00148706
5879.00487305,0.00151531
5880.93368042,0.00145767
5882.86248779,0.00147177
5884.79129517,0.00152026
5886.72010254,0.00148121
5888.64890991,0.00150067
5890.57771728,0.00147722
5892.50652466,0.00151186
5894.43533203,0.00146780
5896.36413940,0.00142281
5898.29294678,0.00149764
5900.22175415,0.00141861
5902.15056152,0.00142043
5904.07936890,0.00144230
5906.00817627,0.00144510
5907.93698364,0.00144623
5909.86579102,0.00138801
5911.79459839,0.00141683
5913.72340576,0.00136323
5915.65221313,0.00135038
5917.58102051,0.00139293
5919.50982788,0.00138417
5921.43863525,0.00140417
5923.36744263,0.00140509
5925.29625000,0.00136852
5927.22505737,0.00134103
5929.15386475,0.00138980
5931.08267212,0.00138683
5933.01147949,0.00138089
5934.94028686,0.00133233
5936.86909424,0.00130586
5938.79790161,0.00138895
5940.72670898,0.00133986
5942.65551636,0.00133946
5944.58432373,0.00133505
5946.51313110,0.00131840
5948.44193848,0.00135307
5950.37074585,0.00132461
5952.29955322,0.00134427
5954.22836060,0.00135086
5956.15716797,0.00136577
5958.08597534,0.00126727
5960.01478271,0.00123638
5961.94359009,0.00134157
5963.87239746,0.00128515
5965.80120483,0.00127968
5967.73001221,0.00132083
5969.65881958,0.00133766
5971.58762695,0.00129729
5973.51643433,0.00128451
5975.44524170,0.00127515
5977.37404907,0.00121868
5979.30285645,0.00131587
5981.23166382,0.00129934
5983.16047119,0.00127605
5985.08927856,0.00127478
5987.01808594,0.00122682
5988.94689331,0.00127310
5990.87570068,0.00121488
5992.80450806,0.00124146
5994.73331543,0.00127967
5996.66212280,0.00126163
5998.59093018,0.00128983
6000.51973755,0.00127881
