399.26312622,0.00035755
401.19193359,0.00016037
403.12074097,0.00034657
405.04954834,0.00074577
406.97835571,0.00004606
408.90716309,0.00033041
410.83597046,0.00017841
412.76477783,0.00012960
414.69358521,-0.00002240
416.62239258,-0.00005150
418.55119995,0.00044790
420.48000732,0.00001566
422.40881470,0.00045615
424.33762207,0.00057408
426.26642944,0.00001367
428.19523682,0.00006434
430.12404419,0.00033751
432.05285156,0.00036693
433.98165894,0.00019821
435.91046631,0.00030625
437.83927368,0.00002147
439.76808105,-0.00004261
441.69688843,0.00032293
443.62569580,0.00036957
445.55450317,0.00037830
447.48331055,0.00036649
449.41211792,-0.00006890
451.34092529,0.00033248
453.26973267,0.00013605
455.19854004,-0.00000227
457.12734741,0.00050293
459.05615479,0.00030064
460.98496216,0.00035971
462.91376953,-0.00011427
464.84257690,-0.00017873
466.77138428,0.00041376
468.70019165,0.00026981
470.62899902,0.00019982
472.55780640,0.00033256
474.48661377,0.00026298
476.41542114,-0.00004601
478.34422852,0.00011957
480.27303589,0.00030767
482.20184326,0.00023431
484.13065063,0.00028652
486.05945801,0.00013720
487.98826538,0.00001536
489.91707275,0.00024110
491.84588013,0.00024680
493.77468750,0.00033032
495.70349487,0.00042168
497.63230225,0.00008757
499.56110962,0.00050925
501.48991699,0.00059195
503.41872437,0.00017487
505.34753174,0.00025829
507.27633911,0.00001202
509.20514648,0.00022789
511.13395386,0.00073375
513.06276123,0.00061454
514.99156860,0.00042430
516.92037598,0.00044363
518.84918335,0.00037390
520.77799072,-0.00002637
522.70679810,-0.00014803
524.63560547,0.00034242
526.56441284,0.00047462
528.49322021,0.00012965
530.42202759,0.00024082
532.35083496,0.00012197
534.27964233,0.00020487
536.20844971,0.00045071
538.13725708,-0.00004602
540.06606445,0.00038264
541.99487183,0.00056278
543.92367920,0.00033163
545.85248657,0.00058566
547.78129395,0.00012151
549.71010132,0.00028964
551.63890869,0.00041408
553.56771606,0.00004471
555.49652344,0.00030691
557.42533081,0.00031123
559.35413818,0.00010659
561.28294556,0.00010059
563.21175293,0.00034768
565.14056030,0.00026429
567.06936768,0.00024613
568.99817505,0.00048051
570.92698242,0.00041553
572.85578979,0.00053162
574.78459717,0.00026470
576.71340454,0.00009884
578.64221191,0.00019781
580.57101929,0.00015399
582.49982666,0.00014681
584.42863403,0.00013278
586.35744141,0.00054978
588.28624878,0.00045349
590.21505615,0.00046411
592.14386353,0.00033102
594.07267090,-0.00035647
596.00147827,-0.00006245
597.93028564,0.00007676
599.85909302,0.00035776
601.78790039,0.00070063
603.71670776,0.00037954
605.64551514,0.00024953
607.57432251,0.00030833
609.50312988,0.00060677
611.43193726,0.00032519
613.36074463,0.00013665
615.28955200,0.00053491
617.21835938,0.00027412
619.14716675,0.00004712
621.07597412,-0.00016235
623.00478149,-0.00017823
624.93358887,0.00033517
626.86239624,0.00027085
628.79120361,0.00018959
630.72001099,-0.00012271
632.64881836,-0.00016305
634.57762573,0.00054182
636.50643311,0.00035211
638.43524048,0.00021406
640.36404785,0.00047684
642.29285522,0.00063895
644.22166260,0.00048476
646.15046997,0.00033871
648.07927734,0.00048146
650.00808472,0.00051818
651.93689209,0.00067496
653.86569946,0.00059570
655.79450684,0.00059036
657.72331421,0.00054325
659.65212158,0.00053207
661.58092896,0.00061923
663.50973633,0.00069327
665.43854370,0.00098931
667.36735107,0.00069533
669.29615845,0.00045934
671.22496582,0.00077938
673.15377319,0.00101337
675.08258057,0.00089611
677.01138794,0.00097986
678.94019531,0.00109700
680.86900269,0.00090163
682.79781006,0.00108217
684.72661743,0.00073507
686.65542480,0.00049541
688.58423218,0.00090234
690.51303955,0.00078119
692.44184692,0.00061224
694.37065430,0.00068594
696.29946167,0.00093019
698.22826904,0.00096104
700.15707642,0.00097363
702.08588379,0.00117817
704.01469116,0.00103345
705.94349854,0.00107396
707.87230591,0.00103632
709.80111328,0.00061902
711.72992065,0.00044786
713.65872803,0.00037660
715.58753540,0.00008990
717.51634277,0.00014684
719.44515015,0.00044722
721.37395752,0.00042467
723.30276489,0.00041498
725.23157227,0.00031948
727.16037964,0.00019491
729.08918701,0.00023010
731.01799438,0.00039622
732.94680176,0.00043618
734.87560913,0.00018524
736.80441650,0.00012093
738.73322388,0.00028218
740.66203125,0.00054406
742.59083862,0.00024146
744.51964600,0.00013796
746.44845337,0.00054260
748.37726074,0.00030626
750.30606812,0.00052564
752.23487549,0.00054534
754.16368286,0.00025736
756.09249023,0.00048331
758.02129761,0.00040891
759.95010498,0.00043905
761.87891235,0.00009222
763.80771973,0.00023935
765.73652710,0.00052684
767.66533447,0.00020880
769.59414185,0.00066575
771.52294922,0.00062453
773.45175659,0.00033185
775.38056396,0.00035301
777.30937134,0.00021506
779.23817871,0.00029682
781.16698608,0.00036786
783.09579346,0.00043710
785.02460083,0.00044016
786.95340820,0.00025200
788.88221558,0.00010904
790.81102295,0.00050830
792.73983032,0.00033428
794.66863770,0.00012865
796.59744507,0.00052353
798.52625244,0.00006866
800.45505981,0.00016040
802.38386719,0.00040029
804.31267456,0.00029292
806.24148193,0.00041883
808.17028931,0.00023913
810.09909668,0.00048189
812.02790405,0.00045686
813.95671143,0.00044252
815.88551880,0.00045786
817.81432617,0.00020988
819.74313354,0.00051851
821.67194092,0.00040069
823.60074829,0.00016085
825.52955566,0.00023386
827.45836304,0.00033646
829.38717041,0.00038253
831.31597778,0.00035112
833.24478516,0.00044796
835.17359253,0.00019108
837.10239990,0.00016421
839.03120728,0.00053551
840.96001465,0.00044465
842.88882202,0.00025184
844.81762939,0.00058642
846.74643677,0.00062493
848.67524414,0.00027019
850.60405151,0.00033275
852.53285889,0.00040302
854.46166626,0.00052898
856.39047363,0.00039337
858.31928101,0.00018240
860.24808838,0.00022093
862.17689575,0.00026567
864.10570313,0.00054903
866.03451050,0.00043578
867.96331787,0.00042024
869.89212524,0.00047993
871.82093262,0.00027876
873.74973999,0.00031099
875.67854736,0.00024979
877.60735474,0.00044107
879.53616211,0.00046208
881.46496948,0.00014906
883.39377686,0.00030095
885.32258423,0.00044407
887.25139160,0.00019524
889.18019897,0.00027916
891.10900635,0.00062206
893.03781372,0.00031811
894.96662109,0.00029865
896.89542847,0.00047736
898.82423584,0.00015760
900.75304321,0.00031439
902.68185059,0.00039791
904.61065796,0.00039092
906.53946533,0.00046980
908.46827271,0.00042498
910.39708008,0.00037814
912.32588745,0.00034955
914.25469482,0.00062321
916.18350220,0.00041223
918.11230957,0.00028070
920.04111694,0.00041476
921.96992432,0.00051484
923.89873169,0.00058889
925.82753906,0.00043562
927.75634644,0.00059832
929.68515381,0.00040062
931.61396118,0.00046787
933.54276855,0.00060137
935.47157593,0.00048936
937.40038330,0.00083252
939.32919067,0.00070592
941.25799805,0.00071326
943.18680542,0.00074432
945.11561279,0.00053440
947.04442017,0.00058305
948.97322754,0.00057447
950.90203491,0.00069320
952.83084229,0.00081381
954.75964966,0.00076393
956.68845703,0.00071091
958.61726440,0.00075964
960.54607178,0.00055519
962.47487915,0.00062424
964.40368652,0.00082051
966.33249390,0.00063256
968.26130127,0.00086456
970.19010864,0.00084031
972.11891602,0.00076874
974.04772339,0.00108234
975.97653076,0.00099509
977.90533813,0.00089208
979.83414551,0.00104862
981.76295288,0.00119673
983.69176025,0.00119471
985.62056763,0.00135338
987.54937500,0.00164124
989.47818237,0.00158150
991.40698975,0.00165110
993.33579712,0.00208972
995.26460449,0.00226211
997.19341187,0.00261194
999.12221924,0.00294394
1001.05102661,0.00280888
1002.97983398,0.00314360
1004.90864136,0.00335178
1006.83744873,0.00344662
1008.76625610,0.00371945
1010.69506348,0.00362824
1012.62387085,0.00400339
1014.55267822,0.00445861
1016.48148560,0.00452835
1018.41029297,0.00476136
1020.33910034,0.00504311
1022.26790771,0.00514188
1024.19671509,0.00533791
1026.12552246,0.00571696
1028.05432983,0.00584225
1029.98313721,0.00599001
1031.91194458,0.00603868
1033.84075195,0.00607316
1035.76955933,0.00624171
1037.69836670,0.00629322
1039.62717407,0.00658553
1041.55598145,0.00649405
1043.48478882,0.00632000
1045.41359619,0.00648198
1047.34240356,0.00628824
1049.27121094,0.00616884
1051.20001831,0.00613368
1053.12882568,0.00595811
1055.05763306,0.00587412
1056.98644043,0.00578026
1058.91524780,0.00551292
1060.84405518,0.00544590
1062.77286255,0.00543530
1064.70166992,0.00509777
1066.63047729,0.00510400
1068.55928467,0.00487276
1070.48809204,0.00446525
1072.41689941,0.00450515
1074.34570679,0.00415112
1076.27451416,0.00412058
1078.20332153,0.00423620
1080.13212891,0.00366715
1082.06093628,0.00338530
1083.98974365,0.00333798
1085.91855103,0.00312929
1087.84735840,0.00305758
1089.77616577,0.00300763
1091.70497314,0.00279711
1093.63378052,0.00278514
1095.56258789,0.00269529
1097.49139526,0.00234006
1099.42020264,0.00233596
1101.34901001,0.00241106
1103.27781738,0.00257429
1105.20662476,0.00269566
1107.13543213,0.00239712
1109.06423950,0.00229573
1110.99304687,0.00239435
1112.92185425,0.00232353
1114.85066162,0.00219270
1116.77946899,0.00244802
1118.70827637,0.00263489
1120.63708374,0.00211643
1122.56589111,0.00197043
1124.49469849,0.00230560
1126.42350586,0.00238965
1128.35231323,0.00245366
1130.28112061,0.00247197
1132.20992798,0.00257392
1134.13873535,0.00263754
1136.06754272,0.00256852
1137.99635010,0.00282081
1139.92515747,0.00314174
1141.85396484,0.00333861
1143.78277222,0.00344025
1145.71157959,0.00359339
1147.64038696,0.00378493
1149.56919434,0.00385960
1151.49800171,0.00422134
1153.42680908,0.00449151
1155.35561646,0.00453070
1157.28442383,0.00486518
1159.21323120,0.00514893
1161.14203857,0.00521654
1163.07084595,0.00541294
1164.99965332,0.00567488
1166.92846069,0.00568241
1168.85726807,0.00592304
1170.78607544,0.00631586
1172.71488281,0.00634112
1174.64369019,0.00666874
1176.57249756,0.00705212
1178.50130493,0.00721372
1180.43011230,0.00749790
1182.35891968,0.00776626
1184.28772705,0.00813541
1186.21653442,0.00857378
1188.14534180,0.00899460
1190.07414917,0.00936819
1192.00295654,0.00982256
1193.93176392,0.01022116
1195.86057129,0.01065662
1197.78937866,0.01123647
1199.71818604,0.01155445
1201.64699341,0.01211445
1203.57580078,0.01276660
1205.50460815,0.01315775
1207.43341553,0.01358902
1209.36222290,0.01416790
1211.29103027,0.01466525
1213.21983765,0.01499055
1215.14864502,0.01549466
1217.07745239,0.01561837
1219.00625977,0.01597612
1220.93506714,0.01646875
1222.86387451,0.01638072
1224.79268188,0.01662380
1226.72148926,0.01678281
1228.65029663,0.01698800
1230.57910400,0.01696966
1232.50791138,0.01678316
1234.43671875,0.01714527
1236.36552612,0.01713053
1238.29433350,0.01700156
1240.22314087,0.01703027
1242.15194824,0.01700771
1244.08075562,0.01682006
1246.00956299,0.01690752
1247.93837036,0.01705142
1249.86717773,0.01661783
1251.79598511,0.01656049
1253.72479248,0.01649099
1255.65359985,0.01630297
1257.58240723,0.01610598
1259.51121460,0.01579615
1261.44002197,0.01568885
1263.36882935,0.01535936
1265.29763672,0.01522445
1267.22644409,0.01505696
1269.15525146,0.01479379
1271.08405884,0.01453516
1273.01286621,0.01418970
1274.94167358,0.01422945
1276.87048096,0.01394229
1278.79928833,0.01350637
1280.72809570,0.01356085
1282.65690308,0.01340062
1284.58571045,0.01299026
1286.51451782,0.01287252
1288.44332520,0.01263068
1290.37213257,0.01233353
1292.30093994,0.01224224
1294.22974731,0.01223090
1296.15855469,0.01227861
1298.08736206,0.01202407
1300.01616943,0.01224510
1301.94497681,0.01250069
1303.87378418,0.01231250
1305.80259155,0.01252321
1307.73139893,0.01267002
1309.66020630,0.01298050
1311.58901367,0.01311590
1313.51782104,0.01311324
1315.44662842,0.01362926
1317.37543579,0.01405299
1319.30424316,0.01449408
1321.23305054,0.01486733
1323.16185791,0.01538052
1325.09066528,0.01608527
1327.01947266,0.01636306
1328.94828003,0.01667415
1330.87708740,0.01713549
1332.80589478,0.01754080
1334.73470215,0.01798152
1336.66350952,0.01800854
1338.59231689,0.01775000
1340.52112427,0.01788374
1342.44993164,0.01859165
1344.37873901,0.01921126
1346.30754639,0.01894473
1348.23635376,0.01883387
1350.16516113,0.01908439
1352.09396851,0.01881645
1354.02277588,0.01862954
1355.95158325,0.01857018
1357.88039062,0.01852511
1359.80919800,0.01832634
1361.73800537,0.01733694
1363.66681274,0.01706845
1365.59562012,0.01794796
1367.52442749,0.01753480
1369.45323486,0.01728593
1371.38204224,0.01761797
1373.31084961,0.01674598
1375.23965698,0.01685498
1377.16846436,0.01726336
1379.09727173,0.01733857
1381.02607910,0.01734071
1382.95488647,0.01710235
1384.88369385,0.01736649
1386.81250122,0.01647876
1388.74130859,0.01683421
1390.67011597,0.01846119
1392.59892334,0.01767952
1394.52773071,0.01672875
1396.45653809,0.01744733
1398.38534546,0.01731648
1400.31415283,0.01736883
1402.24296021,0.01872179
1404.17176758,0.01777006
1406.10057495,0.01785098
1408.02938232,0.01864749
1409.95818970,0.01788766
1411.88699707,0.01822311
1413.81580444,0.01769776
1415.74461182,0.01796133
1417.67341919,0.01619990
1419.60222656,0.01466570
1421.53103394,0.01700743
1423.45984131,0.01626731
1425.38864868,0.01579309
1427.31745605,0.01607620
1429.24626343,0.01482989
1431.17507080,0.01435648
1433.10387817,0.01464762
1435.03268555,0.01367521
1436.96149292,0.01147217
1438.89030029,0.01302929
1440.81910767,0.01345737
1442.74791504,0.01222358
1444.67672241,0.01290606
1446.60552979,0.01205760
1448.53433716,0.01210301
1450.46314453,0.01240334
1452.39195190,0.01275257
1454.32075928,0.01319067
1456.24956665,0.01098354
1458.17837402,0.01142683
1460.10718140,0.01508912
1462.03598877,0.01625113
1463.96479614,0.01612110
1465.89360352,0.01671569
1467.82241089,0.01900178
1469.75121826,0.02047063
1471.68002563,0.01827073
1473.60883301,0.01924773
1475.53764038,0.02197940
1477.46644775,0.02361281
1479.39525513,0.02587109
1481.32406250,0.02613944
1483.25286987,0.02786074
1485.18167725,0.02865091
1487.11048462,0.02811483
1489.03929199,0.02802055
1490.96809937,0.02812211
1492.89690674,0.03274596
1494.82571411,0.03196032
1496.75452148,0.02880231
1498.68332886,0.03254163
1500.61213623,0.03350554
1502.54094360,0.03600865
1504.46975098,0.03413478
1506.39855835,0.02477528
1508.32736572,0.03016844
1510.25617310,0.03575163
1512.18498047,0.03464508
1514.11378784,0.03736673
1516.04259521,0.03350936
1517.97140259,0.03514174
1519.90020996,0.03406335
1521.82901733,0.02920445
1523.75782471,0.03595422
1525.68663208,0.03534729
1527.61543945,0.03513549
1529.54424683,0.03896945
1531.47305420,0.03772072
1533.40186157,0.03445192
1535.33066895,0.03628808
1537.25947632,0.03920706
1539.18828369,0.02772978
1541.11709106,0.02890844
1543.04589844,0.03492131
1544.97470581,0.03335926
1546.90351318,0.03980555
1548.83232056,0.03700281
1550.76112793,0.03821211
1552.68993530,0.03800878
1554.61874268,0.03432693
1556.54755005,0.03686740
1558.47635742,0.02565719
1560.40516479,0.02771676
1562.33397217,0.03993082
1564.26277954,0.03770211
1566.19158691,0.03882109
1568.12039429,0.03824203
1570.04920166,0.03370682
1571.97800903,0.03918049
1573.90681641,0.03940696
1575.83562378,0.03118864
1577.76443115,0.03517980
1579.69323853,0.03931960
1581.62204590,0.03800616
1583.55085327,0.03905353
1585.47966064,0.03826317
1587.40846802,0.03846592
1589.33727539,0.03784790
1591.26608276,0.03778983
1593.19489014,0.03764261
1595.12369751,0.03727330
1597.05250488,0.03779441
1598.98131226,0.03713320
1600.91011963,0.03730054
1602.83892700,0.03650953
1604.76773437,0.03685006
1606.69654175,0.03613847
1608.62534912,0.03604919
1610.55415649,0.03589443
1612.48296387,0.03584823
1614.41177124,0.03618557
1616.34057861,0.02935500
1618.26938599,0.03179102
1620.19819336,0.03692721
1622.12700073,0.03256524
1624.05580811,0.03251624
1625.98461548,0.03393219
1627.91342285,0.03387885
1629.84223022,0.03352021
1631.77103760,0.03575415
1633.69984497,0.03314562
1635.62865234,0.02722450
1637.55745972,0.03174048
1639.48626709,0.03506854
1641.41507446,0.03436140
1643.34388184,0.03547257
1645.27268921,0.03191250
1647.20149658,0.02802432
1649.13030396,0.03522936
1651.05911133,0.03361788
1652.98791870,0.02159657
1654.91672607,0.02951518
1656.84553345,0.03749403
1658.77434082,0.03617822
1660.70314819,0.03748537
1662.63195557,0.03418721
1664.56076294,0.03618875
1666.48957031,0.03942964
1668.41837769,0.03454509
1670.34718506,0.03358209
1672.27599243,0.03855407
1674.20479980,0.03583515
1676.13360718,0.03434380
1678.06241455,0.03987046
1679.99122192,0.03871611
1681.92002930,0.03840178
1683.84883667,0.03138301
1685.77764404,0.03094847
1687.70645142,0.04315744
1689.63525879,0.03773806
1691.56406616,0.04134855
1693.49287354,0.04270491
1695.42168091,0.03102351
1697.35048828,0.03874002
1699.27929565,0.03428482
1701.20810303,0.03057195
1703.13691040,0.04244830
1705.06571777,0.03877160
1706.99452515,0.03914906
1708.92333252,0.04294812
1710.85213989,0.04118133
1712.78094727,0.04220468
1714.70975464,0.03921975
1716.63856201,0.03530605
1718.56736938,0.03483707
1720.49617676,0.04138724
1722.42498413,0.04311565
1724.35379150,0.04003894
1726.28259888,0.04382734
1728.21140625,0.04060642
1730.14021362,0.04091686
1732.06902100,0.03992351
1733.99782837,0.03024819
1735.92663574,0.03778881
1737.85544312,0.04209585
1739.78425049,0.03738239
1741.71305786,0.04087318
1743.64186523,0.04151096
1745.57067261,0.04150875
1747.49947998,0.04201490
1749.42828735,0.04006474
1751.35709473,0.03831164
1753.28590210,0.04275023
1755.21470947,0.04484154
1757.14351685,0.04092054
1759.07232422,0.04510027
1761.00113159,0.04234080
1762.92993896,0.04080582
1764.85874634,0.04685686
1766.78755371,0.04215534
1768.71636108,0.04266401
1770.64516846,0.04242918
1772.57397583,0.03794623
1774.50278320,0.04253763
1776.43159058,0.04507953
1778.36039795,0.04454862
1780.28920532,0.04404403
1782.21801270,0.04420601
1784.14682007,0.04430620
1786.07562744,0.04347074
1788.00443481,0.04562286
1789.93324219,0.04470820
1791.86204956,0.04037390
1793.79085693,0.04216174
1795.71966431,0.04545082
1797.64847168,0.04485151
1799.57727905,0.04421166
1801.50608643,0.04333507
1803.43489380,0.04491339
1805.36370117,0.04596086
1807.29250854,0.04513893
1809.22131592,0.04527397
1811.15012329,0.04424056
1813.07893066,0.04586841
1815.00773804,0.04590410
1816.93654541,0.04547560
1818.86535278,0.04592051
1820.79416016,0.04562702
1822.72296753,0.04651625
1824.65177490,0.04337671
1826.58058228,0.04498225
1828.50938965,0.04511503
1830.43819702,0.04225338
1832.36700439,0.04607369
1834.29581177,0.04583516
1836.22461914,0.04591910
1838.15342651,0.04577277
1840.08223389,0.04610911
1842.01104126,0.04612554
1843.93984863,0.04088231
1845.86865601,0.04372880
1847.79746338,0.04616012
1849.72627075,0.04510891
1851.65507812,0.04644128
1853.58388550,0.04556796
1855.51269287,0.04611639
1857.44150024,0.04592986
1859.37030762,0.04559496
1861.29911499,0.04594161
1863.22792236,0.04546774
1865.15672974,0.04589030
1867.08553711,0.04443853
1869.01434448,0.04262352
1870.94315186,0.04430247
1872.87195923,0.04601484
1874.80076660,0.04534466
1876.72957397,0.04564971
1878.65838135,0.04554878
1880.58718872,0.04536788
1882.51599609,0.04577529
1884.44480347,0.04515668
1886.37361084,0.04578171
1888.30241821,0.04467918
1890.23122559,0.04386116
1892.16003296,0.04546405
1894.08884033,0.04480509
1896.01764771,0.04471267
1897.94645508,0.04536477
1899.87526245,0.04507040
1901.80406982,0.04514684
1903.73287720,0.04502068
1905.66168457,0.04522324
1907.59049194,0.04470492
1909.51929932,0.04445056
1911.44810669,0.04476893
1913.37691406,0.04484411
1915.30572144,0.04533283
1917.23452881,0.04326357
1919.16333618,0.04332604
1921.09214355,0.04506768
1923.02095093,0.04352944
1924.94975830,0.04458951
1926.87856567,0.04506031
1928.80737305,0.04447273
1930.73618042,0.04520454
1932.66498779,0.04453124
1934.59379517,0.04490264
1936.52260254,0.04451326
1938.45140991,0.04467589
1940.38021729,0.04475538
1942.30902466,0.04338912
1944.23783203,0.04435072
1946.16663940,0.04475098
1948.09544678,0.04458376
1950.02425415,0.04481785
1951.95306152,0.04473778
1953.88186890,0.04484000
1955.81067627,0.04470423
1957.73948364,0.04475572
1959.66829102,0.04464999
1961.59709839,0.04465771
1963.52590576,0.04477777
1965.45471313,0.04451293
1967.38352051,0.04405842
1969.31232788,0.04451817
1971.24113525,0.04480633
1973.16994263,0.04452260
1975.09875000,0.04479670
1977.02755737,0.04434290
1978.95636475,0.04446741
1980.88517212,0.04448507
1982.81397949,0.04421321
1984.74278687,0.04466069
1986.67159424,0.04430627
1988.60040161,0.04436138
1990.52920898,0.04388879
1992.45801636,0.04336109
1994.38682373,0.04413722
1996.31563110,0.04429139
1998.24443848,0.04414857
2000.17324585,0.04411815
2002.10205322,0.04396132
2004.03086060,0.04394633
2005.95966797,0.04392525
2007.88847534,0.04376310
2009.81728271,0.04373689
2011.74609009,0.04365093
2013.67489746,0.04355353
2015.60370483,0.04339146
2017.53251221,0.04316004
2019.46131958,0.04342637
2021.39012695,0.04341402
2023.31893433,0.04318305
2025.24774170,0.04302420
2027.17654907,0.04302429
2029.10535645,0.04307482
2031.03416382,0.04296148
2032.96297119,0.04308566
2034.89177856,0.04285071
2036.82058594,0.04282179
2038.74939331,0.04285211
2040.67820068,0.04256395
2042.60700806,0.04243585
2044.53581543,0.04232917
2046.46462280,0.04246212
2048.39343018,0.04241174
2050.32223755,0.04238346
2052.25104492,0.04223023
2054.17985229,0.04207066
2056.10865967,0.04212540
2058.03746704,0.04206787
2059.96627441,0.04218852
2061.89508179,0.04197153
2063.82388916,0.04185331
2065.75269653,0.04176719
2067.68150391,0.04169796
2069.61031128,0.04184506
2071.53911865,0.04163362
2073.46792603,0.04159229
2075.39673340,0.04152287
2077.32554077,0.04151024
2079.25434814,0.04150979
2081.18315552,0.04146168
2083.11196289,0.04146161
2085.04077026,0.04124144
2086.96957764,0.04126301
2088.89838501,0.04107572
2090.82719238,0.04104337
2092.75599976,0.04117996
2094.68480713,0.04098920
2096.61361450,0.04103143
2098.54242187,0.04095630
2100.47122925,0.04097437
2102.40003662,0.04094739
2104.32884399,0.04075947
2106.25765137,0.04092653
2108.18645874,0.04080615
2110.11526611,0.04068978
2112.04407349,0.04078273
2113.97288086,0.04063752
2115.90168823,0.04065217
2117.83049561,0.04058913
2119.75930298,0.04045432
2121.68811035,0.04051066
2123.61691772,0.04049005
2125.54572510,0.04050137
2127.47453247,0.04042901
2129.40333984,0.04038180
2131.33214722,0.04038088
2133.26095459,0.04023509
2135.18976196,0.04022664
2137.11856934,0.04025643
2139.04737671,0.04027191
2140.97618408,0.04023771
2142.90499146,0.04018229
2144.83379883,0.04024534
2146.76260620,0.04010089
2148.69141357,0.04005832
2150.62022095,0.04022437
2152.54902832,0.04004810
2154.47783569,0.04001609
2156.40664307,0.04009805
2158.33545044,0.04005004
2160.26425781,0.04014436
2162.19306519,0.03997818
2164.12187256,0.04003543
2166.05067993,0.04011086
2167.97948730,0.03999202
2169.90829468,0.04013253
2171.83710205,0.03987367
2173.76590942,0.03986074
2175.69471680,0.04000051
2177.62352417,0.03977150
2179.55233154,0.03979852
2181.48113892,0.03988236
2183.40994629,0.03981880
2185.33875366,0.03971902
2187.26756104,0.03977724
2189.19636841,0.03976046
2191.12517578,0.03982832
2193.05398315,0.03979493
2194.98279053,0.03970130
2196.91159790,0.03988087
2198.84040527,0.03970195
2200.76921265,0.03969496
2202.69802002,0.03965588
2204.62682739,0.03957517
2206.55563477,0.03969213
2208.48444214,0.03954501
2210.41324951,0.03955710
2212.34205688,0.03955676
2214.27086426,0.03961307
2216.19967163,0.03954959
2218.12847900,0.03951238
2220.05728638,0.03945157
2221.98609375,0.03933320
2223.91490112,0.03959158
2225.84370850,0.03943539
2227.77251587,0.03935934
2229.70132324,0.03930231
2231.63013062,0.03925342
2233.55893799,0.03938829
2235.48774536,0.03916032
2237.41655273,0.03925565
2239.34536011,0.03922268
2241.27416748,0.03907897
2243.20297485,0.03914955
2245.13178223,0.03915130
2247.06058960,0.03912213
2248.98939697,0.03906537
2250.91820435,0.03903777
2252.84701172,0.03890130
2254.77581909,0.03900536
2256.70462646,0.03904991
2258.63343384,0.03905561
2260.56224121,0.03903703
2262.49104858,0.03883698
2264.41985596,0.03880422
2266.34866333,0.03877090
2268.27747070,0.03888075
2270.20627808,0.03881719
2272.13508545,0.03882675
2274.06389282,0.03878715
2275.99270020,0.03861961
2277.92150757,0.03878233
2279.85031494,0.03866816
2281.77912231,0.03869864
2283.70792969,0.03867763
2285.63673706,0.03862177
2287.56554443,0.03868742
2289.49435181,0.03841696
2291.42315918,0.03848361
2293.35196655,0.03846413
2295.28077393,0.03820940
2297.20958130,0.03823674
2299.13838867,0.03820174
2301.06719604,0.03790627
2302.99600342,0.03772734
2304.92481079,0.03765906
2306.85361816,0.03741352
2308.78242554,0.03716691
2310.71123291,0.03678539
2312.64004028,0.03651136
2314.56884766,0.03626276
2316.49765503,0.03579403
2318.42646240,0.03535883
2320.35526978,0.03483102
2322.28407715,0.03446865
2324.21288452,0.03409566
2326.14169189,0.03356493
2328.07049927,0.03333031
2329.99930664,0.03290998
2331.92811401,0.03247169
2333.85692139,0.03253020
2335.78572876,0.03234529
2337.71453613,0.03233000
2339.64334351,0.03240569
2341.57215088,0.03243210
2343.50095825,0.03318634
2345.42976562,0.03369618
2347.35857300,0.03499917
2349.28738037,0.03622310
2351.21618774,0.03485285
2353.14499512,0.03319703
2355.07380249,0.03205659
2357.00260986,0.03096193
2358.93141724,0.03040134
2360.86022461,0.03012159
2362.78903198,0.03005762
2364.71783936,0.03022648
2366.64664673,0.03069456
2368.57545410,0.03124513
2370.50426147,0.03208860
2372.43306885,0.03303706
2374.36187622,0.03399944
2376.29068359,0.03503401
2378.21949097,0.03589284
2380.14829834,0.03660734
2382.07710571,0.03688584
2384.00591309,0.03718615
2385.93472046,0.03741021
2387.86352783,0.03748588
2389.79233521,0.03755613
2391.72114258,0.03739864
2393.64994995,0.03738583
2395.57875732,0.03728192
2397.50756470,0.03740861
2399.43637207,0.03742119
2401.36517944,0.03717605
2403.29398682,0.03734809
2405.22279419,0.03716994
2407.15160156,0.03705487
2409.08040894,0.03728475
2411.00921631,0.03718445
2412.93802368,0.03710388
2414.86683105,0.03717007
2416.79563843,0.03715570
2418.72444580,0.03710039
2420.65325317,0.03703402
2422.58206055,0.03693194
2424.51086792,0.03694836
2426.43967529,0.03700948
2428.36848267,0.03685869
2430.29729004,0.03678155
2432.22609741,0.03698802
2434.15490479,0.03692525
2436.08371216,0.03679083
2438.01251953,0.03688334
2439.94132690,0.03672908
2441.87013428,0.03666848
2443.79894165,0.03663372
2445.72774902,0.03654478
2447.65655640,0.03669279
2449.58536377,0.03667612
2451.51417114,0.03662025
2453.44297852,0.03658479
2455.37178589,0.03651975
2457.30059326,0.03652281
2459.22940063,0.03646730
2461.15820801,0.03645241
2463.08701538,0.03644372
2465.01582275,0.03646578
2466.94463013,0.03653746
2468.87343750,0.03651995
2470.80224487,0.03643298
2472.73105225,0.03634967
2474.65985962,0.03629216
2476.58866699,0.03622880
2478.51747437,0.03631289
2480.44628174,0.03634168
2482.37508911,0.03619336
2484.30389648,0.03625868
2486.23270386,0.03620869
2488.16151123,0.03614833
2490.09031860,0.03625023
2492.01912598,0.03613750
2493.94793335,0.03609912
2495.87674072,0.03593687
2497.80554810,0.03594299
2499.73435547,0.03610834
2501.66316284,0.03590564
2503.59197021,0.03594132
2505.52077759,0.03594541
2507.44958496,0.03588767
2509.37839233,0.03588197
2511.30719971,0.03573658
2513.23600708,0.03577888
2515.16481445,0.03582091
2517.09362183,0.03581796
2519.02242920,0.03570776
2520.95123657,0.03571226
2522.88004395,0.03575220
2524.80885132,0.03562482
2526.73765869,0.03565817
2528.66646606,0.03559951
2530.59527344,0.03555397
2532.52408081,0.03559641
2534.45288818,0.03554171
2536.38169556,0.03553284
2538.31050293,0.03565850
2540.23931030,0.03558658
2542.16811768,0.03535179
2544.09692505,0.03541484
2546.02573242,0.03544068
2547.95453979,0.03540488
2549.88334717,0.03538147
2551.81215454,0.03528427
2553.74096191,0.03524463
2555.66976929,0.03528573
2557.59857666,0.03531342
2559.52738403,0.03521568
2561.45619141,0.03513163
2563.38499878,0.03502320
2565.31380615,0.03518053
2567.24261353,0.03521096
2569.17142090,0.03500536
2571.10022827,0.03509867
2573.02903564,0.03508722
2574.95784302,0.03505094
2576.88665039,0.03484545
2578.81545776,0.03479690
2580.74426514,0.03493051
2582.67307251,0.03477311
2584.60187988,0.03473591
2586.53068726,0.03465106
2588.45949463,0.03475283
2590.38830200,0.03473814
2592.31710937,0.03465435
2594.24591675,0.03480250
2596.17472412,0.03463703
2598.10353149,0.03467488
2600.03233887,0.03462422
2601.96114624,0.03446192
2603.88995361,0.03458180
2605.81876099,0.03446708
2607.74756836,0.03444002
2609.67637573,0.03452276
2611.60518311,0.03436422
2613.53399048,0.03432304
2615.46279785,0.03434733
2617.39160522,0.03423284
2619.32041260,0.03416370
2621.24921997,0.03412522
2623.17802734,0.03427041
2625.10683472,0.03427345
2627.03564209,0.03421533
2628.96444946,0.03431364
2630.89325684,0.03405718
2632.82206421,0.03408861
2634.75087158,0.03416114
2636.67967895,0.03393003
2638.60848633,0.03391985
2640.53729370,0.03388032
2642.46610107,0.03386916
2644.39490845,0.03385860
2646.32371582,0.03392625
2648.25252319,0.03383461
2650.18133057,0.03362860
2652.11013794,0.03373150
2654.03894531,0.03373152
2655.96775269,0.03366794
2657.89656006,0.03366797
2659.82536743,0.03368077
2661.75417480,0.03361771
2663.68298218,0.03348167
2665.61178955,0.03342809
2667.54059692,0.03348625
2669.46940430,0.03348093
2671.39821167,0.03329907
2673.32701904,0.03332609
2675.25582642,0.03336846
2677.18463379,0.03330471
2679.11344116,0.03329732
2681.04224854,0.03327580
2682.97105591,0.03324434
2684.89986328,0.03319767
2686.82867065,0.03322517
2688.75747803,0.03314254
2690.68628540,0.03312688
2692.61509277,0.03318178
2694.54390015,0.03304715
2696.47270752,0.03293319
2698.40151489,0.03290874
2700.33032227,0.03294872
2702.25912964,0.03298391
2704.18793701,0.03296301
2706.11674438,0.03284696
2708.04555176,0.03285162
2709.97435913,0.03286607
2711.90316650,0.03268625
2713.83197388,0.03264446
2715.76078125,0.03264993
2717.68958862,0.03254115
2719.61839600,0.03256891
2721.54720337,0.03266236
2723.47601074,0.03248120
2725.40481812,0.03245484
2727.33362549,0.03251826
2729.26243286,0.03243440
2731.19124023,0.03243659
2733.12004761,0.03231710
2735.04885498,0.03230868
2736.97766235,0.03222648
2738.90646973,0.03227762
2740.83527710,0.03230423
2742.76408447,0.03202765
2744.69289185,0.03214111
2746.62169922,0.03205136
2748.55050659,0.03200724
2750.47931396,0.03207023
2752.40812134,0.03196178
2754.33692871,0.03200457
2756.26573608,0.03183599
2758.19454346,0.03182424
2760.12335083,0.03179442
2762.05215820,0.03178695
2763.98096558,0.03180646
2765.90977295,0.03156290
2767.83858032,0.03154986
2769.76738770,0.03155189
2771.69619507,0.03157164
2773.62500244,0.03166899
2775.55380981,0.03157154
2777.48261719,0.03139107
2779.41142456,0.03142951
2781.34023193,0.03134929
2783.26903931,0.03118227
2785.19784668,0.03132799
2787.12665405,0.03128169
2789.05546143,0.03119780
2790.98426880,0.03111509
2792.91307617,0.03102127
2794.84188354,0.03107086
2796.77069092,0.03108504
2798.69949829,0.03105240
2800.62830566,0.03095950
2802.55711304,0.03090662
2804.48592041,0.03064640
2806.41472778,0.03072939
2808.34353516,0.03086635
2810.27234253,0.03060359
2812.20114990,0.03063221
2814.12995728,0.03053318
2816.05876465,0.03048443
2817.98757202,0.03045395
2819.91637939,0.03034350
2821.84518677,0.03037997
2823.77399414,0.03025433
2825.70280151,0.03018435
2827.63160889,0.03013943
2829.56041626,0.03018210
2831.48922363,0.03012063
2833.41803101,0.02997134
2835.34683838,0.02991845
2837.27564575,0.02984094
2839.20445312,0.02984956
2841.13326050,0.02978782
2843.06206787,0.02970459
2844.99087524,0.02952166
2846.91968262,0.02939191
2848.84848999,0.02927436
2850.77729736,0.02921353
2852.70610474,0.02928903
2854.63491211,0.02913405
2856.56371948,0.02918820
2858.49252686,0.02910744
2860.42133423,0.02894259
2862.35014160,0.02904336
2864.27894897,0.02889574
2866.20775635,0.02883853
2868.13656372,0.02886562
2870.06537109,0.02880630
2871.99417847,0.02874551
2873.92298584,0.02869307
2875.85179321,0.02866052
2877.78060059,0.02859087
2879.70940796,0.02861406
2881.63821533,0.02862312
2883.56702270,0.02858924
2885.49583008,0.02848043
2887.42463745,0.02832502
2889.35344482,0.02831108
2891.28225220,0.02828240
2893.21105957,0.02816623
2895.13986694,0.02809601
2897.06867432,0.02809630
2898.99748169,0.02810730
2900.92628906,0.02795198
2902.85509644,0.02781453
2904.78390381,0.02782976
2906.71271118,0.02768669
2908.64151855,0.02760154
2910.57032593,0.02748609
2912.49913330,0.02735054
2914.42794067,0.02735842
2916.35674805,0.02723359
2918.28555542,0.02726032
2920.21436279,0.02710096
2922.14317017,0.02690803
2924.07197754,0.02704946
2926.00078491,0.02691530
2927.92959229,0.02682031
2929.85839966,0.02686253
2931.78720703,0.02676748
2933.71601440,0.02679745
2935.64482178,0.02680964
2937.57362915,0.02660860
2939.50243652,0.02668577
2941.43124390,0.02677451
2943.36005127,0.02656488
2945.28885864,0.02667169
2947.21766602,0.02659021
2949.14647339,0.02633955
2951.07528076,0.02641884
2953.00408813,0.02637459
2954.93289551,0.02622084
2956.86170288,0.02618589
2958.79051025,0.02611593
2960.71931763,0.02589834
2962.64812500,0.02590142
2964.57693237,0.02591066
2966.50573975,0.02584888
2968.43454712,0.02584514
2970.36335449,0.02571402
2972.29216187,0.02583719
2974.22096924,0.02584381
2976.14977661,0.02571500
2978.07858398,0.02572374
2980.00739136,0.02565944
2981.93619873,0.02569245
2983.86500610,0.02560437
2985.79381348,0.02550674
2987.72262085,0.02558475
2989.65142822,0.02557397
2991.58023560,0.02541990
2993.50904297,0.02533926
2995.43785034,0.02531012
2997.36665771,0.02523835
2999.29546509,0.02524759
3001.22427246,0.02510621
3003.15307983,0.02496354
3005.08188721,0.02495847
3007.01069458,0.02489956
3008.93950195,0.02480000
3010.86830933,0.02464639
3012.79711670,0.02451775
3014.72592407,0.02442419
3016.65473145,0.02439153
3018.58353882,0.02437401
3020.51234619,0.02430134
3022.44115356,0.02418390
3024.36996094,0.02413185
3026.29876831,0.02413205
3028.22757568,0.02401326
3030.15638306,0.02380458
3032.08519043,0.02365532
3034.01399780,0.02373470
3035.94280518,0.02364931
3037.87161255,0.02351843
3039.80041992,0.02356208
3041.72922729,0.02336482
3043.65803467,0.02329227
3045.58684204,0.02326462
3047.51564941,0.02313920
3049.44445679,0.02307506
3051.37326416,0.02288060
3053.30207153,0.02283002
3055.23087891,0.02275601
3057.15968628,0.02255788
3059.08849365,0.02258427
3061.01730103,0.02255143
3062.94610840,0.02232435
3064.87491577,0.02223125
3066.80372314,0.02218159
3068.73253052,0.02199860
3070.66133789,0.02194866
3072.59014526,0.02195016
3074.51895264,0.02178534
3076.44776001,0.02171510
3078.37656738,0.02163127
3080.30537476,0.02146407
3082.23418213,0.02144724
3084.16298950,0.02134099
3086.09179687,0.02125581
3088.02060425,0.02115329
3089.94941162,0.02095981
3091.87821899,0.02104533
3093.80702637,0.02090232
3095.73583374,0.02061264
3097.66464111,0.02058823
3099.59344849,0.02048367
3101.52225586,0.02040658
3103.45106323,0.02035603
3105.37987061,0.02025737
3107.30867798,0.02012228
3109.23748535,0.01989979
3111.16629272,0.01981378
3113.09510010,0.01977341
3115.02390747,0.01959575
3116.95271484,0.01942856
3118.88152222,0.01929341
3120.81032959,0.01920613
3122.73913696,0.01912780
3124.66794434,0.01907616
3126.59675171,0.01903668
3128.52555908,0.01879852
3130.45436645,0.01877420
3132.38317383,0.01877320
3134.31198120,0.01851975
3136.24078857,0.01837668
3138.16959595,0.01815219
3140.09840332,0.01809055
3142.02721069,0.01803705
3143.95601807,0.01787181
3145.88482544,0.01777976
3147.81363281,0.01761140
3149.74244019,0.01762980
3151.67124756,0.01747051
3153.60005493,0.01734258
3155.52886230,0.01744710
3157.45766968,0.01721658
3159.38647705,0.01694388
3161.31528442,0.01690890
3163.24409180,0.01686400
3165.17289917,0.01668248
3167.10170654,0.01665109
3169.03051392,0.01661026
3170.95932129,0.01645046
3172.88812866,0.01635398
3174.81693604,0.01628041
3176.74574341,0.01621335
3178.67455078,0.01604472
3180.60335815,0.01598915
3182.53216553,0.01589143
3184.46097290,0.01569788
3186.38978027,0.01562258
3188.31858765,0.01553451
3190.24739502,0.01543764
3192.17620239,0.01539100
3194.10500977,0.01538840
3196.03381714,0.01516780
3197.96262451,0.01501515
3199.89143188,0.01507085
3201.82023926,0.01507538
3203.74904663,0.01499637
3205.67785400,0.01484714
3207.60666138,0.01488164
3209.53546875,0.01483004
3211.46427612,0.01469369
3213.39308350,0.01466756
3215.32189087,0.01456755
3217.25069824,0.01444284
3219.17950562,0.01451567
3221.10831299,0.01458616
3223.03712036,0.01438203
3224.96592773,0.01439453
3226.89473511,0.01438011
3228.82354248,0.01426190
3230.75234985,0.01427498
3232.68115723,0.01410242
3234.60996460,0.01405894
3236.53877197,0.01421075
3238.46757935,0.01417461
3240.39638672,0.01398635
3242.32519409,0.01404569
3244.25400146,0.01398474
3246.18280884,0.01392294
3248.11161621,0.01407490
3250.04042358,0.01394676
3251.96923096,0.01400117
3253.89803833,0.01401508
3255.82684570,0.01396185
3257.75565308,0.01396174
3259.68446045,0.01386812
3261.61326782,0.01389663
3263.54207520,0.01377608
3265.47088257,0.01383311
3267.39968994,0.01387855
3269.32849731,0.01376053
3271.25730469,0.01376664
3273.18611206,0.01385546
3275.11491943,0.01384955
3277.04372681,0.01374621
3278.97253418,0.01389513
3280.90134155,0.01383915
3282.83014893,0.01375032
3284.75895630,0.01379923
3286.68776367,0.01380543
3288.61657104,0.01380536
3290.54537842,0.01376681
3292.47418579,0.01381180
3294.40299316,0.01368314
3296.33180054,0.01374844
3298.26060791,0.01370809
3300.18941528,0.01360499
3302.11822266,0.01371433
3304.04703003,0.01363513
3305.97583740,0.01372333
3307.90464478,0.01364441
3309.83345215,0.01358170
3311.76225952,0.01357754
3313.69106689,0.01350234
3315.61987427,0.01355087
3317.54868164,0.01351627
3319.47748901,0.01361987
3321.40629639,0.01363892
3323.33510376,0.01367056
3325.26391113,0.01361898
3327.19271851,0.01357554
3329.12152588,0.01365168
3331.05033325,0.01354672
3332.97914062,0.01352499
3334.90794800,0.01343006
3336.83675537,0.01344307
3338.76556274,0.01350436
3340.69437012,0.01347392
3342.62317749,0.01350234
3344.55198486,0.01358096
3346.48079224,0.01357591
3348.40959961,0.01351026
3350.33840698,0.01366238
3352.26721436,0.01354834
3354.19602173,0.01344959
3356.12482910,0.01347947
3358.05363647,0.01354247
3359.98244385,0.01360757
3361.91125122,0.01335101
3363.84005859,0.01342054
3365.76886597,0.01350356
3367.69767334,0.01342612
3369.62648071,0.01341340
3371.55528809,0.01343869
3373.48409546,0.01353591
3375.41290283,0.01350692
3377.34171020,0.01354947
3379.27051758,0.01351613
3381.19932495,0.01353608
3383.12813232,0.01355238
3385.05693970,0.01349605
3386.98574707,0.01352866
3388.91455444,0.01357858
3390.84336182,0.01354778
3392.77216919,0.01338950
3394.70097656,0.01353406
3396.62978394,0.01360993
3398.55859131,0.01358990
3400.48739868,0.01364333
3402.41620605,0.01359819
3404.34501343,0.01365846
3406.27382080,0.01370654
3408.20262817,0.01372704
3410.13143555,0.01370321
3412.06024292,0.01373908
3413.98905029,0.01376541
3415.91785767,0.01391911
3417.84666504,0.01389711
3419.77547241,0.01375674
3421.70427979,0.01395043
3423.63308716,0.01389560
3425.56189453,0.01391217
3427.49070190,0.01395127
3429.41950928,0.01397722
3431.34831665,0.01391376
3433.27712402,0.01392537
3435.20593140,0.01420338
3437.13473877,0.01401118
3439.06354614,0.01415438
3440.99235352,0.01412357
3442.92116089,0.01406230
3444.84996826,0.01433056
3446.77877563,0.01406426
3448.70758301,0.01421210
3450.63639038,0.01429468
3452.56519775,0.01423829
3454.49400513,0.01437988
3456.42281250,0.01437522
3458.35161987,0.01445223
3460.28042725,0.01439489
3462.20923462,0.01442644
3464.13804199,0.01454389
3466.06684937,0.01454420
3467.99565674,0.01450638
3469.92446411,0.01463066
3471.85327148,0.01469635
3473.78207886,0.01468750
3475.71088623,0.01472369
3477.63969360,0.01473407
3479.56850098,0.01475736
3481.49730835,0.01457784
3483.42611572,0.01477846
3485.35492310,0.01496229
3487.28373047,0.01481599
3489.21253784,0.01490489
3491.14134521,0.01503875
3493.07015259,0.01508342
3494.99895996,0.01508038
3496.92776733,0.01515847
3498.85657471,0.01512462
3500.78538208,0.01521454
3502.71418945,0.01500108
3504.64299683,0.01497983
3506.57180420,0.01541469
3508.50061157,0.01514856
3510.42941895,0.01526478
3512.35822632,0.01549214
3514.28703369,0.01551545
3516.21584106,0.01564220
3518.14464844,0.01556318
3520.07345581,0.01568150
3522.00226318,0.01554415
3523.93107056,0.01552186
3525.85987793,0.01552713
3527.78868530,0.01546896
3529.71749268,0.01565858
3531.64630005,0.01584899
3533.57510742,0.01605471
3535.50391479,0.01588108
3537.43272217,0.01580567
3539.36152954,0.01598984
3541.29033691,0.01601505
3543.21914429,0.01601708
3545.14795166,0.01573501
3547.07675903,0.01544573
3549.00556641,0.01609092
3550.93437378,0.01630185
3552.86318115,0.01584278
3554.79198853,0.01627231
3556.72079590,0.01638047
3558.64960327,0.01630647
3560.57841064,0.01625032
3562.50721802,0.01618487
3564.43602539,0.01626903
3566.36483276,0.01526888
3568.29364014,0.01507096
3570.22244751,0.01623595
3572.15125488,0.01671824
3574.08006226,0.01653775
3576.00886963,0.01659078
3577.93767700,0.01660382
3579.86648437,0.01658499
3581.79529175,0.01669423
3583.72409912,0.01676354
3585.65290649,0.01644271
3587.58171387,0.01507519
3589.51052124,0.01556278
3591.43932861,0.01704829
3593.36813599,0.01658739
3595.29694336,0.01632689
3597.22575073,0.01671666
3599.15455811,0.01693574
3601.08336548,0.01669860
3603.01217285,0.01692320
3604.94098022,0.01724784
3606.86978760,0.01667354
3608.79859497,0.01578291
3610.72740234,0.01609115
3612.65620972,0.01657292
3614.58501709,0.01612181
3616.51382446,0.01740411
3618.44263184,0.01609134
3620.37143921,0.01543918
3622.30024658,0.01758529
3624.22905395,0.01705788
3626.15786133,0.01787375
3628.08666870,0.01519074
3630.01547607,0.01381631
3631.94428345,0.01751434
3633.87309082,0.01715274
3635.80189819,0.01746938
3637.73070557,0.01784829
3639.65951294,0.01770120
3641.58832031,0.01784706
3643.51712769,0.01758078
3645.44593506,0.01782875
3647.37474243,0.01606777
3649.30354980,0.01475429
3651.23235718,0.01487642
3653.16116455,0.01775727
3655.08997192,0.01762808
3657.01877930,0.01584059
3658.94758667,0.01830245
3660.87639404,0.01797874
3662.80520142,0.01828796
3664.73400879,0.01822087
3666.66281616,0.01804264
3668.59162354,0.01760395
3670.52043091,0.01438222
3672.44923828,0.01742109
3674.37804565,0.01667227
3676.30685303,0.01366851
3678.23566040,0.01730376
3680.16446777,0.01793452
3682.09327515,0.01795442
3684.02208252,0.01855170
3685.95088989,0.01819971
3687.87969727,0.01635161
3689.80850464,0.01496934
3691.73731201,0.01705802
3693.66611938,0.01767851
3695.59492676,0.01813638
3697.52373413,0.01818203
3699.45254150,0.01802069
3701.38134888,0.01757616
3703.31015625,0.01692247
3705.23896362,0.01860644
3707.16777100,0.01767469
3709.09657837,0.01726026
3711.02538574,0.01626115
3712.95419312,0.01506858
3714.88300049,0.01783285
3716.81180786,0.01771592
3718.74061523,0.01776009
3720.66942261,0.01742775
3722.59822998,0.01680499
3724.52703735,0.01741618
3726.45584473,0.01619406
3728.38465210,0.01754244
3730.31345947,0.01734677
3732.24226685,0.01597744
3734.17107422,0.01558854
3736.09988159,0.01478044
3738.02868896,0.01568571
3739.95749634,0.01702981
3741.88630371,0.01790285
3743.81511108,0.01390745
3745.74391846,0.01300658
3747.67272583,0.01689734
3749.60153320,0.01453379
3751.53034058,0.01338002
3753.45914795,0.01549713
3755.38795532,0.01666116
3757.31676270,0.01728492
3759.24557007,0.01597213
3761.17437744,0.01647948
3763.10318481,0.01761431
3765.03199219,0.01638626
3766.96079956,0.01674761
3768.88960693,0.01665740
3770.81841431,0.01584780
3772.74722168,0.01719471
3774.67602905,0.01718330
3776.60483643,0.01721773
3778.53364380,0.01671221
3780.46245117,0.01610370
3782.39125854,0.01723530
3784.32006592,0.01668489
3786.24887329,0.01670755
3788.17768066,0.01705742
3790.10648804,0.01703457
3792.03529541,0.01694416
3793.96410278,0.01706443
3795.89291016,0.01614413
3797.82171753,0.01585830
3799.75052490,0.01684652
3801.67933228,0.01329140
3803.60813965,0.01539013
3805.53694702,0.01694007
3807.46575439,0.01377037
3809.39456177,0.01671968
3811.32336914,0.01636628
3813.25217651,0.01697006
3815.18098389,0.01538712
3817.10979126,0.01330194
3819.03859863,0.01694548
3820.96740601,0.01372270
3822.89621338,0.01441446
3824.82502075,0.01691375
3826.75382812,0.01517237
3828.68263550,0.01644705
3830.61144287,0.01594719
3832.54025024,0.01522163
3834.46905762,0.01556192
3836.39786499,0.01491468
3838.32667236,0.01328693
3840.25547974,0.01436811
3842.18428711,0.01561399
3844.11309448,0.01488505
3846.04190186,0.01612626
3847.97070923,0.01586171
3849.89951660,0.01593775
3851.82832397,0.01437279
3853.75713135,0.01065654
3855.68593872,0.01259219
3857.61474609,0.01591502
3859.54355347,0.01556572
3861.47236084,0.01541463
3863.40116821,0.01504444
3865.32997559,0.01391396
3867.25878296,0.01564200
3869.18759033,0.01428834
3871.11639770,0.01314670
3873.04520508,0.01568681
3874.97401245,0.01440964
3876.90281982,0.01548311
3878.83162720,0.01579339
3880.76043457,0.01352185
3882.68924194,0.01558136
3884.61804932,0.01467813
3886.54685669,0.01343062
3888.47566406,0.01563282
3890.40447144,0.01477056
3892.33327881,0.01389491
3894.26208618,0.01533063
3896.19089355,0.01550486
3898.11970093,0.01477012
3900.04850830,0.01393701
3901.97731567,0.01370556
3903.90612305,0.01363567
3905.83493042,0.01384131
3907.76373779,0.01527478
3909.69254517,0.01521974
3911.62135254,0.01493024
3913.55015991,0.01526137
3915.47896728,0.01483767
3917.40777466,0.01445381
3919.33658203,0.01421367
3921.26538940,0.01480161
3923.19419678,0.01479779
3925.12300415,0.01454108
3927.05181152,0.01478774
3928.98061890,0.01476256
3930.90942627,0.01462071
3932.83823364,0.01415129
3934.76704102,0.01460616
3936.69584839,0.01481119
3938.62465576,0.01464470
3940.55346313,0.01480044
3942.48227051,0.01432782
3944.41107788,0.01446057
3946.33988525,0.01462632
3948.26869263,0.01430664
3950.19750000,0.01436721
3952.12630737,0.01453875
3954.05511475,0.01454864
3955.98392212,0.01448829
3957.91272949,0.01445800
3959.84153687,0.01453315
3961.77034424,0.01442601
3963.69915161,0.01423729
3965.62795898,0.01444833
3967.55676636,0.01439865
3969.48557373,0.01428229
3971.41438110,0.01430021
3973.34318848,0.01422540
3975.27199585,0.01420412
3977.20080322,0.01413752
3979.12961060,0.01422336
3981.05841797,0.01414586
3982.98722534,0.01413643
3984.91603271,0.01421527
3986.84484009,0.01418219
3988.77364746,0.01414597
3990.70245483,0.01405739
3992.63126221,0.01408148
3994.56006958,0.01402542
3996.48887695,0.01401104
3998.41768433,0.01394963
4000.34649170,0.01400179
4002.27529907,0.01399706
4004.20410645,0.01386298
4006.13291382,0.01391961
4008.06172119,0.01381485
4009.99052856,0.01385159
4011.91933594,0.01381625
4013.84814331,0.01375188
4015.77695068,0.01376882
4017.70575806,0.01370908
4019.63456543,0.01372261
4021.56337280,0.01367172
4023.49218018,0.01371103
4025.42098755,0.01356492
4027.34979492,0.01347813
4029.27860229,0.01356061
4031.20740967,0.01358332
4033.13621704,0.01354389
4035.06502441,0.01347768
4036.99383179,0.01349438
4038.92263916,0.01344724
4040.85144653,0.01354379
4042.78025391,0.01340500
4044.70906128,0.01333084
4046.63786865,0.01336322
4048.56667603,0.01323301
4050.49548340,0.01332924
4052.42429077,0.01322939
4054.35309814,0.01324725
4056.28190552,0.01330154
4058.21071289,0.01322241
4060.13952026,0.01317926
4062.06832764,0.01316633
4063.99713501,0.01322322
4065.92594238,0.01315247
4067.85474976,0.01316134
4069.78355713,0.01306030
4071.71236450,0.01306907
4073.64117187,0.01303022
4075.56997925,0.01295067
4077.49878662,0.01298816
4079.42759399,0.01284392
4081.35640137,0.01294657
4083.28520874,0.01289383
4085.21401611,0.01283113
4087.14282349,0.01286350
4089.07163086,0.01285071
4091.00043823,0.01289249
4092.92924561,0.01276590
4094.85805298,0.01281247
4096.78686035,0.01273660
4098.71566772,0.01264909
4100.64447510,0.01263608
4102.57328247,0.01261989
4104.50208984,0.01266018
4106.43089722,0.01255372
4108.35970459,0.01253773
4110.28851196,0.01253057
4112.21731934,0.01256552
4114.14612671,0.01247148
4116.07493408,0.01239505
4118.00374145,0.01243550
4119.93254883,0.01238164
4121.86135620,0.01242219
4123.79016357,0.01241230
4125.71897095,0.01237563
4127.64777832,0.01229855
4129.57658569,0.01232010
4131.50539307,0.01234158
4133.43420044,0.01230556
4135.36300781,0.01229125
4137.29181519,0.01222060
4139.22062256,0.01225409
4141.14942993,0.01215980
4143.07823730,0.01215039
4145.00704468,0.01215712
4146.93585205,0.01206041
4148.86465942,0.01208378
4150.79346680,0.01209443
4152.72227417,0.01208297
4154.65108154,0.01204581
4156.57988892,0.01203829
4158.50869629,0.01194428
4160.43750366,0.01197864
4162.36631103,0.01197386
4164.29511841,0.01190236
4166.22392578,0.01195857
4168.15273315,0.01180526
4170.08154053,0.01181238
4172.01034790,0.01187268
4173.93915527,0.01179371
4175.86796265,0.01172746
4177.79677002,0.01173385
4179.72557739,0.01179566
4181.65438477,0.01173753
4183.58319214,0.01167858
4185.51199951,0.01162876
4187.44080688,0.01167498
4189.36961426,0.01163917
4191.29842163,0.01156801
4193.22722900,0.01154130
4195.15603638,0.01152323
4197.08484375,0.01154753
4199.01365112,0.01148594
4200.94245850,0.01150954
4202.87126587,0.01145220
4204.80007324,0.01143086
4206.72888062,0.01138847
4208.65768799,0.01138910
4210.58649536,0.01145001
4212.51530273,0.01134703
4214.44411011,0.01135974
4216.37291748,0.01121457
4218.30172485,0.01125123
4220.23053223,0.01127265
4222.15933960,0.01116906
4224.08814697,0.01124482
4226.01695435,0.01112232
4227.94576172,0.01116389
4229.87456909,0.01113510
4231.80337646,0.01107046
4233.73218384,0.01107368
4235.66099121,0.01102861
4237.58979858,0.01099602
4239.51860596,0.01095620
4241.44741333,0.01104390
4243.37622070,0.01089470
4245.30502808,0.01092997
4247.23383545,0.01097082
4249.16264282,0.01089016
4251.09145020,0.01094689
4253.02025757,0.01081338
4254.94906494,0.01083475
4256.87787231,0.01087543
4258.80667969,0.01086129
4260.73548706,0.01076183
4262.66429443,0.01074770
4264.59310181,0.01074498
4266.52190918,0.01060912
4268.45071655,0.01069651
4270.37952393,0.01061982
4272.30833130,0.01064832
4274.23713867,0.01067416
4276.16594604,0.01056486
4278.09475342,0.01060439
4280.02356079,0.01054318
4281.95236816,0.01053649
4283.88117554,0.01053467
4285.80998291,0.01050979
4287.73879028,0.01044933
4289.66759766,0.01047951
4291.59640503,0.01051817
4293.52521240,0.01043255
4295.45401978,0.01040141
4297.38282715,0.01037739
4299.31163452,0.01040407
4301.24044189,0.01034250
4303.16924927,0.01031597
4305.09805664,0.01030299
4307.02686401,0.01028697
4308.95567139,0.01027273
4310.88447876,0.01018466
4312.81328613,0.01023562
4314.74209351,0.01021573
4316.67090088,0.01016615
4318.59970825,0.01014405
4320.52851562,0.01020315
4322.45732300,0.01017597
4324.38613037,0.01001296
4326.31493774,0.01006764
4328.24374512,0.01006976
4330.17255249,0.01003927
4332.10135986,0.01004672
4334.03016724,0.01001170
4335.95897461,0.00996039
4337.88778198,0.00996198
4339.81658936,0.00990999
4341.74539673,0.00986690
4343.67420410,0.00994105
4345.60301147,0.00975616
4347.53181885,0.00974362
4349.46062622,0.00988276
4351.38943359,0.00987731
4353.31824097,0.00982521
4355.24704834,0.00969582
4357.17585571,0.00970778
4359.10466309,0.00967047
4361.03347046,0.00969865
4362.96227783,0.00973891
4364.89108520,0.00967521
4366.81989258,0.00960948
4368.74869995,0.00954896
4370.67750732,0.00956421
4372.60631470,0.00953285
4374.53512207,0.00960550
4376.46392944,0.00953685
4378.39273682,0.00947648
4380.32154419,0.00951785
4382.25035156,0.00945210
4384.17915894,0.00951522
4386.10796631,0.00946334
4388.03677368,0.00942207
4389.96558105,0.00946287
4391.89438843,0.00945709
4393.82319580,0.00940409
4395.75200317,0.00936178
4397.68081055,0.00934503
4399.60961792,0.00925914
4401.53842529,0.00928380
4403.46723267,0.00927683
4405.39604004,0.00927186
4407.32484741,0.00919767
4409.25365478,0.00917415
4411.18246216,0.00927362
4413.11126953,0.00916523
4415.04007690,0.00915466
4416.96888428,0.00916872
4418.89769165,0.00911439
4420.82649902,0.00908894
4422.75530640,0.00900961
4424.68411377,0.00896452
4426.61292114,0.00909892
4428.54172852,0.00910247
4430.47053589,0.00888145
4432.39934326,0.00898430
4434.32815063,0.00903335
4436.25695801,0.00895471
4438.18576538,0.00892170
4440.11457275,0.00888143
4442.04338013,0.00895664
4443.97218750,0.00887404
4445.90099487,0.00888479
4447.82980225,0.00889390
4449.75860962,0.00881888
4451.68741699,0.00884503
4453.61622437,0.00880736
4455.54503174,0.00877429
4457.47383911,0.00875235
4459.40264648,0.00872359
4461.33145386,0.00866402
4463.26026123,0.00865726
4465.18906860,0.00861446
4467.11787598,0.00866216
4469.04668335,0.00866255
4470.97549072,0.00848888
4472.90429810,0.00855435
4474.83310547,0.00854826
4476.76191284,0.00857731
4478.69072021,0.00858639
4480.61952759,0.00847419
4482.54833496,0.00853003
4484.47714233,0.00850364
4486.40594971,0.00846348
4488.33475708,0.00835714
4490.26356445,0.00840143
4492.19237183,0.00844888
4494.12117920,0.00831975
4496.04998657,0.00842937
4497.97879395,0.00835505
4499.90760132,0.00828902
4501.83640869,0.00842196
4503.76521606,0.00833816
4505.69402344,0.00826150
4507.62283081,0.00826333
4509.55163818,0.00824336
4511.48044556,0.00816313
4513.40925293,0.00814227
4515.33806030,0.00821491
4517.26686768,0.00812748
4519.19567505,0.00805935
4521.12448242,0.00806227
4523.05328979,0.00802879
4524.98209717,0.00805444
4526.91090454,0.00805911
4528.83971191,0.00808404
4530.76851929,0.00800015
4532.69732666,0.00797764
4534.62613403,0.00805298
4536.55494141,0.00792175
4538.48374878,0.00797798
4540.41255615,0.00801123
4542.34136353,0.00794303
4544.27017090,0.00797750
4546.19897827,0.00790197
4548.12778564,0.00788345
4550.05659302,0.00782485
4551.98540039,0.00782884
4553.91420776,0.00787711
4555.84301514,0.00781294
4557.77182251,0.00778399
4559.70062988,0.00774673
4561.62943726,0.00777642
4563.55824463,0.00779305
4565.48705200,0.00773396
4567.41585937,0.00768234
4569.34466675,0.00771324
4571.27347412,0.00770389
4573.20228149,0.00764471
4575.13108887,0.00764435
4577.05989624,0.00760482
4578.98870361,0.00762514
4580.91751099,0.00760632
4582.84631836,0.00760154
4584.77512573,0.00760760
4586.70393311,0.00756012
4588.63274048,0.00757754
4590.56154785,0.00753720
4592.49035522,0.00750015
4594.41916260,0.00743212
4596.34796997,0.00747745
4598.27677734,0.00752661
4600.20558472,0.00737611
4602.13439209,0.00738641
4604.06319946,0.00744696
4605.99200684,0.00738173
4607.92081421,0.00735909
4609.84962158,0.00736706
4611.77842895,0.00728977
4613.70723633,0.00731745
4615.63604370,0.00730053
4617.56485107,0.00720765
4619.49365845,0.00732477
4621.42246582,0.00728593
4623.35127319,0.00723054
4625.28008057,0.00723803
4627.20888794,0.00717154
4629.13769531,0.00719703
4631.06650269,0.00715260
4632.99531006,0.00715143
4634.92411743,0.00714686
4636.85292480,0.00712505
4638.78173218,0.00717711
4640.71053955,0.00714056
4642.63934692,0.00711714
4644.56815430,0.00707994
4646.49696167,0.00700971
4648.42576904,0.00702299
4650.35457642,0.00702390
4652.28338379,0.00697944
4654.21219116,0.00697397
4656.14099853,0.00698837
4658.06980591,0.00700943
4659.99861328,0.00700095
4661.92742065,0.00695413
4663.85622803,0.00690901
4665.78503540,0.00689468
4667.71384277,0.00692046
4669.64265015,0.00687589
4671.57145752,0.00682620
4673.50026489,0.00680683
4675.42907227,0.00682957
4677.35787964,0.00687254
4679.28668701,0.00681402
4681.21549438,0.00674035
4683.14430176,0.00667131
4685.07310913,0.00669312
4687.00191650,0.00674956
4688.93072388,0.00675700
4690.85953125,0.00668572
4692.78833862,0.00656200
4694.71714600,0.00665380
4696.64595337,0.00670033
4698.57476074,0.00661651
4700.50356812,0.00661386
4702.43237549,0.00665292
4704.36118286,0.00661069
4706.28999023,0.00649194
4708.21879761,0.00660116
4710.14760498,0.00658831
4712.07641235,0.00650341
4714.00521973,0.00664095
4715.93402710,0.00650023
4717.86283447,0.00642024
4719.79164185,0.00649950
4721.72044922,0.00647108
4723.64925659,0.00654798
4725.57806396,0.00647302
4727.50687134,0.00641738
4729.43567871,0.00643290
4731.36448608,0.00634742
4733.29329346,0.00640522
4735.22210083,0.00641097
4737.15090820,0.00633460
4739.07971558,0.00631681
4741.00852295,0.00642697
4742.93733032,0.00639971
4744.86613770,0.00624239
4746.79494507,0.00635016
4748.72375244,0.00628560
4750.65255981,0.00622628
4752.58136719,0.00629237
4754.51017456,0.00626199
4756.43898193,0.00627809
4758.36778931,0.00613190
4760.29659668,0.00615185
4762.22540405,0.00620976
4764.15421143,0.00614908
4766.08301880,0.00617321
4768.01182617,0.00610482
4769.94063354,0.00610359
4771.86944092,0.00611841
4773.79824829,0.00611520
4775.72705566,0.00609284
4777.65586304,0.00607740
4779.58467041,0.00604380
4781.51347778,0.00596667
4783.44228516,0.00598384
4785.37109253,0.00600497
4787.29989990,0.00605084
4789.22870728,0.00596507
4791.15751465,0.00591360
4793.08632202,0.00595289
4795.01512939,0.00593490
4796.94393677,0.00593626
4798.87274414,0.00590201
4800.80155151,0.00592227
4802.73035889,0.00581716
4804.65916626,0.00583519
4806.58797363,0.00592233
4808.51678101,0.00586141
4810.44558838,0.00586834
4812.37439575,0.00579580
4814.30320312,0.00580299
4816.23201050,0.00574617
4818.16081787,0.00574708
4820.08962524,0.00581199
4822.01843262,0.00575350
4823.94723999,0.00576237
4825.87604736,0.00566997
4827.80485474,0.00571350
4829.73366211,0.00569361
4831.66246948,0.00565919
4833.59127686,0.00575530
4835.52008423,0.00566811
4837.44889160,0.00565101
4839.37769897,0.00562680
4841.30650635,0.00568571
4843.23531372,0.00566764
4845.16412109,0.00552437
4847.09292847,0.00557102
4849.02173584,0.00552452
4850.95054321,0.00551012
4852.87935059,0.00555738
4854.80815796,0.00552381
4856.73696533,0.00550240
4858.66577270,0.00548608
4860.59458008,0.00550553
4862.52338745,0.00551324
4864.45219482,0.00547291
4866.38100220,0.00547268
4868.30980957,0.00546924
4870.23861694,0.00540110
4872.16742432,0.00536474
4874.09623169,0.00534381
4876.02503906,0.00540426
4877.95384644,0.00536422
4879.88265381,0.00525704
4881.81146118,0.00538985
4883.74026855,0.00537355
4885.66907593,0.00529218
4887.59788330,0.00530370
4889.52669067,0.00525492
4891.45549805,0.00533536
4893.38430542,0.00528485
4895.31311279,0.00519329
4897.24192017,0.00528975
4899.17072754,0.00524015
4901.09953491,0.00518175
4903.02834228,0.00516320
4904.95714966,0.00513324
4906.88595703,0.00519186
4908.81476440,0.00518227
4910.74357178,0.00523687
4912.67237915,0.00521654
4914.60118652,0.00511481
4916.52999390,0.00512077
4918.45880127,0.00509165
4920.38760864,0.00518207
4922.31641602,0.00514523
4924.24522339,0.00506020
4926.17403076,0.00511960
4928.10283813,0.00505376
4930.03164551,0.00504227
4931.96045288,0.00502400
4933.88926025,0.00498063
4935.81806763,0.00500316
4937.74687500,0.00503245
4939.67568237,0.00500656
4941.60448975,0.00495440
4943.53329712,0.00496132
4945.46210449,0.00495811
4947.39091187,0.00496942
4949.31971924,0.00489269
4951.24852661,0.00486745
4953.17733398,0.00485400
4955.10614136,0.00484465
4957.03494873,0.00492197
4958.96375610,0.00483861
4960.89256348,0.00482819
4962.82137085,0.00478953
4964.75017822,0.00482366
4966.67898560,0.00492281
4968.60779297,0.00477693
4970.53660034,0.00477931
4972.46540771,0.00481852
4974.39421509,0.00482411
4976.32302246,0.00478724
4978.25182983,0.00470255
4980.18063721,0.00477595
4982.10944458,0.00472610
4984.03825195,0.00464889
4985.96705933,0.00470179
4987.89586670,0.00466271
4989.82467407,0.00460332
4991.75348145,0.00461985
4993.68228882,0.00461635
4995.61109619,0.00461241
4997.53990356,0.00459371
4999.46871094,0.00463033
5001.39751831,0.00465203
5003.32632568,0.00455977
5005.25513306,0.00458727
5007.18394043,0.00460044
5009.11274780,0.00458305
5011.04155518,0.00460301
5012.97036255,0.00455362
5014.89916992,0.00448390
5016.82797729,0.00449517
5018.75678467,0.00454391
5020.68559204,0.00445634
5022.61439941,0.00449459
5024.54320679,0.00455881
5026.47201416,0.00449587
5028.40082153,0.00444216
5030.32962891,0.00443840
5032.25843628,0.00446458
5034.18724365,0.00435900
5036.11605103,0.00443574
5038.04485840,0.00443736
5039.97366577,0.00432233
5041.90247314,0.00438228
5043.83128052,0.00435129
5045.76008789,0.00435566
5047.68889526,0.00433147
5049.61770264,0.00433485
5051.54651001,0.00429530
5053.47531738,0.00434996
5055.40412476,0.00444036
5057.33293213,0.00423535
5059.26173950,0.00424761
5061.19054687,0.00422459
5063.11935425,0.00416618
5065.04816162,0.00422576
5066.97696899,0.00424961
5068.90577637,0.00429827
5070.83458374,0.00411402
5072.76339111,0.00411758
5074.69219849,0.00421602
5076.62100586,0.00412961
5078.54981323,0.00416327
5080.47862061,0.00417837
5082.40742798,0.00410080
5084.33623535,0.00411742
5086.26504272,0.00416255
5088.19385010,0.00408084
5090.12265747,0.00411465
5092.05146484,0.00416473
5093.98027222,0.00410450
5095.90907959,0.00404793
5097.83788696,0.00410429
5099.76669434,0.00421224
5101.69550171,0.00412691
5103.62430908,0.00408476
5105.55311645,0.00401103
5107.48192383,0.00401009
5109.41073120,0.00406884
5111.33953857,0.00400109
5113.26834595,0.00405446
5115.19715332,0.00400957
5117.12596069,0.00399209
5119.05476807,0.00397291
5120.98357544,0.00396778
5122.91238281,0.00402231
5124.84119019,0.00391775
5126.76999756,0.00395424
5128.69880493,0.00394307
5130.62761230,0.00389186
5132.55641968,0.00386008
5134.48522705,0.00388334
5136.41403442,0.00396670
5138.34284180,0.00379870
5140.27164917,0.00382595
5142.20045654,0.00388571
5144.12926392,0.00381274
5146.05807129,0.00384484
5147.98687866,0.00378147
5149.91568603,0.00385704
5151.84449341,0.00390277
5153.77330078,0.00375484
5155.70210815,0.00374861
5157.63091553,0.00378887
5159.55972290,0.00372779
5161.48853027,0.00370353
5163.41733765,0.00375607
5165.34614502,0.00375434
5167.27495239,0.00371688
5169.20375977,0.00369262
5171.13256714,0.00374043
5173.06137451,0.00376045
5174.99018188,0.00364618
5176.91898926,0.00364075
5178.84779663,0.00365649
5180.77660400,0.00363286
5182.70541138,0.00370200
5184.63421875,0.00366674
5186.56302612,0.00361349
5188.49183350,0.00364671
5190.42064087,0.00364147
5192.34944824,0.00361875
5194.27825562,0.00359259
5196.20706299,0.00358387
5198.13587036,0.00358336
5200.06467773,0.00360880
5201.99348511,0.00364332
5203.92229248,0.00361320
5205.85109985,0.00351290
5207.77990723,0.00344654
5209.70871460,0.00351644
5211.63752197,0.00357308
5213.56632935,0.00358120
5215.49513672,0.00353155
5217.42394409,0.00343477
5219.35275146,0.00348298
5221.28155884,0.00354041
5223.21036621,0.00340673
5225.13917358,0.00330726
5227.06798096,0.00341642
5228.99678833,0.00342072
5230.92559570,0.00339892
5232.85440308,0.00346985
5234.78321045,0.00341379
5236.71201782,0.00344687
5238.64082520,0.00340782
5240.56963257,0.00336090
5242.49843994,0.00348999
5244.42724731,0.00346060
5246.35605469,0.00341138
5248.28486206,0.00325224
5250.21366943,0.00322303
5252.14247681,0.00342860
5254.07128418,0.00329882
5256.00009155,0.00322252
5257.92889893,0.00329505
5259.85770630,0.00332295
5261.78651367,0.00337966
5263.71532104,0.00330562
5265.64412842,0.00329565
5267.57293579,0.00328815
5269.50174316,0.00326117
5271.43055054,0.00328376
5273.35935791,0.00326077
5275.28816528,0.00329123
5277.21697266,0.00329021
5279.14578003,0.00328948
5281.07458740,0.00325925
5283.00339478,0.00326203
5284.93220215,0.00329129
5286.86100952,0.00321788
5288.78981689,0.00323298
5290.71862427,0.00320785
5292.64743164,0.00320444
5294.57623901,0.00322237
5296.50504639,0.00318580
5298.43385376,0.00319058
5300.36266113,0.00314028
5302.29146851,0.00318428
5304.22027588,0.00319218
5306.14908325,0.00315159
5308.07789062,0.00308399
5310.00669800,0.00305124
5311.93550537,0.00319900
5313.86431274,0.00315128
5315.79312012,0.00308480
5317.72192749,0.00309860
5319.65073486,0.00306939
5321.57954224,0.00304861
5323.50834961,0.00301089
5325.43715698,0.00304449
5327.36596436,0.00300826
5329.29477173,0.00301492
5331.22357910,0.00301490
5333.15238647,0.00298095
5335.08119385,0.00310839
5337.01000122,0.00303394
5338.93880859,0.00283053
5340.86761597,0.00295785
5342.79642334,0.00302054
5344.72523071,0.00283543
5346.65403809,0.00291211
5348.58284546,0.00295596
5350.51165283,0.00291143
5352.44046020,0.00295167
5354.36926758,0.00288492
5356.29807495,0.00291643
5358.22688232,0.00293280
5360.15568970,0.00295537
5362.08449707,0.00292571
5364.01330444,0.00288997
5365.94211182,0.00293651
5367.87091919,0.00290657
5369.79972656,0.00299574
5371.72853394,0.00290570
5373.65734131,0.00283369
5375.58614868,0.00285132
5377.51495605,0.00278178
5379.44376343,0.00284960
5381.37257080,0.00283668
5383.30137817,0.00287736
5385.23018555,0.00279807
5387.15899292,0.00276001
5389.08780029,0.00284170
5391.01660767,0.00274065
5392.94541504,0.00278514
5394.87422241,0.00273549
5396.80302978,0.00274548
5398.73183716,0.00279851
5400.66064453,0.00274628
5402.58945190,0.00282219
5404.51825928,0.00272277
5406.44706665,0.00273520
5408.37587402,0.00280031
5410.30468140,0.00272247
5412.23348877,0.00269939
5414.16229614,0.00260633
5416.09110352,0.00267585
5418.01991089,0.00277440
5419.94871826,0.00272135
5421.87752563,0.00272552
5423.80633301,0.00269218
5425.73514038,0.00269890
5427.66394775,0.00271278
5429.59275513,0.00260661
5431.52156250,0.00265126
5433.45036987,0.00267750
5435.37917725,0.00255626
5437.30798462,0.00268173
5439.23679199,0.00274763
5441.16559936,0.00258611
5443.09440674,0.00259984
5445.02321411,0.00263484
5446.95202148,0.00261034
5448.88082886,0.00253340
5450.80963623,0.00249788
5452.73844360,0.00264152
5454.66725098,0.00257515
5456.59605835,0.00250679
5458.52486572,0.00259534
5460.45367310,0.00256571
5462.38248047,0.00255378
5464.31128784,0.00255381
5466.24009521,0.00257204
5468.16890259,0.00250627
5470.09770996,0.00252243
5472.02651733,0.00262412
5473.95532471,0.00255889
5475.88413208,0.00258614
5477.81293945,0.00252267
5479.74174683,0.00251070
5481.67055420,0.00255757
5483.59936157,0.00248358
5485.52816895,0.00254093
5487.45697632,0.00243421
5489.38578369,0.00242262
5491.31459106,0.00252895
5493.24339844,0.00245302
5495.17220581,0.00249738
5497.10101318,0.00253371
5499.02982056,0.00245011
5500.95862793,0.00238301
5502.88743530,0.00237527
5504.81624268,0.00237454
5506.74505005,0.00238900
5508.67385742,0.00239512
5510.60266479,0.00239191
5512.53147217,0.00241608
5514.46027954,0.00241060
5516.38908691,0.00238918
5518.31789429,0.00234440
5520.24670166,0.00239164
5522.17550903,0.00237962
5524.10431641,0.00229710
5526.03312378,0.00230583
5527.96193115,0.00230743
5529.89073853,0.00233868
5531.81954590,0.00235394
5533.74835327,0.00236610
5535.67716064,0.00225801
5537.60596802,0.00223201
5539.53477539,0.00236370
5541.46358276,0.00232217
5543.39239014,0.00231050
5545.32119751,0.00226636
5547.25000488,0.00225928
5549.17881226,0.00232896
5551.10761963,0.00226242
5553.03642700,0.00222002
5554.96523437,0.00225376
5556.89404175,0.00231547
5558.82284912,0.00230697
5560.75165649,0.00230667
5562.68046387,0.00228310
5564.60927124,0.00224837
5566.53807861,0.00225536
5568.46688599,0.00219638
5570.39569336,0.00224644
5572.32450073,0.00224365
5574.25330811,0.00218253
5576.18211548,0.00225806
5578.11092285,0.00222946
5580.03973022,0.00215218
5581.96853760,0.00215607
5583.89734497,0.00216734
5585.82615234,0.00223064
5587.75495972,0.00219564
5589.68376709,0.00214818
5591.61257446,0.00222954
5593.54138184,0.00215945
5595.47018921,0.00218719
5597.39899658,0.00222411
5599.32780395,0.00209665
5601.25661133,0.00217701
5603.18541870,0.00220901
5605.11422607,0.00213540
5607.04303345,0.00206393
5608.97184082,0.00205432
5610.90064819,0.00213279
5612.82945557,0.00208269
5614.75826294,0.00208449
5616.68707031,0.00214560
5618.61587769,0.00213455
5620.54468506,0.00209417
5622.47349243,0.00204839
5624.40229980,0.00206403
5626.33110718,0.00206308
5628.25991455,0.00203381
5630.18872192,0.00213082
5632.11752930,0.00206239
5634.04633667,0.00192251
5635.97514404,0.00207812
5637.90395142,0.00204753
5639.83275879,0.00199210
5641.76156616,0.00203701
5643.69037353,0.00200646
5645.61918091,0.00205541
5647.54798828,0.00200935
5649.47679565,0.00204789
5651.40560303,0.00202787
5653.33441040,0.00201894
5655.26321777,0.00203260
5657.19202515,0.00195343
5659.12083252,0.00203767
5661.04963989,0.00195533
5662.97844727,0.00196696
5664.90725464,0.00197322
5666.83606201,0.00190357
5668.76486938,0.00196821
5670.69367676,0.00188796
5672.62248413,0.00192068
5674.55129150,0.00192631
5676.48009888,0.00193359
5678.40890625,0.00191486
5680.33771362,0.00187420
5682.26652100,0.00194199
5684.19532837,0.00189204
5686.12413574,0.00193131
5688.05294311,0.00186202
5689.98175049,0.00185883
5691.91055786,0.00196549
5693.83936523,0.00190626
5695.76817261,0.00188580
5697.69697998,0.00184541
5699.62578735,0.00189096
5701.55459473,0.00191111
5703.48340210,0.00189305
5705.41220947,0.00190911
5707.34101685,0.00187196
5709.26982422,0.00182540
5711.19863159,0.00179648
5713.12743896,0.00183728
5715.05624634,0.00183846
5716.98505371,0.00187607
5718.91386108,0.00179978
5720.84266846,0.00174055
5722.77147583,0.00185896
5724.70028320,0.00178879
5726.62909058,0.00175718
5728.55789795,0.00181718
5730.48670532,0.00181099
5732.41551270,0.00183463
5734.34432007,0.00183668
5736.27312744,0.00176955
5738.20193481,0.00176178
5740.13074219,0.00178986
5742.05954956,0.00175705
5743.98835693,0.00181725
5745.91716431,0.00179078
5747.84597168,0.00171778
5749.77477905,0.00178237
5751.70358643,0.00176469
5753.63239380,0.00169756
5755.56120117,0.00171260
5757.49000854,0.00176689
5759.41881592,0.00173953
5761.34762329,0.00168273
5763.27643066,0.00169772
5765.20523804,0.00174703
5767.13404541,0.00172484
5769.06285278,0.00168371
5770.99166016,0.00172202
5772.92046753,0.00169472
5774.84927490,0.00168150
5776.77808228,0.00170880
5778.70688965,0.00167702
5780.63569702,0.00165091
5782.56450439,0.00165949
5784.49331177,0.00171111
5786.42211914,0.00170165
5788.35092651,0.00163075
5790.27973389,0.00161794
5792.20854126,0.00159613
5794.13734863,0.00153649
5796.06615601,0.00158194
5797.99496338,0.00164308
5799.92377075,0.00163283
5801.85257812,0.00160682
5803.78138550,0.00155480
5805.71019287,0.00156543
5807.63900024,0.00161062
5809.56780762,0.00168357
5811.49661499,0.00169107
5813.42542236,0.00157165
5815.35422974,0.00156916
5817.28303711,0.00162909
5819.21184448,0.00156350
5821.14065186,0.00153844
5823.06945923,0.00162602
5824.99826660,0.00156400
5826.92707397,0.00156430
5828.85588135,0.00163178
5830.78468872,0.00151410
5832.71349609,0.00153748
5834.64230347,0.00157477
5836.57111084,0.00156292
5838.49991821,0.00155391
5840.42872559,0.00144025
5842.35753296,0.00146454
5844.28634033,0.00152342
5846.21514770,0.00152434
5848.14395508,0.00149264
5850.07276245,0.00148152
5852.00156982,0.00153512
5853.93037720,0.00144845
5855.85918457,0.00143641
5857.78799194,0.00153460
5859.71679932,0.00143076
5861.64560669,0.00136540
5863.57441406,0.00142697
5865.50322144,0.00145369
5867.43202881,0.00147629
5869.36083618,0.00144464
5871.28964355,0.00146014
5873.21845093,0.00146988
5875.14725830,0.00146185
5877.07606567,0.00151030
5879.00487305,0.00147488
5880.93368042,0.00146980
5882.86248779,0.00144021
5884.79129517,0.00142597
5886.72010254,0.00144704
5888.64890991,0.00140193
5890.57771728,0.00140396
5892.50652466,0.00132987
5894.43533203,0.00134310
5896.36413940,0.00143270
5898.29294678,0.00137546
5900.22175415,0.00134497
5902.15056152,0.00143471
5904.07936890,0.00147311
5906.00817627,0.00136355
5907.93698364,0.00135323
5909.86579102,0.00138494
5911.79459839,0.00135814
5913.72340576,0.00135848
5915.65221313,0.00137426
5917.58102051,0.00132944
5919.50982788,0.00128632
5921.43863525,0.00140251
5923.36744263,0.00138278
5925.29625000,0.00131589
5927.22505737,0.00132772
5929.15386475,0.00135220
5931.08267212,0.00138622
5933.01147949,0.00129795
5934.94028686,0.00134742
5936.86909424,0.00133098
5938.79790161,0.00129531
5940.72670898,0.00135935
5942.65551636,0.00129884
5944.58432373,0.00133337
5946.51313110,0.00127348
5948.44193848,0.00128569
5950.37074585,0.00135508
5952.29955322,0.00124207
5954.22836060,0.00125168
5956.15716797,0.00127680
5958.08597534,0.00129873
5960.01478271,0.00128414
5961.94359009,0.00126965
5963.87239746,0.00129924
5965.80120483,0.00124470
5967.73001221,0.00125887
5969.65881958,0.00126236
5971.58762695,0.00123097
5973.51643433,0.00121795
5975.44524170,0.00125072
5977.37404907,0.00130185
5979.30285645,0.00120934
5981.23166382,0.00118700
5983.16047119,0.00126504
5985.08927856,0.00127452
5987.01808594,0.00122810
5988.94689331,0.00115397
5990.87570068,0.00121681
5992.80450806,0.00127229
5994.73331543,0.00117972
5996.66212280,0.00115235
5998.59093018,0.00116233
6000.51973755,0.00117535
