399.26312622,0.00028112
401.19193359,0.00048850
403.12074097,-0.00002197
405.04954834,-0.00016317
406.97835571,0.00026326
408.90716309,0.00036747
410.83597046,-0.00000552
412.76477783,0.00019567
414.69358521,0.00023494
416.62239258,-0.00014248
418.55119995,0.00045358
420.48000732,0.00003510
422.40881470,-0.00012466
424.33762207,0.00024540
426.26642944,0.00024527
428.19523682,0.00068955
430.12404419,0.00030591
432.05285156,0.00042300
433.98165894,0.00014369
435.91046631,-0.00008520
437.83927368,0.00038969
439.76808105,0.00004916
441.69688843,0.00034470
443.62569580,0.00045703
445.55450317,0.00067554
447.48331055,0.00064675
449.41211792,0.00011421
451.34092529,0.00049118
453.26973267,0.00075906
455.19854004,0.00055733
457.12734741,0.00024322
459.05615479,0.00049707
460.98496216,0.00030868
462.91376953,0.00011674
464.84257690,0.00058694
466.77138428,0.00064283
468.70019165,0.00048498
470.62899902,0.00010339
472.55780640,0.00047302
474.48661377,0.00061090
476.41542114,0.00019044
478.34422852,-0.00005652
480.27303589,-0.00012897
482.20184326,0.00027020
484.13065063,0.00016740
486.05945801,0.00035233
487.98826538,0.00040671
489.91707275,0.00014251
491.84588013,0.00017736
493.77468750,0.00005474
495.70349487,0.00022298
497.63230225,0.00026469
499.56110962,0.00027567
501.48991699,0.00013604
503.41872437,0.00016925
505.34753174,0.00021795
507.27633911,0.00002942
509.20514648,0.00028927
511.13395386,0.00033940
513.06276123,0.00047409
514.99156860,0.00058621
516.92037598,0.00074505
518.84918335,0.00054855
520.77799072,-0.00010646
522.70679810,0.00025721
524.63560547,0.00051489
526.56441284,0.00035490
528.49322021,0.00015408
530.42202759,-0.00013275
532.35083496,0.00012416
534.27964233,-0.00004161
536.20844971,-0.00023680
538.13725708,0.00006670
540.06606445,0.00007743
541.99487183,0.00002174
543.92367920,0.00006638
545.85248657,0.00010769
547.78129395,0.00046042
549.71010132,0.00016554
551.63890869,0.00004022
553.56771606,0.00047947
555.49652344,0.00003090
557.42533081,0.00014355
559.35413818,0.00048198
561.28294556,0.00022994
563.21175293,-0.00002744
565.14056030,-0.00017032
567.06936768,0.00007245
568.99817505,0.00033105
570.92698242,-0.00002991
572.85578979,-0.00015433
574.78459717,0.00024194
576.71340454,0.00016519
578.64221191,0.00032799
580.57101929,0.00022241
582.49982666,-0.00018274
584.42863403,0.00036978
586.35744141,0.00024659
588.28624878,0.00019351
590.21505615,0.00068869
592.14386353,0.00004867
594.07267090,-0.00013202
596.00147827,-0.00001748
597.93028564,-0.00018428
599.85909302,0.00010885
601.78790039,0.00006475
603.71670776,0.00027272
605.64551514,0.00044117
607.57432251,0.00000770
609.50312988,0.00003902
611.43193726,0.00029060
613.36074463,0.00019540
615.28955200,0.00032473
617.21835938,0.00010632
619.14716675,-0.00026567
621.07597412,0.00018364
623.00478149,0.00013480
624.93358887,0.00005018
626.86239624,0.00018094
628.79120361,-0.00002821
630.72001099,0.00017356
632.64881836,0.00010319
634.57762573,0.00042861
636.50643311,0.00072778
638.43524048,0.00040311
640.36404785,0.00071615
642.29285522,0.00061472
644.22166260,0.00059406
646.15046997,0.00056826
648.07927734,-0.00000689
650.00808472,0.00071015
651.93689209,0.00108442
653.86569946,0.00037468
655.79450684,0.00047745
657.72331421,0.00076964
659.65212158,0.00085898
661.58092896,0.00090681
663.50973633,0.00081360
665.43854370,0.00102060
667.36735107,0.00083724
669.29615845,0.00067015
671.22496582,0.00122691
673.15377319,0.00098538
675.08258057,0.00064790
677.01138794,0.00091483
678.94019531,0.00097377
680.86900269,0.00108895
682.79781006,0.00081795
684.72661743,0.00085568
686.65542480,0.00121839
688.58423218,0.00083216
690.51303955,0.00083939
692.44184692,0.00134618
694.37065430,0.00132558
696.29946167,0.00129193
698.22826904,0.00164410
700.15707642,0.00152571
702.08588379,0.00146246
704.01469116,0.00170338
705.94349854,0.00139452
707.87230591,0.00122041
709.80111328,0.00091444
711.72992065,0.00060240
713.65872803,0.00043557
715.58753540,-0.00002102
717.51634277,0.00026474
719.44515015,0.00033057
721.37395752,0.00002392
723.30276489,0.00014205
725.23157227,-0.00012852
727.16037964,-0.00026062
729.08918701,-0.00000598
731.01799438,0.00002831
732.94680176,-0.00014174
734.87560913,0.00004441
736.80441650,-0.00000215
738.73322388,0.00009451
740.66203125,0.00044181
742.59083862,0.00005963
744.51964600,0.00035997
746.44845337,0.00028373
748.37726074,-0.00020419
750.30606812,0.00029998
752.23487549,0.00020570
754.16368286,0.00024320
756.09249023,0.00036097
758.02129761,0.00020177
759.95010498,0.00039436
761.87891235,0.00019650
763.80771973,0.00001465
765.73652710,-0.00000046
767.66533447,0.00004434
769.59414185,0.00027047
771.52294922,0.00029092
773.45175659,0.00048657
775.38056396,0.00045330
777.30937134,-0.00000469
779.23817871,0.00024727
781.16698608,0.00043810
783.09579346,0.00014259
785.02460083,0.00044118
786.95340820,0.00032534
788.88221558,0.00008012
790.81102295,0.00038173
792.73983032,0.00011618
794.66863770,0.00014379
796.59744507,0.00032995
798.52625244,0.00013011
800.45505981,0.00029199
802.38386719,0.00041205
804.31267456,0.00058142
806.24148193,0.00041069
808.17028931,-0.00001979
810.09909668,0.00006072
812.02790405,0.00013876
813.95671143,0.00013928
815.88551880,0.00003283
817.81432617,0.00001299
819.74313354,0.00026751
821.67194092,0.00022783
823.60074829,0.00007450
825.52955566,0.00020181
827.45836304,0.00039139
829.38717041,0.00031995
831.31597778,0.00025090
833.24478516,0.00039137
835.17359253,0.00048669
837.10239990,0.00043241
839.03120728,0.00027157
840.96001465,0.00048659
842.88882202,0.00058825
844.81762939,0.00037993
846.74643677,0.00043804
848.67524414,0.00016483
850.60405151,0.00017190
852.53285889,0.00045109
854.46166626,0.00023739
856.39047363,0.00028963
858.31928101,0.00039233
860.24808838,0.00034648
862.17689575,0.00030986
864.10570313,0.00035086
866.03451050,0.00042942
867.96331787,0.00040386
869.89212524,0.00040824
871.82093262,0.00016148
873.74973999,0.00019092
875.67854736,0.00013254
877.60735474,0.00007279
879.53616211,0.00018107
881.46496948,-0.00008688
883.39377686,0.00042268
885.32258423,0.00054466
887.25139160,0.00019324
889.18019897,0.00046251
891.10900635,0.00031943
893.03781372,0.00031295
894.96662109,0.00041842
896.89542847,0.00029331
898.82423584,0.00020727
900.75304321,0.00021012
902.68185059,0.00036019
904.61065796,0.00024158
906.53946533,0.00030978
908.46827271,0.00049430
910.39708008,0.00025063
912.32588745,0.00033020
914.25469482,0.00042388
916.18350220,0.00037852
918.11230957,0.00057295
920.04111694,0.00053429
921.96992432,0.00035302
923.89873169,0.00035635
925.82753906,0.00053015
927.75634644,0.00044239
929.68515381,0.00049254
931.61396118,0.00068688
933.54276855,0.00060914
935.47157593,0.00064447
937.40038330,0.00062023
939.32919067,0.00085197
941.25799805,0.00090332
943.18680542,0.00068564
945.11561279,0.00068105
947.04442017,0.00075724
948.97322754,0.00100228
950.90203491,0.00083031
952.83084229,0.00091491
954.75964966,0.00082706
956.68845703,0.00046264
958.61726440,0.00078961
960.54607178,0.00073211
962.47487915,0.00082291
964.40368652,0.00103550
966.33249390,0.00089559
968.26130127,0.00075155
970.19010864,0.00076352
972.11891602,0.00117090
974.04772339,0.00103156
975.97653076,0.00093771
977.90533813,0.00122747
979.83414551,0.00112915
981.76295288,0.00114311
983.69176025,0.00157219
985.62056763,0.00172208
987.54937500,0.00162460
989.47818237,0.00185754
991.40698975,0.00212132
993.33579712,0.00257174
995.26460449,0.00247428
997.19341187,0.00252301
999.12221924,0.00326134
1001.05102661,0.00337279
1002.97983398,0.00367807
1004.90864136,0.00375488
1006.83744873,0.00390035
1008.76625610,0.00421780
1010.69506348,0.00414778
1012.62387085,0.00455657
1014.55267822,0.00469126
1016.48148560,0.00503248
1018.41029297,0.00536367
1020.33910034,0.00553789
1022.26790771,0.00592842
1024.19671509,0.00601995
1026.12552246,0.00642863
1028.05432983,0.00657552
1029.98313721,0.00671977
1031.91194458,0.00687193
1033.84075195,0.00683748
1035.76955933,0.00711095
1037.69836670,0.00712268
1039.62717407,0.00727168
1041.55598145,0.00736220
1043.48478882,0.00723037
1045.41359619,0.00716410
1047.34240356,0.00694759
1049.27121094,0.00679955
1051.20001831,0.00684479
1053.12882568,0.00670462
1055.05763306,0.00645009
1056.98644043,0.00661977
1058.91524780,0.00652244
1060.84405518,0.00611790
1062.77286255,0.00591596
1064.70166992,0.00571028
1066.63047729,0.00555415
1068.55928467,0.00539763
1070.48809204,0.00518638
1072.41689941,0.00500875
1074.34570679,0.00475826
1076.27451416,0.00434483
1078.20332153,0.00417345
1080.13212891,0.00394327
1082.06093628,0.00392452
1083.98974365,0.00394526
1085.91855103,0.00336004
1087.84735840,0.00329641
1089.77616577,0.00327587
1091.70497314,0.00322757
1093.63378052,0.00318570
1095.56258789,0.00279811
1097.49139526,0.00277751
1099.42020264,0.00264637
1101.34901001,0.00272484
1103.27781738,0.00269348
1105.20662476,0.00256812
1107.13543213,0.00280281
1109.06423950,0.00263524
1110.99304687,0.00249820
1112.92185425,0.00252828
1114.85066162,0.00257939
1116.77946899,0.00259403
1118.70827637,0.00256681
1120.63708374,0.00254517
1122.56589111,0.00252431
1124.49469849,0.00249387
1126.42350586,0.00254702
1128.35231323,0.00275052
1130.28112061,0.00266137
1132.20992798,0.00280270
1134.13873535,0.00293313
1136.06754272,0.00297280
1137.99635010,0.00321906
1139.92515747,0.00331384
1141.85396484,0.00347691
1143.78277222,0.00356019
1145.71157959,0.00400500
1147.64038696,0.00424017
1149.56919434,0.00429991
1151.49800171,0.00483458
1153.42680908,0.00485879
1155.35561646,0.00490473
1157.28442383,0.00533428
1159.21323120,0.00554124
1161.14203857,0.00566491
1163.07084595,0.00600052
1164.99965332,0.00613695
1166.92846069,0.00634593
1168.85726807,0.00652446
1170.78607544,0.00653761
1172.71488281,0.00716918
1174.64369019,0.00718274
1176.57249756,0.00734849
1178.50130493,0.00798804
1180.43011230,0.00808399
1182.35891968,0.00849601
1184.28772705,0.00869472
1186.21653442,0.00922715
1188.14534180,0.00981416
1190.07414917,0.01010109
1192.00295654,0.01074839
1193.93176392,0.01104911
1195.86057129,0.01165341
1197.78937866,0.01225882
1199.71818604,0.01248814
1201.64699341,0.01304667
1203.57580078,0.01368822
1205.50460815,0.01434072
1207.43341553,0.01491605
1209.36222290,0.01523643
1211.29103027,0.01563429
1213.21983765,0.01620103
1215.14864502,0.01662918
1217.07745239,0.01696617
1219.00625977,0.01728872
1220.93506714,0.01761710
1222.86387451,0.01783447
1224.79268188,0.01813416
1226.72148926,0.01824800
1228.65029663,0.01815629
1230.57910400,0.01835824
1232.50791138,0.01837239
1234.43671875,0.01857378
1236.36552612,0.01853357
1238.29433350,0.01832642
1240.22314087,0.01842627
1242.15194824,0.01816940
1244.08075562,0.01818318
1246.00956299,0.01811659
1247.93837036,0.01807943
1249.86717773,0.01803265
1251.79598511,0.01780927
1253.72479248,0.01775421
1255.65359985,0.01735820
1257.58240723,0.01722530
1259.51121460,0.01688100
1261.44002197,0.01665321
1263.36882935,0.01664136
1265.29763672,0.01617216
1267.22644409,0.01603152
1269.15525146,0.01589696
1271.08405884,0.01574282
1273.01286621,0.01537899
1274.94167358,0.01515724
1276.87048096,0.01501715
1278.79928833,0.01461176
1280.72809570,0.01446762
1282.65690308,0.01391905
1284.58571045,0.01376902
1286.51451782,0.01374547
1288.44332520,0.01326579
1290.37213257,0.01324865
1292.30093994,0.01311095
1294.22974731,0.01293354
1296.15855469,0.01290142
1298.08736206,0.01289781
1300.01616943,0.01305959
1301.94497681,0.01313811
1303.87378418,0.01309983
1305.80259155,0.01314570
1307.73139893,0.01353313
1309.66020630,0.01390671
1311.58901367,0.01391404
1313.51782104,0.01413381
1315.44662842,0.01461507
1317.37543579,0.01478480
1319.30424316,0.01520844
1321.23305054,0.01583017
1323.16185791,0.01622486
1325.09066528,0.01680730
1327.01947266,0.01730415
1328.94828003,0.01780303
1330.87708740,0.01828707
1332.80589478,0.01853829
1334.73470215,0.01883053
1336.66350952,0.01896359
1338.59231689,0.01891964
1340.52112427,0.01924833
1342.44993164,0.01995084
1344.37873901,0.02026456
1346.30754639,0.02021201
1348.23635376,0.02000905
1350.16516113,0.01991370
1352.09396851,0.01997433
1354.02277588,0.01980628
1355.95158325,0.01962044
1357.88039062,0.01929417
1359.80919800,0.01916149
1361.73800537,0.01843993
1363.66681274,0.01807360
1365.59562012,0.01918868
1367.52442749,0.01856912
1369.45323486,0.01828849
1371.38204224,0.01885310
1373.31084961,0.01763158
1375.23965698,0.01771906
1377.16846436,0.01842902
1379.09727173,0.01846693
1381.02607910,0.01837163
1382.95488647,0.01828453
1384.88369385,0.01839496
1386.81250122,0.01736807
1388.74130859,0.01757956
1390.67011597,0.01915222
1392.59892334,0.01861845
1394.52773071,0.01746838
1396.45653809,0.01843766
1398.38534546,0.01842899
1400.31415283,0.01810480
1402.24296021,0.01971287
1404.17176758,0.01873215
1406.10057495,0.01869678
1408.02938232,0.01962356
1409.95818970,0.01880324
1411.88699707,0.01920800
1413.81580444,0.01866975
1415.74461182,0.01906115
1417.67341919,0.01724670
1419.60222656,0.01514446
1421.53103394,0.01769562
1423.45984131,0.01724396
1425.38864868,0.01642495
1427.31745605,0.01682932
1429.24626343,0.01565371
1431.17507080,0.01506302
1433.10387817,0.01530396
1435.03268555,0.01404316
1436.96149292,0.01187390
1438.89030029,0.01362912
1440.81910767,0.01396023
1442.74791504,0.01286709
1444.67672241,0.01370069
1446.60552979,0.01259407
1448.53433716,0.01274783
1450.46314453,0.01320477
1452.39195190,0.01348593
1454.32075928,0.01399797
1456.24956665,0.01141543
1458.17837402,0.01175342
1460.10718140,0.01595285
1462.03598877,0.01711382
1463.96479614,0.01677347
1465.89360352,0.01756025
1467.82241089,0.01992784
1469.75121826,0.02138061
1471.68002563,0.01902448
1473.60883301,0.01983525
1475.53764038,0.02268588
1477.46644775,0.02438247
1479.39525513,0.02701184
1481.32406250,0.02735455
1483.25286987,0.02891841
1485.18167725,0.03015944
1487.11048462,0.02955899
1489.03929199,0.02910909
1490.96809937,0.02926061
1492.89690674,0.03426374
1494.82571411,0.03363283
1496.75452148,0.03004802
1498.68332886,0.03388245
1500.61213623,0.03507935
1502.54094360,0.03769001
1504.46975098,0.03589269
1506.39855835,0.02582996
1508.32736572,0.03124239
1510.25617310,0.03722551
1512.18498047,0.03582209
1514.11378784,0.03915354
1516.04259521,0.03522943
1517.97140259,0.03634871
1519.90020996,0.03558108
1521.82901733,0.03042334
1523.75782471,0.03764646
1525.68663208,0.03707468
1527.61543945,0.03661068
1529.54424683,0.04110376
1531.47305420,0.03934048
1533.40186157,0.03578609
1535.33066895,0.03791600
1537.25947632,0.04118410
1539.18828369,0.02932776
1541.11709106,0.02986771
1543.04589844,0.03638875
1544.97470581,0.03498892
1546.90351318,0.04183064
1548.83232056,0.03892130
1550.76112793,0.04006286
1552.68993530,0.04020511
1554.61874268,0.03591224
1556.54755005,0.03876255
1558.47635742,0.02731461
1560.40516479,0.02886335
1562.33397217,0.04203638
1564.26277954,0.04000985
1566.19158691,0.04089357
1568.12039429,0.04071438
1570.04920166,0.03570996
1571.97800903,0.04114721
1573.90681641,0.04227551
1575.83562378,0.03302508
1577.76443115,0.03715893
1579.69323853,0.04250542
1581.62204590,0.04048211
1583.55085327,0.04158986
1585.47966064,0.04102678
1587.40846802,0.04133631
1589.33727539,0.04098601
1591.26608276,0.04087175
1593.19489014,0.04093692
1595.12369751,0.04031745
1597.05250488,0.04088858
1598.98131226,0.04069822
1600.91011963,0.04078421
1602.83892700,0.03985666
1604.76773437,0.04068027
1606.69654175,0.04008385
1608.62534912,0.03979836
1610.55415649,0.03980251
1612.48296387,0.04010902
1614.41177124,0.04089531
1616.34057861,0.03322421
1618.26938599,0.03555889
1620.19819336,0.04170400
1622.12700073,0.03693591
1624.05580811,0.03680883
1625.98461548,0.03877617
1627.91342285,0.03859122
1629.84223022,0.03825403
1631.77103760,0.04118497
1633.69984497,0.03799932
1635.62865234,0.03094985
1637.55745972,0.03604993
1639.48626709,0.04000930
1641.41507446,0.03929133
1643.34388184,0.04043724
1645.27268921,0.03645881
1647.20149658,0.03158668
1649.13030396,0.03953449
1651.05911133,0.03828625
1652.98791870,0.02404594
1654.91672607,0.03252810
1656.84553345,0.04194099
1658.77434082,0.04004998
1660.70314819,0.04154517
1662.63195557,0.03780870
1664.56076294,0.03949518
1666.48957031,0.04329027
1668.41837769,0.03775536
1670.34718506,0.03624191
1672.27599243,0.04160545
1674.20479980,0.03863611
1676.13360718,0.03694576
1678.06241455,0.04279954
1679.99122192,0.04156940
1681.92002930,0.04109528
1683.84883667,0.03323421
1685.77764404,0.03256793
1687.70645142,0.04554772
1689.63525879,0.03974798
1691.56406616,0.04359369
1693.49287354,0.04511665
1695.42168091,0.03215491
1697.35048828,0.04003686
1699.27929565,0.03573060
1701.20810303,0.03128802
1703.13691040,0.04377500
1705.06571777,0.04036860
1706.99452515,0.04043576
1708.92333252,0.04427013
1710.85213989,0.04242691
1712.78094727,0.04343573
1714.70975464,0.04022234
1716.63856201,0.03612170
1718.56736938,0.03527520
1720.49617676,0.04200100
1722.42498413,0.04428206
1724.35379150,0.04081276
1726.28259888,0.04471089
1728.21140625,0.04127269
1730.14021362,0.04128175
1732.06902100,0.04085122
1733.99782837,0.03077337
1735.92663574,0.03815930
1737.85544312,0.04274232
1739.78425049,0.03780606
1741.71305786,0.04124174
1743.64186523,0.04191153
1745.57067261,0.04190508
1747.49947998,0.04229145
1749.42828735,0.04058376
1751.35709473,0.03860919
1753.28590210,0.04279491
1755.21470947,0.04542911
1757.14351685,0.04099562
1759.07232422,0.04513685
1761.00113159,0.04278388
1762.92993896,0.04075847
1764.85874634,0.04728335
1766.78755371,0.04266478
1768.71636108,0.04263093
1770.64516846,0.04251368
1772.57397583,0.03804896
1774.50278320,0.04260956
1776.43159058,0.04514263
1778.36039795,0.04460039
1780.28920532,0.04406487
1782.21801270,0.04436328
1784.14682007,0.04426663
1786.07562744,0.04330651
1788.00443481,0.04594699
1789.93324219,0.04486492
1791.86204956,0.04026132
1793.79085693,0.04201220
1795.71966431,0.04529773
1797.64847168,0.04472163
1799.57727905,0.04402936
1801.50608643,0.04319235
1803.43489380,0.04459835
1805.36370117,0.04582990
1807.29250854,0.04515185
1809.22131592,0.04534102
1811.15012329,0.04416053
1813.07893066,0.04549039
1815.00773804,0.04582957
1816.93654541,0.04523542
1818.86535278,0.04564258
1820.79416016,0.04545763
1822.72296753,0.04630189
1824.65177490,0.04325535
1826.58058228,0.04472613
1828.50938965,0.04500670
1830.43819702,0.04193853
1832.36700439,0.04579429
1834.29581177,0.04558419
1836.22461914,0.04536188
1838.15342651,0.04548752
1840.08223389,0.04574634
1842.01104126,0.04582717
1843.93984863,0.04053694
1845.86865601,0.04313637
1847.79746338,0.04584007
1849.72627075,0.04478854
1851.65507812,0.04608570
1853.58388550,0.04531752
1855.51269287,0.04579645
1857.44150024,0.04558901
1859.37030762,0.04540821
1861.29911499,0.04560322
1863.22792236,0.04505584
1865.15672974,0.04570219
1867.08553711,0.04420195
1869.01434448,0.04220305
1870.94315186,0.04378112
1872.87195923,0.04582596
1874.80076660,0.04510257
1876.72957397,0.04519110
1878.65838135,0.04523782
1880.58718872,0.04488324
1882.51599609,0.04534773
1884.44480347,0.04466715
1886.37361084,0.04534952
1888.30241821,0.04429209
1890.23122559,0.04318308
1892.16003296,0.04522040
1894.08884033,0.04453924
1896.01764771,0.04408966
1897.94645508,0.04489551
1899.87526245,0.04473404
1901.80406982,0.04501321
1903.73287720,0.04453226
1905.66168457,0.04457486
1907.59049194,0.04442878
1909.51929932,0.04399439
1911.44810669,0.04433981
1913.37691406,0.04451439
1915.30572144,0.04496420
1917.23452881,0.04297303
1919.16333618,0.04285648
1921.09214355,0.04470570
1923.02095093,0.04308753
1924.94975830,0.04406811
1926.87856567,0.04479538
1928.80737305,0.04401154
1930.73618042,0.04466968
1932.66498779,0.04407519
1934.59379517,0.04447873
1936.52260254,0.04413592
1938.45140991,0.04432459
1940.38021729,0.04436127
1942.30902466,0.04290672
1944.23783203,0.04389863
1946.16663940,0.04419058
1948.09544678,0.04410227
1950.02425415,0.04422429
1951.95306152,0.04407338
1953.88186890,0.04421532
1955.81067627,0.04392909
1957.73948364,0.04433138
1959.66829102,0.04417365
1961.59709839,0.04409455
1963.52590576,0.04433048
1965.45471313,0.04404429
1967.38352051,0.04362594
1969.31232788,0.04386688
1971.24113525,0.04437565
1973.16994263,0.04404150
1975.09875000,0.04433427
1977.02755737,0.04417980
1978.95636475,0.04412270
1980.88517212,0.04417185
1982.81397949,0.04374072
1984.74278687,0.04408316
1986.67159424,0.04373748
1988.60040161,0.04385492
1990.52920898,0.04353840
1992.45801636,0.04296609
1994.38682373,0.04379410
1996.31563110,0.04382923
1998.24443848,0.04361480
2000.17324585,0.04357103
2002.10205322,0.04360107
2004.03086060,0.04362889
2005.95966797,0.04348128
2007.88847534,0.04341386
2009.81728271,0.04324958
2011.74609009,0.04334423
2013.67489746,0.04318190
2015.60370483,0.04296676
2017.53251221,0.04286385
2019.46131958,0.04285643
2021.39012695,0.04304103
2023.31893433,0.04298741
2025.24774170,0.04282504
2027.17654907,0.04270611
2029.10535645,0.04281345
2031.03416382,0.04265429
2032.96297119,0.04249728
2034.89177856,0.04267465
2036.82058594,0.04263347
2038.74939331,0.04249902
2040.67820068,0.04221728
2042.60700806,0.04212884
2044.53581543,0.04224166
2046.46462280,0.04211391
2048.39343018,0.04210010
2050.32223755,0.04217872
2052.25104492,0.04207939
2054.17985229,0.04194354
2056.10865967,0.04184964
2058.03746704,0.04179878
2059.96627441,0.04187804
2061.89508179,0.04185384
2063.82388916,0.04153523
2065.75269653,0.04154006
2067.68150391,0.04174565
2069.61031128,0.04156303
2071.53911865,0.04155406
2073.46792603,0.04154463
2075.39673340,0.04141909
2077.32554077,0.04135936
2079.25434814,0.04113445
2081.18315552,0.04114660
2083.11196289,0.04114532
2085.04077026,0.04115197
2086.96957764,0.04108794
2088.89838501,0.04086631
2090.82719238,0.04086528
2092.75599976,0.04081584
2094.68480713,0.04091087
2096.61361450,0.04090875
2098.54242187,0.04082628
2100.47122925,0.04077074
2102.40003662,0.04063451
2104.32884399,0.04066086
2106.25765137,0.04060592
2108.18645874,0.04058439
2110.11526611,0.04052954
2112.04407349,0.04053065
2113.97288086,0.04045607
2115.90168823,0.04033720
2117.83049561,0.04036772
2119.75930298,0.04029867
2121.68811035,0.04047714
2123.61691772,0.04038584
2125.54572510,0.04019441
2127.47453247,0.04026880
2129.40333984,0.04013322
2131.33214722,0.04005511
2133.26095459,0.04007158
2135.18976196,0.04012819
2137.11856934,0.04012343
2139.04737671,0.04007928
2140.97618408,0.04007032
2142.90499146,0.04008044
2144.83379883,0.04000539
2146.76260620,0.04006025
2148.69141357,0.04019485
2150.62022095,0.03993308
2152.54902832,0.03990546
2154.47783569,0.03988826
2156.40664307,0.03976272
2158.33545044,0.03988074
2160.26425781,0.03978702
2162.19306519,0.03972583
2164.12187256,0.03981764
2166.05067993,0.03976735
2167.97948730,0.03960959
2169.90829468,0.03972303
2171.83710205,0.03973173
2173.76590942,0.03965870
2175.69471680,0.03971458
2177.62352417,0.03952988
2179.55233154,0.03958185
2181.48113892,0.03951432
2183.40994629,0.03943688
2185.33875366,0.03956682
2187.26756104,0.03947382
2189.19636841,0.03954257
2191.12517578,0.03952125
2193.05398315,0.03933439
2194.98279053,0.03925498
2196.91159790,0.03937628
2198.84040527,0.03939253
2200.76921265,0.03920790
2202.69802002,0.03927266
2204.62682739,0.03925068
2206.55563477,0.03911763
2208.48444214,0.03925453
2210.41324951,0.03926991
2212.34205688,0.03904592
2214.27086426,0.03914556
2216.19967163,0.03916631
2218.12847900,0.03901971
2220.05728638,0.03912512
2221.98609375,0.03912544
2223.91490112,0.03903126
2225.84370850,0.03888804
2227.77251587,0.03888845
2229.70132324,0.03890895
2231.63013062,0.03882467
2233.55893799,0.03876762
2235.48774536,0.03875263
2237.41655273,0.03879546
2239.34536011,0.03861980
2241.27416748,0.03870079
2243.20297485,0.03869124
2245.13178223,0.03859548
2247.06058960,0.03876479
2248.98939697,0.03861324
2250.91820435,0.03853960
2252.84701172,0.03845803
2254.77581909,0.03847792
2256.70462646,0.03850408
2258.63343384,0.03838791
2260.56224121,0.03840158
2262.49104858,0.03827944
2264.41985596,0.03841894
2266.34866333,0.03834701
2268.27747070,0.03817367
2270.20627808,0.03829915
2272.13508545,0.03824751
2274.06389282,0.03823762
2275.99270020,0.03817542
2277.92150757,0.03812400
2279.85031494,0.03808507
2281.77912231,0.03809128
2283.70792969,0.03822133
2285.63673706,0.03819985
2287.56554443,0.03804069
2289.49435181,0.03785590
2291.42315918,0.03782601
2293.35196655,0.03776954
2295.28077393,0.03773970
2297.20958130,0.03778984
2299.13838867,0.03754631
2301.06719604,0.03730367
2302.99600342,0.03728257
2304.92481079,0.03707802
2306.85361816,0.03675580
2308.78242554,0.03652282
2310.71123291,0.03624209
2312.64004028,0.03590412
2314.56884766,0.03558631
2316.49765503,0.03523795
2318.42646240,0.03470103
2320.35526978,0.03431106
2322.28407715,0.03397712
2324.21288452,0.03352103
2326.14169189,0.03306897
2328.07049927,0.03261584
2329.99930664,0.03241203
2331.92811401,0.03197506
2333.85692139,0.03191196
2335.78572876,0.03204166
2337.71453613,0.03171349
2339.64334351,0.03183620
2341.57215088,0.03196344
2343.50095825,0.03242689
2345.42976562,0.03308475
2347.35857300,0.03437017
2349.28738037,0.03573943
2351.21618774,0.03446408
2353.14499512,0.03263927
2355.07380249,0.03150067
2357.00260986,0.03048303
2358.93141724,0.02997522
2360.86022461,0.02951200
2362.78903198,0.02952215
2364.71783936,0.02971878
2366.64664673,0.03010593
2368.57545410,0.03074525
2370.50426147,0.03148797
2372.43306885,0.03242978
2374.36187622,0.03328538
2376.29068359,0.03423633
2378.21949097,0.03502626
2380.14829834,0.03563135
2382.07710571,0.03618300
2384.00591309,0.03652089
2385.93472046,0.03653388
2387.86352783,0.03663733
2389.79233521,0.03672852
2391.72114258,0.03655010
2393.64994995,0.03673707
2395.57875732,0.03667372
2397.50756470,0.03647113
2399.43637207,0.03658003
2401.36517944,0.03658618
2403.29398682,0.03655173
2405.22279419,0.03651326
2407.15160156,0.03648891
2409.08040894,0.03635138
2411.00921631,0.03640378
2412.93802368,0.03630503
2414.86683105,0.03621374
2416.79563843,0.03640734
2418.72444580,0.03625849
2420.65325317,0.03632548
2422.58206055,0.03629697
2424.51086792,0.03609058
2426.43967529,0.03617278
2428.36848267,0.03612421
2430.29729004,0.03606096
2432.22609741,0.03604412
2434.15490479,0.03601808
2436.08371216,0.03595762
2438.01251953,0.03588353
2439.94132690,0.03588898
2441.87013428,0.03598064
2443.79894165,0.03591054
2445.72774902,0.03583978
2447.65655640,0.03599600
2449.58536377,0.03590202
2451.51417114,0.03571204
2453.44297852,0.03571644
2455.37178589,0.03578818
2457.30059326,0.03572199
2459.22940063,0.03568034
2461.15820801,0.03571347
2463.08701538,0.03560512
2465.01582275,0.03554768
2466.94463013,0.03553955
2468.87343750,0.03559978
2470.80224487,0.03552020
2472.73105225,0.03543815
2474.65985962,0.03542535
2476.58866699,0.03532449
2478.51747437,0.03533022
2480.44628174,0.03533661
2482.37508911,0.03545128
2484.30389648,0.03539389
2486.23270386,0.03543060
2488.16151123,0.03545893
2490.09031860,0.03515987
2492.01912598,0.03514992
2493.94793335,0.03506297
2495.87674072,0.03505267
2497.80554810,0.03507129
2499.73435547,0.03502434
2501.66316284,0.03510067
2503.59197021,0.03499138
2505.52077759,0.03497844
2507.44958496,0.03494569
2509.37839233,0.03495040
2511.30719971,0.03488600
2513.23600708,0.03487466
2515.16481445,0.03489930
2517.09362183,0.03475291
2519.02242920,0.03482129
2520.95123657,0.03471332
2522.88004395,0.03476894
2524.80885132,0.03475281
2526.73765869,0.03463735
2528.66646606,0.03481309
2530.59527344,0.03463012
2532.52408081,0.03464325
2534.45288818,0.03458051
2536.38169556,0.03446236
2538.31050293,0.03466644
2540.23931030,0.03454518
2542.16811768,0.03448340
2544.09692505,0.03448479
2546.02573242,0.03447566
2547.95453979,0.03447686
2549.88334717,0.03440960
2551.81215454,0.03441320
2553.74096191,0.03423239
2555.66976929,0.03418616
2557.59857666,0.03428899
2559.52738403,0.03425611
2561.45619141,0.03432639
2563.38499878,0.03429033
2565.31380615,0.03418995
2567.24261353,0.03417797
2569.17142090,0.03405325
2571.10022827,0.03409106
2573.02903564,0.03407506
2574.95784302,0.03392475
2576.88665039,0.03402271
2578.81545776,0.03397105
2580.74426514,0.03387034
2582.67307251,0.03397109
2584.60187988,0.03399987
2586.53068726,0.03393801
2588.45949463,0.03388487
2590.38830200,0.03385057
2592.31710937,0.03377943
2594.24591675,0.03370892
2596.17472412,0.03363889
2598.10353149,0.03372420
2600.03233887,0.03375969
2601.96114624,0.03361538
2603.88995361,0.03369283
2605.81876099,0.03369191
2607.74756836,0.03359234
2609.67637573,0.03358340
2611.60518311,0.03350992
2613.53399048,0.03351841
2615.46279785,0.03344721
2617.39160522,0.03340255
2619.32041260,0.03343843
2621.24921997,0.03334568
2623.17802734,0.03335276
2625.10683472,0.03325180
2627.03564209,0.03319515
2628.96444946,0.03328825
2630.89325684,0.03314485
2632.82206421,0.03314746
2634.75087158,0.03314782
2636.67967895,0.03304308
2638.60848633,0.03308036
2640.53729370,0.03303525
2642.46610107,0.03306430
2644.39490845,0.03305234
2646.32371582,0.03298766
2648.25252319,0.03299553
2650.18133057,0.03291300
2652.11013794,0.03277224
2654.03894531,0.03269185
2655.96775269,0.03282221
2657.89656006,0.03280710
2659.82536743,0.03264605
2661.75417480,0.03270590
2663.68298218,0.03267857
2665.61178955,0.03256057
2667.54059692,0.03269527
2669.46940430,0.03272717
2671.39821167,0.03252392
2673.32701904,0.03254887
2675.25582642,0.03255705
2677.18463379,0.03246829
2679.11344116,0.03243781
2681.04224854,0.03234930
2682.97105591,0.03234144
2684.89986328,0.03231870
2686.82867065,0.03222483
2688.75747803,0.03219711
2690.68628540,0.03229298
2692.61509277,0.03226350
2694.54390015,0.03211424
2696.47270752,0.03207371
2698.40151489,0.03211553
2700.33032227,0.03219983
2702.25912964,0.03203800
2704.18793701,0.03192225
2706.11674438,0.03199314
2708.04555176,0.03197747
2709.97435913,0.03195678
2711.90316650,0.03186362
2713.83197388,0.03180712
2715.76078125,0.03183845
2717.68958862,0.03184313
2719.61839600,0.03175071
2721.54720337,0.03175408
2723.47601074,0.03171629
2725.40481812,0.03159961
2727.33362549,0.03168874
2729.26243286,0.03166881
2731.19124023,0.03162597
2733.12004761,0.03152640
2735.04885498,0.03145868
2736.97766235,0.03146409
2738.90646973,0.03144846
2740.83527710,0.03146067
2742.76408447,0.03121281
2744.69289185,0.03138657
2746.62169922,0.03146464
2748.55050659,0.03113500
2750.47931396,0.03124757
2752.40812134,0.03125049
2754.33692871,0.03116660
2756.26573608,0.03112944
2758.19454346,0.03106547
2760.12335083,0.03099639
2762.05215820,0.03094632
2763.98096558,0.03097487
2765.90977295,0.03086091
2767.83858032,0.03084992
2769.76738770,0.03080987
2771.69619507,0.03076896
2773.62500244,0.03075222
2775.55380981,0.03065372
2777.48261719,0.03065594
2779.41142456,0.03066255
2781.34023193,0.03065381
2783.26903931,0.03054747
2785.19784668,0.03052287
2787.12665405,0.03045494
2789.05546143,0.03037625
2790.98426880,0.03042115
2792.91307617,0.03037401
2794.84188354,0.03042773
2796.77069092,0.03032650
2798.69949829,0.03024863
2800.62830566,0.03030124
2802.55711304,0.03020275
2804.48592041,0.03021324
2806.41472778,0.03013353
2808.34353516,0.02998002
2810.27234253,0.02998456
2812.20114990,0.03000920
2814.12995728,0.02993231
2816.05876465,0.02979656
2817.98757202,0.02977744
2819.91637939,0.02978680
2821.84518677,0.02973309
2823.77399414,0.02971138
2825.70280151,0.02963518
2827.63160889,0.02953864
2829.56041626,0.02948846
2831.48922363,0.02941765
2833.41803101,0.02944272
2835.34683838,0.02939789
2837.27564575,0.02927788
2839.20445312,0.02928190
2841.13326050,0.02926306
2843.06206787,0.02915243
2844.99087524,0.02907819
2846.91968262,0.02897019
2848.84848999,0.02866275
2850.77729736,0.02863107
2852.70610474,0.02870757
2854.63491211,0.02862639
2856.56371948,0.02866687
2858.49252686,0.02858543
2860.42133423,0.02858318
2862.35014160,0.02849909
2864.27894897,0.02839049
2866.20775635,0.02848892
2868.13656372,0.02842519
2870.06537109,0.02836320
2871.99417847,0.02824727
2873.92298584,0.02822238
2875.85179321,0.02826665
2877.78060059,0.02818019
2879.70940796,0.02814837
2881.63821533,0.02812361
2883.56702270,0.02812726
2885.49583008,0.02811788
2887.42463745,0.02809419
2889.35344482,0.02799005
2891.28225220,0.02788784
2893.21105957,0.02788535
2895.13986694,0.02786539
2897.06867432,0.02774087
2898.99748169,0.02762559
2900.92628906,0.02763161
2902.85509644,0.02757024
2904.78390381,0.02756959
2906.71271118,0.02747767
2908.64151855,0.02738209
2910.57032593,0.02732909
2912.49913330,0.02715853
2914.42794067,0.02710504
2916.35674805,0.02693427
2918.28555542,0.02692451
2920.21436279,0.02692270
2922.14317017,0.02680835
2924.07197754,0.02685296
2926.00078491,0.02670420
2927.92959229,0.02663990
2929.85839966,0.02666971
2931.78720703,0.02669476
2933.71601440,0.02671516
2935.64482178,0.02664581
2937.57362915,0.02660706
2939.50243652,0.02669140
2941.43124390,0.02673505
2943.36005127,0.02658188
2945.28885864,0.02662667
2947.21766602,0.02656902
2949.14647339,0.02645323
2951.07528076,0.02644896
2953.00408813,0.02639173
2954.93289551,0.02640940
2956.86170288,0.02623170
2958.79051025,0.02620085
2960.71931763,0.02620066
2962.64812500,0.02605221
2964.57693237,0.02598318
2966.50573975,0.02598609
2968.43454712,0.02604084
2970.36335449,0.02593144
2972.29216187,0.02600820
2974.22096924,0.02599608
2976.14977661,0.02595705
2978.07858398,0.02614672
2980.00739136,0.02607054
2981.93619873,0.02597091
2983.86500610,0.02595610
2985.79381348,0.02605026
2987.72262085,0.02598638
2989.65142822,0.02580133
2991.58023560,0.02589902
2993.50904297,0.02584165
2995.43785034,0.02573974
2997.36665771,0.02580028
2999.29546509,0.02573890
3001.22427246,0.02572553
3003.15307983,0.02566830
3005.08188721,0.02546152
3007.01069458,0.02552310
3008.93950195,0.02552225
3010.86830933,0.02536674
3012.79711670,0.02536135
3014.72592407,0.02529007
3016.65473145,0.02521984
3018.58353882,0.02516057
3020.51234619,0.02515019
3022.44115356,0.02506988
3024.36996094,0.02499363
3026.29876831,0.02502530
3028.22757568,0.02495598
3030.15638306,0.02488903
3032.08519043,0.02472325
3034.01399780,0.02463811
3035.94280518,0.02470752
3037.87161255,0.02476317
3039.80041992,0.02459700
3041.72922729,0.02446869
3043.65803467,0.02455178
3045.58684204,0.02433101
3047.51564941,0.02431617
3049.44445679,0.02430196
3051.37326416,0.02415502
3053.30207153,0.02426714
3055.23087891,0.02414953
3057.15968628,0.02402872
3059.08849365,0.02399998
3061.01730103,0.02398412
3062.94610840,0.02392310
3064.87491577,0.02382906
3066.80372314,0.02379422
3068.73253052,0.02373736
3070.66133789,0.02370741
3072.59014526,0.02361670
3074.51895264,0.02357257
3076.44776001,0.02347183
3078.37656738,0.02344286
3080.30537476,0.02333927
3082.23418213,0.02322467
3084.16298950,0.02334747
3086.09179687,0.02322090
3088.02060425,0.02321374
3089.94941162,0.02318976
3091.87821899,0.02302838
3093.80702637,0.02301867
3095.73583374,0.02288280
3097.66464111,0.02277057
3099.59344849,0.02273373
3101.52225586,0.02272363
3103.45106323,0.02264568
3105.37987061,0.02261033
3107.30867798,0.02258361
3109.23748535,0.02250163
3111.16629272,0.02241526
3113.09510010,0.02227519
3115.02390747,0.02222120
3116.95271484,0.02208581
3118.88152222,0.02207795
3120.81032959,0.02200278
3122.73913696,0.02187329
3124.66794434,0.02194662
3126.59675171,0.02176093
3128.52555908,0.02171572
3130.45436645,0.02176851
3132.38317383,0.02162457
3134.31198120,0.02149349
3136.24078857,0.02141666
3138.16959595,0.02142169
3140.09840332,0.02130340
3142.02721069,0.02119914
3143.95601807,0.02109149
3145.88482544,0.02094982
3147.81363281,0.02099233
3149.74244019,0.02094032
3151.67124756,0.02076800
3153.60005493,0.02074818
3155.52886230,0.02073445
3157.45766968,0.02062887
3159.38647705,0.02056311
3161.31528442,0.02052822
3163.24409180,0.02043859
3165.17289917,0.02034202
3167.10170654,0.02028800
3169.03051392,0.02016614
3170.95932129,0.02013172
3172.88812866,0.02011167
3174.81693604,0.01990812
3176.74574341,0.01970957
3178.67455078,0.01965520
3180.60335815,0.01975672
3182.53216553,0.01972209
3184.46097290,0.01960441
3186.38978027,0.01950372
3188.31858765,0.01939751
3190.24739502,0.01933592
3192.17620239,0.01928165
3194.10500977,0.01930858
3196.03381714,0.01914998
3197.96262451,0.01899746
3199.89143188,0.01899414
3201.82023926,0.01902261
3203.74904663,0.01894957
3205.67785400,0.01883313
3207.60666138,0.01893488
3209.53546875,0.01875004
3211.46427612,0.01864193
3213.39308350,0.01868404
3215.32189087,0.01861874
3217.25069824,0.01861084
3219.17950562,0.01844699
3221.10831299,0.01847060
3223.03712036,0.01845152
3224.96592773,0.01841315
3226.89473511,0.01836857
3228.82354248,0.01826692
3230.75234985,0.01836298
3232.68115723,0.01826593
3234.60996460,0.01814141
3236.53877197,0.01808497
3238.46757935,0.01817620
3240.39638672,0.01816001
3242.32519409,0.01801932
3244.25400146,0.01804822
3246.18280884,0.01803331
3248.11161621,0.01811141
3250.04042358,0.01802044
3251.96923096,0.01794209
3253.89803833,0.01791452
3255.82684570,0.01785220
3257.75565308,0.01786175
3259.68446045,0.01776986
3261.61326782,0.01789006
3263.54207520,0.01789062
3265.47088257,0.01778807
3267.39968994,0.01783697
3269.32849731,0.01780579
3271.25730469,0.01773787
3273.18611206,0.01769382
3275.11491943,0.01763892
3277.04372681,0.01765042
3278.97253418,0.01778541
3280.90134155,0.01772198
3282.83014893,0.01765268
3284.75895630,0.01764268
3286.68776367,0.01762626
3288.61657104,0.01759461
3290.54537842,0.01753740
3292.47418579,0.01758669
3294.40299316,0.01751375
3296.33180054,0.01753681
3298.26060791,0.01743725
3300.18941528,0.01739771
3302.11822266,0.01750158
3304.04703003,0.01739630
3305.97583740,0.01746487
3307.90464478,0.01738873
3309.83345215,0.01726501
3311.76225952,0.01730503
3313.69106689,0.01739234
3315.61987427,0.01730732
3317.54868164,0.01726183
3319.47748901,0.01744513
3321.40629639,0.01728604
3323.33510376,0.01723086
3325.26391113,0.01723746
3327.19271851,0.01717537
3329.12152588,0.01716711
3331.05033325,0.01720854
3332.97914062,0.01723601
3334.90794800,0.01697767
3336.83675537,0.01703995
3338.76556274,0.01710579
3340.69437012,0.01697718
3342.62317749,0.01706633
3344.55198486,0.01715234
3346.48079224,0.01700784
3348.40959961,0.01700232
3350.33840698,0.01711637
3352.26721436,0.01693469
3354.19602173,0.01697049
3356.12482910,0.01686762
3358.05363647,0.01687937
3359.98244385,0.01695820
3361.91125122,0.01678123
3363.84005859,0.01686892
3365.76886597,0.01668302
3367.69767334,0.01670981
3369.62648071,0.01678637
3371.55528809,0.01672978
3373.48409546,0.01673290
3375.41290283,0.01670749
3377.34171020,0.01681078
3379.27051758,0.01665603
3381.19932495,0.01672815
3383.12813232,0.01666366
3385.05693970,0.01663233
3386.98574707,0.01665885
3388.91455444,0.01660694
3390.84336182,0.01671903
3392.77216919,0.01646489
3394.70097656,0.01662139
3396.62978394,0.01662199
3398.55859131,0.01657081
3400.48739868,0.01665545
3402.41620605,0.01649250
3404.34501343,0.01662735
3406.27382080,0.01656057
3408.20262817,0.01659980
3410.13143555,0.01649760
3412.06024292,0.01651646
3413.98905029,0.01661076
3415.91785767,0.01653588
3417.84666504,0.01660575
3419.77547241,0.01632154
3421.70427979,0.01644298
3423.63308716,0.01650593
3425.56189453,0.01650586
3427.49070190,0.01660794
3429.41950928,0.01644317
3431.34831665,0.01647575
3433.27712402,0.01650223
3435.20593140,0.01657270
3437.13473877,0.01643471
3439.06354614,0.01653812
3440.99235352,0.01653199
3442.92116089,0.01641713
3444.84996826,0.01653681
3446.77877563,0.01626760
3448.70758301,0.01642597
3450.63639038,0.01657513
3452.56519775,0.01653494
3454.49400513,0.01654720
3456.42281250,0.01653511
3458.35161987,0.01661234
3460.28042725,0.01649529
3462.20923462,0.01661681
3464.13804199,0.01660534
3466.06684937,0.01650647
3467.99565674,0.01661676
3469.92446411,0.01665741
3471.85327148,0.01663903
3473.78207886,0.01668495
3475.71088623,0.01668622
3477.63969360,0.01665555
3479.56850098,0.01676789
3481.49730835,0.01660415
3483.42611572,0.01659644
3485.35492310,0.01667508
3487.28373047,0.01667234
3489.21253784,0.01672472
3491.14134521,0.01674899
3493.07015259,0.01694006
3494.99895996,0.01683465
3496.92776733,0.01685801
3498.85657471,0.01697999
3500.78538208,0.01686819
3502.71418945,0.01652968
3504.64299683,0.01655403
3506.57180420,0.01708846
3508.50061157,0.01685889
3510.42941895,0.01673455
3512.35822632,0.01697718
3514.28703369,0.01707197
3516.21584106,0.01710873
3518.14464844,0.01709003
3520.07345581,0.01720657
3522.00226318,0.01701020
3523.93107056,0.01687866
3525.85987793,0.01690326
3527.78868530,0.01689290
3529.71749268,0.01689146
3531.64630005,0.01713777
3533.57510742,0.01734881
3535.50391479,0.01711957
3537.43272217,0.01717017
3539.36152954,0.01734164
3541.29033691,0.01738762
3543.21914429,0.01725024
3545.14795166,0.01689173
3547.07675903,0.01661675
3549.00556641,0.01714499
3550.93437378,0.01739304
3552.86318115,0.01690463
3554.79198853,0.01732007
3556.72079590,0.01740764
3558.64960327,0.01736788
3560.57841064,0.01732530
3562.50721802,0.01723094
3564.43602539,0.01745575
3566.36483276,0.01617831
3568.29364014,0.01578408
3570.22244751,0.01715145
3572.15125488,0.01760357
3574.08006226,0.01736982
3576.00886963,0.01751639
3577.93767700,0.01747691
3579.86648437,0.01738611
3581.79529175,0.01756297
3583.72409912,0.01757953
3585.65290649,0.01733237
3587.58171387,0.01586189
3589.51052124,0.01623761
3591.43932861,0.01790392
3593.36813599,0.01728109
3595.29694336,0.01702712
3597.22575073,0.01740994
3599.15455811,0.01761978
3601.08336548,0.01747339
3603.01217285,0.01747124
3604.94098022,0.01789252
3606.86978760,0.01727016
3608.79859497,0.01623501
3610.72740234,0.01666935
3612.65620972,0.01711567
3614.58501709,0.01659900
3616.51382446,0.01784329
3618.44263184,0.01656386
3620.37143921,0.01589704
3622.30024658,0.01808035
3624.22905395,0.01755174
3626.15786133,0.01839076
3628.08666870,0.01572065
3630.01547607,0.01407576
3631.94428345,0.01783368
3633.87309082,0.01751351
3635.80189819,0.01770504
3637.73070557,0.01819839
3639.65951294,0.01794934
3641.58832031,0.01795726
3643.51712769,0.01786512
3645.44593506,0.01814873
3647.37474243,0.01616582
3649.30354980,0.01488271
3651.23235718,0.01500169
3653.16116455,0.01790091
3655.08997192,0.01788886
3657.01877930,0.01581768
3658.94758667,0.01831334
3660.87639404,0.01810639
3662.80520142,0.01825703
3664.73400879,0.01831287
3666.66281616,0.01815621
3668.59162354,0.01765586
3670.52043091,0.01431030
3672.44923828,0.01729925
3674.37804565,0.01676621
3676.30685303,0.01368846
3678.23566040,0.01721680
3680.16446777,0.01786648
3682.09327515,0.01779987
3684.02208252,0.01838447
3685.95088989,0.01809405
3687.87969727,0.01628365
3689.80850464,0.01485978
3691.73731201,0.01694893
3693.66611938,0.01753384
3695.59492676,0.01799200
3697.52373413,0.01808161
3699.45254150,0.01784479
3701.38134888,0.01748541
3703.31015625,0.01674509
3705.23896362,0.01836562
3707.16777100,0.01760835
3709.09657837,0.01706591
3711.02538574,0.01612216
3712.95419312,0.01511478
3714.88300049,0.01775090
3716.81180786,0.01748361
3718.74061523,0.01754748
3720.66942261,0.01725938
3722.59822998,0.01663120
3724.52703735,0.01729117
3726.45584473,0.01598136
3728.38465210,0.01733931
3730.31345947,0.01717438
3732.24226685,0.01575372
3734.17107422,0.01544743
3736.09988159,0.01456624
3738.02868896,0.01547830
3739.95749634,0.01683200
3741.88630371,0.01766237
3743.81511108,0.01369262
3745.74391846,0.01276933
3747.67272583,0.01684644
3749.60153320,0.01451294
3751.53034058,0.01318025
3753.45914795,0.01522923
3755.38795532,0.01641411
3757.31676270,0.01716040
3759.24557007,0.01592295
3761.17437744,0.01638938
3763.10318481,0.01751422
3765.03199219,0.01630567
3766.96079956,0.01654551
3768.88960693,0.01646730
3770.81841431,0.01570222
3772.74722168,0.01705448
3774.67602905,0.01709603
3776.60483643,0.01705159
3778.53364380,0.01665906
3780.46245117,0.01598828
3782.39125854,0.01703830
3784.32006592,0.01662679
3786.24887329,0.01656705
3788.17768066,0.01695987
3790.10648804,0.01685553
3792.03529541,0.01669870
3793.96410278,0.01696399
3795.89291016,0.01605726
3797.82171753,0.01580251
3799.75052490,0.01673029
3801.67933228,0.01313982
3803.60813965,0.01528746
3805.53694702,0.01692151
3807.46575439,0.01374223
3809.39456177,0.01663014
3811.32336914,0.01630467
3813.25217651,0.01678736
3815.18098389,0.01522446
3817.10979126,0.01323423
3819.03859863,0.01691262
3820.96740601,0.01368284
3822.89621338,0.01422537
3824.82502075,0.01679876
3826.75382812,0.01517305
3828.68263550,0.01629380
3830.61144287,0.01566600
3832.54025024,0.01510048
3834.46905762,0.01545634
3836.39786499,0.01473235
3838.32667236,0.01327338
3840.25547974,0.01429764
3842.18428711,0.01554291
3844.11309448,0.01491501
3846.04190186,0.01603292
3847.97070923,0.01574691
3849.89951660,0.01590641
3851.82832397,0.01433768
3853.75713135,0.01053093
3855.68593872,0.01254596
3857.61474609,0.01593152
3859.54355347,0.01547104
3861.47236084,0.01527099
3863.40116821,0.01499038
3865.32997559,0.01394946
3867.25878296,0.01554809
3869.18759033,0.01419739
3871.11639770,0.01307920
3873.04520508,0.01553563
3874.97401245,0.01434551
3876.90281982,0.01546768
3878.83162720,0.01579297
3880.76043457,0.01349529
3882.68924194,0.01553764
3884.61804932,0.01461421
3886.54685669,0.01339107
3888.47566406,0.01573178
3890.40447144,0.01486264
3892.33327881,0.01390097
3894.26208618,0.01529010
3896.19089355,0.01557725
3898.11970093,0.01483756
3900.04850830,0.01392082
3901.97731567,0.01377023
3903.90612305,0.01361764
3905.83493042,0.01381252
3907.76373779,0.01529506
3909.69254517,0.01522847
3911.62135254,0.01503246
3913.55015991,0.01539607
3915.47896728,0.01485253
3917.40777466,0.01446851
3919.33658203,0.01430673
3921.26538940,0.01480452
3923.19419678,0.01488903
3925.12300415,0.01451293
3927.05181152,0.01469320
3928.98061890,0.01493145
3930.90942627,0.01459241
3932.83823364,0.01413604
3934.76704102,0.01474165
3936.69584839,0.01487403
3938.62465576,0.01474785
3940.55346313,0.01486063
3942.48227051,0.01430734
3944.41107788,0.01439468
3946.33988525,0.01472141
3948.26869263,0.01432282
3950.19750000,0.01428891
3952.12630737,0.01462509
3954.05511475,0.01450868
3955.98392212,0.01449598
3957.91272949,0.01456669
3959.84153687,0.01453805
3961.77034424,0.01441857
3963.69915161,0.01436103
3965.62795898,0.01453386
3967.55676636,0.01437868
3969.48557373,0.01448220
3971.41438110,0.01445532
3973.34318848,0.01427313
3975.27199585,0.01427219
3977.20080322,0.01420991
3979.12961060,0.01438829
3981.05841797,0.01428807
3982.98722534,0.01429133
3984.91603271,0.01419550
3986.84484009,0.01419802
3988.77364746,0.01426760
3990.70245483,0.01400288
3992.63126221,0.01418033
3994.56006958,0.01413284
3996.48887695,0.01406439
3998.41768433,0.01402610
4000.34649170,0.01403691
4002.27529907,0.01412206
4004.20410645,0.01390704
4006.13291382,0.01398138
4008.06172119,0.01395313
4009.99052856,0.01391153
4011.91933594,0.01390349
4013.84814331,0.01383195
4015.77695068,0.01376566
4017.70575806,0.01379996
4019.63456543,0.01386048
4021.56337280,0.01371032
4023.49218018,0.01382172
4025.42098755,0.01372345
4027.34979492,0.01364615
4029.27860229,0.01371935
4031.20740967,0.01370803
4033.13621704,0.01370176
4035.06502441,0.01358719
4036.99383179,0.01358869
4038.92263916,0.01349492
4040.85144653,0.01363910
4042.78025391,0.01359368
4044.70906128,0.01348112
4046.63786865,0.01349318
4048.56667603,0.01336748
4050.49548340,0.01355428
4052.42429077,0.01339408
4054.35309814,0.01342011
4056.28190552,0.01349011
4058.21071289,0.01331850
4060.13952026,0.01342505
4062.06832764,0.01331639
4063.99713501,0.01326326
4065.92594238,0.01320710
4067.85474976,0.01319365
4069.78355713,0.01324782
4071.71236450,0.01322264
4073.64117187,0.01315123
4075.56997925,0.01309380
4077.49878662,0.01313001
4079.42759399,0.01308922
4081.35640137,0.01307097
4083.28520874,0.01295902
4085.21401611,0.01306962
4087.14282349,0.01301185
4089.07163086,0.01288256
4091.00043823,0.01307297
4092.92924561,0.01291441
4094.85805298,0.01288558
4096.78686035,0.01294994
4098.71566772,0.01293430
4100.64447510,0.01287236
4102.57328247,0.01278868
4104.50208984,0.01280685
4106.43089722,0.01270500
4108.35970459,0.01275472
4110.28851196,0.01273426
4112.21731934,0.01265306
4114.14612671,0.01265060
4116.07493408,0.01269366
4118.00374145,0.01264746
4119.93254883,0.01255084
4121.86135620,0.01265634
4123.79016357,0.01260622
4125.71897095,0.01257289
4127.64777832,0.01254537
4129.57658569,0.01251525
4131.50539307,0.01243503
4133.43420044,0.01234898
4135.36300781,0.01254181
4137.29181519,0.01247315
4139.22062256,0.01234992
4141.14942993,0.01239096
4143.07823730,0.01239012
4145.00704468,0.01234882
4146.93585205,0.01227739
4148.86465942,0.01231257
4150.79346680,0.01232470
4152.72227417,0.01219326
4154.65108154,0.01214360
4156.57988892,0.01231057
4158.50869629,0.01227256
4160.43750366,0.01211053
4162.36631103,0.01206098
4164.29511841,0.01209858
4166.22392578,0.01208280
4168.15273315,0.01194244
4170.08154053,0.01200329
4172.01034790,0.01203330
4173.93915527,0.01199842
4175.86796265,0.01197436
4177.79677002,0.01201475
4179.72557739,0.01198350
4181.65438477,0.01186832
4183.58319214,0.01194751
4185.51199951,0.01185509
4187.44080688,0.01184489
4189.36961426,0.01179181
4191.29842163,0.01177997
4193.22722900,0.01187554
4195.15603638,0.01166479
4197.08484375,0.01172155
4199.01365112,0.01170566
4200.94245850,0.01162741
4202.87126587,0.01169709
4204.80007324,0.01162763
4206.72888062,0.01163013
4208.65768799,0.01161136
4210.58649536,0.01158619
4212.51530273,0.01149385
4214.44411011,0.01144493
4216.37291748,0.01152733
4218.30172485,0.01159019
4220.23053223,0.01149185
4222.15933960,0.01135829
4224.08814697,0.01140265
4226.01695435,0.01142254
4227.94576172,0.01140798
4229.87456909,0.01132712
4231.80337646,0.01132609
4233.73218384,0.01135063
4235.66099121,0.01130481
4237.58979858,0.01127699
4239.51860596,0.01124036
4241.44741333,0.01124068
4243.37622070,0.01116666
4245.30502808,0.01122965
4247.23383545,0.01123977
4249.16264282,0.01118396
4251.09145020,0.01116635
4253.02025757,0.01110223
4254.94906494,0.01118170
4256.87787231,0.01110754
4258.80667969,0.01108000
4260.73548706,0.01106750
4262.66429443,0.01102445
4264.59310181,0.01108630
4266.52190918,0.01100907
4268.45071655,0.01098970
4270.37952393,0.01093232
4272.30833130,0.01089995
4274.23713867,0.01093409
4276.16594604,0.01091908
4278.09475342,0.01083945
4280.02356079,0.01074291
4281.95236816,0.01080204
4283.88117554,0.01082696
4285.80998291,0.01078846
4287.73879028,0.01077737
4289.66759766,0.01081682
4291.59640503,0.01070957
4293.52521240,0.01066983
4295.45401978,0.01070801
4297.38282715,0.01057320
4299.31163452,0.01065934
4301.24044189,0.01065186
4303.16924927,0.01060756
4305.09805664,0.01060946
4307.02686401,0.01052660
4308.95567139,0.01062895
4310.88447876,0.01053441
4312.81328613,0.01050713
4314.74209351,0.01057090
4316.67090088,0.01046604
4318.59970825,0.01047090
4320.52851562,0.01039265
4322.45732300,0.01040891
4324.38613037,0.01049301
4326.31493774,0.01041054
4328.24374512,0.01035649
4330.17255249,0.01027820
4332.10135986,0.01034270
4334.03016724,0.01037181
4335.95897461,0.01025559
4337.88778198,0.01031155
4339.81658936,0.01022220
4341.74539673,0.01017275
4343.67420410,0.01021358
4345.60301147,0.01015314
4347.53181885,0.01020410
4349.46062622,0.01021579
4351.38943359,0.01020245
4353.31824097,0.01006489
4355.24704834,0.01009554
4357.17585571,0.01017096
4359.10466309,0.01001845
4361.03347046,0.01006786
4362.96227783,0.01003245
4364.89108520,0.00997215
4366.81989258,0.00991127
4368.74869995,0.00993036
4370.67750732,0.01000941
4372.60631470,0.00988496
4374.53512207,0.00985078
4376.46392944,0.00979630
4378.39273682,0.00988916
4380.32154419,0.00986361
4382.25035156,0.00980049
4384.17915894,0.00991200
4386.10796631,0.00978146
4388.03677368,0.00976777
4389.96558105,0.00973305
4391.89438843,0.00971622
4393.82319580,0.00976209
4395.75200317,0.00974487
4397.68081055,0.00972535
4399.60961792,0.00963105
4401.53842529,0.00970648
4403.46723267,0.00966101
4405.39604004,0.00956069
4407.32484741,0.00961978
4409.25365478,0.00963128
4411.18246216,0.00952698
4413.11126953,0.00952230
4415.04007690,0.00956949
4416.96888428,0.00945203
4418.89769165,0.00948885
4420.82649902,0.00946599
4422.75530640,0.00947693
4424.68411377,0.00947690
4426.61292114,0.00938446
4428.54172852,0.00944484
4430.47053589,0.00933776
4432.39934326,0.00934086
4434.32815063,0.00932894
4436.25695801,0.00933533
4438.18576538,0.00934326
4440.11457275,0.00918725
4442.04338013,0.00928109
4443.97218750,0.00922775
4445.90099487,0.00912224
4447.82980225,0.00913998
4449.75860962,0.00920320
4451.68741699,0.00924905
4453.61622437,0.00916325
4455.54503174,0.00913973
4457.47383911,0.00904541
4459.40264648,0.00905242
4461.33145386,0.00909088
4463.26026123,0.00905603
4465.18906860,0.00900862
4467.11787598,0.00897462
4469.04668335,0.00906226
4470.97549072,0.00902340
4472.90429810,0.00896719
4474.83310547,0.00893653
4476.76191284,0.00897566
4478.69072021,0.00896509
4480.61952759,0.00884443
4482.54833496,0.00887436
4484.47714233,0.00884685
4486.40594971,0.00887435
4488.33475708,0.00884099
4490.26356445,0.00875488
4492.19237183,0.00882468
4494.12117920,0.00880934
4496.04998657,0.00881817
4497.97879395,0.00872444
4499.90760132,0.00870740
4501.83640869,0.00881284
4503.76521606,0.00865903
4505.69402344,0.00867000
4507.62283081,0.00873450
4509.55163818,0.00864061
4511.48044556,0.00863674
4513.40925293,0.00861802
4515.33806030,0.00865268
4517.26686768,0.00860215
4519.19567505,0.00855512
4521.12448242,0.00859128
4523.05328979,0.00847938
4524.98209717,0.00846843
4526.91090454,0.00847052
4528.83971191,0.00848054
4530.76851929,0.00844515
4532.69732666,0.00830935
4534.62613403,0.00839208
4536.55494141,0.00838462
4538.48374878,0.00836770
4540.41255615,0.00846620
4542.34136353,0.00839563
4544.27017090,0.00836082
4546.19897827,0.00838705
4548.12778564,0.00831311
4550.05659302,0.00825112
4551.98540039,0.00824292
4553.91420776,0.00826540
4555.84301514,0.00833657
4557.77182251,0.00822370
4559.70062988,0.00815226
4561.62943726,0.00821805
4563.55824463,0.00811229
4565.48705200,0.00813227
4567.41585937,0.00817805
4569.34466675,0.00814773
4571.27347412,0.00817077
4573.20228149,0.00812628
4575.13108887,0.00809130
4577.05989624,0.00806303
4578.98870361,0.00800602
4580.91751099,0.00795337
4582.84631836,0.00802229
4584.77512573,0.00800769
4586.70393311,0.00791812
4588.63274048,0.00799606
4590.56154785,0.00797051
4592.49035522,0.00794995
4594.41916260,0.00796969
4596.34796997,0.00788762
4598.27677734,0.00785960
4600.20558472,0.00785072
4602.13439209,0.00786608
4604.06319946,0.00785938
4605.99200684,0.00782622
4607.92081421,0.00785337
4609.84962158,0.00781168
4611.77842895,0.00774449
4613.70723633,0.00775629
4615.63604370,0.00777071
4617.56485107,0.00775867
4619.49365845,0.00772939
4621.42246582,0.00773291
4623.35127319,0.00771022
4625.28008057,0.00766072
4627.20888794,0.00764946
4629.13769531,0.00760878
4631.06650269,0.00758275
4632.99531006,0.00761565
4634.92411743,0.00764122
4636.85292480,0.00756376
4638.78173218,0.00756010
4640.71053955,0.00757711
4642.63934692,0.00752739
4644.56815430,0.00758830
4646.49696167,0.00749150
4648.42576904,0.00743122
4650.35457642,0.00749440
4652.28338379,0.00744769
4654.21219116,0.00743195
4656.14099853,0.00743118
4658.06980591,0.00743240
4659.99861328,0.00738359
4661.92742065,0.00738903
4663.85622803,0.00733606
4665.78503540,0.00731333
4667.71384277,0.00731138
4669.64265015,0.00719402
4671.57145752,0.00731425
4673.50026489,0.00728017
4675.42907227,0.00725037
4677.35787964,0.00730895
4679.28668701,0.00719612
4681.21549438,0.00724098
4683.14430176,0.00722652
4685.07310913,0.00721165
4687.00191650,0.00719125
4688.93072388,0.00718449
4690.85953125,0.00716835
4692.78833862,0.00705211
4694.71714600,0.00705886
4696.64595337,0.00704715
4698.57476074,0.00708520
4700.50356812,0.00706943
4702.43237549,0.00701722
4704.36118286,0.00701803
4706.28999023,0.00702004
4708.21879761,0.00702030
4710.14760498,0.00694085
4712.07641235,0.00695543
4714.00521973,0.00694669
4715.93402710,0.00693514
4717.86283447,0.00691837
4719.79164185,0.00692463
4721.72044922,0.00693847
4723.64925659,0.00691308
4725.57806396,0.00691862
4727.50687134,0.00675809
4729.43567871,0.00685233
4731.36448608,0.00690426
4733.29329346,0.00680705
4735.22210083,0.00691220
4737.15090820,0.00680093
4739.07971558,0.00683225
4741.00852295,0.00685708
4742.93733032,0.00674675
4744.86613770,0.00681444
4746.79494507,0.00675971
4748.72375244,0.00673548
4750.65255981,0.00676423
4752.58136719,0.00672868
4754.51017456,0.00674583
4756.43898193,0.00670584
4758.36778931,0.00666023
4760.29659668,0.00665285
4762.22540405,0.00660307
4764.15421143,0.00661891
4766.08301880,0.00661008
4768.01182617,0.00665672
4769.94063354,0.00667284
4771.86944092,0.00658445
4773.79824829,0.00659632
4775.72705566,0.00645297
4777.65586304,0.00651406
4779.58467041,0.00661309
4781.51347778,0.00648590
4783.44228516,0.00652682
4785.37109253,0.00646873
4787.29989990,0.00647014
4789.22870728,0.00650574
4791.15751465,0.00644414
4793.08632202,0.00636620
4795.01512939,0.00639720
4796.94393677,0.00646714
4798.87274414,0.00641211
4800.80155151,0.00647315
4802.73035889,0.00632575
4804.65916626,0.00632473
4806.58797363,0.00638584
4808.51678101,0.00621423
4810.44558838,0.00630354
4812.37439575,0.00635364
4814.30320312,0.00631562
4816.23201050,0.00623663
4818.16081787,0.00627313
4820.08962524,0.00624480
4822.01843262,0.00617085
4823.94723999,0.00623241
4825.87604736,0.00616587
4827.80485474,0.00624061
4829.73366211,0.00617635
4831.66246948,0.00620330
4833.59127686,0.00625199
4835.52008423,0.00611823
4837.44889160,0.00614028
4839.37769897,0.00609925
4841.30650635,0.00616606
4843.23531372,0.00605530
4845.16412109,0.00604132
4847.09292847,0.00609071
4849.02173584,0.00596849
4850.95054321,0.00610200
4852.87935059,0.00605888
4854.80815796,0.00601952
4856.73696533,0.00599204
4858.66577270,0.00597550
4860.59458008,0.00604642
4862.52338745,0.00596312
4864.45219482,0.00594519
4866.38100220,0.00594600
4868.30980957,0.00596363
4870.23861694,0.00593366
4872.16742432,0.00593939
4874.09623169,0.00591733
4876.02503906,0.00589530
4877.95384644,0.00587945
4879.88265381,0.00579040
4881.81146118,0.00589040
4883.74026855,0.00580699
4885.66907593,0.00576524
4887.59788330,0.00582231
4889.52669067,0.00573216
4891.45549805,0.00581016
4893.38430542,0.00581067
4895.31311279,0.00576093
4897.24192017,0.00576864
4899.17072754,0.00572182
4901.09953491,0.00568370
4903.02834228,0.00568870
4904.95714966,0.00567244
4906.88595703,0.00565420
4908.81476440,0.00563109
4910.74357178,0.00559879
4912.67237915,0.00566252
4914.60118652,0.00565562
4916.52999390,0.00562935
4918.45880127,0.00560835
4920.38760864,0.00556488
4922.31641602,0.00555748
4924.24522339,0.00559993
4926.17403076,0.00562999
4928.10283813,0.00553036
4930.03164551,0.00551567
4931.96045288,0.00551851
4933.88926025,0.00555227
4935.81806763,0.00551457
4937.74687500,0.00541001
4939.67568237,0.00543709
4941.60448975,0.00545579
4943.53329712,0.00553517
4945.46210449,0.00543817
4947.39091187,0.00543181
4949.31971924,0.00547805
4951.24852661,0.00537780
4953.17733398,0.00544294
4955.10614136,0.00538241
4957.03494873,0.00536257
4958.96375610,0.00536289
4960.89256348,0.00538135
4962.82137085,0.00537181
4964.75017822,0.00526886
4966.67898560,0.00532300
4968.60779297,0.00530340
4970.53660034,0.00534185
4972.46540771,0.00524370
4974.39421509,0.00523580
4976.32302246,0.00532289
4978.25182983,0.00516385
4980.18063721,0.00522815
4982.10944458,0.00518636
4984.03825195,0.00517520
4985.96705933,0.00524785
4987.89586670,0.00514288
4989.82467407,0.00516799
4991.75348145,0.00518076
4993.68228882,0.00517726
4995.61109619,0.00513025
4997.53990356,0.00514320
4999.46871094,0.00518296
5001.39751831,0.00507353
5003.32632568,0.00507358
5005.25513306,0.00508910
5007.18394043,0.00503453
5009.11274780,0.00503083
5011.04155518,0.00500096
5012.97036255,0.00502392
5014.89916992,0.00511633
5016.82797729,0.00505359
5018.75678467,0.00498964
5020.68559204,0.00500259
5022.61439941,0.00498338
5024.54320679,0.00497533
5026.47201416,0.00491531
5028.40082153,0.00489615
5030.32962891,0.00495686
5032.25843628,0.00496569
5034.18724365,0.00487331
5036.11605103,0.00486840
5038.04485840,0.00495796
5039.97366577,0.00491957
5041.90247314,0.00488494
5043.83128052,0.00491413
5045.76008789,0.00490549
5047.68889526,0.00487077
5049.61770264,0.00485530
5051.54651001,0.00482382
5053.47531738,0.00481952
5055.40412476,0.00481874
5057.33293213,0.00481054
5059.26173950,0.00484112
5061.19054687,0.00483362
5063.11935425,0.00490316
5065.04816162,0.00481630
5066.97696899,0.00468301
5068.90577637,0.00476536
5070.83458374,0.00478023
5072.76339111,0.00473762
5074.69219849,0.00467980
5076.62100586,0.00473363
5078.54981323,0.00473342
5080.47862061,0.00470261
5082.40742798,0.00471447
5084.33623535,0.00463462
5086.26504272,0.00467966
5088.19385010,0.00460533
5090.12265747,0.00461585
5092.05146484,0.00470460
5093.98027222,0.00464426
5095.90907959,0.00465339
5097.83788696,0.00463331
5099.76669434,0.00461503
5101.69550171,0.00451010
5103.62430908,0.00458577
5105.55311645,0.00458462
5107.48192383,0.00443256
5109.41073120,0.00458578
5111.33953857,0.00454556
5113.26834595,0.00454430
5115.19715332,0.00453731
5117.12596069,0.00437697
5119.05476807,0.00444878
5120.98357544,0.00445033
5122.91238281,0.00442751
5124.84119019,0.00442103
5126.76999756,0.00440931
5128.69880493,0.00441958
5130.62761230,0.00440526
5132.55641968,0.00444816
5134.48522705,0.00441944
5136.41403442,0.00436710
5138.34284180,0.00434957
5140.27164917,0.00430447
5142.20045654,0.00431611
5144.12926392,0.00437459
5146.05807129,0.00434423
5147.98687866,0.00435555
5149.91568603,0.00439377
5151.84449341,0.00429920
5153.77330078,0.00425576
5155.70210815,0.00424792
5157.63091553,0.00428624
5159.55972290,0.00434021
5161.48853027,0.00423750
5163.41733765,0.00420536
5165.34614502,0.00426473
5167.27495239,0.00425667
5169.20375977,0.00421437
5171.13256714,0.00416106
5173.06137451,0.00420941
5174.99018188,0.00424104
5176.91898926,0.00417225
5178.84779663,0.00418471
5180.77660400,0.00419387
5182.70541138,0.00416701
5184.63421875,0.00409711
5186.56302612,0.00411795
5188.49183350,0.00419514
5190.42064087,0.00406690
5192.34944824,0.00409652
5194.27825562,0.00415197
5196.20706299,0.00402775
5198.13587036,0.00402795
5200.06467773,0.00405538
5201.99348511,0.00406154
5203.92229248,0.00406550
5205.85109985,0.00400440
5207.77990723,0.00389693
5209.70871460,0.00395432
5211.63752197,0.00400560
5213.56632935,0.00400970
5215.49513672,0.00410559
5217.42394409,0.00400234
5219.35275146,0.00397384
5221.28155884,0.00398122
5223.21036621,0.00395830
5225.13917358,0.00393883
5227.06798096,0.00385257
5228.99678833,0.00400895
5230.92559570,0.00400188
5232.85440308,0.00395484
5234.78321045,0.00399672
5236.71201782,0.00391022
5238.64082520,0.00395093
5240.56963257,0.00400680
5242.49843994,0.00398566
5244.42724731,0.00383852
5246.35605469,0.00385344
5248.28486206,0.00383554
5250.21366943,0.00376726
5252.14247681,0.00394599
5254.07128418,0.00385329
5256.00009155,0.00377446
5257.92889893,0.00379071
5259.85770630,0.00382174
5261.78651367,0.00386619
5263.71532104,0.00367609
5265.64412842,0.00370318
5267.57293579,0.00379075
5269.50174316,0.00372383
5271.43055054,0.00376091
5273.35935791,0.00387072
5275.28816528,0.00382138
5277.21697266,0.00374776
5279.14578003,0.00378799
5281.07458740,0.00373006
5283.00339478,0.00376209
5284.93220215,0.00374264
5286.86100952,0.00371081
5288.78981689,0.00373160
5290.71862427,0.00364621
5292.64743164,0.00364829
5294.57623901,0.00365839
5296.50504639,0.00377279
5298.43385376,0.00372828
5300.36266113,0.00356164
5302.29146851,0.00359930
5304.22027588,0.00361613
5306.14908325,0.00362571
5308.07789062,0.00355337
5310.00669800,0.00358186
5311.93550537,0.00366420
5313.86431274,0.00364834
5315.79312012,0.00361040
5317.72192749,0.00354493
5319.65073486,0.00361495
5321.57954224,0.00355624
5323.50834961,0.00355192
5325.43715698,0.00365381
5327.36596436,0.00354530
5329.29477173,0.00356704
5331.22357910,0.00360961
5333.15238647,0.00346996
5335.08119385,0.00347139
5337.01000122,0.00350122
5338.93880859,0.00336838
5340.86761597,0.00347997
5342.79642334,0.00352963
5344.72523071,0.00337263
5346.65403809,0.00342381
5348.58284546,0.00341024
5350.51165283,0.00349833
5352.44046020,0.00348918
5354.36926758,0.00329487
5356.29807495,0.00339689
5358.22688232,0.00344942
5360.15568970,0.00341555
5362.08449707,0.00342852
5364.01330444,0.00339638
5365.94211182,0.00333065
5367.87091919,0.00333932
5369.79972656,0.00339536
5371.72853394,0.00336561
5373.65734131,0.00337446
5375.58614868,0.00330245
5377.51495605,0.00322721
5379.44376343,0.00331500
5381.37257080,0.00339167
5383.30137817,0.00334521
5385.23018555,0.00325679
5387.15899292,0.00323252
5389.08780029,0.00327305
5391.01660767,0.00334878
5392.94541504,0.00327001
5394.87422241,0.00321792
5396.80302978,0.00327658
5398.73183716,0.00325092
5400.66064453,0.00324329
5402.58945190,0.00322046
5404.51825928,0.00323365
5406.44706665,0.00327155
5408.37587402,0.00322871
5410.30468140,0.00319007
5412.23348877,0.00319548
5414.16229614,0.00311889
5416.09110352,0.00310430
5418.01991089,0.00321476
5419.94871826,0.00317806
5421.87752563,0.00320487
5423.80633301,0.00317938
5425.73514038,0.00316599
5427.66394775,0.00325165
5429.59275513,0.00307267
5431.52156250,0.00309120
5433.45036987,0.00317420
5435.37917725,0.00303076
5437.30798462,0.00306274
5439.23679199,0.00311492
5441.16559936,0.00295973
5443.09440674,0.00300607
5445.02321411,0.00319101
5446.95202148,0.00305622
5448.88082886,0.00308355
5450.80963623,0.00312299
5452.73844360,0.00303453
5454.66725098,0.00308717
5456.59605835,0.00302551
5458.52486572,0.00310073
5460.45367310,0.00301945
5462.38248047,0.00290184
5464.31128784,0.00301861
5466.24009521,0.00299025
5468.16890259,0.00298826
5470.09770996,0.00294621
5472.02651733,0.00300493
5473.95532471,0.00303272
5475.88413208,0.00291412
5477.81293945,0.00295226
5479.74174683,0.00298870
5481.67055420,0.00299799
5483.59936157,0.00290651
5485.52816895,0.00291268
5487.45697632,0.00293947
5489.38578369,0.00285668
5491.31459106,0.00292571
5493.24339844,0.00286056
5495.17220581,0.00282993
5497.10101318,0.00291999
5499.02982056,0.00291596
5500.95862793,0.00296556
5502.88743530,0.00292952
5504.81624268,0.00286463
5506.74505005,0.00287846
5508.67385742,0.00290035
5510.60266479,0.00291762
5512.53147217,0.00285926
5514.46027954,0.00282410
5516.38908691,0.00282266
5518.31789429,0.00281734
5520.24670166,0.00284498
5522.17550903,0.00281359
5524.10431641,0.00276299
5526.03312378,0.00277097
5527.96193115,0.00277434
5529.89073853,0.00275294
5531.81954590,0.00277521
5533.74835327,0.00282193
5535.67716064,0.00280940
5537.60596802,0.00273818
5539.53477539,0.00270993
5541.46358276,0.00277918
5543.39239014,0.00278063
5545.32119751,0.00274866
5547.25000488,0.00271976
5549.17881226,0.00265965
5551.10761963,0.00270640
5553.03642700,0.00272685
5554.96523437,0.00273245
5556.89404175,0.00271217
5558.82284912,0.00265434
5560.75165649,0.00273392
5562.68046387,0.00272994
5564.60927124,0.00269856
5566.53807861,0.00273570
5568.46688599,0.00266996
5570.39569336,0.00265165
5572.32450073,0.00266763
5574.25330811,0.00260883
5576.18211548,0.00263503
5578.11092285,0.00262409
5580.03973022,0.00259415
5581.96853760,0.00272291
5583.89734497,0.00268822
5585.82615234,0.00264121
5587.75495972,0.00265962
5589.68376709,0.00258312
5591.61257446,0.00263029
5593.54138184,0.00261569
5595.47018921,0.00258481
5597.39899658,0.00258452
5599.32780395,0.00255383
5601.25661133,0.00258446
5603.18541870,0.00257690
5605.11422607,0.00258950
5607.04303345,0.00260032
5608.97184082,0.00259749
5610.90064819,0.00253076
5612.82945557,0.00251538
5614.75826294,0.00258229
5616.68707031,0.00255605
5618.61587769,0.00254816
5620.54468506,0.00253658
5622.47349243,0.00254050
5624.40229980,0.00250221
5626.33110718,0.00245210
5628.25991455,0.00243874
5630.18872192,0.00246536
5632.11752930,0.00252789
5634.04633667,0.00245334
5635.97514404,0.00244047
5637.90395142,0.00245691
5639.83275879,0.00252035
5641.76156616,0.00251322
5643.69037353,0.00237415
5645.61918091,0.00245937
5647.54798828,0.00248817
5649.47679565,0.00245369
5651.40560303,0.00241571
5653.33441040,0.00242912
5655.26321777,0.00247326
5657.19202515,0.00233669
5659.12083252,0.00237424
5661.04963989,0.00244393
5662.97844727,0.00239490
5664.90725464,0.00240933
5666.83606201,0.00243512
5668.76486938,0.00236484
5670.69367676,0.00230758
5672.62248413,0.00236003
5674.55129150,0.00233558
5676.48009888,0.00236779
5678.40890625,0.00237544
5680.33771362,0.00233393
5682.26652100,0.00235448
5684.19532837,0.00231910
5686.12413574,0.00228711
5688.05294311,0.00229495
5689.98175049,0.00234595
5691.91055786,0.00229414
5693.83936523,0.00232933
5695.76817261,0.00238243
5697.69697998,0.00230082
5699.62578735,0.00234832
5701.55459473,0.00227890
5703.48340210,0.00226714
5705.41220947,0.00237790
5707.34101685,0.00230434
5709.26982422,0.00223628
5711.19863159,0.00221319
5713.12743896,0.00220031
5715.05624634,0.00222660
5716.98505371,0.00225147
5718.91386108,0.00226352
5720.84266846,0.00229762
5722.77147583,0.00228429
5724.70028320,0.00223954
5726.62909058,0.00220880
5728.55789795,0.00222338
5730.48670532,0.00224361
5732.41551270,0.00219233
5734.34432007,0.00225367
5736.27312744,0.00224554
5738.20193481,0.00221914
5740.13074219,0.00221932
5742.05954956,0.00211596
5743.98835693,0.00217944
5745.91716431,0.00216381
5747.84597168,0.00212553
5749.77477905,0.00214636
5751.70358643,0.00212308
5753.63239380,0.00212846
5755.56120117,0.00205083
5757.49000854,0.00215869
5759.41881592,0.00218066
5761.34762329,0.00205546
5763.27643066,0.00210600
5765.20523804,0.00212458
5767.13404541,0.00212049
5769.06285278,0.00206220
5770.99166016,0.00207630
5772.92046753,0.00210702
5774.84927490,0.00210189
5776.77808228,0.00213905
5778.70688965,0.00204004
5780.63569702,0.00207181
5782.56450439,0.00210313
5784.49331177,0.00205869
5786.42211914,0.00211747
5788.35092651,0.00207727
5790.27973389,0.00205863
5792.20854126,0.00203366
5794.13734863,0.00201969
5796.06615601,0.00201921
5797.99496338,0.00198172
5799.92377075,0.00204938
5801.85257812,0.00202347
5803.78138550,0.00196696
5805.71019287,0.00196822
5807.63900024,0.00199504
5809.56780762,0.00203026
5811.49661499,0.00197486
5813.42542236,0.00196401
5815.35422974,0.00194590
5817.28303711,0.00196172
5819.21184448,0.00199362
5821.14065186,0.00191413
5823.06945923,0.00188653
5824.99826660,0.00190929
5826.92707397,0.00189630
5828.85588135,0.00189890
5830.78468872,0.00198331
5832.71349609,0.00194683
5834.64230347,0.00187209
5836.57111084,0.00191366
5838.49991821,0.00188925
5840.42872559,0.00192012
5842.35753296,0.00192199
5844.28634033,0.00185764
5846.21514770,0.00187240
5848.14395508,0.00191260
5850.07276245,0.00191917
5852.00156982,0.00185077
5853.93037720,0.00186548
5855.85918457,0.00189230
5857.78799194,0.00184526
5859.71679932,0.00184511
5861.64560669,0.00186359
5863.57441406,0.00186769
5865.50322144,0.00186476
5867.43202881,0.00185404
5869.36083618,0.00184595
5871.28964355,0.00183633
5873.21845093,0.00180103
5875.14725830,0.00183507
5877.07606567,0.00184621
5879.00487305,0.00182726
5880.93368042,0.00182364
5882.86248779,0.00178037
5884.79129517,0.00181389
5886.72010254,0.00179397
5888.64890991,0.00179845
5890.57771728,0.00178287
5892.50652466,0.00173378
5894.43533203,0.00177504
5896.36413940,0.00176670
5898.29294678,0.00183594
5900.22175415,0.00178059
5902.15056152,0.00176077
5904.07936890,0.00179381
5906.00817627,0.00173962
5907.93698364,0.00185725
5909.86579102,0.00176414
5911.79459839,0.00174932
5913.72340576,0.00184618
5915.65221313,0.00171205
5917.58102051,0.00169779
5919.50982788,0.00174643
5921.43863525,0.00174398
5923.36744263,0.00169007
5925.29625000,0.00173812
5927.22505737,0.00179102
5929.15386475,0.00168212
5931.08267212,0.00162752
5933.01147949,0.00167513
5934.94028686,0.00168108
5936.86909424,0.00160075
5938.79790161,0.00161656
5940.72670898,0.00163726
5942.65551636,0.00164780
5944.58432373,0.00164800
5946.51313110,0.00164995
5948.44193848,0.00169140
5950.37074585,0.00163529
5952.29955322,0.00167137
5954.22836060,0.00165281
5956.15716797,0.00163546
5958.08597534,0.00168394
5960.01478271,0.00164592
5961.94359009,0.00168003
5963.87239746,0.00162716
5965.80120483,0.00163471
5967.73001221,0.00166842
5969.65881958,0.00160618
5971.58762695,0.00161361
5973.51643433,0.00157696
5975.44524170,0.00156993
5977.37404907,0.00161221
5979.30285645,0.00161044
5981.23166382,0.00158009
5983.16047119,0.00159601
5985.08927856,0.00156307
5987.01808594,0.00151893
5988.94689331,0.00156065
5990.87570068,0.00157096
5992.80450806,0.00160127
5994.73331543,0.00158218
5996.66212280,0.00157337
5998.59093018,0.00153451
6000.51973755,0.00146615
