399.26312622,0.00031991
401.19193359,0.00011050
403.12074097,0.00036020
405.04954834,0.00033563
406.97835571,0.00030404
408.90716309,0.00044194
410.83597046,0.00035320
412.76477783,0.00033784
414.69358521,-0.00003606
416.62239258,0.00000097
418.55119995,0.00052185
420.48000732,0.00011155
422.40881470,-0.00014079
424.33762207,0.00038200
426.26642944,0.00028420
428.19523682,0.00036983
430.12404419,0.00035550
432.05285156,-0.00011656
433.98165894,-0.00011507
435.91046631,-0.00007605
437.83927368,0.00021476
439.76808105,0.00050568
441.69688843,0.00024112
443.62569580,0.00002337
445.55450317,0.00037502
447.48331055,0.00059336
449.41211792,-0.00002359
451.34092529,-0.00032335
453.26973267,0.00037541
455.19854004,0.00053467
457.12734741,0.00028548
459.05615479,0.00021255
460.98496216,0.00072711
462.91376953,0.00052634
464.84257690,-0.00021780
466.77138428,0.00009546
468.70019165,0.00050335
470.62899902,0.00031953
472.55780640,-0.00006643
474.48661377,0.00005174
476.41542114,0.00001881
478.34422852,0.00004945
480.27303589,0.00045908
482.20184326,0.00027622
484.13065063,0.00028475
486.05945801,0.00048620
487.98826538,0.00020214
489.91707275,0.00021923
491.84588013,0.00041375
493.77468750,-0.00001346
495.70349487,0.00008350
497.63230225,0.00021395
499.56110962,0.00006840
501.48991699,0.00066078
503.41872437,0.00048671
505.34753174,0.00018398
507.27633911,0.00022432
509.20514648,-0.00004629
511.13395386,0.00016245
513.06276123,0.00016994
514.99156860,0.00006119
516.92037598,0.00011381
518.84918335,-0.00002818
520.77799072,0.00000405
522.70679810,0.00031651
524.63560547,0.00050307
526.56441284,0.00035057
528.49322021,0.00028275
530.42202759,0.00037529
532.35083496,0.00040815
534.27964233,0.00040567
536.20844971,0.00029837
538.13725708,0.00000208
540.06606445,0.00012409
541.99487183,0.00030816
543.92367920,0.00005803
545.85248657,0.00054527
547.78129395,0.00046489
549.71010132,-0.00036872
551.63890869,-0.00002168
553.56771606,0.00022892
555.49652344,0.00004790
557.42533081,-0.00010092
559.35413818,0.00012228
561.28294556,0.00021733
563.21175293,-0.00007850
565.14056030,0.00033993
567.06936768,0.00008696
568.99817505,0.00002286
570.92698242,0.00058964
572.85578979,0.00009253
574.78459717,0.00019134
576.71340454,0.00046963
578.64221191,0.00010476
580.57101929,0.00042362
582.49982666,0.00034608
584.42863403,-0.00010549
586.35744141,0.00023559
588.28624878,0.00035099
590.21505615,0.00006424
592.14386353,0.00001823
594.07267090,0.00017506
596.00147827,0.00033425
597.93028564,0.00028016
599.85909302,0.00014667
601.78790039,0.00016239
603.71670776,0.00022924
605.64551514,0.00017389
607.57432251,-0.00000847
609.50312988,-0.00002870
611.43193726,0.00017929
613.36074463,-0.00004973
615.28955200,0.00011558
617.21835938,0.00047364
619.14716675,0.00020886
621.07597412,0.00029271
623.00478149,0.00053387
624.93358887,0.00034885
626.86239624,0.00008146
628.79120361,0.00008084
630.72001099,0.00019592
632.64881836,0.00009376
634.57762573,0.00016541
636.50643311,0.00027393
638.43524048,0.00006197
640.36404785,0.00043596
642.29285522,0.00051216
644.22166260,-0.00009092
646.15046997,0.00019503
648.07927734,0.00022916
650.00808472,0.00030821
651.93689209,0.00036767
653.86569946,0.00030703
655.79450684,0.00053867
657.72331421,0.00031698
659.65212158,0.00037280
661.58092896,0.00028621
663.50973633,0.00057815
665.43854370,0.00055863
667.36735107,0.00017799
669.29615845,0.00056263
671.22496582,0.00034657
673.15377319,0.00031297
675.08258057,0.00054700
677.01138794,0.00039706
678.94019531,0.00040715
680.86900269,0.00037670
682.79781006,0.00051035
684.72661743,0.00073380
686.65542480,0.00053573
688.58423218,0.00044613
690.51303955,0.00070090
692.44184692,0.00064448
694.37065430,0.00073894
696.29946167,0.00057705
698.22826904,0.00050989
700.15707642,0.00091275
702.08588379,0.00076745
704.01469116,0.00089114
705.94349854,0.00090234
707.87230591,0.00075156
709.80111328,0.00062461
711.72992065,0.00027437
713.65872803,0.00018486
715.58753540,-0.00007411
717.51634277,0.00005703
719.44515015,0.00025215
721.37395752,0.00043016
723.30276489,0.00044999
725.23157227,0.00000582
727.16037964,0.00013218
729.08918701,0.00022132
731.01799438,0.00015141
732.94680176,0.00008309
734.87560913,0.00009791
736.80441650,0.00014421
738.73322388,0.00015241
740.66203125,0.00040309
742.59083862,0.00015302
744.51964600,0.00029507
746.44845337,0.00035062
748.37726074,0.00005434
750.30606812,0.00021019
752.23487549,-0.00001824
754.16368286,-0.00004661
756.09249023,0.00018572
758.02129761,0.00015508
759.95010498,0.00022797
761.87891235,0.00017134
763.80771973,0.00006174
765.73652710,0.00027501
767.66533447,0.00027575
769.59414185,0.00010009
771.52294922,0.00034624
773.45175659,0.00040943
775.38056396,0.00022649
777.30937134,0.00036250
779.23817871,0.00046643
781.16698608,0.00047853
783.09579346,0.00026011
785.02460083,0.00025471
786.95340820,0.00034486
788.88221558,0.00017169
790.81102295,0.00038963
792.73983032,0.00042925
794.66863770,0.00025794
796.59744507,0.00018574
798.52625244,0.00014270
800.45505981,0.00025499
802.38386719,0.00002807
804.31267456,0.00007324
806.24148193,0.00043295
808.17028931,0.00013870
810.09909668,0.00014955
812.02790405,0.00031012
813.95671143,-0.00000344
815.88551880,0.00033901
817.81432617,0.00053366
819.74313354,0.00027473
821.67194092,0.00026769
823.60074829,0.00048773
825.52955566,0.00058299
827.45836304,0.00037030
829.38717041,0.00049070
831.31597778,0.00053415
833.24478516,0.00068786
835.17359253,0.00055341
837.10239990,0.00025483
839.03120728,0.00054112
840.96001465,0.00027852
842.88882202,0.00032152
844.81762939,0.00041146
846.74643677,0.00012809
848.67524414,0.00045643
850.60405151,0.00035876
852.53285889,0.00040903
854.46166626,0.00032951
856.39047363,-0.00011411
858.31928101,0.00023518
860.24808838,0.00034696
862.17689575,0.00048381
864.10570313,0.00044195
866.03451050,0.00026710
867.96331787,0.00061193
869.89212524,0.00029733
871.82093262,0.00020964
873.74973999,0.00021474
875.67854736,0.00000002
877.60735474,0.00035933
879.53616211,0.00053687
881.46496948,0.00058201
883.39377686,0.00036990
885.32258423,0.00028611
887.25139160,0.00028238
889.18019897,0.00005481
891.10900635,0.00032276
893.03781372,0.00025524
894.96662109,0.00018947
896.89542847,0.00036807
898.82423584,0.00029004
900.75304321,0.00048946
902.68185059,0.00050492
904.61065796,0.00034962
906.53946533,0.00034233
908.46827271,0.00036319
910.39708008,0.00027657
912.32588745,0.00025345
914.25469482,0.00036898
916.18350220,0.00025927
918.11230957,0.00037351
920.04111694,0.00039325
921.96992432,0.00043460
923.89873169,0.00029390
925.82753906,0.00022032
927.75634644,0.00072022
929.68515381,0.00052517
931.61396118,0.00082921
933.54276855,0.00074493
935.47157593,0.00020399
937.40038330,0.00080937
939.32919067,0.00058490
941.25799805,0.00044434
943.18680542,0.00081225
945.11561279,0.00081030
947.04442017,0.00068106
948.97322754,0.00046712
950.90203491,0.00068006
952.83084229,0.00067431
954.75964966,0.00049527
956.68845703,0.00042047
958.61726440,0.00052879
960.54607178,0.00079901
962.47487915,0.00065129
964.40368652,0.00044540
966.33249390,0.00062268
968.26130127,0.00075838
970.19010864,0.00078605
972.11891602,0.00100082
974.04772339,0.00083295
975.97653076,0.00071325
977.90533813,0.00092296
979.83414551,0.00096488
981.76295288,0.00105423
983.69176025,0.00122444
985.62056763,0.00145281
987.54937500,0.00137325
989.47818237,0.00128804
991.40698975,0.00156557
993.33579712,0.00180047
995.26460449,0.00194846
997.19341187,0.00215740
999.12221924,0.00224249
1001.05102661,0.00238435
1002.97983398,0.00272478
1004.90864136,0.00258806
1006.83744873,0.00283799
1008.76625610,0.00333593
1010.69506348,0.00322677
1012.62387085,0.00338524
1014.55267822,0.00366375
1016.48148560,0.00388643
1018.41029297,0.00407064
1020.33910034,0.00421102
1022.26790771,0.00428851
1024.19671509,0.00460527
1026.12552246,0.00498392
1028.05432983,0.00488430
1029.98313721,0.00502727
1031.91194458,0.00508415
1033.84075195,0.00527107
1035.76955933,0.00556463
1037.69836670,0.00551696
1039.62717407,0.00566687
1041.55598145,0.00573613
1043.48478882,0.00558071
1045.41359619,0.00524990
1047.34240356,0.00539035
1049.27121094,0.00546030
1051.20001831,0.00519362
1053.12882568,0.00517912
1055.05763306,0.00504030
1056.98644043,0.00523007
1058.91524780,0.00496301
1060.84405518,0.00440053
1062.77286255,0.00455080
1064.70166992,0.00453182
1066.63047729,0.00406177
1068.55928467,0.00402980
1070.48809204,0.00415990
1072.41689941,0.00368572
1074.34570679,0.00374762
1076.27451416,0.00378186
1078.20332153,0.00339160
1080.13212891,0.00313689
1082.06093628,0.00289510
1083.98974365,0.00304556
1085.91855103,0.00269493
1087.84735840,0.00263692
1089.77616577,0.00267451
1091.70497314,0.00220905
1093.63378052,0.00239439
1095.56258789,0.00220578
1097.49139526,0.00203763
1099.42020264,0.00223328
1101.34901001,0.00212425
1103.27781738,0.00203058
1105.20662476,0.00189222
1107.13543213,0.00198331
1109.06423950,0.00211851
1110.99304687,0.00201257
1112.92185425,0.00202703
1114.85066162,0.00199260
1116.77946899,0.00179345
1118.70827637,0.00195182
1120.63708374,0.00209771
1122.56589111,0.00205175
1124.49469849,0.00212111
1126.42350586,0.00208995
1128.35231323,0.00208857
1130.28112061,0.00206045
1132.20992798,0.00210900
1134.13873535,0.00218874
1136.06754272,0.00229558
1137.99635010,0.00242311
1139.92515747,0.00244922
1141.85396484,0.00272792
1143.78277222,0.00288782
1145.71157959,0.00305679
1147.64038696,0.00322946
1149.56919434,0.00321723
1151.49800171,0.00359695
1153.42680908,0.00385043
1155.35561646,0.00385887
1157.28442383,0.00419976
1159.21323120,0.00436432
1161.14203857,0.00435695
1163.07084595,0.00467234
1164.99965332,0.00487773
1166.92846069,0.00494958
1168.85726807,0.00507344
1170.78607544,0.00543077
1172.71488281,0.00574952
1174.64369019,0.00572705
1176.57249756,0.00601508
1178.50130493,0.00619339
1180.43011230,0.00649843
1182.35891968,0.00690112
1184.28772705,0.00700949
1186.21653442,0.00752192
1188.14534180,0.00774595
1190.07414917,0.00802314
1192.00295654,0.00850677
1193.93176392,0.00881575
1195.86057129,0.00934521
1197.78937866,0.00970042
1199.71818604,0.01014525
1201.64699341,0.01041836
1203.57580078,0.01082182
1205.50460815,0.01153055
1207.43341553,0.01167412
1209.36222290,0.01207482
1211.29103027,0.01264229
1213.21983765,0.01290090
1215.14864502,0.01325153
1217.07745239,0.01353784
1219.00625977,0.01380360
1220.93506714,0.01393404
1222.86387451,0.01422939
1224.79268188,0.01466513
1226.72148926,0.01461123
1228.65029663,0.01471941
1230.57910400,0.01493308
1232.50791138,0.01480572
1234.43671875,0.01478329
1236.36552612,0.01477439
1238.29433350,0.01464782
1240.22314087,0.01458081
1242.15194824,0.01471093
1244.08075562,0.01462971
1246.00956299,0.01450234
1247.93837036,0.01459324
1249.86717773,0.01458037
1251.79598511,0.01460742
1253.72479248,0.01426524
1255.65359985,0.01408056
1257.58240723,0.01422389
1259.51121460,0.01387540
1261.44002197,0.01348107
1263.36882935,0.01322570
1265.29763672,0.01316535
1267.22644409,0.01310366
1269.15525146,0.01293663
1271.08405884,0.01278293
1273.01286621,0.01249631
1274.94167358,0.01228509
1276.87048096,0.01210747
1278.79928833,0.01184748
1280.72809570,0.01156650
1282.65690308,0.01143218
1284.58571045,0.01119117
1286.51451782,0.01099481
1288.44332520,0.01097676
1290.37213257,0.01081781
1292.30093994,0.01072613
1294.22974731,0.01065011
1296.15855469,0.01065872
1298.08736206,0.01053197
1300.01616943,0.01043668
1301.94497681,0.01058507
1303.87378418,0.01075966
1305.80259155,0.01100818
1307.73139893,0.01104854
1309.66020630,0.01119921
1311.58901367,0.01125710
1313.51782104,0.01157906
1315.44662842,0.01224318
1317.37543579,0.01223304
1319.30424316,0.01241931
1321.23305054,0.01296534
1323.16185791,0.01326424
1325.09066528,0.01372830
1327.01947266,0.01434125
1328.94828003,0.01453672
1330.87708740,0.01483931
1332.80589478,0.01534929
1334.73470215,0.01543664
1336.66350952,0.01567990
1338.59231689,0.01562613
1340.52112427,0.01570284
1342.44993164,0.01631641
1344.37873901,0.01642255
1346.30754639,0.01656570
1348.23635376,0.01651362
1350.16516113,0.01626714
1352.09396851,0.01634220
1354.02277588,0.01629129
1355.95158325,0.01618113
1357.88039062,0.01592968
1359.80919800,0.01571106
1361.73800537,0.01518928
1363.66681274,0.01482406
1365.59562012,0.01554302
1367.52442749,0.01550127
1369.45323486,0.01525027
1371.38204224,0.01544926
1373.31084961,0.01458141
1375.23965698,0.01458897
1377.16846436,0.01529545
1379.09727173,0.01520294
1381.02607910,0.01508920
1382.95488647,0.01510056
1384.88369385,0.01510366
1386.81250122,0.01455651
1388.74130859,0.01489039
1390.67011597,0.01610373
1392.59892334,0.01547781
1394.52773071,0.01450522
1396.45653809,0.01537633
1398.38534546,0.01532818
1400.31415283,0.01516129
1402.24296021,0.01636798
1404.17176758,0.01547047
1406.10057495,0.01547671
1408.02938232,0.01625414
1409.95818970,0.01560177
1411.88699707,0.01576510
1413.81580444,0.01533907
1415.74461182,0.01567549
1417.67341919,0.01422130
1419.60222656,0.01269255
1421.53103394,0.01458156
1423.45984131,0.01413725
1425.38864868,0.01367189
1427.31745605,0.01403460
1429.24626343,0.01296797
1431.17507080,0.01244936
1433.10387817,0.01288256
1435.03268555,0.01176148
1436.96149292,0.00982207
1438.89030029,0.01126117
1440.81910767,0.01151224
1442.74791504,0.01086419
1444.67672241,0.01143300
1446.60552979,0.01037984
1448.53433716,0.01044741
1450.46314453,0.01069985
1452.39195190,0.01108677
1454.32075928,0.01141792
1456.24956665,0.00954466
1458.17837402,0.00997372
1460.10718140,0.01312182
1462.03598877,0.01429580
1463.96479614,0.01393564
1465.89360352,0.01447449
1467.82241089,0.01671961
1469.75121826,0.01767607
1471.68002563,0.01569960
1473.60883301,0.01661189
1475.53764038,0.01886509
1477.46644775,0.02030430
1479.39525513,0.02238877
1481.32406250,0.02272844
1483.25286987,0.02418207
1485.18167725,0.02485225
1487.11048462,0.02431965
1489.03929199,0.02418729
1490.96809937,0.02431589
1492.89690674,0.02840945
1494.82571411,0.02778335
1496.75452148,0.02487888
1498.68332886,0.02814526
1500.61213623,0.02895986
1502.54094360,0.03109504
1504.46975098,0.02962744
1506.39855835,0.02147074
1508.32736572,0.02622226
1510.25617310,0.03083105
1512.18498047,0.02960775
1514.11378784,0.03222179
1516.04259521,0.02890244
1517.97140259,0.03014086
1519.90020996,0.02914789
1521.82901733,0.02515360
1523.75782471,0.03106961
1525.68663208,0.03042327
1527.61543945,0.03032171
1529.54424683,0.03348111
1531.47305420,0.03216092
1533.40186157,0.02941725
1535.33066895,0.03112244
1537.25947632,0.03350682
1539.18828369,0.02367202
1541.11709106,0.02484713
1543.04589844,0.02993498
1544.97470581,0.02841248
1546.90351318,0.03371615
1548.83232056,0.03141478
1550.76112793,0.03226414
1552.68993530,0.03197914
1554.61874268,0.02913646
1556.54755005,0.03118259
1558.47635742,0.02189074
1560.40516479,0.02346815
1562.33397217,0.03340544
1564.26277954,0.03177403
1566.19158691,0.03240773
1568.12039429,0.03197692
1570.04920166,0.02834231
1571.97800903,0.03248253
1573.90681641,0.03283775
1575.83562378,0.02595937
1577.76443115,0.02904346
1579.69323853,0.03255149
1581.62204590,0.03111661
1583.55085327,0.03182175
1585.47966064,0.03125620
1587.40846802,0.03135273
1589.33727539,0.03080837
1591.26608276,0.03050209
1593.19489014,0.03024238
1595.12369751,0.02986399
1597.05250488,0.03003137
1598.98131226,0.02945837
1600.91011963,0.02953158
1602.83892700,0.02867006
1604.76773437,0.02878588
1606.69654175,0.02816168
1608.62534912,0.02787556
1610.55415649,0.02748987
1612.48296387,0.02737593
1614.41177124,0.02764214
1616.34057861,0.02227965
1618.26938599,0.02392077
1620.19819336,0.02770911
1622.12700073,0.02422716
1624.05580811,0.02427070
1625.98461548,0.02552770
1627.91342285,0.02509674
1629.84223022,0.02486430
1631.77103760,0.02668534
1633.69984497,0.02438104
1635.62865234,0.02026501
1637.55745972,0.02379867
1639.48626709,0.02620225
1641.41507446,0.02583230
1643.34388184,0.02666926
1645.27268921,0.02423545
1647.20149658,0.02136464
1649.13030396,0.02698066
1651.05911133,0.02592898
1652.98791870,0.01661292
1654.91672607,0.02294638
1656.84553345,0.02921256
1658.77434082,0.02805227
1660.70314819,0.02927006
1662.63195557,0.02695287
1664.56076294,0.02851675
1666.48957031,0.03119671
1668.41837769,0.02741899
1670.34718506,0.02655920
1672.27599243,0.03063934
1674.20479980,0.02864179
1676.13360718,0.02772292
1678.06241455,0.03223215
1679.99122192,0.03137850
1681.92002930,0.03138524
1683.84883667,0.02564557
1685.77764404,0.02549919
1687.70645142,0.03537830
1689.63525879,0.03093729
1691.56406616,0.03430107
1693.49287354,0.03526980
1695.42168091,0.02601190
1697.35048828,0.03240862
1699.27929565,0.02857343
1701.20810303,0.02601062
1703.13691040,0.03566871
1705.06571777,0.03292957
1706.99452515,0.03343474
1708.92333252,0.03642124
1710.85213989,0.03537918
1712.78094727,0.03612746
1714.70975464,0.03372481
1716.63856201,0.03044593
1718.56736938,0.02996521
1720.49617676,0.03587986
1722.42498413,0.03745475
1724.35379150,0.03499258
1726.28259888,0.03824631
1728.21140625,0.03541364
1730.14021362,0.03573756
1732.06902100,0.03507114
1733.99782837,0.02678032
1735.92663574,0.03330446
1737.85544312,0.03714372
1739.78425049,0.03299379
1741.71305786,0.03614005
1743.64186523,0.03678955
1745.57067261,0.03689891
1747.49947998,0.03725474
1749.42828735,0.03572768
1751.35709473,0.03450940
1753.28590210,0.03817349
1755.21470947,0.04009081
1757.14351685,0.03645765
1759.07232422,0.04023141
1761.00113159,0.03807748
1762.92993896,0.03660567
1764.85874634,0.04221956
1766.78755371,0.03791127
1768.71636108,0.03829781
1770.64516846,0.03808793
1772.57397583,0.03413217
1774.50278320,0.03864283
1776.43159058,0.04084612
1778.36039795,0.04011294
1780.28920532,0.03963881
1782.21801270,0.04013341
1784.14682007,0.04022235
1786.07562744,0.03935567
1788.00443481,0.04151161
1789.93324219,0.04051412
1791.86204956,0.03669594
1793.79085693,0.03845024
1795.71966431,0.04124396
1797.64847168,0.04076695
1799.57727905,0.04020833
1801.50608643,0.03939876
1803.43489380,0.04099432
1805.36370117,0.04202719
1807.29250854,0.04133306
1809.22131592,0.04155677
1811.15012329,0.04056213
1813.07893066,0.04200169
1815.00773804,0.04205786
1816.93654541,0.04168603
1818.86535278,0.04209915
1820.79416016,0.04183275
1822.72296753,0.04261190
1824.65177490,0.03977484
1826.58058228,0.04134548
1828.50938965,0.04145924
1830.43819702,0.03898908
1832.36700439,0.04228514
1834.29581177,0.04190449
1836.22461914,0.04229268
1838.15342651,0.04195866
1840.08223389,0.04220011
1842.01104126,0.04237236
1843.93984863,0.03755433
1845.86865601,0.04025476
1847.79746338,0.04252278
1849.72627075,0.04157159
1851.65507812,0.04280809
1853.58388550,0.04214935
1855.51269287,0.04248227
1857.44150024,0.04225893
1859.37030762,0.04214595
1861.29911499,0.04230043
1863.22792236,0.04194357
1865.15672974,0.04249254
1867.08553711,0.04119536
1869.01434448,0.03934325
1870.94315186,0.04090910
1872.87195923,0.04267799
1874.80076660,0.04186627
1876.72957397,0.04220998
1878.65838135,0.04194749
1880.58718872,0.04180052
1882.51599609,0.04231163
1884.44480347,0.04146235
1886.37361084,0.04226913
1888.30241821,0.04136141
1890.23122559,0.04072829
1892.16003296,0.04225758
1894.08884033,0.04156327
1896.01764771,0.04149678
1897.94645508,0.04180950
1899.87526245,0.04172884
1901.80406982,0.04176236
1903.73287720,0.04153227
1905.66168457,0.04196857
1907.59049194,0.04140627
1909.51929932,0.04117459
1911.44810669,0.04136570
1913.37691406,0.04153026
1915.30572144,0.04200219
1917.23452881,0.03991877
1919.16333618,0.04014803
1921.09214355,0.04183168
1923.02095093,0.04035868
1924.94975830,0.04124035
1926.87856567,0.04184821
1928.80737305,0.04120641
1930.73618042,0.04168217
1932.66498779,0.04136357
1934.59379517,0.04182554
1936.52260254,0.04154702
1938.45140991,0.04163706
1940.38021729,0.04145819
1942.30902466,0.04000545
1944.23783203,0.04092234
1946.16663940,0.04140381
1948.09544678,0.04123662
1950.02425415,0.04146036
1951.95306152,0.04130660
1953.88186890,0.04156838
1955.81067627,0.04138418
1957.73948364,0.04141086
1959.66829102,0.04152115
1961.59709839,0.04129974
1963.52590576,0.04142865
1965.45471313,0.04123164
1967.38352051,0.04075403
1969.31232788,0.04110947
1971.24113525,0.04131819
1973.16994263,0.04108506
1975.09875000,0.04134386
1977.02755737,0.04106725
1978.95636475,0.04108921
1980.88517212,0.04124422
1982.81397949,0.04096090
1984.74278687,0.04109875
1986.67159424,0.04084829
1988.60040161,0.04083269
1990.52920898,0.04054202
1992.45801636,0.04011548
1994.38682373,0.04072981
1996.31563110,0.04075928
1998.24443848,0.04053374
2000.17324585,0.04067674
2002.10205322,0.04047173
2004.03086060,0.04031957
2005.95966797,0.04035598
2007.88847534,0.04038891
2009.81728271,0.04028706
2011.74609009,0.04014296
2013.67489746,0.04015283
2015.60370483,0.03988612
2017.53251221,0.03961735
2019.46131958,0.03975950
2021.39012695,0.03972010
2023.31893433,0.03968020
2025.24774170,0.03972532
2027.17654907,0.03944610
2029.10535645,0.03934158
2031.03416382,0.03951976
2032.96297119,0.03940322
2034.89177856,0.03914979
2036.82058594,0.03916205
2038.74939331,0.03917934
2040.67820068,0.03886772
2042.60700806,0.03873772
2044.53581543,0.03899255
2046.46462280,0.03876697
2048.39343018,0.03859312
2050.32223755,0.03869911
2052.25104492,0.03847795
2054.17985229,0.03850457
2056.10865967,0.03841013
2058.03746704,0.03824243
2059.96627441,0.03833590
2061.89508179,0.03827163
2063.82388916,0.03809828
2065.75269653,0.03795364
2067.68150391,0.03802311
2069.61031128,0.03801576
2071.53911865,0.03799715
2073.46792603,0.03787574
2075.39673340,0.03775095
2077.32554077,0.03779750
2079.25434814,0.03765973
2081.18315552,0.03769081
2083.11196289,0.03755966
2085.04077026,0.03748976
2086.96957764,0.03753566
2088.89838501,0.03735642
2090.82719238,0.03746107
2092.75599976,0.03745335
2094.68480713,0.03737956
2096.61361450,0.03734107
2098.54242187,0.03721390
2100.47122925,0.03715351
2102.40003662,0.03724135
2104.32884399,0.03727464
2106.25765137,0.03700922
2108.18645874,0.03701764
2110.11526611,0.03703146
2112.04407349,0.03692272
2113.97288086,0.03693476
2115.90168823,0.03690766
2117.83049561,0.03690604
2119.75930298,0.03679297
2121.68811035,0.03678175
2123.61691772,0.03671282
2125.54572510,0.03671635
2127.47453247,0.03686722
2129.40333984,0.03668444
2131.33214722,0.03661937
2133.26095459,0.03663237
2135.18976196,0.03657906
2137.11856934,0.03657031
2139.04737671,0.03649183
2140.97618408,0.03668234
2142.90499146,0.03670420
2144.83379883,0.03648293
2146.76260620,0.03658320
2148.69141357,0.03646154
2150.62022095,0.03637453
2152.54902832,0.03651891
2154.47783569,0.03641325
2156.40664307,0.03640373
2158.33545044,0.03633551
2160.26425781,0.03635306
2162.19306519,0.03644216
2164.12187256,0.03635410
2166.05067993,0.03636524
2167.97948730,0.03628460
2169.90829468,0.03643287
2171.83710205,0.03650606
2173.76590942,0.03637309
2175.69471680,0.03643982
2177.62352417,0.03628306
2179.55233154,0.03636944
2181.48113892,0.03649643
2183.40994629,0.03627684
2185.33875366,0.03632184
2187.26756104,0.03630282
2189.19636841,0.03624509
2191.12517578,0.03628428
2193.05398315,0.03618620
2194.98279053,0.03627972
2196.91159790,0.03630091
2198.84040527,0.03627995
2200.76921265,0.03636983
2202.69802002,0.03624440
2204.62682739,0.03625088
2206.55563477,0.03627246
2208.48444214,0.03622618
2210.41324951,0.03627506
2212.34205688,0.03631432
2214.27086426,0.03631364
2216.19967163,0.03617483
2218.12847900,0.03618311
2220.05728638,0.03620632
2221.98609375,0.03622999
2223.91490112,0.03619717
2225.84370850,0.03608073
2227.77251587,0.03617127
2229.70132324,0.03608893
2231.63013062,0.03606978
2233.55893799,0.03614005
2235.48774536,0.03618310
2237.41655273,0.03612016
2239.34536011,0.03592583
2241.27416748,0.03606756
2243.20297485,0.03613618
2245.13178223,0.03614372
2247.06058960,0.03610483
2248.98939697,0.03602606
2250.91820435,0.03605345
2252.84701172,0.03594357
2254.77581909,0.03591001
2256.70462646,0.03593262
2258.63343384,0.03597881
2260.56224121,0.03589717
2262.49104858,0.03589091
2264.41985596,0.03583180
2266.34866333,0.03576529
2268.27747070,0.03599974
2270.20627808,0.03586361
2272.13508545,0.03583293
2274.06389282,0.03588116
2275.99270020,0.03587398
2277.92150757,0.03591360
2279.85031494,0.03572404
2281.77912231,0.03588185
2283.70792969,0.03591925
2285.63673706,0.03588692
2287.56554443,0.03581628
2289.49435181,0.03557703
2291.42315918,0.03563268
2293.35196655,0.03548675
2295.28077393,0.03549847
2297.20958130,0.03563409
2299.13838867,0.03537623
2301.06719604,0.03519713
2302.99600342,0.03516632
2304.92481079,0.03498213
2306.85361816,0.03480248
2308.78242554,0.03466301
2310.71123291,0.03433243
2312.64004028,0.03408732
2314.56884766,0.03380429
2316.49765503,0.03342634
2318.42646240,0.03298951
2320.35526978,0.03242653
2322.28407715,0.03210039
2324.21288452,0.03176083
2326.14169189,0.03134470
2328.07049927,0.03106610
2329.99930664,0.03076107
2331.92811401,0.03049687
2333.85692139,0.03043405
2335.78572876,0.03030062
2337.71453613,0.03018527
2339.64334351,0.03031462
2341.57215088,0.03050237
2343.50095825,0.03091567
2345.42976562,0.03143833
2347.35857300,0.03275147
2349.28738037,0.03393277
2351.21618774,0.03280859
2353.14499512,0.03121459
2355.07380249,0.03017591
2357.00260986,0.02915764
2358.93141724,0.02871663
2360.86022461,0.02830615
2362.78903198,0.02821355
2364.71783936,0.02856586
2366.64664673,0.02878580
2368.57545410,0.02940105
2370.50426147,0.03027737
2372.43306885,0.03109039
2374.36187622,0.03201313
2376.29068359,0.03286026
2378.21949097,0.03360479
2380.14829834,0.03429237
2382.07710571,0.03472406
2384.00591309,0.03492773
2385.93472046,0.03511063
2387.86352783,0.03518637
2389.79233521,0.03518116
2391.72114258,0.03518117
2393.64994995,0.03504020
2395.57875732,0.03501907
2397.50756470,0.03509823
2399.43637207,0.03507770
2401.36517944,0.03500557
2403.29398682,0.03489786
2405.22279419,0.03498370
2407.15160156,0.03497787
2409.08040894,0.03492290
2411.00921631,0.03499250
2412.93802368,0.03492462
2414.86683105,0.03490068
2416.79563843,0.03492472
2418.72444580,0.03500491
2420.65325317,0.03490619
2422.58206055,0.03478244
2424.51086792,0.03490007
2426.43967529,0.03479369
2428.36848267,0.03478726
2430.29729004,0.03488145
2432.22609741,0.03473394
2434.15490479,0.03468733
2436.08371216,0.03479286
2438.01251953,0.03473753
2439.94132690,0.03458739
2441.87013428,0.03463908
2443.79894165,0.03465843
2445.72774902,0.03461677
2447.65655640,0.03459398
2449.58536377,0.03455214
2451.51417114,0.03461618
2453.44297852,0.03458410
2455.37178589,0.03452956
2457.30059326,0.03458856
2459.22940063,0.03449035
2461.15820801,0.03443056
2463.08701538,0.03455670
2465.01582275,0.03454287
2466.94463013,0.03454778
2468.87343750,0.03452222
2470.80224487,0.03445654
2472.73105225,0.03449516
2474.65985962,0.03432559
2476.58866699,0.03429855
2478.51747437,0.03431068
2480.44628174,0.03419485
2482.37508911,0.03424174
2484.30389648,0.03426943
2486.23270386,0.03434470
2488.16151123,0.03423867
2490.09031860,0.03419659
2492.01912598,0.03431100
2493.94793335,0.03410453
2495.87674072,0.03403927
2497.80554810,0.03411399
2499.73435547,0.03401022
2501.66316284,0.03396464
2503.59197021,0.03406549
2505.52077759,0.03406984
2507.44958496,0.03402620
2509.37839233,0.03403643
2511.30719971,0.03390510
2513.23600708,0.03387981
2515.16481445,0.03390065
2517.09362183,0.03385225
2519.02242920,0.03393250
2520.95123657,0.03388906
2522.88004395,0.03382082
2524.80885132,0.03387387
2526.73765869,0.03378681
2528.66646606,0.03366669
2530.59527344,0.03369805
2532.52408081,0.03375404
2534.45288818,0.03374367
2536.38169556,0.03371619
2538.31050293,0.03359862
2540.23931030,0.03356120
2542.16811768,0.03373494
2544.09692505,0.03364941
2546.02573242,0.03355646
2547.95453979,0.03363360
2549.88334717,0.03349748
2551.81215454,0.03348000
2553.74096191,0.03347389
2555.66976929,0.03343252
2557.59857666,0.03345056
2559.52738403,0.03341148
2561.45619141,0.03343777
2563.38499878,0.03336760
2565.31380615,0.03343070
2567.24261353,0.03348384
2569.17142090,0.03340740
2571.10022827,0.03339384
2573.02903564,0.03332469
2574.95784302,0.03326027
2576.88665039,0.03312450
2578.81545776,0.03321052
2580.74426514,0.03321071
2582.67307251,0.03307667
2584.60187988,0.03317592
2586.53068726,0.03311471
2588.45949463,0.03314880
2590.38830200,0.03309824
2592.31710937,0.03298099
2594.24591675,0.03306105
2596.17472412,0.03298045
2598.10353149,0.03296476
2600.03233887,0.03297105
2601.96114624,0.03282458
2603.88995361,0.03274483
2605.81876099,0.03284406
2607.74756836,0.03287651
2609.67637573,0.03277525
2611.60518311,0.03273842
2613.53399048,0.03277871
2615.46279785,0.03277680
2617.39160522,0.03264423
2619.32041260,0.03257889
2621.24921997,0.03250575
2623.17802734,0.03251342
2625.10683472,0.03256940
2627.03564209,0.03249724
2628.96444946,0.03249888
2630.89325684,0.03242394
2632.82206421,0.03241874
2634.75087158,0.03250368
2636.67967895,0.03244510
2638.60848633,0.03232155
2640.53729370,0.03229329
2642.46610107,0.03227893
2644.39490845,0.03224584
2646.32371582,0.03237086
2648.25252319,0.03223206
2650.18133057,0.03210859
2652.11013794,0.03213738
2654.03894531,0.03202576
2655.96775269,0.03210979
2657.89656006,0.03206772
2659.82536743,0.03197321
2661.75417480,0.03197313
2663.68298218,0.03186988
2665.61178955,0.03175256
2667.54059692,0.03171304
2669.46940430,0.03185435
2671.39821167,0.03177268
2673.32701904,0.03160153
2675.25582642,0.03162734
2677.18463379,0.03155015
2679.11344116,0.03152765
2681.04224854,0.03161753
2682.97105591,0.03159241
2684.89986328,0.03155185
2686.82867065,0.03148929
2688.75747803,0.03140011
2690.68628540,0.03141201
2692.61509277,0.03138411
2694.54390015,0.03138347
2696.47270752,0.03137947
2698.40151489,0.03127586
2700.33032227,0.03124294
2702.25912964,0.03128366
2704.18793701,0.03123578
2706.11674438,0.03109968
2708.04555176,0.03112437
2709.97435913,0.03107083
2711.90316650,0.03099542
2713.83197388,0.03102413
2715.76078125,0.03094536
2717.68958862,0.03091173
2719.61839600,0.03081703
2721.54720337,0.03081774
2723.47601074,0.03081809
2725.40481812,0.03067117
2727.33362549,0.03063888
2729.26243286,0.03067192
2731.19124023,0.03064734
2733.12004761,0.03053612
2735.04885498,0.03054926
2736.97766235,0.03045779
2738.90646973,0.03040524
2740.83527710,0.03039913
2742.76408447,0.03025533
2744.69289185,0.03027960
2746.62169922,0.03017817
2748.55050659,0.03018562
2750.47931396,0.03018550
2752.40812134,0.03011473
2754.33692871,0.03011129
2756.26573608,0.02991592
2758.19454346,0.02990596
2760.12335083,0.02985755
2762.05215820,0.02992053
2763.98096558,0.02993811
2765.90977295,0.02974961
2767.83858032,0.02978190
2769.76738770,0.02962478
2771.69619507,0.02952148
2773.62500244,0.02947952
2775.55380981,0.02943223
2777.48261719,0.02948288
2779.41142456,0.02938066
2781.34023193,0.02931256
2783.26903931,0.02933607
2785.19784668,0.02933028
2787.12665405,0.02913922
2789.05546143,0.02909679
2790.98426880,0.02908447
2792.91307617,0.02893347
2794.84188354,0.02895701
2796.77069092,0.02880891
2798.69949829,0.02874053
2800.62830566,0.02880645
2802.55711304,0.02867638
2804.48592041,0.02868181
2806.41472778,0.02865937
2808.34353516,0.02850080
2810.27234253,0.02852276
2812.20114990,0.02850837
2814.12995728,0.02836388
2816.05876465,0.02826359
2817.98757202,0.02817669
2819.91637939,0.02815876
2821.84518677,0.02806544
2823.77399414,0.02793210
2825.70280151,0.02789640
2827.63160889,0.02789123
2829.56041626,0.02782505
2831.48922363,0.02768567
2833.41803101,0.02765623
2835.34683838,0.02757132
2837.27564575,0.02749545
2839.20445312,0.02742021
2841.13326050,0.02729031
2843.06206787,0.02718360
2844.99087524,0.02697065
2846.91968262,0.02693510
2848.84848999,0.02684076
2850.77729736,0.02670553
2852.70610474,0.02665018
2854.63491211,0.02648057
2856.56371948,0.02653810
2858.49252686,0.02659470
2860.42133423,0.02651896
2862.35014160,0.02636879
2864.27894897,0.02620166
2866.20775635,0.02624542
2868.13656372,0.02627666
2870.06537109,0.02605668
2871.99417847,0.02595809
2873.92298584,0.02613442
2875.85179321,0.02596969
2877.78060059,0.02584875
2879.70940796,0.02585109
2881.63821533,0.02563290
2883.56702270,0.02569372
2885.49583008,0.02568255
2887.42463745,0.02552773
2889.35344482,0.02543631
2891.28225220,0.02529167
2893.21105957,0.02525979
2895.13986694,0.02517114
2897.06867432,0.02499158
2898.99748169,0.02490016
2900.92628906,0.02486424
2902.85509644,0.02472088
2904.78390381,0.02459398
2906.71271118,0.02461583
2908.64151855,0.02448562
2910.57032593,0.02422300
2912.49913330,0.02414108
2914.42794067,0.02408628
2916.35674805,0.02392473
2918.28555542,0.02382966
2920.21436279,0.02377164
2922.14317017,0.02373025
2924.07197754,0.02364681
2926.00078491,0.02350480
2927.92959229,0.02342272
2929.85839966,0.02337773
2931.78720703,0.02327733
2933.71601440,0.02316070
2935.64482178,0.02312086
2937.57362915,0.02308803
2939.50243652,0.02306889
2941.43124390,0.02298513
2943.36005127,0.02292496
2945.28885864,0.02281990
2947.21766602,0.02271996
2949.14647339,0.02282908
2951.07528076,0.02263302
2953.00408813,0.02247601
2954.93289551,0.02240586
2956.86170288,0.02213444
2958.79051025,0.02212739
2960.71931763,0.02205859
2962.64812500,0.02192332
2964.57693237,0.02186155
2966.50573975,0.02174273
2968.43454712,0.02167139
2970.36335449,0.02167634
2972.29216187,0.02161951
2974.22096924,0.02153486
2976.14977661,0.02163526
2978.07858398,0.02152929
2980.00739136,0.02138553
2981.93619873,0.02130335
2983.86500610,0.02112774
2985.79381348,0.02112667
2987.72262085,0.02105360
2989.65142822,0.02089570
2991.58023560,0.02074913
2993.50904297,0.02068275
2995.43785034,0.02065224
2997.36665771,0.02058848
2999.29546509,0.02042737
3001.22427246,0.02022466
3003.15307983,0.02025610
3005.08188721,0.02013866
3007.01069458,0.01995420
3008.93950195,0.01979168
3010.86830933,0.01967533
3012.79711670,0.01969956
3014.72592407,0.01951649
3016.65473145,0.01932306
3018.58353882,0.01917683
3020.51234619,0.01921091
3022.44115356,0.01915554
3024.36996094,0.01888925
3026.29876831,0.01882854
3028.22757568,0.01867937
3030.15638306,0.01856237
3032.08519043,0.01850136
3034.01399780,0.01840263
3035.94280518,0.01825565
3037.87161255,0.01809997
3039.80041992,0.01804748
3041.72922729,0.01786665
3043.65803467,0.01785813
3045.58684204,0.01771698
3047.51564941,0.01744796
3049.44445679,0.01752701
3051.37326416,0.01738053
3053.30207153,0.01722869
3055.23087891,0.01716905
3057.15968628,0.01695753
3059.08849365,0.01690724
3061.01730103,0.01674564
3062.94610840,0.01652754
3064.87491577,0.01645392
3066.80372314,0.01638153
3068.73253052,0.01623918
3070.66133789,0.01609231
3072.59014526,0.01611082
3074.51895264,0.01602538
3076.44776001,0.01594989
3078.37656738,0.01577609
3080.30537476,0.01550454
3082.23418213,0.01548659
3084.16298950,0.01529529
3086.09179687,0.01526875
3088.02060425,0.01521538
3089.94941162,0.01498038
3091.87821899,0.01501836
3093.80702637,0.01486082
3095.73583374,0.01469343
3097.66464111,0.01455336
3099.59344849,0.01447001
3101.52225586,0.01434591
3103.45106323,0.01409472
3105.37987061,0.01407981
3107.30867798,0.01399158
3109.23748535,0.01392958
3111.16629272,0.01376580
3113.09510010,0.01357657
3115.02390747,0.01349794
3116.95271484,0.01340660
3118.88152222,0.01336543
3120.81032959,0.01316541
3122.73913696,0.01309889
3124.66794434,0.01301962
3126.59675171,0.01295255
3128.52555908,0.01280484
3130.45436645,0.01261955
3132.38317383,0.01265919
3134.31198120,0.01247394
3136.24078857,0.01244302
3138.16959595,0.01230219
3140.09840332,0.01209938
3142.02721069,0.01214280
3143.95601807,0.01201131
3145.88482544,0.01187040
3147.81363281,0.01172398
3149.74244019,0.01167218
3151.67124756,0.01156897
3153.60005493,0.01154768
3155.52886230,0.01142495
3157.45766968,0.01116163
3159.38647705,0.01123138
3161.31528442,0.01116410
3163.24409180,0.01109938
3165.17289917,0.01099182
3167.10170654,0.01086298
3169.03051392,0.01090109
3170.95932129,0.01079901
3172.88812866,0.01067588
3174.81693604,0.01060392
3176.74574341,0.01061825
3178.67455078,0.01049757
3180.60335815,0.01035542
3182.53216553,0.01034479
3184.46097290,0.01036528
3186.38978027,0.01028589
3188.31858765,0.01015765
3190.24739502,0.01016337
3192.17620239,0.01004546
3194.10500977,0.00999843
3196.03381714,0.00990487
3197.96262451,0.00988626
3199.89143188,0.00997387
3201.82023926,0.00982332
3203.74904663,0.00982213
3205.67785400,0.00978008
3207.60666138,0.00972240
3209.53546875,0.00973157
3211.46427612,0.00969614
3213.39308350,0.00963025
3215.32189087,0.00962155
3217.25069824,0.00972822
3219.17950562,0.00956153
3221.10831299,0.00944306
3223.03712036,0.00946402
3224.96592773,0.00943325
3226.89473511,0.00943702
3228.82354248,0.00952492
3230.75234985,0.00950729
3232.68115723,0.00931754
3234.60996460,0.00944919
3236.53877197,0.00954783
3238.46757935,0.00948231
3240.39638672,0.00940110
3242.32519409,0.00931966
3244.25400146,0.00937327
3246.18280884,0.00930345
3248.11161621,0.00930915
3250.04042358,0.00942695
3251.96923096,0.00944799
3253.89803833,0.00932680
3255.82684570,0.00929207
3257.75565308,0.00939397
3259.68446045,0.00944349
3261.61326782,0.00944441
3263.54207520,0.00941929
3265.47088257,0.00947104
3267.39968994,0.00936891
3269.32849731,0.00940447
3271.25730469,0.00945656
3273.18611206,0.00936098
3275.11491943,0.00939339
3277.04372681,0.00930146
3278.97253418,0.00948345
3280.90134155,0.00950785
3282.83014893,0.00932292
3284.75895630,0.00946636
3286.68776367,0.00942172
3288.61657104,0.00937168
3290.54537842,0.00945549
3292.47418579,0.00943280
3294.40299316,0.00939688
3296.33180054,0.00951873
3298.26060791,0.00949901
3300.18941528,0.00938731
3302.11822266,0.00952226
3304.04703003,0.00950586
3305.97583740,0.00946062
3307.90464478,0.00955412
3309.83345215,0.00950653
3311.76225952,0.00944888
3313.69106689,0.00951630
3315.61987427,0.00949864
3317.54868164,0.00953195
3319.47748901,0.00960137
3321.40629639,0.00953154
3323.33510376,0.00955890
3325.26391113,0.00957603
3327.19271851,0.00956412
3329.12152588,0.00952721
3331.05033325,0.00961003
3332.97914062,0.00966585
3334.90794800,0.00955074
3336.83675537,0.00956354
3338.76556274,0.00952271
3340.69437012,0.00959864
3342.62317749,0.00958265
3344.55198486,0.00958625
3346.48079224,0.00967552
3348.40959961,0.00951869
3350.33840698,0.00961589
3352.26721436,0.00964716
3354.19602173,0.00953608
3356.12482910,0.00959652
3358.05363647,0.00972666
3359.98244385,0.00971539
3361.91125122,0.00968457
3363.84005859,0.00977791
3365.76886597,0.00973999
3367.69767334,0.00979386
3369.62648071,0.00970358
3371.55528809,0.00972985
3373.48409546,0.00990738
3375.41290283,0.00987817
3377.34171020,0.00990645
3379.27051758,0.00986859
3381.19932495,0.00988965
3383.12813232,0.00985483
3385.05693970,0.00995313
3386.98574707,0.01004102
3388.91455444,0.01002095
3390.84336182,0.01008753
3392.77216919,0.00998968
3394.70097656,0.01006504
3396.62978394,0.01001861
3398.55859131,0.01004570
3400.48739868,0.01017806
3402.41620605,0.01017482
3404.34501343,0.01026237
3406.27382080,0.01026337
3408.20262817,0.01040676
3410.13143555,0.01045681
3412.06024292,0.01047216
3413.98905029,0.01044322
3415.91785767,0.01044816
3417.84666504,0.01055252
3419.77547241,0.01044664
3421.70427979,0.01051301
3423.63308716,0.01054241
3425.56189453,0.01055916
3427.49070190,0.01062799
3429.41950928,0.01073901
3431.34831665,0.01077529
3433.27712402,0.01073855
3435.20593140,0.01078723
3437.13473877,0.01063656
3439.06354614,0.01082200
3440.99235352,0.01097348
3442.92116089,0.01098780
3444.84996826,0.01104184
3446.77877563,0.01087324
3448.70758301,0.01099071
3450.63639038,0.01110359
3452.56519775,0.01116584
3454.49400513,0.01126057
3456.42281250,0.01128436
3458.35161987,0.01131646
3460.28042725,0.01135163
3462.20923462,0.01135146
3464.13804199,0.01140652
3466.06684937,0.01145901
3467.99565674,0.01138546
3469.92446411,0.01160723
3471.85327148,0.01159349
3473.78207886,0.01153990
3475.71088623,0.01159880
3477.63969360,0.01156567
3479.56850098,0.01173796
3481.49730835,0.01156684
3483.42611572,0.01171893
3485.35492310,0.01193799
3487.28373047,0.01182010
3489.21253784,0.01191371
3491.14134521,0.01200861
3493.07015259,0.01203476
3494.99895996,0.01197358
3496.92776733,0.01211585
3498.85657471,0.01217581
3500.78538208,0.01224131
3502.71418945,0.01208859
3504.64299683,0.01208598
3506.57180420,0.01252463
3508.50061157,0.01230328
3510.42941895,0.01230129
3512.35822632,0.01251711
3514.28703369,0.01259562
3516.21584106,0.01259985
3518.14464844,0.01254741
3520.07345581,0.01277446
3522.00226318,0.01264028
3523.93107056,0.01260010
3525.85987793,0.01263697
3527.78868530,0.01266044
3529.71749268,0.01281017
3531.64630005,0.01296762
3533.57510742,0.01312945
3535.50391479,0.01297050
3537.43272217,0.01304112
3539.36152954,0.01312850
3541.29033691,0.01319142
3543.21914429,0.01329096
3545.14795166,0.01299957
3547.07675903,0.01284420
3549.00556641,0.01321617
3550.93437378,0.01338303
3552.86318115,0.01315016
3554.79198853,0.01346660
3556.72079590,0.01370991
3558.64960327,0.01357863
3560.57841064,0.01347666
3562.50721802,0.01355470
3564.43602539,0.01363144
3566.36483276,0.01286326
3568.29364014,0.01253337
3570.22244751,0.01350399
3572.15125488,0.01416135
3574.08006226,0.01395207
3576.00886963,0.01399838
3577.93767700,0.01410930
3579.86648437,0.01409136
3581.79529175,0.01412069
3583.72409912,0.01411148
3585.65290649,0.01389896
3587.58171387,0.01279529
3589.51052124,0.01317563
3591.43932861,0.01439996
3593.36813599,0.01406398
3595.29694336,0.01388205
3597.22575073,0.01416468
3599.15455811,0.01435471
3601.08336548,0.01418736
3603.01217285,0.01446306
3604.94098022,0.01475181
3606.86978760,0.01412804
3608.79859497,0.01348982
3610.72740234,0.01386898
3612.65620972,0.01415924
3614.58501709,0.01380607
3616.51382446,0.01481803
3618.44263184,0.01372197
3620.37143921,0.01333721
3622.30024658,0.01507962
3624.22905395,0.01468333
3626.15786133,0.01541045
3628.08666870,0.01317242
3630.01547607,0.01207576
3631.94428345,0.01507959
3633.87309082,0.01478131
3635.80189819,0.01508901
3637.73070557,0.01539366
3639.65951294,0.01527150
3641.58832031,0.01547660
3643.51712769,0.01528975
3645.44593506,0.01547251
3647.37474243,0.01405386
3649.30354980,0.01292190
3651.23235718,0.01313107
3653.16116455,0.01559537
3655.08997192,0.01537597
3657.01877930,0.01394557
3658.94758667,0.01601731
3660.87639404,0.01572990
3662.80520142,0.01602401
3664.73400879,0.01599569
3666.66281616,0.01596086
3668.59162354,0.01558910
3670.52043091,0.01275821
3672.44923828,0.01543629
3674.37804565,0.01477218
3676.30685303,0.01214645
3678.23566040,0.01546435
3680.16446777,0.01594621
3682.09327515,0.01596566
3684.02208252,0.01650563
3685.95088989,0.01611535
3687.87969727,0.01471845
3689.80850464,0.01343755
3691.73731201,0.01520964
3693.66611938,0.01589835
3695.59492676,0.01629099
3697.52373413,0.01628489
3699.45254150,0.01612056
3701.38134888,0.01582428
3703.31015625,0.01516858
3705.23896362,0.01663353
3707.16777100,0.01586797
3709.09657837,0.01550222
3711.02538574,0.01467201
3712.95419312,0.01366976
3714.88300049,0.01616702
3716.81180786,0.01593555
3718.74061523,0.01602556
3720.66942261,0.01575786
3722.59822998,0.01520717
3724.52703735,0.01576897
3726.45584473,0.01449976
3728.38465210,0.01584986
3730.31345947,0.01571824
3732.24226685,0.01443393
3734.17107422,0.01406135
3736.09988159,0.01329481
3738.02868896,0.01418640
3739.95749634,0.01526036
3741.88630371,0.01611982
3743.81511108,0.01261074
3745.74391846,0.01174313
3747.67272583,0.01528381
3749.60153320,0.01316782
3751.53034058,0.01215591
3753.45914795,0.01389316
3755.38795532,0.01495517
3757.31676270,0.01562410
3759.24557007,0.01442252
3761.17437744,0.01491013
3763.10318481,0.01591450
3765.03199219,0.01485720
3766.96079956,0.01513065
3768.88960693,0.01504381
3770.81841431,0.01429864
3772.74722168,0.01549749
3774.67602905,0.01553711
3776.60483643,0.01551254
3778.53364380,0.01516849
3780.46245117,0.01451105
3782.39125854,0.01557087
3784.32006592,0.01521993
3786.24887329,0.01499975
3788.17768066,0.01535242
3790.10648804,0.01530487
3792.03529541,0.01526395
3793.96410278,0.01546646
3795.89291016,0.01450814
3797.82171753,0.01435994
3799.75052490,0.01515514
3801.67933228,0.01191416
3803.60813965,0.01396512
3805.53694702,0.01532516
3807.46575439,0.01242935
3809.39456177,0.01508877
3811.32336914,0.01480308
3813.25217651,0.01530450
3815.18098389,0.01393493
3817.10979126,0.01210277
3819.03859863,0.01530387
3820.96740601,0.01241344
3822.89621338,0.01304650
3824.82502075,0.01528168
3826.75382812,0.01375093
3828.68263550,0.01491082
3830.61144287,0.01432472
3832.54025024,0.01372552
3834.46905762,0.01405600
3836.39786499,0.01342079
3838.32667236,0.01212848
3840.25547974,0.01306909
3842.18428711,0.01421209
3844.11309448,0.01349160
3846.04190186,0.01453364
3847.97070923,0.01446299
3849.89951660,0.01445216
3851.82832397,0.01306254
3853.75713135,0.00971161
3855.68593872,0.01141354
3857.61474609,0.01445789
3859.54355347,0.01406460
3861.47236084,0.01394059
3863.40116821,0.01360522
3865.32997559,0.01258305
3867.25878296,0.01412603
3869.18759033,0.01293989
3871.11639770,0.01188876
3873.04520508,0.01405602
3874.97401245,0.01302117
3876.90281982,0.01410828
3878.83162720,0.01439528
3880.76043457,0.01224730
3882.68924194,0.01407216
3884.61804932,0.01328748
3886.54685669,0.01199694
3888.47566406,0.01406758
3890.40447144,0.01347149
3892.33327881,0.01248850
3894.26208618,0.01375113
3896.19089355,0.01409629
3898.11970093,0.01343615
3900.04850830,0.01275897
3901.97731567,0.01254087
3903.90612305,0.01239368
3905.83493042,0.01255513
3907.76373779,0.01374126
3909.69254517,0.01380786
3911.62135254,0.01360391
3913.55015991,0.01386777
3915.47896728,0.01343864
3917.40777466,0.01307434
3919.33658203,0.01305426
3921.26538940,0.01347065
3923.19419678,0.01335040
3925.12300415,0.01318136
3927.05181152,0.01344885
3928.98061890,0.01349630
3930.90942627,0.01321675
3932.83823364,0.01273572
3934.76704102,0.01324913
3936.69584839,0.01344580
3938.62465576,0.01329417
3940.55346313,0.01346824
3942.48227051,0.01293310
3944.41107788,0.01304272
3946.33988525,0.01332823
3948.26869263,0.01294639
3950.19750000,0.01307365
3952.12630737,0.01326251
3954.05511475,0.01316990
3955.98392212,0.01312599
3957.91272949,0.01298594
3959.84153687,0.01309414
3961.77034424,0.01309927
3963.69915161,0.01297947
3965.62795898,0.01312993
3967.55676636,0.01302253
3969.48557373,0.01300261
3971.41438110,0.01298362
3973.34318848,0.01292257
3975.27199585,0.01289953
3977.20080322,0.01281386
3979.12961060,0.01293011
3981.05841797,0.01285451
3982.98722534,0.01282412
3984.91603271,0.01278783
3986.84484009,0.01280710
3988.77364746,0.01279266
3990.70245483,0.01270489
3992.63126221,0.01280782
3994.56006958,0.01265079
3996.48887695,0.01271472
3998.41768433,0.01272517
4000.34649170,0.01268040
4002.27529907,0.01266493
4004.20410645,0.01253564
4006.13291382,0.01266578
4008.06172119,0.01251887
4009.99052856,0.01251329
4011.91933594,0.01249928
4013.84814331,0.01238796
4015.77695068,0.01247036
4017.70575806,0.01242015
4019.63456543,0.01243488
4021.56337280,0.01239072
4023.49218018,0.01240052
4025.42098755,0.01232253
4027.34979492,0.01228667
4029.27860229,0.01228104
4031.20740967,0.01218220
4033.13621704,0.01224512
4035.06502441,0.01220220
4036.99383179,0.01224781
4038.92263916,0.01221765
4040.85144653,0.01217704
4042.78025391,0.01221886
4044.70906128,0.01214248
4046.63786865,0.01213843
4048.56667603,0.01205550
4050.49548340,0.01197937
4052.42429077,0.01197324
4054.35309814,0.01195804
4056.28190552,0.01194907
4058.21071289,0.01201948
4060.13952026,0.01201919
4062.06832764,0.01194567
4063.99713501,0.01190375
4065.92594238,0.01188496
4067.85474976,0.01191229
4069.78355713,0.01181931
4071.71236450,0.01189949
4073.64117187,0.01186912
4075.56997925,0.01174079
4077.49878662,0.01175015
4079.42759399,0.01168684
4081.35640137,0.01176374
4083.28520874,0.01166929
4085.21401611,0.01169259
4087.14282349,0.01172519
4089.07163086,0.01156677
4091.00043823,0.01160311
4092.92924561,0.01154225
4094.85805298,0.01155820
4096.78686035,0.01155412
4098.71566772,0.01149984
4100.64447510,0.01150746
4102.57328247,0.01148022
4104.50208984,0.01148152
4106.43089722,0.01141600
4108.35970459,0.01138628
4110.28851196,0.01135618
4112.21731934,0.01136102
4114.14612671,0.01137447
4116.07493408,0.01128361
4118.00374145,0.01122885
4119.93254883,0.01127687
4121.86135620,0.01122970
4123.79016357,0.01121164
4125.71897095,0.01125649
4127.64777832,0.01109358
4129.57658569,0.01109804
4131.50539307,0.01108996
4133.43420044,0.01105943
4135.36300781,0.01116432
4137.29181519,0.01103038
4139.22062256,0.01098949
4141.14942993,0.01108773
4143.07823730,0.01107542
4145.00704468,0.01098136
4146.93585205,0.01094220
4148.86465942,0.01093888
4150.79346680,0.01100995
4152.72227417,0.01100300
4154.65108154,0.01081956
4156.57988892,0.01085916
4158.50869629,0.01086631
4160.43750366,0.01082592
4162.36631103,0.01075249
4164.29511841,0.01070036
4166.22392578,0.01077702
4168.15273315,0.01069351
4170.08154053,0.01066411
4172.01034790,0.01063553
4173.93915527,0.01071672
4175.86796265,0.01070669
4177.79677002,0.01058364
4179.72557739,0.01065292
4181.65438477,0.01056949
4183.58319214,0.01058453
4185.51199951,0.01058757
4187.44080688,0.01048450
4189.36961426,0.01046146
4191.29842163,0.01049125
4193.22722900,0.01057715
4195.15603638,0.01048916
4197.08484375,0.01043421
4199.01365112,0.01037774
4200.94245850,0.01029683
4202.87126587,0.01038172
4204.80007324,0.01038046
4206.72888062,0.01031392
4208.65768799,0.01034964
4210.58649536,0.01031163
4212.51530273,0.01024685
4214.44411011,0.01026698
4216.37291748,0.01022704
4218.30172485,0.01023428
4220.23053223,0.01021350
4222.15933960,0.01015607
4224.08814697,0.01015622
4226.01695435,0.01015069
4227.94576172,0.01012236
4229.87456909,0.01000442
4231.80337646,0.00998032
4233.73218384,0.01006260
4235.66099121,0.01011338
4237.58979858,0.01005188
4239.51860596,0.00999465
4241.44741333,0.00991815
4243.37622070,0.00983101
4245.30502808,0.00992658
4247.23383545,0.00992772
4249.16264282,0.00990525
4251.09145020,0.00989633
4253.02025757,0.00987682
4254.94906494,0.00984318
4256.87787231,0.00984725
4258.80667969,0.00987577
4260.73548706,0.00971174
4262.66429443,0.00973213
4264.59310181,0.00970030
4266.52190918,0.00971465
4268.45071655,0.00976037
4270.37952393,0.00960050
4272.30833130,0.00962691
4274.23713867,0.00957012
4276.16594604,0.00963848
4278.09475342,0.00962021
4280.02356079,0.00956683
4281.95236816,0.00959017
4283.88117554,0.00944198
4285.80998291,0.00952436
4287.73879028,0.00939983
4289.66759766,0.00941006
4291.59640503,0.00951439
4293.52521240,0.00941486
4295.45401978,0.00943484
4297.38282715,0.00932863
4299.31163452,0.00940129
4301.24044189,0.00939167
4303.16924927,0.00927752
4305.09805664,0.00929929
4307.02686401,0.00927980
4308.95567139,0.00925178
4310.88447876,0.00925215
4312.81328613,0.00932824
4314.74209351,0.00922486
4316.67090088,0.00918703
4318.59970825,0.00918445
4320.52851562,0.00915582
4322.45732300,0.00917212
4324.38613037,0.00904678
4326.31493774,0.00910065
4328.24374512,0.00914120
4330.17255249,0.00910255
4332.10135986,0.00909431
4334.03016724,0.00907066
4335.95897461,0.00908185
4337.88778198,0.00902017
4339.81658936,0.00903591
4341.74539673,0.00902621
4343.67420410,0.00894128
4345.60301147,0.00893017
4347.53181885,0.00893680
4349.46062622,0.00889106
4351.38943359,0.00883162
4353.31824097,0.00885814
4355.24704834,0.00877151
4357.17585571,0.00868137
4359.10466309,0.00886084
4361.03347046,0.00891123
4362.96227783,0.00881799
4364.89108520,0.00879379
4366.81989258,0.00871246
4368.74869995,0.00871347
4370.67750732,0.00869675
4372.60631470,0.00871196
4374.53512207,0.00868537
4376.46392944,0.00860660
4378.39273682,0.00867254
4380.32154419,0.00857395
4382.25035156,0.00862869
4384.17915894,0.00859735
4386.10796631,0.00846071
4388.03677368,0.00861144
4389.96558105,0.00857631
4391.89438843,0.00854156
4393.82319580,0.00845610
4395.75200317,0.00840671
4397.68081055,0.00842352
4399.60961792,0.00837341
4401.53842529,0.00843016
4403.46723267,0.00836923
4405.39604004,0.00839198
4407.32484741,0.00836879
4409.25365478,0.00835921
4411.18246216,0.00835226
4413.11126953,0.00822437
4415.04007690,0.00829185
4416.96888428,0.00829502
4418.89769165,0.00826389
4420.82649902,0.00826054
4422.75530640,0.00825593
4424.68411377,0.00820362
4426.61292114,0.00816732
4428.54172852,0.00817217
4430.47053589,0.00813423
4432.39934326,0.00819723
4434.32815063,0.00811624
4436.25695801,0.00803398
4438.18576538,0.00803379
4440.11457275,0.00806417
4442.04338013,0.00801245
4443.97218750,0.00796079
4445.90099487,0.00807844
4447.82980225,0.00798170
4449.75860962,0.00800079
4451.68741699,0.00800980
4453.61622437,0.00793542
4455.54503174,0.00789654
4457.47383911,0.00785080
4459.40264648,0.00796562
4461.33145386,0.00781373
4463.26026123,0.00784928
4465.18906860,0.00792795
4467.11787598,0.00779581
4469.04668335,0.00783522
4470.97549072,0.00779645
4472.90429810,0.00779889
4474.83310547,0.00774682
4476.76191284,0.00775283
4478.69072021,0.00770091
4480.61952759,0.00766535
4482.54833496,0.00781290
4484.47714233,0.00765896
4486.40594971,0.00764149
4488.33475708,0.00772349
4490.26356445,0.00763279
4492.19237183,0.00759614
4494.12117920,0.00753879
4496.04998657,0.00753800
4497.97879395,0.00756128
4499.90760132,0.00750524
4501.83640869,0.00750944
4503.76521606,0.00751974
4505.69402344,0.00742539
4507.62283081,0.00745117
4509.55163818,0.00745763
4511.48044556,0.00743194
4513.40925293,0.00738404
4515.33806030,0.00729414
4517.26686768,0.00740969
4519.19567505,0.00735280
4521.12448242,0.00730729
4523.05328979,0.00736926
4524.98209717,0.00732295
4526.91090454,0.00735169
4528.83971191,0.00724887
4530.76851929,0.00725764
4532.69732666,0.00730805
4534.62613403,0.00725108
4536.55494141,0.00723994
4538.48374878,0.00709612
4540.41255615,0.00714549
4542.34136353,0.00721235
4544.27017090,0.00706760
4546.19897827,0.00708246
4548.12778564,0.00709034
4550.05659302,0.00705208
4551.98540039,0.00705789
4553.91420776,0.00705159
4555.84301514,0.00708582
4557.77182251,0.00702194
4559.70062988,0.00691957
4561.62943726,0.00697035
4563.55824463,0.00703422
4565.48705200,0.00698687
4567.41585937,0.00699771
4569.34466675,0.00698977
4571.27347412,0.00690001
4573.20228149,0.00693501
4575.13108887,0.00690289
4577.05989624,0.00688452
4578.98870361,0.00689881
4580.91751099,0.00681440
4582.84631836,0.00683029
4584.77512573,0.00681501
4586.70393311,0.00681853
4588.63274048,0.00679766
4590.56154785,0.00673495
4592.49035522,0.00673083
4594.41916260,0.00673804
4596.34796997,0.00678797
4598.27677734,0.00670137
4600.20558472,0.00669330
4602.13439209,0.00674772
4604.06319946,0.00667451
4605.99200684,0.00663089
4607.92081421,0.00664732
4609.84962158,0.00663909
4611.77842895,0.00658305
4613.70723633,0.00663008
4615.63604370,0.00653747
4617.56485107,0.00649564
4619.49365845,0.00658621
4621.42246582,0.00651291
4623.35127319,0.00652369
4625.28008057,0.00656887
4627.20888794,0.00654570
4629.13769531,0.00644166
4631.06650269,0.00644860
4632.99531006,0.00643589
4634.92411743,0.00636074
4636.85292480,0.00643169
4638.78173218,0.00638723
4640.71053955,0.00641898
4642.63934692,0.00639579
4644.56815430,0.00635162
4646.49696167,0.00636043
4648.42576904,0.00629181
4650.35457642,0.00636672
4652.28338379,0.00631419
4654.21219116,0.00626131
4656.14099853,0.00621214
4658.06980591,0.00620480
4659.99861328,0.00635196
4661.92742065,0.00626768
4663.85622803,0.00617592
4665.78503540,0.00621724
4667.71384277,0.00621875
4669.64265015,0.00618547
4671.57145752,0.00616069
4673.50026489,0.00613908
4675.42907227,0.00615438
4677.35787964,0.00610205
4679.28668701,0.00608675
4681.21549438,0.00615079
4683.14430176,0.00602804
4685.07310913,0.00605895
4687.00191650,0.00612278
4688.93072388,0.00600216
4690.85953125,0.00598464
4692.78833862,0.00606704
4694.71714600,0.00604502
4696.64595337,0.00593372
4698.57476074,0.00596861
4700.50356812,0.00595842
4702.43237549,0.00594211
4704.36118286,0.00589485
4706.28999023,0.00588114
4708.21879761,0.00593064
4710.14760498,0.00584954
4712.07641235,0.00587015
4714.00521973,0.00579483
4715.93402710,0.00583670
4717.86283447,0.00587188
4719.79164185,0.00578210
4721.72044922,0.00586146
4723.64925659,0.00575152
4725.57806396,0.00577620
4727.50687134,0.00587500
4729.43567871,0.00576067
4731.36448608,0.00566484
4733.29329346,0.00569973
4735.22210083,0.00574135
4737.15090820,0.00576087
4739.07971558,0.00576656
4741.00852295,0.00557644
4742.93733032,0.00562811
4744.86613770,0.00566049
4746.79494507,0.00561661
4748.72375244,0.00563793
4750.65255981,0.00553034
4752.58136719,0.00565941
4754.51017456,0.00558149
4756.43898193,0.00551900
4758.36778931,0.00558251
4760.29659668,0.00553416
4762.22540405,0.00560866
4764.15421143,0.00552882
4766.08301880,0.00553752
4768.01182617,0.00554948
4769.94063354,0.00546679
4771.86944092,0.00542928
4773.79824829,0.00542473
4775.72705566,0.00545819
4777.65586304,0.00545023
4779.58467041,0.00546676
4781.51347778,0.00536598
4783.44228516,0.00538949
4785.37109253,0.00542581
4787.29989990,0.00537287
4789.22870728,0.00536627
4791.15751465,0.00528031
4793.08632202,0.00533940
4795.01512939,0.00531387
4796.94393677,0.00524131
4798.87274414,0.00529966
4800.80155151,0.00529226
4802.73035889,0.00525025
4804.65916626,0.00522707
4806.58797363,0.00527116
4808.51678101,0.00524935
4810.44558838,0.00515254
4812.37439575,0.00520243
4814.30320312,0.00531081
4816.23201050,0.00521966
4818.16081787,0.00517006
4820.08962524,0.00519899
4822.01843262,0.00513600
4823.94723999,0.00508978
4825.87604736,0.00507871
4827.80485474,0.00512565
4829.73366211,0.00505722
4831.66246948,0.00505531
4833.59127686,0.00508328
4835.52008423,0.00501791
4837.44889160,0.00505020
4839.37769897,0.00502704
4841.30650635,0.00506726
4843.23531372,0.00501476
4845.16412109,0.00496833
4847.09292847,0.00501741
4849.02173584,0.00495869
4850.95054321,0.00497623
4852.87935059,0.00489933
4854.80815796,0.00488919
4856.73696533,0.00493940
4858.66577270,0.00489394
4860.59458008,0.00491638
4862.52338745,0.00490839
4864.45219482,0.00488480
4866.38100220,0.00484120
4868.30980957,0.00484050
4870.23861694,0.00486673
4872.16742432,0.00482250
4874.09623169,0.00480366
4876.02503906,0.00481487
4877.95384644,0.00481146
4879.88265381,0.00482249
4881.81146118,0.00477511
4883.74026855,0.00478100
4885.66907593,0.00481156
4887.59788330,0.00468184
4889.52669067,0.00473493
4891.45549805,0.00472297
4893.38430542,0.00463271
4895.31311279,0.00468217
4897.24192017,0.00458689
4899.17072754,0.00464860
4901.09953491,0.00464494
4903.02834228,0.00457445
4904.95714966,0.00466488
4906.88595703,0.00466615
4908.81476440,0.00467253
4910.74357178,0.00468256
4912.67237915,0.00467835
4914.60118652,0.00455800
4916.52999390,0.00455865
4918.45880127,0.00458485
4920.38760864,0.00447606
4922.31641602,0.00457872
4924.24522339,0.00457125
4926.17403076,0.00451731
4928.10283813,0.00448738
4930.03164551,0.00439707
4931.96045288,0.00448683
4933.88926025,0.00449423
4935.81806763,0.00445358
4937.74687500,0.00447153
4939.67568237,0.00441216
4941.60448975,0.00441823
4943.53329712,0.00442776
4945.46210449,0.00443599
4947.39091187,0.00444937
4949.31971924,0.00434784
4951.24852661,0.00436287
4953.17733398,0.00435787
4955.10614136,0.00436288
4957.03494873,0.00442943
4958.96375610,0.00430347
4960.89256348,0.00433631
4962.82137085,0.00434495
4964.75017822,0.00428651
4966.67898560,0.00429046
4968.60779297,0.00426682
4970.53660034,0.00436145
4972.46540771,0.00429088
4974.39421509,0.00429945
4976.32302246,0.00429922
4978.25182983,0.00419002
4980.18063721,0.00422580
4982.10944458,0.00416654
4984.03825195,0.00418291
4985.96705933,0.00415294
4987.89586670,0.00415387
4989.82467407,0.00421123
4991.75348145,0.00413187
4993.68228882,0.00417214
4995.61109619,0.00417842
4997.53990356,0.00412584
4999.46871094,0.00409372
5001.39751831,0.00410703
5003.32632568,0.00408887
5005.25513306,0.00403290
5007.18394043,0.00409208
5009.11274780,0.00407256
5011.04155518,0.00401978
5012.97036255,0.00403563
5014.89916992,0.00405324
5016.82797729,0.00400052
5018.75678467,0.00395295
5020.68559204,0.00403302
5022.61439941,0.00401054
5024.54320679,0.00390774
5026.47201416,0.00393542
5028.40082153,0.00393176
5030.32962891,0.00387422
5032.25843628,0.00389500
5034.18724365,0.00392612
5036.11605103,0.00395000
5038.04485840,0.00388843
5039.97366577,0.00384549
5041.90247314,0.00388524
5043.83128052,0.00389776
5045.76008789,0.00392242
5047.68889526,0.00384946
5049.61770264,0.00386447
5051.54651001,0.00390543
5053.47531738,0.00382464
5055.40412476,0.00382628
5057.33293213,0.00382813
5059.26173950,0.00383608
5061.19054687,0.00378410
5063.11935425,0.00377360
5065.04816162,0.00380665
5066.97696899,0.00375262
5068.90577637,0.00377940
5070.83458374,0.00378268
5072.76339111,0.00373056
5074.69219849,0.00372487
5076.62100586,0.00376959
5078.54981323,0.00371155
5080.47862061,0.00365985
5082.40742798,0.00371703
5084.33623535,0.00369609
5086.26504272,0.00368788
5088.19385010,0.00361346
5090.12265747,0.00359542
5092.05146484,0.00369623
5093.98027222,0.00366539
5095.90907959,0.00359661
5097.83788696,0.00360803
5099.76669434,0.00365928
5101.69550171,0.00362709
5103.62430908,0.00362325
5105.55311645,0.00362194
5107.48192383,0.00357549
5109.41073120,0.00360163
5111.33953857,0.00355841
5113.26834595,0.00354939
5115.19715332,0.00356585
5117.12596069,0.00348496
5119.05476807,0.00351739
5120.98357544,0.00353765
5122.91238281,0.00347660
5124.84119019,0.00352243
5126.76999756,0.00346933
5128.69880493,0.00344668
5130.62761230,0.00351887
5132.55641968,0.00339416
5134.48522705,0.00338833
5136.41403442,0.00347169
5138.34284180,0.00344184
5140.27164917,0.00345777
5142.20045654,0.00348341
5144.12926392,0.00347328
5146.05807129,0.00340719
5147.98687866,0.00339052
5149.91568603,0.00341256
5151.84449341,0.00339076
5153.77330078,0.00335779
5155.70210815,0.00333625
5157.63091553,0.00333912
5159.55972290,0.00333285
5161.48853027,0.00333716
5163.41733765,0.00333491
5165.34614502,0.00331767
5167.27495239,0.00332844
5169.20375977,0.00334494
5171.13256714,0.00327189
5173.06137451,0.00326901
5174.99018188,0.00328397
5176.91898926,0.00322827
5178.84779663,0.00332052
5180.77660400,0.00324344
5182.70541138,0.00317542
5184.63421875,0.00324609
5186.56302612,0.00319579
5188.49183350,0.00326052
5190.42064087,0.00321823
5192.34944824,0.00316496
5194.27825562,0.00321974
5196.20706299,0.00316202
5198.13587036,0.00315250
5200.06467773,0.00315553
5201.99348511,0.00314381
5203.92229248,0.00317532
5205.85109985,0.00311866
5207.77990723,0.00299552
5209.70871460,0.00306723
5211.63752197,0.00314226
5213.56632935,0.00309119
5215.49513672,0.00309082
5217.42394409,0.00309916
5219.35275146,0.00308101
5221.28155884,0.00302627
5223.21036621,0.00306780
5225.13917358,0.00299934
5227.06798096,0.00295985
5228.99678833,0.00309893
5230.92559570,0.00307020
5232.85440308,0.00305101
5234.78321045,0.00301535
5236.71201782,0.00306006
5238.64082520,0.00307430
5240.56963257,0.00298363
5242.49843994,0.00301614
5244.42724731,0.00294172
5246.35605469,0.00295975
5248.28486206,0.00292471
5250.21366943,0.00290110
5252.14247681,0.00303854
5254.07128418,0.00297814
5256.00009155,0.00292245
5257.92889893,0.00292903
5259.85770630,0.00297179
5261.78651367,0.00292036
5263.71532104,0.00286349
5265.64412842,0.00291373
5267.57293579,0.00288974
5269.50174316,0.00289029
5271.43055054,0.00287953
5273.35935791,0.00291961
5275.28816528,0.00286814
5277.21697266,0.00285274
5279.14578003,0.00290633
5281.07458740,0.00279691
5283.00339478,0.00285744
5284.93220215,0.00283929
5286.86100952,0.00283183
5288.78981689,0.00289745
5290.71862427,0.00277083
5292.64743164,0.00280867
5294.57623901,0.00287357
5296.50504639,0.00288539
5298.43385376,0.00280233
5300.36266113,0.00274532
5302.29146851,0.00284937
5304.22027588,0.00281256
5306.14908325,0.00284332
5308.07789062,0.00281856
5310.00669800,0.00270767
5311.93550537,0.00275496
5313.86431274,0.00279113
5315.79312012,0.00275255
5317.72192749,0.00269358
5319.65073486,0.00271350
5321.57954224,0.00266132
5323.50834961,0.00268253
5325.43715698,0.00271315
5327.36596436,0.00263955
5329.29477173,0.00278530
5331.22357910,0.00272492
5333.15238647,0.00257370
5335.08119385,0.00266022
5337.01000122,0.00267123
5338.93880859,0.00259465
5340.86761597,0.00261479
5342.79642334,0.00271770
5344.72523071,0.00258579
5346.65403809,0.00253372
5348.58284546,0.00262287
5350.51165283,0.00259613
5352.44046020,0.00258622
5354.36926758,0.00253347
5356.29807495,0.00261499
5358.22688232,0.00262728
5360.15568970,0.00256667
5362.08449707,0.00258731
5364.01330444,0.00251287
5365.94211182,0.00252483
5367.87091919,0.00255328
5369.79972656,0.00256580
5371.72853394,0.00253511
5373.65734131,0.00252383
5375.58614868,0.00253458
5377.51495605,0.00245762
5379.44376343,0.00250135
5381.37257080,0.00256926
5383.30137817,0.00256262
5385.23018555,0.00245365
5387.15899292,0.00244061
5389.08780029,0.00252523
5391.01660767,0.00247163
5392.94541504,0.00244729
5394.87422241,0.00241497
5396.80302978,0.00241331
5398.73183716,0.00245959
5400.66064453,0.00243905
5402.58945190,0.00239350
5404.51825928,0.00241507
5406.44706665,0.00241984
5408.37587402,0.00239344
5410.30468140,0.00248133
5412.23348877,0.00242838
5414.16229614,0.00233479
5416.09110352,0.00233632
5418.01991089,0.00235495
5419.94871826,0.00238381
5421.87752563,0.00236559
5423.80633301,0.00238378
5425.73514038,0.00230954
5427.66394775,0.00229350
5429.59275513,0.00228215
5431.52156250,0.00229654
5433.45036987,0.00239751
5435.37917725,0.00227612
5437.30798462,0.00234220
5439.23679199,0.00239652
5441.16559936,0.00225896
5443.09440674,0.00230870
5445.02321411,0.00228051
5446.95202148,0.00220399
5448.88082886,0.00226540
5450.80963623,0.00231440
5452.73844360,0.00226442
5454.66725098,0.00225898
5456.59605835,0.00226535
5458.52486572,0.00228777
5460.45367310,0.00231744
5462.38248047,0.00222555
5464.31128784,0.00222110
5466.24009521,0.00223667
5468.16890259,0.00220885
5470.09770996,0.00223670
5472.02651733,0.00229158
5473.95532471,0.00227328
5475.88413208,0.00220053
5477.81293945,0.00224884
5479.74174683,0.00227980
5481.67055420,0.00225957
5483.59936157,0.00219640
5485.52816895,0.00216465
5487.45697632,0.00215220
5489.38578369,0.00215259
5491.31459106,0.00222750
5493.24339844,0.00206406
5495.17220581,0.00205516
5497.10101318,0.00219150
5499.02982056,0.00212102
5500.95862793,0.00217443
5502.88743530,0.00218318
5504.81624268,0.00219123
5506.74505005,0.00217888
5508.67385742,0.00207215
5510.60266479,0.00211458
5512.53147217,0.00215213
5514.46027954,0.00213207
5516.38908691,0.00204737
5518.31789429,0.00205617
5520.24670166,0.00211775
5522.17550903,0.00209375
5524.10431641,0.00212019
5526.03312378,0.00205489
5527.96193115,0.00208250
5529.89073853,0.00212553
5531.81954590,0.00202554
5533.74835327,0.00207098
5535.67716064,0.00205047
5537.60596802,0.00199872
5539.53477539,0.00204231
5541.46358276,0.00204290
5543.39239014,0.00203390
5545.32119751,0.00198767
5547.25000488,0.00195054
5549.17881226,0.00194039
5551.10761963,0.00200794
5553.03642700,0.00202458
5554.96523437,0.00195447
5556.89404175,0.00200423
5558.82284912,0.00199689
5560.75165649,0.00196092
5562.68046387,0.00196749
5564.60927124,0.00195177
5566.53807861,0.00198494
5568.46688599,0.00198508
5570.39569336,0.00194430
5572.32450073,0.00192009
5574.25330811,0.00192954
5576.18211548,0.00195351
5578.11092285,0.00194700
5580.03973022,0.00188172
5581.96853760,0.00188356
5583.89734497,0.00194142
5585.82615234,0.00191507
5587.75495972,0.00194129
5589.68376709,0.00191828
5591.61257446,0.00189398
5593.54138184,0.00191187
5595.47018921,0.00179959
5597.39899658,0.00184424
5599.32780395,0.00193159
5601.25661133,0.00187760
5603.18541870,0.00190784
5605.11422607,0.00194217
5607.04303345,0.00191435
5608.97184082,0.00190201
5610.90064819,0.00188985
5612.82945557,0.00184491
5614.75826294,0.00181775
5616.68707031,0.00182653
5618.61587769,0.00182683
5620.54468506,0.00186182
5622.47349243,0.00186552
5624.40229980,0.00178028
5626.33110718,0.00179900
5628.25991455,0.00185065
5630.18872192,0.00179597
5632.11752930,0.00178260
5634.04633667,0.00179597
5635.97514404,0.00179275
5637.90395142,0.00177545
5639.83275879,0.00177708
5641.76156616,0.00177302
5643.69037353,0.00174511
5645.61918091,0.00178748
5647.54798828,0.00177323
5649.47679565,0.00172404
5651.40560303,0.00174957
5653.33441040,0.00179159
5655.26321777,0.00177517
5657.19202515,0.00178467
5659.12083252,0.00177490
5661.04963989,0.00166374
5662.97844727,0.00174418
5664.90725464,0.00173866
5666.83606201,0.00167034
5668.76486938,0.00178001
5670.69367676,0.00170778
5672.62248413,0.00164929
5674.55129150,0.00163882
5676.48009888,0.00167120
5678.40890625,0.00171633
5680.33771362,0.00165682
5682.26652100,0.00170769
5684.19532837,0.00168111
5686.12413574,0.00166779
5688.05294311,0.00168335
5689.98175049,0.00165216
5691.91055786,0.00169858
5693.83936523,0.00167915
5695.76817261,0.00164879
5697.69697998,0.00159909
5699.62578735,0.00160082
5701.55459473,0.00164563
5703.48340210,0.00166809
5705.41220947,0.00167052
5707.34101685,0.00158912
5709.26982422,0.00161759
5711.19863159,0.00161844
5713.12743896,0.00157555
5715.05624634,0.00159628
5716.98505371,0.00159392
5718.91386108,0.00161262
5720.84266846,0.00153451
5722.77147583,0.00151463
5724.70028320,0.00156610
5726.62909058,0.00155254
5728.55789795,0.00158067
5730.48670532,0.00155906
5732.41551270,0.00155456
5734.34432007,0.00155931
5736.27312744,0.00151421
5738.20193481,0.00153028
5740.13074219,0.00154722
5742.05954956,0.00153937
5743.98835693,0.00154802
5745.91716431,0.00157990
5747.84597168,0.00153458
5749.77477905,0.00148399
5751.70358643,0.00152765
5753.63239380,0.00150653
5755.56120117,0.00151484
5757.49000854,0.00153517
5759.41881592,0.00147633
5761.34762329,0.00148203
5763.27643066,0.00148733
5765.20523804,0.00145446
5767.13404541,0.00144800
5769.06285278,0.00150083
5770.99166016,0.00148971
5772.92046753,0.00138495
5774.84927490,0.00140371
5776.77808228,0.00144752
5778.70688965,0.00145955
5780.63569702,0.00147327
5782.56450439,0.00145766
5784.49331177,0.00148788
5786.42211914,0.00145599
5788.35092651,0.00143849
5790.27973389,0.00146779
5792.20854126,0.00138964
5794.13734863,0.00136012
5796.06615601,0.00139715
5797.99496338,0.00142408
5799.92377075,0.00142743
5801.85257812,0.00137248
5803.78138550,0.00135510
5805.71019287,0.00141394
5807.63900024,0.00146180
5809.56780762,0.00139728
5811.49661499,0.00134745
5813.42542236,0.00135092
5815.35422974,0.00134961
5817.28303711,0.00143262
5819.21184448,0.00143012
5821.14065186,0.00137331
5823.06945923,0.00135453
5824.99826660,0.00130652
5826.92707397,0.00132673
5828.85588135,0.00134221
5830.78468872,0.00132867
5832.71349609,0.00131249
5834.64230347,0.00133920
5836.57111084,0.00135641
5838.49991821,0.00132179
5840.42872559,0.00137582
5842.35753296,0.00135629
5844.28634033,0.00128172
5846.21514770,0.00128197
5848.14395508,0.00133455
5850.07276245,0.00132047
5852.00156982,0.00123362
5853.93037720,0.00132846
5855.85918457,0.00135454
5857.78799194,0.00129631
5859.71679932,0.00133004
5861.64560669,0.00126655
5863.57441406,0.00127062
5865.50322144,0.00132014
5867.43202881,0.00125489
5869.36083618,0.00125633
5871.28964355,0.00127954
5873.21845093,0.00124077
5875.14725830,0.00127984
5877.07606567,0.00127984
5879.00487305,0.00128482
5880.93368042,0.00132226
5882.86248779,0.00124099
5884.79129517,0.00123144
5886.72010254,0.00122184
5888.64890991,0.00122961
5890.57771728,0.00119290
5892.50652466,0.00111525
5894.43533203,0.00121486
5896.36413940,0.00118457
5898.29294678,0.00120421
5900.22175415,0.00127340
5902.15056152,0.00121045
5904.07936890,0.00118196
5906.00817627,0.00117877
5907.93698364,0.00125946
5909.86579102,0.00119535
5911.79459839,0.00118092
5913.72340576,0.00124351
5915.65221313,0.00117549
5917.58102051,0.00116679
5919.50982788,0.00111597
5921.43863525,0.00117520
5923.36744263,0.00119443
5925.29625000,0.00113287
5927.22505737,0.00117899
5929.15386475,0.00113018
5931.08267212,0.00114804
5933.01147949,0.00112224
5934.94028686,0.00102598
5936.86909424,0.00114294
5938.79790161,0.00123260
5940.72670898,0.00108809
5942.65551636,0.00102508
5944.58432373,0.00115317
5946.51313110,0.00115112
5948.44193848,0.00109882
5950.37074585,0.00112128
5952.29955322,0.00111865
5954.22836060,0.00112116
5956.15716797,0.00114251
5958.08597534,0.00113492
5960.01478271,0.00109429
5961.94359009,0.00109598
5963.87239746,0.00108993
5965.80120483,0.00106430
5967.73001221,0.00103723
5969.65881958,0.00102046
5971.58762695,0.00109538
5973.51643433,0.00107143
5975.44524170,0.00098747
5977.37404907,0.00108640
5979.30285645,0.00111432
5981.23166382,0.00105690
5983.16047119,0.00106099
5985.08927856,0.00099016
5987.01808594,0.00103943
5988.94689331,0.00111616
5990.87570068,0.00105632
5992.80450806,0.00106781
5994.73331543,0.00106667
5996.66212280,0.00108616
5998.59093018,0.00107492
6000.51973755,0.00101625
