399.26312622,-0.00025084
401.19193359,-0.00011277
403.12074097,0.00033115
405.04954834,0.00020303
406.97835571,-0.00005626
408.90716309,0.00028592
410.83597046,0.00037623
412.76477783,0.00007847
414.69358521,0.00019521
416.62239258,0.00026327
418.55119995,-0.00001840
420.48000732,0.00052590
422.40881470,0.00048928
424.33762207,-0.00003860
426.26642944,0.00030387
428.19523682,0.00014557
430.12404419,0.00021701
432.05285156,0.00000015
433.98165894,-0.00001036
435.91046631,0.00036516
437.83927368,0.00000086
439.76808105,0.00020786
441.69688843,0.00020876
443.62569580,-0.00001322
445.55450317,0.00001617
447.48331055,-0.00002391
449.41211792,0.00022794
451.34092529,0.00029095
453.26973267,0.00007370
455.19854004,0.00001680
457.12734741,0.00012196
459.05615479,0.00023913
460.98496216,0.00038065
462.91376953,0.00067322
464.84257690,0.00032934
466.77138428,0.00022580
468.70019165,0.00052200
470.62899902,0.00019886
472.55780640,0.00027250
474.48661377,0.00031180
476.41542114,0.00027451
478.34422852,-0.00008569
480.27303589,-0.00008773
482.20184326,0.00044684
484.13065063,0.00024713
486.05945801,0.00012907
487.98826538,-0.00009103
489.91707275,0.00047207
491.84588013,0.00044083
493.77468750,-0.00001745
495.70349487,0.00014878
497.63230225,-0.00001370
499.56110962,0.00032863
501.48991699,-0.00006926
503.41872437,-0.00005315
505.34753174,0.00052984
507.27633911,0.00009285
509.20514648,-0.00008069
511.13395386,-0.00001979
513.06276123,0.00034624
514.99156860,0.00009879
516.92037598,0.00007857
518.84918335,0.00057382
520.77799072,-0.00013152
522.70679810,-0.00004773
524.63560547,0.00017186
526.56441284,-0.00031880
528.49322021,0.00018624
530.42202759,0.00031764
532.35083496,0.00004653
534.27964233,0.00016188
536.20844971,0.00021955
538.13725708,0.00041963
540.06606445,0.00043000
541.99487183,0.00013183
543.92367920,0.00010154
545.85248657,0.00000431
547.78129395,0.00034887
549.71010132,0.00061544
551.63890869,0.00004452
553.56771606,0.00002117
555.49652344,0.00009936
557.42533081,0.00028918
559.35413818,0.00041588
561.28294556,0.00017442
563.21175293,0.00030171
565.14056030,0.00032154
567.06936768,0.00021445
568.99817505,-0.00001455
570.92698242,0.00007599
572.85578979,-0.00014775
574.78459717,-0.00035788
576.71340454,0.00017655
578.64221191,0.00005613
580.57101929,-0.00003363
582.49982666,0.00028544
584.42863403,0.00010843
586.35744141,-0.00017259
588.28624878,-0.00019756
590.21505615,0.00021789
592.14386353,0.00017386
594.07267090,0.00000193
596.00147827,0.00040747
597.93028564,0.00015734
599.85909302,0.00003802
601.78790039,0.00017393
603.71670776,-0.00018420
605.64551514,-0.00022939
607.57432251,0.00023609
609.50312988,0.00028847
611.43193726,0.00015270
613.36074463,0.00033043
615.28955200,0.00015517
617.21835938,0.00015437
619.14716675,0.00008114
621.07597412,-0.00017376
623.00478149,0.00043949
624.93358887,0.00015784
626.86239624,-0.00028861
628.79120361,0.00022194
630.72001099,0.00006364
632.64881836,0.00011364
634.57762573,0.00042941
636.50643311,0.00033373
638.43524048,0.00028614
640.36404785,0.00020090
642.29285522,0.00020793
644.22166260,0.00026285
646.15046997,0.00018199
648.07927734,0.00008332
650.00808472,0.00011865
651.93689209,0.00031570
653.86569946,0.00033232
655.79450684,0.00034429
657.72331421,0.00041247
659.65212158,0.00015638
661.58092896,0.00041642
663.50973633,0.00044549
665.43854370,-0.00002735
667.36735107,0.00015821
669.29615845,0.00010886
671.22496582,0.00012050
673.15377319,0.00021170
675.08258057,0.00013915
677.01138794,0.00044970
678.94019531,0.00040594
680.86900269,0.00012048
682.79781006,0.00044278
684.72661743,0.00074030
686.65542480,0.00029316
688.58423218,0.00031796
690.51303955,0.00053346
692.44184692,0.00038515
694.37065430,0.00045395
696.29946167,0.00037888
698.22826904,0.00049515
700.15707642,0.00056332
702.08588379,0.00053830
704.01469116,0.00058858
705.94349854,0.00041523
707.87230591,0.00021420
709.80111328,0.00035551
711.72992065,0.00061576
713.65872803,0.00017927
715.58753540,0.00016414
717.51634277,0.00017986
719.44515015,-0.00009729
721.37395752,0.00025189
723.30276489,-0.00008513
725.23157227,-0.00005951
727.16037964,0.00030987
729.08918701,-0.00005859
731.01799438,-0.00010037
732.94680176,0.00014283
734.87560913,0.00018242
736.80441650,0.00002381
738.73322388,0.00018504
740.66203125,0.00049491
742.59083862,0.00015381
744.51964600,0.00001457
746.44845337,0.00002951
748.37726074,-0.00005061
750.30606812,0.00009695
752.23487549,0.00004079
754.16368286,0.00028395
756.09249023,0.00026039
758.02129761,-0.00012720
759.95010498,0.00022387
761.87891235,0.00027211
763.80771973,-0.00018275
765.73652710,0.00013308
767.66533447,0.00011122
769.59414185,-0.00010476
771.52294922,0.00023230
773.45175659,-0.00000743
775.38056396,0.00016604
777.30937134,0.00018329
779.23817871,-0.00000803
781.16698608,0.00032542
783.09579346,0.00022867
785.02460083,0.00025577
786.95340820,0.00016095
788.88221558,0.00008064
790.81102295,0.00012400
792.73983032,-0.00006066
794.66863770,0.00006047
796.59744507,0.00010870
798.52625244,0.00017872
800.45505981,0.00029924
802.38386719,0.00026084
804.31267456,0.00026826
806.24148193,0.00013704
808.17028931,-0.00002322
810.09909668,0.00018203
812.02790405,0.00028313
813.95671143,0.00013098
815.88551880,0.00037447
817.81432617,0.00040851
819.74313354,0.00022738
821.67194092,0.00020196
823.60074829,0.00004294
825.52955566,0.00014651
827.45836304,0.00018264
829.38717041,0.00006893
831.31597778,0.00005382
833.24478516,0.00012359
835.17359253,0.00016933
837.10239990,0.00003470
839.03120728,0.00015737
840.96001465,0.00023692
842.88882202,0.00033353
844.81762939,0.00048012
846.74643677,0.00028163
848.67524414,0.00021052
850.60405151,0.00019736
852.53285889,0.00013875
854.46166626,0.00025060
856.39047363,0.00027452
858.31928101,0.00017374
860.24808838,0.00019934
862.17689575,0.00022347
864.10570313,0.00035568
866.03451050,0.00025481
867.96331787,0.00014189
869.89212524,0.00052162
871.82093262,0.00017705
873.74973999,0.00019083
875.67854736,0.00053547
877.60735474,0.00003863
879.53616211,0.00022467
881.46496948,0.00015483
883.39377686,0.00011413
885.32258423,0.00034836
887.25139160,-0.00023691
889.18019897,0.00006858
891.10900635,0.00032324
893.03781372,0.00009307
894.96662109,0.00027313
896.89542847,0.00014316
898.82423584,0.00009297
900.75304321,0.00000717
902.68185059,0.00019485
904.61065796,0.00033377
906.53946533,0.00017920
908.46827271,0.00036899
910.39708008,0.00025029
912.32588745,0.00034118
914.25469482,0.00026461
916.18350220,0.00012686
918.11230957,0.00039258
920.04111694,0.00021769
921.96992432,0.00028289
923.89873169,0.00016089
925.82753906,0.00012376
927.75634644,0.00041967
929.68515381,0.00034316
931.61396118,0.00037031
933.54276855,0.00018348
935.47157593,0.00040757
937.40038330,0.00060402
939.32919067,0.00017987
941.25799805,0.00020312
943.18680542,0.00033082
945.11561279,0.00036740
947.04442017,0.00026286
948.97322754,0.00025350
950.90203491,0.00037772
952.83084229,0.00026108
954.75964966,0.00022880
956.68845703,0.00032608
958.61726440,0.00026703
960.54607178,0.00020134
962.47487915,0.00055935
964.40368652,0.00057418
966.33249390,0.00030741
968.26130127,0.00030175
970.19010864,0.00028054
972.11891602,0.00044759
974.04772339,0.00048932
975.97653076,0.00040354
977.90533813,0.00046721
979.83414551,0.00058080
981.76295288,0.00046563
983.69176025,0.00055723
985.62056763,0.00080905
987.54937500,0.00042776
989.47818237,0.00040626
991.40698975,0.00078331
993.33579712,0.00081085
995.26460449,0.00099356
997.19341187,0.00114064
999.12221924,0.00094915
1001.05102661,0.00114156
1002.97983398,0.00134349
1004.90864136,0.00117128
1006.83744873,0.00143065
1008.76625610,0.00156245
1010.69506348,0.00161863
1012.62387085,0.00173086
1014.55267822,0.00167906
1016.48148560,0.00186133
1018.41029297,0.00175646
1020.33910034,0.00188572
1022.26790771,0.00212079
1024.19671509,0.00212894
1026.12552246,0.00243793
1028.05432983,0.00247562
1029.98313721,0.00241270
1031.91194458,0.00249851
1033.84075195,0.00254349
1035.76955933,0.00253777
1037.69836670,0.00249136
1039.62717407,0.00261116
1041.55598145,0.00267856
1043.48478882,0.00255726
1045.41359619,0.00261385
1047.34240356,0.00246377
1049.27121094,0.00218779
1051.20001831,0.00233642
1053.12882568,0.00216457
1055.05763306,0.00221677
1056.98644043,0.00242918
1058.91524780,0.00218659
1060.84405518,0.00220797
1062.77286255,0.00205920
1064.70166992,0.00203051
1066.63047729,0.00206868
1068.55928467,0.00187030
1070.48809204,0.00184753
1072.41689941,0.00174554
1074.34570679,0.00163120
1076.27451416,0.00158845
1078.20332153,0.00167228
1080.13212891,0.00151523
1082.06093628,0.00138622
1083.98974365,0.00136114
1085.91855103,0.00130044
1087.84735840,0.00134343
1089.77616577,0.00119622
1091.70497314,0.00135256
1093.63378052,0.00114812
1095.56258789,0.00091620
1097.49139526,0.00108380
1099.42020264,0.00108749
1101.34901001,0.00124179
1103.27781738,0.00089056
1105.20662476,0.00075433
1107.13543213,0.00093599
1109.06423950,0.00088417
1110.99304687,0.00098090
1112.92185425,0.00097431
1114.85066162,0.00097847
1116.77946899,0.00098190
1118.70827637,0.00102245
1120.63708374,0.00085791
1122.56589111,0.00096214
1124.49469849,0.00110700
1126.42350586,0.00086876
1128.35231323,0.00100223
1130.28112061,0.00102677
1132.20992798,0.00102226
1134.13873535,0.00097489
1136.06754272,0.00103718
1137.99635010,0.00125805
1139.92515747,0.00118871
1141.85396484,0.00129970
1143.78277222,0.00144319
1145.71157959,0.00155321
1147.64038696,0.00147960
1149.56919434,0.00149357
1151.49800171,0.00168772
1153.42680908,0.00167796
1155.35561646,0.00174834
1157.28442383,0.00183898
1159.21323120,0.00197036
1161.14203857,0.00198383
1163.07084595,0.00201026
1164.99965332,0.00210031
1166.92846069,0.00208042
1168.85726807,0.00210524
1170.78607544,0.00233117
1172.71488281,0.00262529
1174.64369019,0.00251295
1176.57249756,0.00253464
1178.50130493,0.00270117
1180.43011230,0.00272271
1182.35891968,0.00285966
1184.28772705,0.00308453
1186.21653442,0.00313574
1188.14534180,0.00312047
1190.07414917,0.00353144
1192.00295654,0.00348663
1193.93176392,0.00359425
1195.86057129,0.00423633
1197.78937866,0.00424384
1199.71818604,0.00436806
1201.64699341,0.00451828
1203.57580078,0.00464856
1205.50460815,0.00494314
1207.43341553,0.00498461
1209.36222290,0.00524961
1211.29103027,0.00545135
1213.21983765,0.00538041
1215.14864502,0.00548650
1217.07745239,0.00565097
1219.00625977,0.00574010
1220.93506714,0.00591057
1222.86387451,0.00591343
1224.79268188,0.00581684
1226.72148926,0.00585113
1228.65029663,0.00594764
1230.57910400,0.00610427
1232.50791138,0.00610154
1234.43671875,0.00606866
1236.36552612,0.00607835
1238.29433350,0.00619744
1240.22314087,0.00613499
1242.15194824,0.00599639
1244.08075562,0.00618561
1246.00956299,0.00599066
1247.93837036,0.00583185
1249.86717773,0.00585663
1251.79598511,0.00581581
1253.72479248,0.00593539
1255.65359985,0.00576687
1257.58240723,0.00563425
1259.51121460,0.00559139
1261.44002197,0.00557530
1263.36882935,0.00555479
1265.29763672,0.00537452
1267.22644409,0.00532308
1269.15525146,0.00520792
1271.08405884,0.00529439
1273.01286621,0.00534029
1274.94167358,0.00503966
1276.87048096,0.00495515
1278.79928833,0.00487411
1280.72809570,0.00488243
1282.65690308,0.00482909
1284.58571045,0.00455838
1286.51451782,0.00460065
1288.44332520,0.00439278
1290.37213257,0.00426060
1292.30093994,0.00444407
1294.22974731,0.00417342
1296.15855469,0.00416917
1298.08736206,0.00436117
1300.01616943,0.00430860
1301.94497681,0.00432436
1303.87378418,0.00442787
1305.80259155,0.00453929
1307.73139893,0.00452923
1309.66020630,0.00478213
1311.58901367,0.00473487
1313.51782104,0.00450327
1315.44662842,0.00490453
1317.37543579,0.00501183
1319.30424316,0.00499434
1321.23305054,0.00528346
1323.16185791,0.00543785
1325.09066528,0.00555864
1327.01947266,0.00564682
1328.94828003,0.00589159
1330.87708740,0.00607539
1332.80589478,0.00592892
1334.73470215,0.00615230
1336.66350952,0.00641902
1338.59231689,0.00621828
1340.52112427,0.00627224
1342.44993164,0.00658404
1344.37873901,0.00669441
1346.30754639,0.00649024
1348.23635376,0.00643488
1350.16516113,0.00658834
1352.09396851,0.00648793
1354.02277588,0.00649182
1355.95158325,0.00637676
1357.88039062,0.00633400
1359.80919800,0.00641380
1361.73800537,0.00594217
1363.66681274,0.00595377
1365.59562012,0.00635953
1367.52442749,0.00614828
1369.45323486,0.00612084
1371.38204224,0.00612341
1373.31084961,0.00572553
1375.23965698,0.00593682
1377.16846436,0.00622893
1379.09727173,0.00599611
1381.02607910,0.00594825
1382.95488647,0.00605950
1384.88369385,0.00603269
1386.81250122,0.00577156
1388.74130859,0.00588927
1390.67011597,0.00634072
1392.59892334,0.00612991
1394.52773071,0.00570373
1396.45653809,0.00598012
1398.38534546,0.00605264
1400.31415283,0.00595538
1402.24296021,0.00639655
1404.17176758,0.00605836
1406.10057495,0.00613499
1408.02938232,0.00658385
1409.95818970,0.00625961
1411.88699707,0.00622191
1413.81580444,0.00599594
1415.74461182,0.00631691
1417.67341919,0.00574358
1419.60222656,0.00496089
1421.53103394,0.00581708
1423.45984131,0.00551286
1425.38864868,0.00535904
1427.31745605,0.00552030
1429.24626343,0.00509134
1431.17507080,0.00505992
1433.10387817,0.00511573
1435.03268555,0.00479897
1436.96149292,0.00399320
1438.89030029,0.00436129
1440.81910767,0.00451319
1442.74791504,0.00425735
1444.67672241,0.00443780
1446.60552979,0.00407201
1448.53433716,0.00436697
1450.46314453,0.00430788
1452.39195190,0.00430467
1454.32075928,0.00455260
1456.24956665,0.00374825
1458.17837402,0.00405008
1460.10718140,0.00524235
1462.03598877,0.00538564
1463.96479614,0.00527592
1465.89360352,0.00573059
1467.82241089,0.00639985
1469.75121826,0.00673433
1471.68002563,0.00611706
1473.60883301,0.00627867
1475.53764038,0.00731276
1477.46644775,0.00779302
1479.39525513,0.00839940
1481.32406250,0.00855114
1483.25286987,0.00911576
1485.18167725,0.00946154
1487.11048462,0.00902386
1489.03929199,0.00914957
1490.96809937,0.00934483
1492.89690674,0.01063923
1494.82571411,0.01043124
1496.75452148,0.00926073
1498.68332886,0.01050272
1500.61213623,0.01087947
1502.54094360,0.01159374
1504.46975098,0.01105339
1506.39855835,0.00807802
1508.32736572,0.00961817
1510.25617310,0.01133284
1512.18498047,0.01115554
1514.11378784,0.01186187
1516.04259521,0.01065292
1517.97140259,0.01114817
1519.90020996,0.01067265
1521.82901733,0.00934999
1523.75782471,0.01132115
1525.68663208,0.01116146
1527.61543945,0.01116714
1529.54424683,0.01207511
1531.47305420,0.01162376
1533.40186157,0.01076302
1535.33066895,0.01144935
1537.25947632,0.01199704
1539.18828369,0.00842426
1541.11709106,0.00901767
1543.04589844,0.01065188
1544.97470581,0.01018193
1546.90351318,0.01211329
1548.83232056,0.01119256
1550.76112793,0.01155911
1552.68993530,0.01138540
1554.61874268,0.01034479
1556.54755005,0.01106992
1558.47635742,0.00782774
1560.40516479,0.00848981
1562.33397217,0.01178788
1564.26277954,0.01109922
1566.19158691,0.01134382
1568.12039429,0.01116558
1570.04920166,0.00999410
1571.97800903,0.01129726
1573.90681641,0.01131101
1575.83562378,0.00896223
1577.76443115,0.01002199
1579.69323853,0.01126453
1581.62204590,0.01062590
1583.55085327,0.01082460
1585.47966064,0.01062271
1587.40846802,0.01057623
1589.33727539,0.01040335
1591.26608276,0.01045721
1593.19489014,0.01048689
1595.12369751,0.01010842
1597.05250488,0.01020992
1598.98131226,0.01005161
1600.91011963,0.00996281
1602.83892700,0.00990606
1604.76773437,0.00988079
1606.69654175,0.00967107
1608.62534912,0.00962113
1610.55415649,0.00942500
1612.48296387,0.00954673
1614.41177124,0.00958086
1616.34057861,0.00778838
1618.26938599,0.00856090
1620.19819336,0.00994332
1622.12700073,0.00869308
1624.05580811,0.00878881
1625.98461548,0.00932968
1627.91342285,0.00911418
1629.84223022,0.00919516
1631.77103760,0.00982740
1633.69984497,0.00912563
1635.62865234,0.00780349
1637.55745972,0.00907100
1639.48626709,0.01017959
1641.41507446,0.00990732
1643.34388184,0.01034142
1645.27268921,0.00963605
1647.20149658,0.00865121
1649.13030396,0.01076453
1651.05911133,0.00996696
1652.98791870,0.00680470
1654.91672607,0.00922830
1656.84553345,0.01127636
1658.77434082,0.01111460
1660.70314819,0.01152737
1662.63195557,0.01063465
1664.56076294,0.01137695
1666.48957031,0.01242289
1668.41837769,0.01099284
1670.34718506,0.01074602
1672.27599243,0.01234851
1674.20479980,0.01149290
1676.13360718,0.01124464
1678.06241455,0.01302375
1679.99122192,0.01259670
1681.92002930,0.01267140
1683.84883667,0.01055565
1685.77764404,0.01062448
1687.70645142,0.01461564
1689.63525879,0.01268549
1691.56406616,0.01407512
1693.49287354,0.01466336
1695.42168091,0.01086252
1697.35048828,0.01365578
1699.27929565,0.01209286
1701.20810303,0.01108131
1703.13691040,0.01521620
1705.06571777,0.01389282
1706.99452515,0.01440792
1708.92333252,0.01574959
1710.85213989,0.01517893
1712.78094727,0.01562860
1714.70975464,0.01453895
1716.63856201,0.01316350
1718.56736938,0.01307954
1720.49617676,0.01580954
1722.42498413,0.01649583
1724.35379150,0.01537544
1726.28259888,0.01673828
1728.21140625,0.01559333
1730.14021362,0.01608040
1732.06902100,0.01572678
1733.99782837,0.01212629
1735.92663574,0.01501852
1737.85544312,0.01670417
1739.78425049,0.01513652
1741.71305786,0.01637450
1743.64186523,0.01660370
1745.57067261,0.01681079
1747.49947998,0.01690212
1749.42828735,0.01606301
1751.35709473,0.01556698
1753.28590210,0.01728424
1755.21470947,0.01808896
1757.14351685,0.01657213
1759.07232422,0.01809907
1761.00113159,0.01709392
1762.92993896,0.01663529
1764.85874634,0.01901699
1766.78755371,0.01715435
1768.71636108,0.01748729
1770.64516846,0.01738397
1772.57397583,0.01567637
1774.50278320,0.01764898
1776.43159058,0.01852459
1778.36039795,0.01824410
1780.28920532,0.01807978
1782.21801270,0.01828982
1784.14682007,0.01825791
1786.07562744,0.01790210
1788.00443481,0.01898307
1789.93324219,0.01842012
1791.86204956,0.01663331
1793.79085693,0.01739903
1795.71966431,0.01870063
1797.64847168,0.01845332
1799.57727905,0.01802268
1801.50608643,0.01777211
1803.43489380,0.01856552
1805.36370117,0.01906646
1807.29250854,0.01862619
1809.22131592,0.01855678
1811.15012329,0.01818355
1813.07893066,0.01882264
1815.00773804,0.01903177
1816.93654541,0.01892168
1818.86535278,0.01895214
1820.79416016,0.01860853
1822.72296753,0.01896668
1824.65177490,0.01801739
1826.58058228,0.01854172
1828.50938965,0.01843107
1830.43819702,0.01737115
1832.36700439,0.01899826
1834.29581177,0.01883020
1836.22461914,0.01867159
1838.15342651,0.01869694
1840.08223389,0.01886145
1842.01104126,0.01881642
1843.93984863,0.01676901
1845.86865601,0.01786006
1847.79746338,0.01891423
1849.72627075,0.01864536
1851.65507812,0.01905913
1853.58388550,0.01865262
1855.51269287,0.01882904
1857.44150024,0.01862318
1859.37030762,0.01853180
1861.29911499,0.01855744
1863.22792236,0.01843253
1865.15672974,0.01871785
1867.08553711,0.01798031
1869.01434448,0.01731418
1870.94315186,0.01792077
1872.87195923,0.01857008
1874.80076660,0.01841685
1876.72957397,0.01857049
1878.65838135,0.01850538
1880.58718872,0.01824675
1882.51599609,0.01843534
1884.44480347,0.01829841
1886.37361084,0.01848096
1888.30241821,0.01797205
1890.23122559,0.01768067
1892.16003296,0.01831516
1894.08884033,0.01799198
1896.01764771,0.01790746
1897.94645508,0.01809590
1899.87526245,0.01812640
1901.80406982,0.01815439
1903.73287720,0.01796143
1905.66168457,0.01801620
1907.59049194,0.01781440
1909.51929932,0.01778972
1911.44810669,0.01785358
1913.37691406,0.01791468
1915.30572144,0.01802915
1917.23452881,0.01710303
1919.16333618,0.01724443
1921.09214355,0.01792098
1923.02095093,0.01732189
1924.94975830,0.01765573
1926.87856567,0.01772215
1928.80737305,0.01744644
1930.73618042,0.01781553
1932.66498779,0.01755232
1934.59379517,0.01756492
1936.52260254,0.01764111
1938.45140991,0.01766176
1940.38021729,0.01738699
1942.30902466,0.01692447
1944.23783203,0.01731857
1946.16663940,0.01733931
1948.09544678,0.01737597
1950.02425415,0.01746260
1951.95306152,0.01725113
1953.88186890,0.01742458
1955.81067627,0.01736613
1957.73948364,0.01726693
1959.66829102,0.01713507
1961.59709839,0.01699547
1963.52590576,0.01723434
1965.45471313,0.01724220
1967.38352051,0.01686998
1969.31232788,0.01692871
1971.24113525,0.01712117
1973.16994263,0.01708209
1975.09875000,0.01730947
1977.02755737,0.01710026
1978.95636475,0.01685604
1980.88517212,0.01689392
1982.81397949,0.01691486
1984.74278687,0.01710299
1986.67159424,0.01683574
1988.60040161,0.01676787
1990.52920898,0.01666530
1992.45801636,0.01644510
1994.38682373,0.01672226
1996.31563110,0.01663497
1998.24443848,0.01663114
2000.17324585,0.01666746
2002.10205322,0.01650192
2004.03086060,0.01648175
2005.95966797,0.01633422
2007.88847534,0.01640750
2009.81728271,0.01643800
2011.74609009,0.01631151
2013.67489746,0.01634841
2015.60370483,0.01610681
2017.53251221,0.01602630
2019.46131958,0.01616330
2021.39012695,0.01586611
2023.31893433,0.01594744
2025.24774170,0.01600439
2027.17654907,0.01572028
2029.10535645,0.01600062
2031.03416382,0.01585857
2032.96297119,0.01564718
2034.89177856,0.01582112
2036.82058594,0.01567725
2038.74939331,0.01561723
2040.67820068,0.01540512
2042.60700806,0.01541395
2044.53581543,0.01552939
2046.46462280,0.01528929
2048.39343018,0.01535537
2050.32223755,0.01549013
2052.25104492,0.01549326
2054.17985229,0.01534235
2056.10865967,0.01525996
2058.03746704,0.01526612
2059.96627441,0.01514653
2061.89508179,0.01525579
2063.82388916,0.01513376
2065.75269653,0.01497642
2067.68150391,0.01515861
2069.61031128,0.01513195
2071.53911865,0.01506463
2073.46792603,0.01497922
2075.39673340,0.01493692
2077.32554077,0.01500353
2079.25434814,0.01486121
2081.18315552,0.01490014
2083.11196289,0.01502715
2085.04077026,0.01483190
2086.96957764,0.01475225
2088.89838501,0.01486004
2090.82719238,0.01477640
2092.75599976,0.01466073
2094.68480713,0.01473050
2096.61361450,0.01471513
2098.54242187,0.01460941
2100.47122925,0.01455663
2102.40003662,0.01457896
2104.32884399,0.01465712
2106.25765137,0.01454049
2108.18645874,0.01449623
2110.11526611,0.01460144
2112.04407349,0.01449407
2113.97288086,0.01434255
2115.90168823,0.01432519
2117.83049561,0.01445804
2119.75930298,0.01454755
2121.68811035,0.01445882
2123.61691772,0.01438953
2125.54572510,0.01433401
2127.47453247,0.01428937
2129.40333984,0.01439083
2131.33214722,0.01440092
2133.26095459,0.01439663
2135.18976196,0.01455866
2137.11856934,0.01445503
2139.04737671,0.01442233
2140.97618408,0.01450633
2142.90499146,0.01432450
2144.83379883,0.01429911
2146.76260620,0.01434017
2148.69141357,0.01428565
2150.62022095,0.01424671
2152.54902832,0.01429848
2154.47783569,0.01431472
2156.40664307,0.01434342
2158.33545044,0.01434950
2160.26425781,0.01410910
2162.19306519,0.01426182
2164.12187256,0.01442682
2166.05067993,0.01428050
2167.97948730,0.01423739
2169.90829468,0.01423773
2171.83710205,0.01438813
2173.76590942,0.01428946
2175.69471680,0.01417932
2177.62352417,0.01426675
2179.55233154,0.01435969
2181.48113892,0.01443288
2183.40994629,0.01434767
2185.33875366,0.01434696
2187.26756104,0.01429877
2189.19636841,0.01432578
2191.12517578,0.01428119
2193.05398315,0.01427082
2194.98279053,0.01440087
2196.91159790,0.01433929
2198.84040527,0.01441319
2200.76921265,0.01428396
2202.69802002,0.01426845
2204.62682739,0.01440170
2206.55563477,0.01431723
2208.48444214,0.01430160
2210.41324951,0.01424757
2212.34205688,0.01430389
2214.27086426,0.01424213
2216.19967163,0.01426834
2218.12847900,0.01431547
2220.05728638,0.01429692
2221.98609375,0.01433511
2223.91490112,0.01421770
2225.84370850,0.01436379
2227.77251587,0.01432880
2229.70132324,0.01432011
2231.63013062,0.01435423
2233.55893799,0.01426830
2235.48774536,0.01435076
2237.41655273,0.01418839
2239.34536011,0.01432827
2241.27416748,0.01434149
2243.20297485,0.01420187
2245.13178223,0.01427537
2247.06058960,0.01417518
2248.98939697,0.01421309
2250.91820435,0.01419753
2252.84701172,0.01431795
2254.77581909,0.01429557
2256.70462646,0.01412047
2258.63343384,0.01419839
2260.56224121,0.01418244
2262.49104858,0.01422684
2264.41985596,0.01425026
2266.34866333,0.01419118
2268.27747070,0.01413918
2270.20627808,0.01421738
2272.13508545,0.01422654
2274.06389282,0.01421158
2275.99270020,0.01426048
2277.92150757,0.01411664
2279.85031494,0.01423878
2281.77912231,0.01427081
2283.70792969,0.01416717
2285.63673706,0.01422851
2287.56554443,0.01423217
2289.49435181,0.01425250
2291.42315918,0.01416187
2293.35196655,0.01414631
2295.28077393,0.01416803
2297.20958130,0.01405418
2299.13838867,0.01394880
2301.06719604,0.01410891
2302.99600342,0.01410961
2304.92481079,0.01378002
2306.85361816,0.01375889
2308.78242554,0.01368246
2310.71123291,0.01354933
2312.64004028,0.01345839
2314.56884766,0.01341504
2316.49765503,0.01337015
2318.42646240,0.01314671
2320.35526978,0.01306518
2322.28407715,0.01274188
2324.21288452,0.01254863
2326.14169189,0.01252196
2328.07049927,0.01236112
2329.99930664,0.01225756
2331.92811401,0.01204953
2333.85692139,0.01217452
2335.78572876,0.01211008
2337.71453613,0.01199450
2339.64334351,0.01215378
2341.57215088,0.01214690
2343.50095825,0.01238931
2345.42976562,0.01255593
2347.35857300,0.01300492
2349.28738037,0.01347624
2351.21618774,0.01301721
2353.14499512,0.01239042
2355.07380249,0.01195536
2357.00260986,0.01172084
2358.93141724,0.01143780
2360.86022461,0.01113351
2362.78903198,0.01121327
2364.71783936,0.01131725
2366.64664673,0.01151830
2368.57545410,0.01176677
2370.50426147,0.01200094
2372.43306885,0.01239101
2374.36187622,0.01264797
2376.29068359,0.01303306
2378.21949097,0.01342337
2380.14829834,0.01353898
2382.07710571,0.01375253
2384.00591309,0.01389770
2385.93472046,0.01392310
2387.86352783,0.01382101
2389.79233521,0.01374974
2391.72114258,0.01393569
2393.64994995,0.01380166
2395.57875732,0.01369558
2397.50756470,0.01386738
2399.43637207,0.01379577
2401.36517944,0.01386242
2403.29398682,0.01392037
2405.22279419,0.01377492
2407.15160156,0.01378191
2409.08040894,0.01373407
2411.00921631,0.01371370
2412.93802368,0.01372183
2414.86683105,0.01367304
2416.79563843,0.01372463
2418.72444580,0.01373782
2420.65325317,0.01368522
2422.58206055,0.01356184
2424.51086792,0.01355208
2426.43967529,0.01359758
2428.36848267,0.01358447
2430.29729004,0.01367298
2432.22609741,0.01361671
2434.15490479,0.01355200
2436.08371216,0.01353407
2438.01251953,0.01351604
2439.94132690,0.01360573
2441.87013428,0.01359035
2443.79894165,0.01352655
2445.72774902,0.01355365
2447.65655640,0.01357554
2449.58536377,0.01342100
2451.51417114,0.01349292
2453.44297852,0.01356736
2455.37178589,0.01331909
2457.30059326,0.01341585
2459.22940063,0.01349058
2461.15820801,0.01340827
2463.08701538,0.01344022
2465.01582275,0.01339259
2466.94463013,0.01331667
2468.87343750,0.01328626
2470.80224487,0.01337290
2472.73105225,0.01332595
2474.65985962,0.01323546
2476.58866699,0.01324950
2478.51747437,0.01332656
2480.44628174,0.01334518
2482.37508911,0.01320678
2484.30389648,0.01318660
2486.23270386,0.01321642
2488.16151123,0.01320169
2490.09031860,0.01306745
2492.01912598,0.01311476
2493.94793335,0.01321585
2495.87674072,0.01307508
2497.80554810,0.01316448
2499.73435547,0.01321443
2501.66316284,0.01312676
2503.59197021,0.01307378
2505.52077759,0.01311920
2507.44958496,0.01313322
2509.37839233,0.01305381
2511.30719971,0.01310391
2513.23600708,0.01287042
2515.16481445,0.01276292
2517.09362183,0.01301342
2519.02242920,0.01305543
2520.95123657,0.01291206
2522.88004395,0.01290286
2524.80885132,0.01302953
2526.73765869,0.01295456
2528.66646606,0.01287269
2530.59527344,0.01286310
2532.52408081,0.01288415
2534.45288818,0.01284803
2536.38169556,0.01284457
2538.31050293,0.01291988
2540.23931030,0.01281243
2542.16811768,0.01282070
2544.09692505,0.01278891
2546.02573242,0.01279810
2547.95453979,0.01279857
2549.88334717,0.01270505
2551.81215454,0.01277143
2553.74096191,0.01266946
2555.66976929,0.01269801
2557.59857666,0.01265899
2559.52738403,0.01249257
2561.45619141,0.01252185
2563.38499878,0.01255437
2565.31380615,0.01255805
2567.24261353,0.01248527
2569.17142090,0.01257863
2571.10022827,0.01250619
2573.02903564,0.01237651
2574.95784302,0.01244181
2576.88665039,0.01240023
2578.81545776,0.01246787
2580.74426514,0.01245006
2582.67307251,0.01229670
2584.60187988,0.01232256
2586.53068726,0.01243771
2588.45949463,0.01234692
2590.38830200,0.01232800
2592.31710937,0.01230352
2594.24591675,0.01222678
2596.17472412,0.01234194
2598.10353149,0.01213829
2600.03233887,0.01216043
2601.96114624,0.01228317
2603.88995361,0.01219367
2605.81876099,0.01223467
2607.74756836,0.01210408
2609.67637573,0.01212171
2611.60518311,0.01206605
2613.53399048,0.01209095
2615.46279785,0.01211298
2617.39160522,0.01196210
2619.32041260,0.01199938
2621.24921997,0.01187883
2623.17802734,0.01200172
2625.10683472,0.01195904
2627.03564209,0.01186973
2628.96444946,0.01200627
2630.89325684,0.01181923
2632.82206421,0.01188547
2634.75087158,0.01189809
2636.67967895,0.01180077
2638.60848633,0.01181717
2640.53729370,0.01183643
2642.46610107,0.01180961
2644.39490845,0.01162235
2646.32371582,0.01166213
2648.25252319,0.01164740
2650.18133057,0.01165746
2652.11013794,0.01173271
2654.03894531,0.01161725
2655.96775269,0.01149447
2657.89656006,0.01147057
2659.82536743,0.01157632
2661.75417480,0.01147207
2663.68298218,0.01143521
2665.61178955,0.01143989
2667.54059692,0.01140213
2669.46940430,0.01146684
2671.39821167,0.01140042
2673.32701904,0.01147211
2675.25582642,0.01137550
2677.18463379,0.01128361
2679.11344116,0.01133233
2681.04224854,0.01124015
2682.97105591,0.01132889
2684.89986328,0.01125552
2686.82867065,0.01116851
2688.75747803,0.01116972
2690.68628540,0.01109733
2692.61509277,0.01112274
2694.54390015,0.01102782
2696.47270752,0.01100289
2698.40151489,0.01102409
2700.33032227,0.01099669
2702.25912964,0.01110090
2704.18793701,0.01104358
2706.11674438,0.01082547
2708.04555176,0.01087093
2709.97435913,0.01090027
2711.90316650,0.01074843
2713.83197388,0.01082703
2715.76078125,0.01083426
2717.68958862,0.01074981
2719.61839600,0.01076314
2721.54720337,0.01070356
2723.47601074,0.01066788
2725.40481812,0.01064118
2727.33362549,0.01063252
2729.26243286,0.01061731
2731.19124023,0.01062811
2733.12004761,0.01054960
2735.04885498,0.01048399
2736.97766235,0.01054431
2738.90646973,0.01045190
2740.83527710,0.01045318
2742.76408447,0.01042705
2744.69289185,0.01036937
2746.62169922,0.01035276
2748.55050659,0.01025773
2750.47931396,0.01028224
2752.40812134,0.01017744
2754.33692871,0.01015091
2756.26573608,0.01017117
2758.19454346,0.01010022
2760.12335083,0.01013241
2762.05215820,0.01007278
2763.98096558,0.01003740
2765.90977295,0.00996870
2767.83858032,0.00991245
2769.76738770,0.00986650
2771.69619507,0.00985727
2773.62500244,0.00991499
2775.55380981,0.00979781
2777.48261719,0.00982073
2779.41142456,0.00981461
2781.34023193,0.00972228
2783.26903931,0.00976223
2785.19784668,0.00970536
2787.12665405,0.00969842
2789.05546143,0.00968320
2790.98426880,0.00953127
2792.91307617,0.00947626
2794.84188354,0.00948105
2796.77069092,0.00945222
2798.69949829,0.00947379
2800.62830566,0.00945517
2802.55711304,0.00941665
2804.48592041,0.00927729
2806.41472778,0.00916829
2808.34353516,0.00926158
2810.27234253,0.00918321
2812.20114990,0.00916863
2814.12995728,0.00915282
2816.05876465,0.00906549
2817.98757202,0.00905222
2819.91637939,0.00890039
2821.84518677,0.00897677
2823.77399414,0.00895243
2825.70280151,0.00883096
2827.63160889,0.00888261
2829.56041626,0.00880465
2831.48922363,0.00887698
2833.41803101,0.00879166
2835.34683838,0.00857550
2837.27564575,0.00863230
2839.20445312,0.00852540
2841.13326050,0.00837414
2843.06206787,0.00845185
2844.99087524,0.00844156
2846.91968262,0.00842564
2848.84848999,0.00836546
2850.77729736,0.00827069
2852.70610474,0.00831011
2854.63491211,0.00817172
2856.56371948,0.00822346
2858.49252686,0.00822686
2860.42133423,0.00802707
2862.35014160,0.00812651
2864.27894897,0.00812841
2866.20775635,0.00812123
2868.13656372,0.00795346
2870.06537109,0.00783421
2871.99417847,0.00796687
2873.92298584,0.00791011
2875.85179321,0.00789504
2877.78060059,0.00785029
2879.70940796,0.00787525
2881.63821533,0.00774313
2883.56702270,0.00762718
2885.49583008,0.00777181
2887.42463745,0.00763552
2889.35344482,0.00751744
2891.28225220,0.00750680
2893.21105957,0.00754666
2895.13986694,0.00754470
2897.06867432,0.00751891
2898.99748169,0.00750502
2900.92628906,0.00736431
2902.85509644,0.00726232
2904.78390381,0.00720944
2906.71271118,0.00726273
2908.64151855,0.00713962
2910.57032593,0.00707552
2912.49913330,0.00703707
2914.42794067,0.00694823
2916.35674805,0.00705922
2918.28555542,0.00692699
2920.21436279,0.00691335
2922.14317017,0.00682209
2924.07197754,0.00679818
2926.00078491,0.00689068
2927.92959229,0.00663015
2929.85839966,0.00672703
2931.78720703,0.00672027
2933.71601440,0.00659594
2935.64482178,0.00662076
2937.57362915,0.00659519
2939.50243652,0.00662546
2941.43124390,0.00645258
2943.36005127,0.00648468
2945.28885864,0.00654216
2947.21766602,0.00642181
2949.14647339,0.00638179
2951.07528076,0.00638127
2953.00408813,0.00641183
2954.93289551,0.00632300
2956.86170288,0.00622450
2958.79051025,0.00619902
2960.71931763,0.00625649
2962.64812500,0.00622228
2964.57693237,0.00619769
2966.50573975,0.00618824
2968.43454712,0.00604169
2970.36335449,0.00602015
2972.29216187,0.00602992
2974.22096924,0.00611694
2976.14977661,0.00602065
2978.07858398,0.00584072
2980.00739136,0.00594992
2981.93619873,0.00591616
2983.86500610,0.00587072
2985.79381348,0.00588758
2987.72262085,0.00581395
2989.65142822,0.00578330
2991.58023560,0.00582244
2993.50904297,0.00584232
2995.43785034,0.00572150
2997.36665771,0.00566563
2999.29546509,0.00570966
3001.22427246,0.00561857
3003.15307983,0.00558400
3005.08188721,0.00561613
3007.01069458,0.00549674
3008.93950195,0.00555929
3010.86830933,0.00555060
3012.79711670,0.00539972
3014.72592407,0.00548727
3016.65473145,0.00539534
3018.58353882,0.00536297
3020.51234619,0.00538765
3022.44115356,0.00526548
3024.36996094,0.00529068
3026.29876831,0.00525219
3028.22757568,0.00528738
3030.15638306,0.00528655
3032.08519043,0.00518028
3034.01399780,0.00517803
3035.94280518,0.00509345
3037.87161255,0.00505754
3039.80041992,0.00507734
3041.72922729,0.00508982
3043.65803467,0.00510747
3045.58684204,0.00502394
3047.51564941,0.00495729
3049.44445679,0.00497607
3051.37326416,0.00495028
3053.30207153,0.00488639
3055.23087891,0.00491963
3057.15968628,0.00497000
3059.08849365,0.00487955
3061.01730103,0.00478103
3062.94610840,0.00479896
3064.87491577,0.00480932
3066.80372314,0.00482946
3068.73253052,0.00472913
3070.66133789,0.00460688
3072.59014526,0.00474516
3074.51895264,0.00473127
3076.44776001,0.00465897
3078.37656738,0.00471497
3080.30537476,0.00463408
3082.23418213,0.00462570
3084.16298950,0.00469943
3086.09179687,0.00472251
3088.02060425,0.00464565
3089.94941162,0.00452959
3091.87821899,0.00455618
3093.80702637,0.00461770
3095.73583374,0.00459797
3097.66464111,0.00454863
3099.59344849,0.00453507
3101.52225586,0.00445488
3103.45106323,0.00444290
3105.37987061,0.00449849
3107.30867798,0.00440727
3109.23748535,0.00444253
3111.16629272,0.00445688
3113.09510010,0.00439835
3115.02390747,0.00445032
3116.95271484,0.00436683
3118.88152222,0.00429822
3120.81032959,0.00426397
3122.73913696,0.00435335
3124.66794434,0.00446499
3126.59675171,0.00425932
3128.52555908,0.00429408
3130.45436645,0.00441946
3132.38317383,0.00433266
3134.31198120,0.00434253
3136.24078857,0.00430753
3138.16959595,0.00429048
3140.09840332,0.00422015
3142.02721069,0.00419454
3143.95601807,0.00428134
3145.88482544,0.00420491
3147.81363281,0.00424272
3149.74244019,0.00427759
3151.67124756,0.00421719
3153.60005493,0.00420237
3155.52886230,0.00420322
3157.45766968,0.00431699
3159.38647705,0.00423925
3161.31528442,0.00426659
3163.24409180,0.00436982
3165.17289917,0.00411037
3167.10170654,0.00416016
3169.03051392,0.00420941
3170.95932129,0.00409427
3172.88812866,0.00421553
3174.81693604,0.00412830
3176.74574341,0.00414728
3178.67455078,0.00415485
3180.60335815,0.00407533
3182.53216553,0.00421950
3184.46097290,0.00416222
3186.38978027,0.00413059
3188.31858765,0.00415466
3190.24739502,0.00419226
3192.17620239,0.00419718
3194.10500977,0.00411532
3196.03381714,0.00420169
3197.96262451,0.00407301
3199.89143188,0.00404383
3201.82023926,0.00418555
3203.74904663,0.00415047
3205.67785400,0.00415139
3207.60666138,0.00411708
3209.53546875,0.00412269
3211.46427612,0.00417656
3213.39308350,0.00417801
3215.32189087,0.00404560
3217.25069824,0.00415998
3219.17950562,0.00426846
3221.10831299,0.00404685
3223.03712036,0.00421381
3224.96592773,0.00422270
3226.89473511,0.00415696
3228.82354248,0.00430076
3230.75234985,0.00420151
3232.68115723,0.00424086
3234.60996460,0.00422608
3236.53877197,0.00423729
3238.46757935,0.00427681
3240.39638672,0.00425334
3242.32519409,0.00428939
3244.25400146,0.00424184
3246.18280884,0.00431481
3248.11161621,0.00429037
3250.04042358,0.00435721
3251.96923096,0.00442994
3253.89803833,0.00430767
3255.82684570,0.00436077
3257.75565308,0.00431982
3259.68446045,0.00429450
3261.61326782,0.00439018
3263.54207520,0.00436444
3265.47088257,0.00431605
3267.39968994,0.00443355
3269.32849731,0.00447797
3271.25730469,0.00440756
3273.18611206,0.00448255
3275.11491943,0.00439762
3277.04372681,0.00436740
3278.97253418,0.00447277
3280.90134155,0.00445908
3282.83014893,0.00443190
3284.75895630,0.00439701
3286.68776367,0.00446460
3288.61657104,0.00446498
3290.54537842,0.00444055
3292.47418579,0.00451339
3294.40299316,0.00451580
3296.33180054,0.00449741
3298.26060791,0.00453138
3300.18941528,0.00452009
3302.11822266,0.00451601
3304.04703003,0.00461189
3305.97583740,0.00454039
3307.90464478,0.00449006
3309.83345215,0.00453685
3311.76225952,0.00462670
3313.69106689,0.00472424
3315.61987427,0.00458086
3317.54868164,0.00460925
3319.47748901,0.00468488
3321.40629639,0.00466447
3323.33510376,0.00467871
3325.26391113,0.00463570
3327.19271851,0.00464204
3329.12152588,0.00458192
3331.05033325,0.00463978
3332.97914062,0.00471485
3334.90794800,0.00473758
3336.83675537,0.00483078
3338.76556274,0.00485540
3340.69437012,0.00481930
3342.62317749,0.00477450
3344.55198486,0.00483146
3346.48079224,0.00477853
3348.40959961,0.00480917
3350.33840698,0.00488410
3352.26721436,0.00478821
3354.19602173,0.00478507
3356.12482910,0.00481418
3358.05363647,0.00484863
3359.98244385,0.00479447
3361.91125122,0.00492918
3363.84005859,0.00497063
3365.76886597,0.00480565
3367.69767334,0.00492201
3369.62648071,0.00493030
3371.55528809,0.00500623
3373.48409546,0.00502306
3375.41290283,0.00489035
3377.34171020,0.00499898
3379.27051758,0.00503265
3381.19932495,0.00495979
3383.12813232,0.00504596
3385.05693970,0.00514634
3386.98574707,0.00502063
3388.91455444,0.00505477
3390.84336182,0.00507839
3392.77216919,0.00506184
3394.70097656,0.00518349
3396.62978394,0.00518553
3398.55859131,0.00531692
3400.48739868,0.00524591
3402.41620605,0.00521840
3404.34501343,0.00536340
3406.27382080,0.00528331
3408.20262817,0.00523916
3410.13143555,0.00529854
3412.06024292,0.00548544
3413.98905029,0.00538221
3415.91785767,0.00533308
3417.84666504,0.00548370
3419.77547241,0.00543251
3421.70427979,0.00546996
3423.63308716,0.00545051
3425.56189453,0.00548378
3427.49070190,0.00555499
3429.41950928,0.00559860
3431.34831665,0.00558686
3433.27712402,0.00550134
3435.20593140,0.00558646
3437.13473877,0.00562419
3439.06354614,0.00559753
3440.99235352,0.00557400
3442.92116089,0.00562799
3444.84996826,0.00563140
3446.77877563,0.00561622
3448.70758301,0.00572556
3450.63639038,0.00574477
3452.56519775,0.00577716
3454.49400513,0.00579115
3456.42281250,0.00581762
3458.35161987,0.00584832
3460.28042725,0.00581273
3462.20923462,0.00580844
3464.13804199,0.00586866
3466.06684937,0.00594245
3467.99565674,0.00593909
3469.92446411,0.00589531
3471.85327148,0.00593647
3473.78207886,0.00608454
3475.71088623,0.00601100
3477.63969360,0.00604571
3479.56850098,0.00606273
3481.49730835,0.00590373
3483.42611572,0.00604047
3485.35492310,0.00607626
3487.28373047,0.00615599
3489.21253784,0.00613332
3491.14134521,0.00618817
3493.07015259,0.00635252
3494.99895996,0.00616741
3496.92776733,0.00624872
3498.85657471,0.00624175
3500.78538208,0.00621283
3502.71418945,0.00620394
3504.64299683,0.00621617
3506.57180420,0.00635070
3508.50061157,0.00622897
3510.42941895,0.00637977
3512.35822632,0.00639604
3514.28703369,0.00646101
3516.21584106,0.00654128
3518.14464844,0.00637962
3520.07345581,0.00656823
3522.00226318,0.00646945
3523.93107056,0.00634754
3525.85987793,0.00643598
3527.78868530,0.00642370
3529.71749268,0.00643751
3531.64630005,0.00649416
3533.57510742,0.00658789
3535.50391479,0.00661248
3537.43272217,0.00664504
3539.36152954,0.00666218
3541.29033691,0.00679840
3543.21914429,0.00669102
3545.14795166,0.00647291
3547.07675903,0.00659486
3549.00556641,0.00669023
3550.93437378,0.00671663
3552.86318115,0.00668824
3554.79198853,0.00680483
3556.72079590,0.00691340
3558.64960327,0.00688104
3560.57841064,0.00681820
3562.50721802,0.00685376
3564.43602539,0.00696123
3566.36483276,0.00651343
3568.29364014,0.00630359
3570.22244751,0.00687565
3572.15125488,0.00710859
3574.08006226,0.00700734
3576.00886963,0.00709143
3577.93767700,0.00704863
3579.86648437,0.00713084
3581.79529175,0.00718928
3583.72409912,0.00705083
3585.65290649,0.00698262
3587.58171387,0.00648548
3589.51052124,0.00663385
3591.43932861,0.00731157
3593.36813599,0.00721013
3595.29694336,0.00708950
3597.22575073,0.00717800
3599.15455811,0.00721953
3601.08336548,0.00720508
3603.01217285,0.00729266
3604.94098022,0.00736397
3606.86978760,0.00721312
3608.79859497,0.00678242
3610.72740234,0.00695091
3612.65620972,0.00727710
3614.58501709,0.00701278
3616.51382446,0.00755200
3618.44263184,0.00692339
3620.37143921,0.00667274
3622.30024658,0.00769184
3624.22905395,0.00745056
3626.15786133,0.00789325
3628.08666870,0.00671410
3630.01547607,0.00613809
3631.94428345,0.00778687
3633.87309082,0.00751698
3635.80189819,0.00773881
3637.73070557,0.00791512
3639.65951294,0.00778050
3641.58832031,0.00798727
3643.51712769,0.00794752
3645.44593506,0.00806062
3647.37474243,0.00722503
3649.30354980,0.00661984
3651.23235718,0.00678493
3653.16116455,0.00813322
3655.08997192,0.00807628
3657.01877930,0.00724237
3658.94758667,0.00848021
3660.87639404,0.00842169
3662.80520142,0.00843576
3664.73400879,0.00849846
3666.66281616,0.00854168
3668.59162354,0.00824500
3670.52043091,0.00683138
3672.44923828,0.00829789
3674.37804565,0.00788044
3676.30685303,0.00671740
3678.23566040,0.00841253
3680.16446777,0.00860772
3682.09327515,0.00877796
3684.02208252,0.00892256
3685.95088989,0.00887199
3687.87969727,0.00806344
3689.80850464,0.00738164
3691.73731201,0.00855026
3693.66611938,0.00873089
3695.59492676,0.00905832
3697.52373413,0.00901863
3699.45254150,0.00885517
3701.38134888,0.00878820
3703.31015625,0.00847073
3705.23896362,0.00925008
3707.16777100,0.00866122
3709.09657837,0.00864959
3711.02538574,0.00818337
3712.95419312,0.00764387
3714.88300049,0.00901889
3716.81180786,0.00870159
3718.74061523,0.00893019
3720.66942261,0.00871799
3722.59822998,0.00848412
3724.52703735,0.00879347
3726.45584473,0.00790011
3728.38465210,0.00871186
3730.31345947,0.00856548
3732.24226685,0.00796324
3734.17107422,0.00783725
3736.09988159,0.00733510
3738.02868896,0.00777354
3739.95749634,0.00841471
3741.88630371,0.00885858
3743.81511108,0.00681596
3745.74391846,0.00653569
3747.67272583,0.00841803
3749.60153320,0.00717893
3751.53034058,0.00667718
3753.45914795,0.00758051
3755.38795532,0.00818216
3757.31676270,0.00839429
3759.24557007,0.00779075
3761.17437744,0.00815598
3763.10318481,0.00860944
3765.03199219,0.00805741
3766.96079956,0.00821247
3768.88960693,0.00811366
3770.81841431,0.00768922
3772.74722168,0.00832844
3774.67602905,0.00829999
3776.60483643,0.00828791
3778.53364380,0.00808031
3780.46245117,0.00776245
3782.39125854,0.00839734
3784.32006592,0.00813437
3786.24887329,0.00799299
3788.17768066,0.00822461
3790.10648804,0.00820288
3792.03529541,0.00806943
3793.96410278,0.00818555
3795.89291016,0.00776276
3797.82171753,0.00766786
3799.75052490,0.00803083
3801.67933228,0.00632546
3803.60813965,0.00748941
3805.53694702,0.00804128
3807.46575439,0.00657173
3809.39456177,0.00807819
3811.32336914,0.00781737
3813.25217651,0.00802408
3815.18098389,0.00715487
3817.10979126,0.00640258
3819.03859863,0.00810009
3820.96740601,0.00646879
3822.89621338,0.00689304
3824.82502075,0.00792557
3826.75382812,0.00723354
3828.68263550,0.00781036
3830.61144287,0.00743772
3832.54025024,0.00725215
3834.46905762,0.00734985
3836.39786499,0.00695229
3838.32667236,0.00631544
3840.25547974,0.00685847
3842.18428711,0.00726737
3844.11309448,0.00690420
3846.04190186,0.00755109
3847.97070923,0.00744618
3849.89951660,0.00745757
3851.82832397,0.00668392
3853.75713135,0.00506712
3855.68593872,0.00596534
3857.61474609,0.00742016
3859.54355347,0.00724413
3861.47236084,0.00718798
3863.40116821,0.00696466
3865.32997559,0.00642121
3867.25878296,0.00733211
3869.18759033,0.00663699
3871.11639770,0.00606757
3873.04520508,0.00722746
3874.97401245,0.00663972
3876.90281982,0.00727074
3878.83162720,0.00736837
3880.76043457,0.00625901
3882.68924194,0.00719298
3884.61804932,0.00673667
3886.54685669,0.00617911
3888.47566406,0.00724887
3890.40447144,0.00677947
3892.33327881,0.00631858
3894.26208618,0.00711912
3896.19089355,0.00712634
3898.11970093,0.00671831
3900.04850830,0.00643708
3901.97731567,0.00633851
3903.90612305,0.00627461
3905.83493042,0.00635569
3907.76373779,0.00702538
3909.69254517,0.00693623
3911.62135254,0.00681673
3913.55015991,0.00694026
3915.47896728,0.00669199
3917.40777466,0.00661378
3919.33658203,0.00644672
3921.26538940,0.00668655
3923.19419678,0.00668991
3925.12300415,0.00655639
3927.05181152,0.00671293
3928.98061890,0.00669845
3930.90942627,0.00674188
3932.83823364,0.00646725
3934.76704102,0.00654660
3936.69584839,0.00672317
3938.62465576,0.00664514
3940.55346313,0.00672786
3942.48227051,0.00647535
3944.41107788,0.00649508
3946.33988525,0.00665216
3948.26869263,0.00647848
3950.19750000,0.00649797
3952.12630737,0.00652246
3954.05511475,0.00654344
3955.98392212,0.00661931
3957.91272949,0.00645934
3959.84153687,0.00645971
3961.77034424,0.00650655
3963.69915161,0.00643244
3965.62795898,0.00647279
3967.55676636,0.00640359
3969.48557373,0.00641698
3971.41438110,0.00639907
3973.34318848,0.00633380
3975.27199585,0.00631118
3977.20080322,0.00631645
3979.12961060,0.00636821
3981.05841797,0.00628092
3982.98722534,0.00635053
3984.91603271,0.00632148
3986.84484009,0.00631137
3988.77364746,0.00633118
3990.70245483,0.00625932
3992.63126221,0.00631965
3994.56006958,0.00615659
3996.48887695,0.00612567
3998.41768433,0.00614393
4000.34649170,0.00619799
4002.27529907,0.00623913
4004.20410645,0.00611725
4006.13291382,0.00613777
4008.06172119,0.00603251
4009.99052856,0.00611332
4011.91933594,0.00612132
4013.84814331,0.00603165
4015.77695068,0.00607859
4017.70575806,0.00601719
4019.63456543,0.00609944
4021.56337280,0.00605688
4023.49218018,0.00600236
4025.42098755,0.00595143
4027.34979492,0.00588206
4029.27860229,0.00598844
4031.20740967,0.00595338
4033.13621704,0.00591833
4035.06502441,0.00599178
4036.99383179,0.00592615
4038.92263916,0.00591178
4040.85144653,0.00605247
4042.78025391,0.00590968
4044.70906128,0.00580500
4046.63786865,0.00584993
4048.56667603,0.00583425
4050.49548340,0.00590299
4052.42429077,0.00585044
4054.35309814,0.00585353
4056.28190552,0.00583221
4058.21071289,0.00580333
4060.13952026,0.00580516
4062.06832764,0.00573432
4063.99713501,0.00575325
4065.92594238,0.00576583
4067.85474976,0.00580197
4069.78355713,0.00571810
4071.71236450,0.00571776
4073.64117187,0.00570299
4075.56997925,0.00560538
4077.49878662,0.00563359
4079.42759399,0.00553121
4081.35640137,0.00564090
4083.28520874,0.00575685
4085.21401611,0.00560878
4087.14282349,0.00557695
4089.07163086,0.00565740
4091.00043823,0.00555126
4092.92924561,0.00548617
4094.85805298,0.00561981
4096.78686035,0.00550766
4098.71566772,0.00550726
4100.64447510,0.00552389
4102.57328247,0.00538209
4104.50208984,0.00539527
4106.43089722,0.00540711
4108.35970459,0.00542833
4110.28851196,0.00545531
4112.21731934,0.00550017
4114.14612671,0.00537365
4116.07493408,0.00529925
4118.00374145,0.00539203
4119.93254883,0.00541542
4121.86135620,0.00545083
4123.79016357,0.00539547
4125.71897095,0.00536294
4127.64777832,0.00531172
4129.57658569,0.00533067
4131.50539307,0.00528885
4133.43420044,0.00518569
4135.36300781,0.00528415
4137.29181519,0.00529080
4139.22062256,0.00532021
4141.14942993,0.00524312
4143.07823730,0.00516459
4145.00704468,0.00525226
4146.93585205,0.00524821
4148.86465942,0.00524611
4150.79346680,0.00520168
4152.72227417,0.00517116
4154.65108154,0.00513779
4156.57988892,0.00508328
4158.50869629,0.00509566
4160.43750366,0.00513505
4162.36631103,0.00512868
4164.29511841,0.00512006
4166.22392578,0.00507062
4168.15273315,0.00506312
4170.08154053,0.00516304
4172.01034790,0.00504282
4173.93915527,0.00507701
4175.86796265,0.00510889
4177.79677002,0.00495532
4179.72557739,0.00499027
4181.65438477,0.00494851
4183.58319214,0.00495588
4185.51199951,0.00493399
4187.44080688,0.00493985
4189.36961426,0.00495390
4191.29842163,0.00486638
4193.22722900,0.00490729
4195.15603638,0.00485314
4197.08484375,0.00487643
4199.01365112,0.00490558
4200.94245850,0.00486937
4202.87126587,0.00489691
4204.80007324,0.00491331
4206.72888062,0.00492096
4208.65768799,0.00486867
4210.58649536,0.00486823
4212.51530273,0.00486957
4214.44411011,0.00486516
4216.37291748,0.00476675
4218.30172485,0.00474176
4220.23053223,0.00475571
4222.15933960,0.00472191
4224.08814697,0.00484216
4226.01695435,0.00475300
4227.94576172,0.00470855
4229.87456909,0.00473441
4231.80337646,0.00469857
4233.73218384,0.00470272
4235.66099121,0.00458630
4237.58979858,0.00461791
4239.51860596,0.00466502
4241.44741333,0.00461776
4243.37622070,0.00458387
4245.30502808,0.00468558
4247.23383545,0.00466793
4249.16264282,0.00449280
4251.09145020,0.00459890
4253.02025757,0.00465043
4254.94906494,0.00465221
4256.87787231,0.00458279
4258.80667969,0.00450360
4260.73548706,0.00454739
4262.66429443,0.00448381
4264.59310181,0.00452469
4266.52190918,0.00452483
4268.45071655,0.00449925
4270.37952393,0.00448778
4272.30833130,0.00447613
4274.23713867,0.00453964
4276.16594604,0.00447616
4278.09475342,0.00442555
4280.02356079,0.00438296
4281.95236816,0.00439790
4283.88117554,0.00447852
4285.80998291,0.00443932
4287.73879028,0.00439498
4289.66759766,0.00437297
4291.59640503,0.00433592
4293.52521240,0.00436270
4295.45401978,0.00438849
4297.38282715,0.00430648
4299.31163452,0.00426800
4301.24044189,0.00430125
4303.16924927,0.00430655
4305.09805664,0.00427466
4307.02686401,0.00429784
4308.95567139,0.00430577
4310.88447876,0.00427647
4312.81328613,0.00432223
4314.74209351,0.00424860
4316.67090088,0.00424328
4318.59970825,0.00425677
4320.52851562,0.00418406
4322.45732300,0.00425787
4324.38613037,0.00421741
4326.31493774,0.00415575
4328.24374512,0.00420062
4330.17255249,0.00420878
4332.10135986,0.00417243
4334.03016724,0.00418278
4335.95897461,0.00416151
4337.88778198,0.00405805
4339.81658936,0.00414959
4341.74539673,0.00415828
4343.67420410,0.00406288
4345.60301147,0.00408446
4347.53181885,0.00405897
4349.46062622,0.00403594
4351.38943359,0.00404127
4353.31824097,0.00408737
4355.24704834,0.00407337
4357.17585571,0.00404278
4359.10466309,0.00404800
4361.03347046,0.00398828
4362.96227783,0.00398320
4364.89108520,0.00401468
4366.81989258,0.00401990
4368.74869995,0.00400298
4370.67750732,0.00393678
4372.60631470,0.00391572
4374.53512207,0.00400603
4376.46392944,0.00396963
4378.39273682,0.00389948
4380.32154419,0.00395045
4382.25035156,0.00392014
4384.17915894,0.00389891
4386.10796631,0.00383792
4388.03677368,0.00382444
4389.96558105,0.00387695
4391.89438843,0.00382952
4393.82319580,0.00385647
4395.75200317,0.00388290
4397.68081055,0.00389433
4399.60961792,0.00382264
4401.53842529,0.00375364
4403.46723267,0.00380989
4405.39604004,0.00379562
4407.32484741,0.00386866
4409.25365478,0.00388393
4411.18246216,0.00376419
4413.11126953,0.00376577
4415.04007690,0.00376704
4416.96888428,0.00371576
4418.89769165,0.00370451
4420.82649902,0.00371863
4422.75530640,0.00373074
4424.68411377,0.00374297
4426.61292114,0.00369913
4428.54172852,0.00365239
4430.47053589,0.00366563
4432.39934326,0.00367059
4434.32815063,0.00366561
4436.25695801,0.00371184
4438.18576538,0.00368314
4440.11457275,0.00356829
4442.04338013,0.00362350
4443.97218750,0.00361641
4445.90099487,0.00355154
4447.82980225,0.00356766
4449.75860962,0.00355357
4451.68741699,0.00364755
4453.61622437,0.00357000
4455.54503174,0.00353386
4457.47383911,0.00358927
4459.40264648,0.00344381
4461.33145386,0.00351743
4463.26026123,0.00356183
4465.18906860,0.00349149
4467.11787598,0.00348074
4469.04668335,0.00348816
4470.97549072,0.00352736
4472.90429810,0.00343633
4474.83310547,0.00343950
4476.76191284,0.00347040
4478.69072021,0.00350049
4480.61952759,0.00351098
4482.54833496,0.00341425
4484.47714233,0.00343971
4486.40594971,0.00342415
4488.33475708,0.00341253
4490.26356445,0.00344363
4492.19237183,0.00344286
4494.12117920,0.00339050
4496.04998657,0.00335204
4497.97879395,0.00337756
4499.90760132,0.00332479
4501.83640869,0.00337761
4503.76521606,0.00338118
4505.69402344,0.00342366
4507.62283081,0.00342094
4509.55163818,0.00321768
4511.48044556,0.00325970
4513.40925293,0.00324721
4515.33806030,0.00326682
4517.26686768,0.00327134
4519.19567505,0.00317185
4521.12448242,0.00333388
4523.05328979,0.00332457
4524.98209717,0.00322367
4526.91090454,0.00321079
4528.83971191,0.00324535
4530.76851929,0.00327547
4532.69732666,0.00313864
4534.62613403,0.00315724
4536.55494141,0.00322571
4538.48374878,0.00314545
4540.41255615,0.00319460
4542.34136353,0.00324105
4544.27017090,0.00311910
4546.19897827,0.00317650
4548.12778564,0.00319810
4550.05659302,0.00312074
4551.98540039,0.00317195
4553.91420776,0.00311004
4555.84301514,0.00312441
4557.77182251,0.00308654
4559.70062988,0.00308947
4561.62943726,0.00320937
4563.55824463,0.00309997
4565.48705200,0.00309188
4567.41585937,0.00312404
4569.34466675,0.00310788
4571.27347412,0.00304240
4573.20228149,0.00302259
4575.13108887,0.00312481
4577.05989624,0.00308324
4578.98870361,0.00308435
4580.91751099,0.00306184
4582.84631836,0.00302005
4584.77512573,0.00304403
4586.70393311,0.00304253
4588.63274048,0.00302909
4590.56154785,0.00297761
4592.49035522,0.00297891
4594.41916260,0.00298423
4596.34796997,0.00299605
4598.27677734,0.00294893
4600.20558472,0.00292570
4602.13439209,0.00295753
4604.06319946,0.00294540
4605.99200684,0.00292834
4607.92081421,0.00287968
4609.84962158,0.00295742
4611.77842895,0.00290506
4613.70723633,0.00282637
4615.63604370,0.00290481
4617.56485107,0.00282666
4619.49365845,0.00283251
4621.42246582,0.00294211
4623.35127319,0.00292652
4625.28008057,0.00280865
4627.20888794,0.00280219
4629.13769531,0.00287561
4631.06650269,0.00292246
4632.99531006,0.00290828
4634.92411743,0.00280037
4636.85292480,0.00287357
4638.78173218,0.00285523
4640.71053955,0.00278390
4642.63934692,0.00283630
4644.56815430,0.00280345
4646.49696167,0.00283491
4648.42576904,0.00279452
4650.35457642,0.00277079
4652.28338379,0.00279143
4654.21219116,0.00274737
4656.14099853,0.00277343
4658.06980591,0.00274130
4659.99861328,0.00271435
4661.92742065,0.00277345
4663.85622803,0.00273341
4665.78503540,0.00265563
4667.71384277,0.00272825
4669.64265015,0.00269740
4671.57145752,0.00267344
4673.50026489,0.00274777
4675.42907227,0.00263749
4677.35787964,0.00265485
4679.28668701,0.00274631
4681.21549438,0.00269032
4683.14430176,0.00261223
4685.07310913,0.00259293
4687.00191650,0.00260168
4688.93072388,0.00265377
4690.85953125,0.00272898
4692.78833862,0.00258325
4694.71714600,0.00258280
4696.64595337,0.00264223
4698.57476074,0.00254807
4700.50356812,0.00261401
4702.43237549,0.00261953
4704.36118286,0.00261631
4706.28999023,0.00258125
4708.21879761,0.00258000
4710.14760498,0.00261809
4712.07641235,0.00251815
4714.00521973,0.00252937
4715.93402710,0.00247906
4717.86283447,0.00250622
4719.79164185,0.00252705
4721.72044922,0.00244303
4723.64925659,0.00253918
4725.57806396,0.00249831
4727.50687134,0.00249419
4729.43567871,0.00247042
4731.36448608,0.00241546
4733.29329346,0.00253548
4735.22210083,0.00245025
4737.15090820,0.00240573
4739.07971558,0.00244200
4741.00852295,0.00244938
4742.93733032,0.00247611
4744.86613770,0.00243921
4746.79494507,0.00249691
4748.72375244,0.00244094
4750.65255981,0.00237320
4752.58136719,0.00240752
4754.51017456,0.00241875
4756.43898193,0.00240824
4758.36778931,0.00231173
4760.29659668,0.00237863
4762.22540405,0.00239183
4764.15421143,0.00235286
4766.08301880,0.00245889
4768.01182617,0.00241061
4769.94063354,0.00238195
4771.86944092,0.00239101
4773.79824829,0.00235466
4775.72705566,0.00232860
4777.65586304,0.00235884
4779.58467041,0.00239157
4781.51347778,0.00228573
4783.44228516,0.00228656
4785.37109253,0.00228760
4787.29989990,0.00228638
4789.22870728,0.00232530
4791.15751465,0.00226425
4793.08632202,0.00231578
4795.01512939,0.00233346
4796.94393677,0.00230640
4798.87274414,0.00227609
4800.80155151,0.00223663
4802.73035889,0.00226459
4804.65916626,0.00222224
4806.58797363,0.00225207
4808.51678101,0.00222919
4810.44558838,0.00220320
4812.37439575,0.00229795
4814.30320312,0.00224504
4816.23201050,0.00220520
4818.16081787,0.00217612
4820.08962524,0.00220442
4822.01843262,0.00227718
4823.94723999,0.00218212
4825.87604736,0.00220029
4827.80485474,0.00222329
4829.73366211,0.00219412
4831.66246948,0.00221489
4833.59127686,0.00214844
4835.52008423,0.00222705
4837.44889160,0.00219755
4839.37769897,0.00205944
4841.30650635,0.00219345
4843.23531372,0.00216555
4845.16412109,0.00209694
4847.09292847,0.00217530
4849.02173584,0.00213562
4850.95054321,0.00212485
4852.87935059,0.00207508
4854.80815796,0.00205405
4856.73696533,0.00210094
4858.66577270,0.00208372
4860.59458008,0.00207319
4862.52338745,0.00203985
4864.45219482,0.00211614
4866.38100220,0.00209294
4868.30980957,0.00199605
4870.23861694,0.00213207
4872.16742432,0.00211502
4874.09623169,0.00200623
4876.02503906,0.00200192
4877.95384644,0.00197378
4879.88265381,0.00199438
4881.81146118,0.00203100
4883.74026855,0.00200615
4885.66907593,0.00196797
4887.59788330,0.00205445
4889.52669067,0.00206247
4891.45549805,0.00199747
4893.38430542,0.00206217
4895.31311279,0.00202155
4897.24192017,0.00196892
4899.17072754,0.00201736
4901.09953491,0.00201272
4903.02834228,0.00192802
4904.95714966,0.00193758
4906.88595703,0.00200979
4908.81476440,0.00191307
4910.74357178,0.00188437
4912.67237915,0.00193013
4914.60118652,0.00194504
4916.52999390,0.00194924
4918.45880127,0.00191007
4920.38760864,0.00197419
4922.31641602,0.00196562
4924.24522339,0.00187241
4926.17403076,0.00188207
4928.10283813,0.00193919
4930.03164551,0.00188395
4931.96045288,0.00180393
4933.88926025,0.00191300
4935.81806763,0.00190026
4937.74687500,0.00183107
4939.67568237,0.00189706
4941.60448975,0.00187813
4943.53329712,0.00185146
4945.46210449,0.00184375
4947.39091187,0.00187484
4949.31971924,0.00190406
4951.24852661,0.00181471
4953.17733398,0.00182505
4955.10614136,0.00190183
4957.03494873,0.00185052
4958.96375610,0.00186402
4960.89256348,0.00186916
4962.82137085,0.00174442
4964.75017822,0.00174310
4966.67898560,0.00180328
4968.60779297,0.00181681
4970.53660034,0.00178486
4972.46540771,0.00176023
4974.39421509,0.00183309
4976.32302246,0.00181986
4978.25182983,0.00173978
4980.18063721,0.00174110
4982.10944458,0.00177690
4984.03825195,0.00177699
4985.96705933,0.00174195
4987.89586670,0.00172065
4989.82467407,0.00173832
4991.75348145,0.00177620
4993.68228882,0.00176238
4995.61109619,0.00174244
4997.53990356,0.00176367
4999.46871094,0.00174062
5001.39751831,0.00168616
5003.32632568,0.00172401
5005.25513306,0.00177776
5007.18394043,0.00175242
5009.11274780,0.00172143
5011.04155518,0.00175515
5012.97036255,0.00178392
5014.89916992,0.00166669
5016.82797729,0.00168542
5018.75678467,0.00175066
5020.68559204,0.00164266
5022.61439941,0.00165607
5024.54320679,0.00163985
5026.47201416,0.00160598
5028.40082153,0.00163010
5030.32962891,0.00163450
5032.25843628,0.00163836
5034.18724365,0.00162121
5036.11605103,0.00166027
5038.04485840,0.00158480
5039.97366577,0.00162696
5041.90247314,0.00170838
5043.83128052,0.00158097
5045.76008789,0.00163850
5047.68889526,0.00169185
5049.61770264,0.00161062
5051.54651001,0.00157987
5053.47531738,0.00161682
5055.40412476,0.00161137
5057.33293213,0.00153196
5059.26173950,0.00155817
5061.19054687,0.00157929
5063.11935425,0.00156273
5065.04816162,0.00157166
5066.97696899,0.00159479
5068.90577637,0.00161789
5070.83458374,0.00162356
5072.76339111,0.00162422
5074.69219849,0.00158945
5076.62100586,0.00155140
5078.54981323,0.00152042
5080.47862061,0.00150322
5082.40742798,0.00150105
5084.33623535,0.00153710
5086.26504272,0.00151556
5088.19385010,0.00150824
5090.12265747,0.00154263
5092.05146484,0.00145348
5093.98027222,0.00148487
5095.90907959,0.00151794
5097.83788696,0.00147969
5099.76669434,0.00148976
5101.69550171,0.00146637
5103.62430908,0.00150304
5105.55311645,0.00145270
5107.48192383,0.00142773
5109.41073120,0.00145662
5111.33953857,0.00142155
5113.26834595,0.00145688
5115.19715332,0.00149073
5117.12596069,0.00152104
5119.05476807,0.00149901
5120.98357544,0.00146548
5122.91238281,0.00144788
5124.84119019,0.00143282
5126.76999756,0.00147942
5128.69880493,0.00145119
5130.62761230,0.00141012
5132.55641968,0.00144837
5134.48522705,0.00149958
5136.41403442,0.00148083
5138.34284180,0.00138436
5140.27164917,0.00138394
5142.20045654,0.00146700
5144.12926392,0.00140458
5146.05807129,0.00138965
5147.98687866,0.00149188
5149.91568603,0.00140902
5151.84449341,0.00139291
5153.77330078,0.00145046
5155.70210815,0.00139863
5157.63091553,0.00135108
5159.55972290,0.00129720
5161.48853027,0.00133140
5163.41733765,0.00132375
5165.34614502,0.00127628
5167.27495239,0.00131190
5169.20375977,0.00132252
5171.13256714,0.00127434
5173.06137451,0.00129976
5174.99018188,0.00143242
5176.91898926,0.00135975
5178.84779663,0.00132829
5180.77660400,0.00139580
5182.70541138,0.00130212
5184.63421875,0.00135136
5186.56302612,0.00139351
5188.49183350,0.00137980
5190.42064087,0.00137861
5192.34944824,0.00129007
5194.27825562,0.00134077
5196.20706299,0.00134030
5198.13587036,0.00128111
5200.06467773,0.00137471
5201.99348511,0.00133788
5203.92229248,0.00124541
5205.85109985,0.00125383
5207.77990723,0.00124717
5209.70871460,0.00130731
5211.63752197,0.00131838
5213.56632935,0.00125194
5215.49513672,0.00123616
5217.42394409,0.00123433
5219.35275146,0.00127517
5221.28155884,0.00130025
5223.21036621,0.00132596
5225.13917358,0.00128626
5227.06798096,0.00125034
5228.99678833,0.00129223
5230.92559570,0.00122503
5232.85440308,0.00123197
5234.78321045,0.00124509
5236.71201782,0.00126734
5238.64082520,0.00127916
5240.56963257,0.00119545
5242.49843994,0.00130396
5244.42724731,0.00125181
5246.35605469,0.00119496
5248.28486206,0.00127219
5250.21366943,0.00119725
5252.14247681,0.00127211
5254.07128418,0.00125723
5256.00009155,0.00118388
5257.92889893,0.00120708
5259.85770630,0.00116949
5261.78651367,0.00112694
5263.71532104,0.00110943
5265.64412842,0.00120748
5267.57293579,0.00118964
5269.50174316,0.00120012
5271.43055054,0.00121683
5273.35935791,0.00114816
5275.28816528,0.00125856
5277.21697266,0.00118862
5279.14578003,0.00113589
5281.07458740,0.00118818
5283.00339478,0.00114747
5284.93220215,0.00120252
5286.86100952,0.00115173
5288.78981689,0.00111208
5290.71862427,0.00114848
5292.64743164,0.00115247
5294.57623901,0.00116928
5296.50504639,0.00112678
5298.43385376,0.00115140
5300.36266113,0.00119925
5302.29146851,0.00113522
5304.22027588,0.00116488
5306.14908325,0.00121956
5308.07789062,0.00113679
5310.00669800,0.00116079
5311.93550537,0.00114154
5313.86431274,0.00112048
5315.79312012,0.00120927
5317.72192749,0.00115935
5319.65073486,0.00120009
5321.57954224,0.00112424
5323.50834961,0.00105781
5325.43715698,0.00119515
5327.36596436,0.00106341
5329.29477173,0.00106091
5331.22357910,0.00118529
5333.15238647,0.00108411
5335.08119385,0.00108458
5337.01000122,0.00114845
5338.93880859,0.00108615
5340.86761597,0.00109828
5342.79642334,0.00115175
5344.72523071,0.00108946
5346.65403809,0.00109830
5348.58284546,0.00107402
5350.51165283,0.00101799
5352.44046020,0.00104737
5354.36926758,0.00105253
5356.29807495,0.00101960
5358.22688232,0.00094402
5360.15568970,0.00104719
5362.08449707,0.00111010
5364.01330444,0.00099525
5365.94211182,0.00106216
5367.87091919,0.00110276
5369.79972656,0.00106122
5371.72853394,0.00109451
5373.65734131,0.00104932
5375.58614868,0.00099031
5377.51495605,0.00100372
5379.44376343,0.00102037
5381.37257080,0.00105936
5383.30137817,0.00101620
5385.23018555,0.00096670
5387.15899292,0.00104485
5389.08780029,0.00109168
5391.01660767,0.00108948
5392.94541504,0.00101785
5394.87422241,0.00098625
5396.80302978,0.00097044
5398.73183716,0.00094013
5400.66064453,0.00109641
5402.58945190,0.00109726
5404.51825928,0.00096587
5406.44706665,0.00099271
5408.37587402,0.00097022
5410.30468140,0.00096932
5412.23348877,0.00105885
5414.16229614,0.00099507
5416.09110352,0.00089899
5418.01991089,0.00094626
5419.94871826,0.00094101
5421.87752563,0.00096169
5423.80633301,0.00100263
5425.73514038,0.00094696
5427.66394775,0.00096990
5429.59275513,0.00095705
5431.52156250,0.00092306
5433.45036987,0.00098336
5435.37917725,0.00090345
5437.30798462,0.00091830
5439.23679199,0.00106936
5441.16559936,0.00092104
5443.09440674,0.00089684
5445.02321411,0.00094722
5446.95202148,0.00088459
5448.88082886,0.00103090
5450.80963623,0.00091919
5452.73844360,0.00086246
5454.66725098,0.00094707
5456.59605835,0.00083776
5458.52486572,0.00091275
5460.45367310,0.00092472
5462.38248047,0.00092618
5464.31128784,0.00091799
5466.24009521,0.00086415
5468.16890259,0.00091140
5470.09770996,0.00088134
5472.02651733,0.00096239
5473.95532471,0.00096048
5475.88413208,0.00086552
5477.81293945,0.00091591
5479.74174683,0.00090618
5481.67055420,0.00081096
5483.59936157,0.00084608
5485.52816895,0.00096375
5487.45697632,0.00090244
5489.38578369,0.00086252
5491.31459106,0.00089713
5493.24339844,0.00087988
5495.17220581,0.00090451
5497.10101318,0.00092383
5499.02982056,0.00087546
5500.95862793,0.00088651
5502.88743530,0.00094566
5504.81624268,0.00089913
5506.74505005,0.00089665
5508.67385742,0.00086274
5510.60266479,0.00083740
5512.53147217,0.00089727
5514.46027954,0.00086784
5516.38908691,0.00088285
5518.31789429,0.00088081
5520.24670166,0.00082272
5522.17550903,0.00079808
5524.10431641,0.00082760
5526.03312378,0.00084127
5527.96193115,0.00083510
5529.89073853,0.00080661
5531.81954590,0.00080928
5533.74835327,0.00091692
5535.67716064,0.00080049
5537.60596802,0.00080998
5539.53477539,0.00090557
5541.46358276,0.00083379
5543.39239014,0.00089016
5545.32119751,0.00079118
5547.25000488,0.00078531
5549.17881226,0.00079707
5551.10761963,0.00074733
5553.03642700,0.00085051
5554.96523437,0.00075833
5556.89404175,0.00076376
5558.82284912,0.00087306
5560.75165649,0.00084268
5562.68046387,0.00082619
5564.60927124,0.00083265
5566.53807861,0.00076552
5568.46688599,0.00077160
5570.39569336,0.00083784
5572.32450073,0.00078569
5574.25330811,0.00080601
5576.18211548,0.00076198
5578.11092285,0.00074754
5580.03973022,0.00074548
5581.96853760,0.00068798
5583.89734497,0.00079144
5585.82615234,0.00074330
5587.75495972,0.00069335
5589.68376709,0.00079785
5591.61257446,0.00086024
5593.54138184,0.00072334
5595.47018921,0.00067281
5597.39899658,0.00084939
5599.32780395,0.00075460
5601.25661133,0.00074813
5603.18541870,0.00084253
5605.11422607,0.00076798
5607.04303345,0.00075221
5608.97184082,0.00072595
5610.90064819,0.00076577
5612.82945557,0.00078334
5614.75826294,0.00072475
5616.68707031,0.00073138
5618.61587769,0.00074591
5620.54468506,0.00071037
5622.47349243,0.00073315
5624.40229980,0.00076983
5626.33110718,0.00072462
5628.25991455,0.00075193
5630.18872192,0.00076520
5632.11752930,0.00075330
5634.04633667,0.00075895
5635.97514404,0.00071209
5637.90395142,0.00070762
5639.83275879,0.00077301
5641.76156616,0.00078942
5643.69037353,0.00072843
5645.61918091,0.00071629
5647.54798828,0.00072946
5649.47679565,0.00076747
5651.40560303,0.00073880
5653.33441040,0.00068292
5655.26321777,0.00073335
5657.19202515,0.00069728
5659.12083252,0.00067417
5661.04963989,0.00070047
5662.97844727,0.00069703
5664.90725464,0.00073034
5666.83606201,0.00071674
5668.76486938,0.00067402
5670.69367676,0.00069519
5672.62248413,0.00071051
5674.55129150,0.00067661
5676.48009888,0.00072411
5678.40890625,0.00075098
5680.33771362,0.00068476
5682.26652100,0.00065985
5684.19532837,0.00064461
5686.12413574,0.00061256
5688.05294311,0.00063581
5689.98175049,0.00066127
5691.91055786,0.00064207
5693.83936523,0.00068131
5695.76817261,0.00062399
5697.69697998,0.00057214
5699.62578735,0.00066910
5701.55459473,0.00066054
5703.48340210,0.00062787
5705.41220947,0.00065466
5707.34101685,0.00069734
5709.26982422,0.00066148
5711.19863159,0.00063926
5713.12743896,0.00071152
5715.05624634,0.00069140
5716.98505371,0.00066850
5718.91386108,0.00063765
5720.84266846,0.00065100
5722.77147583,0.00067260
5724.70028320,0.00061054
5726.62909058,0.00064531
5728.55789795,0.00064709
5730.48670532,0.00061009
5732.41551270,0.00062652
5734.34432007,0.00060310
5736.27312744,0.00060392
5738.20193481,0.00060418
5740.13074219,0.00055955
5742.05954956,0.00062303
5743.98835693,0.00069206
5745.91716431,0.00064888
5747.84597168,0.00060252
5749.77477905,0.00058969
5751.70358643,0.00064603
5753.63239380,0.00062502
5755.56120117,0.00054555
5757.49000854,0.00055940
5759.41881592,0.00061805
5761.34762329,0.00057661
5763.27643066,0.00051936
5765.20523804,0.00064498
5767.13404541,0.00060361
5769.06285278,0.00055589
5770.99166016,0.00062711
5772.92046753,0.00055518
5774.84927490,0.00057742
5776.77808228,0.00057874
5778.70688965,0.00058244
5780.63569702,0.00060434
5782.56450439,0.00055796
5784.49331177,0.00051332
5786.42211914,0.00051033
5788.35092651,0.00062945
5790.27973389,0.00058562
5792.20854126,0.00057147
5794.13734863,0.00062347
5796.06615601,0.00054831
5797.99496338,0.00058861
5799.92377075,0.00059564
5801.85257812,0.00052242
5803.78138550,0.00052879
5805.71019287,0.00060546
5807.63900024,0.00059320
5809.56780762,0.00055339
5811.49661499,0.00057993
5813.42542236,0.00057809
5815.35422974,0.00055779
5817.28303711,0.00049608
5819.21184448,0.00049533
5821.14065186,0.00051263
5823.06945923,0.00054728
5824.99826660,0.00057022
5826.92707397,0.00051024
5828.85588135,0.00052216
5830.78468872,0.00053409
5832.71349609,0.00051135
5834.64230347,0.00050405
5836.57111084,0.00057458
5838.49991821,0.00055694
5840.42872559,0.00047711
5842.35753296,0.00052865
5844.28634033,0.00052319
5846.21514770,0.00053805
5848.14395508,0.00054901
5850.07276245,0.00053286
5852.00156982,0.00052653
5853.93037720,0.00051509
5855.85918457,0.00053194
5857.78799194,0.00048799
5859.71679932,0.00053970
5861.64560669,0.00053718
5863.57441406,0.00047597
5865.50322144,0.00047705
5867.43202881,0.00044224
5869.36083618,0.00053078
5871.28964355,0.00057193
5873.21845093,0.00051642
5875.14725830,0.00050120
5877.07606567,0.00049639
5879.00487305,0.00051065
5880.93368042,0.00050861
5882.86248779,0.00048285
5884.79129517,0.00048388
5886.72010254,0.00050274
5888.64890991,0.00043471
5890.57771728,0.00045251
5892.50652466,0.00050867
5894.43533203,0.00048902
5896.36413940,0.00050803
5898.29294678,0.00045295
5900.22175415,0.00049324
5902.15056152,0.00052640
5904.07936890,0.00043952
5906.00817627,0.00046637
5907.93698364,0.00044848
5909.86579102,0.00044285
5911.79459839,0.00047811
5913.72340576,0.00050091
5915.65221313,0.00053237
5917.58102051,0.00041856
5919.50982788,0.00037410
5921.43863525,0.00044970
5923.36744263,0.00043557
5925.29625000,0.00041248
5927.22505737,0.00046053
5929.15386475,0.00046822
5931.08267212,0.00042061
5933.01147949,0.00048188
5934.94028686,0.00045955
5936.86909424,0.00041411
5938.79790161,0.00051977
5940.72670898,0.00046719
5942.65551636,0.00042885
5944.58432373,0.00044500
5946.51313110,0.00037223
5948.44193848,0.00041377
5950.37074585,0.00045304
5952.29955322,0.00043139
5954.22836060,0.00047133
5956.15716797,0.00050039
5958.08597534,0.00040946
5960.01478271,0.00038683
5961.94359009,0.00043037
5963.87239746,0.00041123
5965.80120483,0.00044307
5967.73001221,0.00043233
5969.65881958,0.00043653
5971.58762695,0.00041536
5973.51643433,0.00039026
5975.44524170,0.00044612
5977.37404907,0.00043857
5979.30285645,0.00045074
5981.23166382,0.00038707
5983.16047119,0.00041154
5985.08927856,0.00041066
5987.01808594,0.00029974
5988.94689331,0.00045108
5990.87570068,0.00046822
5992.80450806,0.00040340
5994.73331543,0.00040534
5996.66212280,0.00040332
5998.59093018,0.00044246
6000.51973755,0.00030370
