399.26312622,0.00002190
401.19193359,0.00007539
403.12074097,0.00026450
405.04954834,0.00006427
406.97835571,0.00032568
408.90716309,0.00016660
410.83597046,-0.00013085
412.76477783,0.00020281
414.69358521,-0.00008615
416.62239258,0.00017672
418.55119995,0.00025241
420.48000732,0.00007208
422.40881470,0.00027506
424.33762207,-0.00001024
426.26642944,0.00013378
428.19523682,0.00024822
430.12404419,-0.00001174
432.05285156,-0.00010957
433.98165894,0.00001822
435.91046631,0.00002386
437.83927368,0.00006470
439.76808105,0.00022954
441.69688843,0.00002985
443.62569580,0.00023086
445.55450317,0.00008492
447.48331055,-0.00015794
449.41211792,0.00027124
451.34092529,0.00021503
453.26973267,0.00024790
455.19854004,0.00043311
457.12734741,0.00017420
459.05615479,-0.00017234
460.98496216,-0.00003910
462.91376953,0.00032946
464.84257690,0.00011229
466.77138428,0.00010699
468.70019165,0.00031148
470.62899902,0.00023766
472.55780640,0.00039655
474.48661377,0.00028483
476.41542114,0.00009162
478.34422852,0.00008984
480.27303589,-0.00008418
482.20184326,0.00014658
484.13065063,0.00031322
486.05945801,0.00005074
487.98826538,0.00010454
489.91707275,0.00023640
491.84588013,0.00022298
493.77468750,0.00010511
495.70349487,0.00008916
497.63230225,0.00027691
499.56110962,0.00013669
501.48991699,0.00015241
503.41872437,0.00021668
505.34753174,0.00015173
507.27633911,0.00055562
509.20514648,0.00032781
511.13395386,-0.00013465
513.06276123,0.00010193
514.99156860,0.00015277
516.92037598,0.00013673
518.84918335,0.00018548
520.77799072,0.00020910
522.70679810,0.00025121
524.63560547,0.00020527
526.56441284,0.00010520
528.49322021,0.00002844
530.42202759,0.00010629
532.35083496,0.00021223
534.27964233,0.00014733
536.20844971,0.00003847
538.13725708,0.00019591
540.06606445,0.00003695
541.99487183,-0.00011733
543.92367920,0.00014005
545.85248657,0.00008145
547.78129395,0.00016304
549.71010132,0.00004872
551.63890869,-0.00004297
553.56771606,0.00018915
555.49652344,-0.00002583
557.42533081,0.00022453
559.35413818,0.00028203
561.28294556,0.00017464
563.21175293,0.00024298
565.14056030,-0.00009740
567.06936768,0.00010262
568.99817505,0.00002158
570.92698242,-0.00013444
572.85578979,0.00016019
574.78459717,0.00035401
576.71340454,0.00024515
578.64221191,-0.00001003
580.57101929,0.00028439
582.49982666,0.00016049
584.42863403,0.00008829
586.35744141,0.00014848
588.28624878,-0.00011886
590.21505615,0.00006998
592.14386353,0.00024229
594.07267090,0.00034547
596.00147827,0.00009144
597.93028564,0.00003969
599.85909302,0.00018015
601.78790039,0.00006182
603.71670776,0.00024487
605.64551514,-0.00008413
607.57432251,-0.00015885
609.50312988,0.00021157
611.43193726,0.00006714
613.36074463,0.00012708
615.28955200,0.00017828
617.21835938,-0.00006096
619.14716675,-0.00002362
621.07597412,0.00016093
623.00478149,0.00016508
624.93358887,0.00008746
626.86239624,0.00016486
628.79120361,0.00003714
630.72001099,-0.00004202
632.64881836,0.00005332
634.57762573,-0.00005125
636.50643311,-0.00002819
638.43524048,0.00000488
640.36404785,0.00013781
642.29285522,0.00015918
644.22166260,0.00009473
646.15046997,0.00030408
648.07927734,0.00000923
650.00808472,0.00008259
651.93689209,0.00029905
653.86569946,-0.00011697
655.79450684,0.00015218
657.72331421,0.00021021
659.65212158,0.00010518
661.58092896,0.00021938
663.50973633,0.00014782
665.43854370,0.00020910
667.36735107,0.00009785
669.29615845,0.00009602
671.22496582,0.00007140
673.15377319,0.00017516
675.08258057,0.00014973
677.01138794,0.00008806
678.94019531,0.00033129
680.86900269,0.00001091
682.79781006,-0.00004350
684.72661743,0.00005202
686.65542480,0.00002702
688.58423218,0.00009922
690.51303955,-0.00002106
692.44184692,0.00015305
694.37065430,0.00009504
696.29946167,0.00013221
698.22826904,0.00025664
700.15707642,-0.00000599
702.08588379,0.00012731
704.01469116,0.00016048
705.94349854,-0.00000256
707.87230591,0.00020234
709.80111328,0.00032970
711.72992065,0.00016271
713.65872803,0.00006445
715.58753540,-0.00003931
717.51634277,0.00002506
719.44515015,0.00012400
721.37395752,-0.00004437
723.30276489,0.00012814
725.23157227,0.00026167
727.16037964,0.00015633
729.08918701,0.00015982
731.01799438,0.00029146
732.94680176,0.00023533
734.87560913,0.00000445
736.80441650,0.00025036
738.73322388,0.00002233
740.66203125,-0.00022176
742.59083862,0.00022049
744.51964600,0.00029520
746.44845337,0.00010003
748.37726074,0.00004966
750.30606812,0.00011288
752.23487549,0.00019322
754.16368286,0.00023344
756.09249023,-0.00001817
758.02129761,-0.00006196
759.95010498,-0.00003769
761.87891235,0.00008348
763.80771973,0.00037300
765.73652710,0.00003400
767.66533447,0.00016761
769.59414185,0.00029820
771.52294922,0.00009918
773.45175659,0.00035615
775.38056396,0.00018378
777.30937134,-0.00002459
779.23817871,0.00014236
781.16698608,0.00010225
783.09579346,0.00001517
785.02460083,0.00010526
786.95340820,-0.00000505
788.88221558,-0.00001374
790.81102295,0.00011517
792.73983032,0.00008117
794.66863770,0.00017667
796.59744507,0.00015657
798.52625244,0.00010537
800.45505981,0.00007212
802.38386719,0.00007065
804.31267456,0.00003150
806.24148193,0.00007307
808.17028931,0.00025261
810.09909668,-0.00004054
812.02790405,0.00000925
813.95671143,0.00030452
815.88551880,0.00021848
817.81432617,0.00022104
819.74313354,0.00006384
821.67194092,0.00005877
823.60074829,0.00021465
825.52955566,0.00014108
827.45836304,0.00015179
829.38717041,0.00015418
831.31597778,0.00014141
833.24478516,0.00009212
835.17359253,0.00005306
837.10239990,0.00022303
839.03120728,-0.00002918
840.96001465,0.00005011
842.88882202,0.00054727
844.81762939,0.00012286
846.74643677,0.00000740
848.67524414,0.00020951
850.60405151,0.00010594
852.53285889,0.00018353
854.46166626,0.00011163
856.39047363,0.00035095
858.31928101,0.00033012
860.24808838,0.00003747
862.17689575,0.00015701
864.10570313,-0.00001905
866.03451050,0.00002931
867.96331787,0.00031510
869.89212524,0.00013989
871.82093262,0.00008949
873.74973999,0.00021866
875.67854736,0.00017484
877.60735474,0.00021674
879.53616211,0.00018037
881.46496948,0.00027194
883.39377686,0.00034809
885.32258423,0.00014982
887.25139160,0.00026220
889.18019897,0.00015295
891.10900635,0.00010365
893.03781372,0.00012335
894.96662109,-0.00001345
896.89542847,0.00021398
898.82423584,0.00016377
900.75304321,0.00020082
902.68185059,0.00036657
904.61065796,0.00027448
906.53946533,0.00015459
908.46827271,0.00008858
910.39708008,0.00014719
912.32588745,0.00020380
914.25469482,0.00028487
916.18350220,0.00020562
918.11230957,0.00022287
920.04111694,0.00022228
921.96992432,0.00015473
923.89873169,0.00008526
925.82753906,0.00006350
927.75634644,0.00030341
929.68515381,0.00012583
931.61396118,0.00010860
933.54276855,0.00016451
935.47157593,0.00004955
937.40038330,0.00020482
939.32919067,0.00022253
941.25799805,0.00028210
943.18680542,0.00017506
945.11561279,0.00008672
947.04442017,0.00005789
948.97322754,0.00020810
950.90203491,0.00033334
952.83084229,0.00016479
954.75964966,0.00034182
956.68845703,0.00016361
958.61726440,0.00010395
960.54607178,0.00017182
962.47487915,0.00007047
964.40368652,0.00024120
966.33249390,0.00001435
968.26130127,-0.00012692
970.19010864,0.00009207
972.11891602,0.00028835
974.04772339,0.00015676
975.97653076,-0.00000774
977.90533813,0.00017271
979.83414551,0.00030837
981.76295288,0.00031404
983.69176025,0.00027347
985.62056763,0.00037473
987.54937500,0.00036718
989.47818237,0.00030666
991.40698975,0.00034445
993.33579712,0.00031255
995.26460449,0.00027588
997.19341187,0.00025656
999.12221924,0.00030060
1001.05102661,0.00038933
1002.97983398,0.00040050
1004.90864136,0.00022659
1006.83744873,0.00027910
1008.76625610,0.00027681
1010.69506348,0.00023847
1012.62387085,0.00040906
1014.55267822,0.00014398
1016.48148560,0.00012742
1018.41029297,0.00035769
1020.33910034,0.00042705
1022.26790771,0.00044586
1024.19671509,0.00025440
1026.12552246,0.00040152
1028.05432983,0.00052154
1029.98313721,0.00038190
1031.91194458,0.00039925
1033.84075195,0.00048401
1035.76955933,0.00058732
1037.69836670,0.00049420
1039.62717407,0.00047443
1041.55598145,0.00057170
1043.48478882,0.00048261
1045.41359619,0.00061675
1047.34240356,0.00057006
1049.27121094,0.00030673
1051.20001831,0.00045010
1053.12882568,0.00043653
1055.05763306,0.00045341
1056.98644043,0.00045691
1058.91524780,0.00028371
1060.84405518,0.00036924
1062.77286255,0.00020079
1064.70166992,0.00025952
1066.63047729,0.00029280
1068.55928467,0.00017272
1070.48809204,0.00046047
1072.41689941,0.00025837
1074.34570679,0.00025471
1076.27451416,0.00052477
1078.20332153,0.00045082
1080.13212891,0.00031910
1082.06093628,0.00016896
1083.98974365,0.00041098
1085.91855103,0.00044419
1087.84735840,0.00030688
1089.77616577,0.00037206
1091.70497314,0.00029344
1093.63378052,0.00026193
1095.56258789,0.00031764
1097.49139526,0.00037734
1099.42020264,0.00029731
1101.34901001,0.00022696
1103.27781738,0.00028251
1105.20662476,0.00041105
1107.13543213,0.00042935
1109.06423950,0.00031872
1110.99304687,0.00030029
1112.92185425,0.00040200
1114.85066162,0.00047160
1116.77946899,0.00039970
1118.70827637,0.00043125
1120.63708374,0.00026254
1122.56589111,0.00026606
1124.49469849,0.00040610
1126.42350586,0.00030254
1128.35231323,0.00039222
1130.28112061,0.00027185
1132.20992798,0.00029952
1134.13873535,0.00032440
1136.06754272,0.00028932
1137.99635010,0.00049526
1139.92515747,0.00043138
1141.85396484,0.00053155
1143.78277222,0.00051099
1145.71157959,0.00047959
1147.64038696,0.00061730
1149.56919434,0.00047400
1151.49800171,0.00050979
1153.42680908,0.00052046
1155.35561646,0.00039080
1157.28442383,0.00045841
1159.21323120,0.00044841
1161.14203857,0.00032904
1163.07084595,0.00045670
1164.99965332,0.00058006
1166.92846069,0.00051239
1168.85726807,0.00057764
1170.78607544,0.00066808
1172.71488281,0.00046449
1174.64369019,0.00039850
1176.57249756,0.00056109
1178.50130493,0.00039198
1180.43011230,0.00044584
1182.35891968,0.00065763
1184.28772705,0.00069796
1186.21653442,0.00077430
1188.14534180,0.00066740
1190.07414917,0.00067451
1192.00295654,0.00074808
1193.93176392,0.00067545
1195.86057129,0.00052774
1197.78937866,0.00071427
1199.71818604,0.00090441
1201.64699341,0.00078855
1203.57580078,0.00092591
1205.50460815,0.00080321
1207.43341553,0.00076521
1209.36222290,0.00088752
1211.29103027,0.00081201
1213.21983765,0.00097393
1215.14864502,0.00093993
1217.07745239,0.00083987
1219.00625977,0.00088497
1220.93506714,0.00095499
1222.86387451,0.00096112
1224.79268188,0.00088401
1226.72148926,0.00100670
1228.65029663,0.00114222
1230.57910400,0.00111338
1232.50791138,0.00105200
1234.43671875,0.00112906
1236.36552612,0.00108906
1238.29433350,0.00109827
1240.22314087,0.00122141
1242.15194824,0.00103359
1244.08075562,0.00088787
1246.00956299,0.00091647
1247.93837036,0.00101469
1249.86717773,0.00095067
1251.79598511,0.00087784
1253.72479248,0.00100788
1255.65359985,0.00104915
1257.58240723,0.00111018
1259.51121460,0.00100105
1261.44002197,0.00092172
1263.36882935,0.00100355
1265.29763672,0.00100120
1267.22644409,0.00110845
1269.15525146,0.00116324
1271.08405884,0.00102609
1273.01286621,0.00094990
1274.94167358,0.00104487
1276.87048096,0.00101067
1278.79928833,0.00102538
1280.72809570,0.00105328
1282.65690308,0.00087748
1284.58571045,0.00090394
1286.51451782,0.00097966
1288.44332520,0.00097128
1290.37213257,0.00088364
1292.30093994,0.00078434
1294.22974731,0.00072118
1296.15855469,0.00072802
1298.08736206,0.00081156
1300.01616943,0.00072493
1301.94497681,0.00090127
1303.87378418,0.00103230
1305.80259155,0.00083563
1307.73139893,0.00079637
1309.66020630,0.00083217
1311.58901367,0.00101314
1313.51782104,0.00107231
1315.44662842,0.00090734
1317.37543579,0.00089351
1319.30424316,0.00108201
1321.23305054,0.00122413
1323.16185791,0.00115885
1325.09066528,0.00115306
1327.01947266,0.00119111
1328.94828003,0.00123145
1330.87708740,0.00118722
1332.80589478,0.00108405
1334.73470215,0.00119410
1336.66350952,0.00124752
1338.59231689,0.00123315
1340.52112427,0.00119525
1342.44993164,0.00118688
1344.37873901,0.00137044
1346.30754639,0.00134223
1348.23635376,0.00132990
1350.16516113,0.00125750
1352.09396851,0.00099113
1354.02277588,0.00121468
1355.95158325,0.00127312
1357.88039062,0.00113260
1359.80919800,0.00128979
1361.73800537,0.00130324
1363.66681274,0.00137095
1365.59562012,0.00128798
1367.52442749,0.00111663
1369.45323486,0.00114376
1371.38204224,0.00126346
1373.31084961,0.00139368
1375.23965698,0.00125454
1377.16846436,0.00125136
1379.09727173,0.00125354
1381.02607910,0.00120387
1382.95488647,0.00128304
1384.88369385,0.00125705
1386.81250122,0.00131958
1388.74130859,0.00133057
1390.67011597,0.00140175
1392.59892334,0.00127112
1394.52773071,0.00109117
1396.45653809,0.00131310
1398.38534546,0.00135957
1400.31415283,0.00129380
1402.24296021,0.00119907
1404.17176758,0.00130693
1406.10057495,0.00137184
1408.02938232,0.00114430
1409.95818970,0.00120287
1411.88699707,0.00135924
1413.81580444,0.00139404
1415.74461182,0.00114665
1417.67341919,0.00112927
1419.60222656,0.00124675
1421.53103394,0.00121041
1423.45984131,0.00136344
1425.38864868,0.00113830
1427.31745605,0.00121034
1429.24626343,0.00125936
1431.17507080,0.00100867
1433.10387817,0.00127901
1435.03268555,0.00104222
1436.96149292,0.00094615
1438.89030029,0.00118212
1440.81910767,0.00092117
1442.74791504,0.00103403
1444.67672241,0.00120619
1446.60552979,0.00105926
1448.53433716,0.00106787
1450.46314453,0.00109994
1452.39195190,0.00113309
1454.32075928,0.00121046
1456.24956665,0.00096772
1458.17837402,0.00088462
1460.10718140,0.00125562
1462.03598877,0.00135745
1463.96479614,0.00125378
1465.89360352,0.00118191
1467.82241089,0.00132416
1469.75121826,0.00140449
1471.68002563,0.00130913
1473.60883301,0.00155036
1475.53764038,0.00159360
1477.46644775,0.00161266
1479.39525513,0.00189590
1481.32406250,0.00188082
1483.25286987,0.00180403
1485.18167725,0.00191073
1487.11048462,0.00198465
1489.03929199,0.00184018
1490.96809937,0.00180440
1492.89690674,0.00208187
1494.82571411,0.00211179
1496.75452148,0.00190765
1498.68332886,0.00201639
1500.61213623,0.00216380
1502.54094360,0.00225351
1504.46975098,0.00213570
1506.39855835,0.00182112
1508.32736572,0.00217794
1510.25617310,0.00232837
1512.18498047,0.00221032
1514.11378784,0.00236437
1516.04259521,0.00212176
1517.97140259,0.00219712
1519.90020996,0.00216359
1521.82901733,0.00197605
1523.75782471,0.00220704
1525.68663208,0.00223073
1527.61543945,0.00224982
1529.54424683,0.00231502
1531.47305420,0.00238229
1533.40186157,0.00220804
1535.33066895,0.00240371
1537.25947632,0.00250719
1539.18828369,0.00186863
1541.11709106,0.00208799
1543.04589844,0.00230736
1544.97470581,0.00237409
1546.90351318,0.00255016
1548.83232056,0.00235765
1550.76112793,0.00261062
1552.68993530,0.00242608
1554.61874268,0.00231440
1556.54755005,0.00234620
1558.47635742,0.00181208
1560.40516479,0.00203209
1562.33397217,0.00256830
1564.26277954,0.00263124
1566.19158691,0.00264714
1568.12039429,0.00258738
1570.04920166,0.00234085
1571.97800903,0.00264077
1573.90681641,0.00262705
1575.83562378,0.00212512
1577.76443115,0.00268086
1579.69323853,0.00277455
1581.62204590,0.00243899
1583.55085327,0.00265099
1585.47966064,0.00263153
1587.40846802,0.00269796
1589.33727539,0.00271796
1591.26608276,0.00273820
1593.19489014,0.00267011
1595.12369751,0.00262029
1597.05250488,0.00266076
1598.98131226,0.00255040
1600.91011963,0.00278018
1602.83892700,0.00268198
1604.76773437,0.00250387
1606.69654175,0.00279443
1608.62534912,0.00291084
1610.55415649,0.00285932
1612.48296387,0.00286994
1614.41177124,0.00276903
1616.34057861,0.00246118
1618.26938599,0.00265818
1620.19819336,0.00287362
1622.12700073,0.00266243
1624.05580811,0.00272098
1625.98461548,0.00290310
1627.91342285,0.00296586
1629.84223022,0.00286026
1631.77103760,0.00303196
1633.69984497,0.00292901
1635.62865234,0.00246037
1637.55745972,0.00280050
1639.48626709,0.00312352
1641.41507446,0.00310756
1643.34388184,0.00313592
1645.27268921,0.00277447
1647.20149658,0.00262185
1649.13030396,0.00320657
1651.05911133,0.00305000
1652.98791870,0.00224412
1654.91672607,0.00277243
1656.84553345,0.00330277
1658.77434082,0.00317360
1660.70314819,0.00330461
1662.63195557,0.00306852
1664.56076294,0.00311963
1666.48957031,0.00330225
1668.41837769,0.00289309
1670.34718506,0.00296441
1672.27599243,0.00335347
1674.20479980,0.00307053
1676.13360718,0.00303361
1678.06241455,0.00335057
1679.99122192,0.00320943
1681.92002930,0.00310134
1683.84883667,0.00262949
1685.77764404,0.00279166
1687.70645142,0.00340580
1689.63525879,0.00295385
1691.56406616,0.00339495
1693.49287354,0.00329427
1695.42168091,0.00236028
1697.35048828,0.00293806
1699.27929565,0.00273508
1701.20810303,0.00250682
1703.13691040,0.00324800
1705.06571777,0.00313645
1706.99452515,0.00308921
1708.92333252,0.00316668
1710.85213989,0.00312989
1712.78094727,0.00315178
1714.70975464,0.00284935
1716.63856201,0.00269194
1718.56736938,0.00271848
1720.49617676,0.00301800
1722.42498413,0.00309210
1724.35379150,0.00306396
1726.28259888,0.00330405
1728.21140625,0.00290850
1730.14021362,0.00300405
1732.06902100,0.00292108
1733.99782837,0.00224941
1735.92663574,0.00285497
1737.85544312,0.00294196
1739.78425049,0.00270361
1741.71305786,0.00300103
1743.64186523,0.00282351
1745.57067261,0.00298194
1747.49947998,0.00300453
1749.42828735,0.00276675
1751.35709473,0.00271666
1753.28590210,0.00296555
1755.21470947,0.00311703
1757.14351685,0.00292733
1759.07232422,0.00325056
1761.00113159,0.00298884
1762.92993896,0.00282078
1764.85874634,0.00322404
1766.78755371,0.00287059
1768.71636108,0.00292054
1770.64516846,0.00302633
1772.57397583,0.00278313
1774.50278320,0.00302305
1776.43159058,0.00318303
1778.36039795,0.00309232
1780.28920532,0.00314351
1782.21801270,0.00315637
1784.14682007,0.00296815
1786.07562744,0.00298748
1788.00443481,0.00313704
1789.93324219,0.00311733
1791.86204956,0.00285637
1793.79085693,0.00292461
1795.71966431,0.00318245
1797.64847168,0.00300882
1799.57727905,0.00315804
1801.50608643,0.00319100
1803.43489380,0.00315381
1805.36370117,0.00337234
1807.29250854,0.00315164
1809.22131592,0.00302982
1811.15012329,0.00303980
1813.07893066,0.00314385
1815.00773804,0.00321122
1816.93654541,0.00305663
1818.86535278,0.00306757
1820.79416016,0.00318843
1822.72296753,0.00317313
1824.65177490,0.00300285
1826.58058228,0.00326952
1828.50938965,0.00318167
1830.43819702,0.00283688
1832.36700439,0.00323029
1834.29581177,0.00328404
1836.22461914,0.00314135
1838.15342651,0.00316058
1840.08223389,0.00314086
1842.01104126,0.00308677
1843.93984863,0.00287501
1845.86865601,0.00304805
1847.79746338,0.00320396
1849.72627075,0.00310933
1851.65507812,0.00318610
1853.58388550,0.00318895
1855.51269287,0.00314541
1857.44150024,0.00319862
1859.37030762,0.00317257
1861.29911499,0.00311064
1863.22792236,0.00310095
1865.15672974,0.00308427
1867.08553711,0.00302959
1869.01434448,0.00300653
1870.94315186,0.00318558
1872.87195923,0.00322279
1874.80076660,0.00320760
1876.72957397,0.00328018
1878.65838135,0.00314101
1880.58718872,0.00313645
1882.51599609,0.00309085
1884.44480347,0.00314918
1886.37361084,0.00326650
1888.30241821,0.00305336
1890.23122559,0.00315967
1892.16003296,0.00324293
1894.08884033,0.00300341
1896.01764771,0.00297152
1897.94645508,0.00313979
1899.87526245,0.00316192
1901.80406982,0.00304246
1903.73287720,0.00312650
1905.66168457,0.00319176
1907.59049194,0.00308839
1909.51929932,0.00305682
1911.44810669,0.00310175
1913.37691406,0.00317112
1915.30572144,0.00319223
1917.23452881,0.00300418
1919.16333618,0.00305653
1921.09214355,0.00318020
1923.02095093,0.00301435
1924.94975830,0.00318833
1926.87856567,0.00314628
1928.80737305,0.00306050
1930.73618042,0.00318739
1932.66498779,0.00308368
1934.59379517,0.00325640
1936.52260254,0.00317439
1938.45140991,0.00312835
1940.38021729,0.00323320
1942.30902466,0.00303999
1944.23783203,0.00306438
1946.16663940,0.00307108
1948.09544678,0.00307654
1950.02425415,0.00310389
1951.95306152,0.00319229
1953.88186890,0.00314285
1955.81067627,0.00301368
1957.73948364,0.00314366
1959.66829102,0.00314243
1961.59709839,0.00318652
1963.52590576,0.00314872
1965.45471313,0.00307627
1967.38352051,0.00304152
1969.31232788,0.00309828
1971.24113525,0.00324747
1973.16994263,0.00313843
1975.09875000,0.00326399
1977.02755737,0.00321467
1978.95636475,0.00298691
1980.88517212,0.00299652
1982.81397949,0.00303381
1984.74278687,0.00315623
1986.67159424,0.00309345
1988.60040161,0.00307546
1990.52920898,0.00308083
1992.45801636,0.00303510
1994.38682373,0.00308782
1996.31563110,0.00318156
1998.24443848,0.00317217
2000.17324585,0.00296060
2002.10205322,0.00300691
2004.03086060,0.00304975
2005.95966797,0.00299181
2007.88847534,0.00310348
2009.81728271,0.00311796
2011.74609009,0.00303589
2013.67489746,0.00308083
2015.60370483,0.00315065
2017.53251221,0.00309946
2019.46131958,0.00313454
2021.39012695,0.00312539
2023.31893433,0.00310917
2025.24774170,0.00310189
2027.17654907,0.00314122
2029.10535645,0.00314035
2031.03416382,0.00297022
2032.96297119,0.00306773
2034.89177856,0.00305285
2036.82058594,0.00302167
2038.74939331,0.00303643
2040.67820068,0.00295697
2042.60700806,0.00306044
2044.53581543,0.00300708
2046.46462280,0.00299598
2048.39343018,0.00305730
2050.32223755,0.00313185
2052.25104492,0.00308583
2054.17985229,0.00303380
2056.10865967,0.00308194
2058.03746704,0.00303970
2059.96627441,0.00320042
2061.89508179,0.00307800
2063.82388916,0.00298540
2065.75269653,0.00299994
2067.68150391,0.00299548
2069.61031128,0.00315542
2071.53911865,0.00297966
2073.46792603,0.00302333
2075.39673340,0.00307695
2077.32554077,0.00304430
2079.25434814,0.00302845
2081.18315552,0.00295111
2083.11196289,0.00308321
2085.04077026,0.00295090
2086.96957764,0.00293899
2088.89838501,0.00303096
2090.82719238,0.00301672
2092.75599976,0.00299794
2094.68480713,0.00294726
2096.61361450,0.00294506
2098.54242187,0.00295962
2100.47122925,0.00308319
2102.40003662,0.00293470
2104.32884399,0.00294565
2106.25765137,0.00299489
2108.18645874,0.00285310
2110.11526611,0.00295577
2112.04407349,0.00293122
2113.97288086,0.00288968
2115.90168823,0.00292612
2117.83049561,0.00301145
2119.75930298,0.00295469
2121.68811035,0.00303546
2123.61691772,0.00307524
2125.54572510,0.00288980
2127.47453247,0.00303282
2129.40333984,0.00291206
2131.33214722,0.00301434
2133.26095459,0.00307545
2135.18976196,0.00282188
2137.11856934,0.00293434
2139.04737671,0.00290456
2140.97618408,0.00302323
2142.90499146,0.00295529
2144.83379883,0.00286056
2146.76260620,0.00308879
2148.69141357,0.00304238
2150.62022095,0.00294065
2152.54902832,0.00293485
2154.47783569,0.00305618
2156.40664307,0.00298258
2158.33545044,0.00286550
2160.26425781,0.00291101
2162.19306519,0.00296115
2164.12187256,0.00295162
2166.05067993,0.00293616
2167.97948730,0.00307252
2169.90829468,0.00303554
2171.83710205,0.00304719
2173.76590942,0.00299291
2175.69471680,0.00302213
2177.62352417,0.00310033
2179.55233154,0.00287982
2181.48113892,0.00299019
2183.40994629,0.00292161
2185.33875366,0.00288316
2187.26756104,0.00298594
2189.19636841,0.00283017
2191.12517578,0.00303080
2193.05398315,0.00302338
2194.98279053,0.00294174
2196.91159790,0.00305566
2198.84040527,0.00289829
2200.76921265,0.00293341
2202.69802002,0.00297817
2204.62682739,0.00290784
2206.55563477,0.00309599
2208.48444214,0.00304378
2210.41324951,0.00290753
2212.34205688,0.00300267
2214.27086426,0.00294082
2216.19967163,0.00301570
2218.12847900,0.00307305
2220.05728638,0.00297798
2221.98609375,0.00300057
2223.91490112,0.00295344
2225.84370850,0.00289113
2227.77251587,0.00282363
2229.70132324,0.00291977
2231.63013062,0.00304874
2233.55893799,0.00299820
2235.48774536,0.00294241
2237.41655273,0.00292684
2239.34536011,0.00296834
2241.27416748,0.00291507
2243.20297485,0.00296059
2245.13178223,0.00298131
2247.06058960,0.00284622
2248.98939697,0.00289113
2250.91820435,0.00289410
2252.84701172,0.00275398
2254.77581909,0.00276398
2256.70462646,0.00292665
2258.63343384,0.00293601
2260.56224121,0.00291343
2262.49104858,0.00288248
2264.41985596,0.00283187
2266.34866333,0.00294953
2268.27747070,0.00282269
2270.20627808,0.00273533
2272.13508545,0.00298406
2274.06389282,0.00303925
2275.99270020,0.00293383
2277.92150757,0.00289833
2279.85031494,0.00291461
2281.77912231,0.00286652
2283.70792969,0.00280946
2285.63673706,0.00288649
2287.56554443,0.00288047
2289.49435181,0.00283118
2291.42315918,0.00293655
2293.35196655,0.00293486
2295.28077393,0.00281631
2297.20958130,0.00277410
2299.13838867,0.00280124
2301.06719604,0.00278206
2302.99600342,0.00273532
2304.92481079,0.00281666
2306.85361816,0.00270429
2308.78242554,0.00259245
2310.71123291,0.00273873
2312.64004028,0.00271727
2314.56884766,0.00267515
2316.49765503,0.00268579
2318.42646240,0.00263972
2320.35526978,0.00261275
2322.28407715,0.00262652
2324.21288452,0.00256354
2326.14169189,0.00240498
2328.07049927,0.00250061
2329.99930664,0.00253712
2331.92811401,0.00241531
2333.85692139,0.00250809
2335.78572876,0.00249501
2337.71453613,0.00244216
2339.64334351,0.00250731
2341.57215088,0.00248499
2343.50095825,0.00256905
2345.42976562,0.00266012
2347.35857300,0.00265444
2349.28738037,0.00273587
2351.21618774,0.00274145
2353.14499512,0.00268390
2355.07380249,0.00247964
2357.00260986,0.00226936
2358.93141724,0.00236249
2360.86022461,0.00234327
2362.78903198,0.00232861
2364.71783936,0.00240511
2366.64664673,0.00229193
2368.57545410,0.00235781
2370.50426147,0.00253159
2372.43306885,0.00258865
2374.36187622,0.00263780
2376.29068359,0.00260950
2378.21949097,0.00264853
2380.14829834,0.00273490
2382.07710571,0.00269518
2384.00591309,0.00268724
2385.93472046,0.00275568
2387.86352783,0.00282742
2389.79233521,0.00280328
2391.72114258,0.00279333
2393.64994995,0.00284338
2395.57875732,0.00280573
2397.50756470,0.00279780
2399.43637207,0.00277800
2401.36517944,0.00283178
2403.29398682,0.00285143
2405.22279419,0.00275662
2407.15160156,0.00272592
2409.08040894,0.00267536
2411.00921631,0.00279992
2412.93802368,0.00283865
2414.86683105,0.00279363
2416.79563843,0.00281723
2418.72444580,0.00278117
2420.65325317,0.00285223
2422.58206055,0.00269165
2424.51086792,0.00258195
2426.43967529,0.00267185
2428.36848267,0.00269779
2430.29729004,0.00274646
2432.22609741,0.00267434
2434.15490479,0.00263274
2436.08371216,0.00270602
2438.01251953,0.00272774
2439.94132690,0.00255771
2441.87013428,0.00260237
2443.79894165,0.00271084
2445.72774902,0.00267418
2447.65655640,0.00277911
2449.58536377,0.00266489
2451.51417114,0.00273417
2453.44297852,0.00277317
2455.37178589,0.00262063
2457.30059326,0.00269981
2459.22940063,0.00271551
2461.15820801,0.00272991
2463.08701538,0.00258425
2465.01582275,0.00265130
2466.94463013,0.00279476
2468.87343750,0.00270292
2470.80224487,0.00276702
2472.73105225,0.00277570
2474.65985962,0.00273471
2476.58866699,0.00261288
2478.51747437,0.00264202
2480.44628174,0.00268585
2482.37508911,0.00269706
2484.30389648,0.00274131
2486.23270386,0.00261472
2488.16151123,0.00271211
2490.09031860,0.00255670
2492.01912598,0.00250570
2493.94793335,0.00275639
2495.87674072,0.00267277
2497.80554810,0.00271523
2499.73435547,0.00268818
2501.66316284,0.00260905
2503.59197021,0.00267009
2505.52077759,0.00264199
2507.44958496,0.00262962
2509.37839233,0.00264909
2511.30719971,0.00266683
2513.23600708,0.00264161
2515.16481445,0.00264112
2517.09362183,0.00261804
2519.02242920,0.00255945
2520.95123657,0.00263493
2522.88004395,0.00271741
2524.80885132,0.00260322
2526.73765869,0.00263488
2528.66646606,0.00267508
2530.59527344,0.00255912
2532.52408081,0.00267162
2534.45288818,0.00261942
2536.38169556,0.00264277
2538.31050293,0.00276343
2540.23931030,0.00261477
2542.16811768,0.00265930
2544.09692505,0.00264116
2546.02573242,0.00257372
2547.95453979,0.00262478
2549.88334717,0.00267037
2551.81215454,0.00264373
2553.74096191,0.00255611
2555.66976929,0.00266015
2557.59857666,0.00261452
2559.52738403,0.00258190
2561.45619141,0.00265232
2563.38499878,0.00254028
2565.31380615,0.00262406
2567.24261353,0.00260231
2569.17142090,0.00247783
2571.10022827,0.00264601
2573.02903564,0.00255392
2574.95784302,0.00238957
2576.88665039,0.00252359
2578.81545776,0.00259362
2580.74426514,0.00265811
2582.67307251,0.00254772
2584.60187988,0.00241402
2586.53068726,0.00254352
2588.45949463,0.00253448
2590.38830200,0.00253613
2592.31710937,0.00258134
2594.24591675,0.00253768
2596.17472412,0.00247715
2598.10353149,0.00246677
2600.03233887,0.00260144
2601.96114624,0.00248577
2603.88995361,0.00239781
2605.81876099,0.00257774
2607.74756836,0.00247930
2609.67637573,0.00247822
2611.60518311,0.00264364
2613.53399048,0.00257475
2615.46279785,0.00258524
2617.39160522,0.00258634
2619.32041260,0.00259605
2621.24921997,0.00260746
2623.17802734,0.00246477
2625.10683472,0.00256787
2627.03564209,0.00259391
2628.96444946,0.00242306
2630.89325684,0.00245955
2632.82206421,0.00255332
2634.75087158,0.00250330
2636.67967895,0.00244117
2638.60848633,0.00251546
2640.53729370,0.00246482
2642.46610107,0.00248700
2644.39490845,0.00249973
2646.32371582,0.00242090
2648.25252319,0.00253175
2650.18133057,0.00243951
2652.11013794,0.00240926
2654.03894531,0.00248063
2655.96775269,0.00244525
2657.89656006,0.00243300
2659.82536743,0.00240364
2661.75417480,0.00247898
2663.68298218,0.00240368
2665.61178955,0.00240565
2667.54059692,0.00247792
2669.46940430,0.00237251
2671.39821167,0.00247479
2673.32701904,0.00251060
2675.25582642,0.00238575
2677.18463379,0.00245532
2679.11344116,0.00247600
2681.04224854,0.00239240
2682.97105591,0.00246855
2684.89986328,0.00242788
2686.82867065,0.00241900
2688.75747803,0.00250340
2690.68628540,0.00239887
2692.61509277,0.00242225
2694.54390015,0.00241094
2696.47270752,0.00239015
2698.40151489,0.00240782
2700.33032227,0.00237332
2702.25912964,0.00245472
2704.18793701,0.00242495
2706.11674438,0.00234765
2708.04555176,0.00232127
2709.97435913,0.00242148
2711.90316650,0.00245503
2713.83197388,0.00240773
2715.76078125,0.00247636
2717.68958862,0.00238088
2719.61839600,0.00236897
2721.54720337,0.00242810
2723.47601074,0.00236012
2725.40481812,0.00236141
2727.33362549,0.00242745
2729.26243286,0.00241539
2731.19124023,0.00233745
2733.12004761,0.00231302
2735.04885498,0.00238626
2736.97766235,0.00246136
2738.90646973,0.00228591
2740.83527710,0.00228680
2742.76408447,0.00238969
2744.69289185,0.00236210
2746.62169922,0.00238894
2748.55050659,0.00222717
2750.47931396,0.00231575
2752.40812134,0.00240024
2754.33692871,0.00237299
2756.26573608,0.00238997
2758.19454346,0.00227476
2760.12335083,0.00241957
2762.05215820,0.00225486
2763.98096558,0.00214725
2765.90977295,0.00229130
2767.83858032,0.00225610
2769.76738770,0.00240519
2771.69619507,0.00229869
2773.62500244,0.00226460
2775.55380981,0.00231465
2777.48261719,0.00222579
2779.41142456,0.00234282
2781.34023193,0.00226868
2783.26903931,0.00227424
2785.19784668,0.00239472
2787.12665405,0.00231728
2789.05546143,0.00233160
2790.98426880,0.00234097
2792.91307617,0.00219929
2794.84188354,0.00219993
2796.77069092,0.00230279
2798.69949829,0.00226884
2800.62830566,0.00227321
2802.55711304,0.00227516
2804.48592041,0.00220878
2806.41472778,0.00220050
2808.34353516,0.00224472
2810.27234253,0.00225861
2812.20114990,0.00222072
2814.12995728,0.00220905
2816.05876465,0.00218454
2817.98757202,0.00219400
2819.91637939,0.00217676
2821.84518677,0.00214885
2823.77399414,0.00222920
2825.70280151,0.00220653
2827.63160889,0.00216772
2829.56041626,0.00226379
2831.48922363,0.00220758
2833.41803101,0.00212507
2835.34683838,0.00228505
2837.27564575,0.00227335
2839.20445312,0.00213056
2841.13326050,0.00211457
2843.06206787,0.00209157
2844.99087524,0.00213899
2846.91968262,0.00208573
2848.84848999,0.00206517
2850.77729736,0.00215740
2852.70610474,0.00213737
2854.63491211,0.00218492
2856.56371948,0.00210733
2858.49252686,0.00201741
2860.42133423,0.00212845
2862.35014160,0.00210519
2864.27894897,0.00210489
2866.20775635,0.00218097
2868.13656372,0.00213259
2870.06537109,0.00213546
2871.99417847,0.00214031
2873.92298584,0.00214040
2875.85179321,0.00218722
2877.78060059,0.00204031
2879.70940796,0.00194960
2881.63821533,0.00200372
2883.56702270,0.00201927
2885.49583008,0.00212909
2887.42463745,0.00217499
2889.35344482,0.00210512
2891.28225220,0.00206027
2893.21105957,0.00212435
2895.13986694,0.00216056
2897.06867432,0.00208830
2898.99748169,0.00208698
2900.92628906,0.00205126
2902.85509644,0.00207855
2904.78390381,0.00209244
2906.71271118,0.00202557
2908.64151855,0.00206481
2910.57032593,0.00201553
2912.49913330,0.00199933
2914.42794067,0.00199520
2916.35674805,0.00194454
2918.28555542,0.00201567
2920.21436279,0.00197032
2922.14317017,0.00195238
2924.07197754,0.00207727
2926.00078491,0.00203697
2927.92959229,0.00196725
2929.85839966,0.00196977
2931.78720703,0.00200647
2933.71601440,0.00207276
2935.64482178,0.00196965
2937.57362915,0.00199970
2939.50243652,0.00208704
2941.43124390,0.00191765
2943.36005127,0.00190308
2945.28885864,0.00191811
2947.21766602,0.00195320
2949.14647339,0.00200443
2951.07528076,0.00191404
2953.00408813,0.00200484
2954.93289551,0.00202448
2956.86170288,0.00192532
2958.79051025,0.00191114
2960.71931763,0.00195795
2962.64812500,0.00199250
2964.57693237,0.00191049
2966.50573975,0.00187205
2968.43454712,0.00192385
2970.36335449,0.00199184
2972.29216187,0.00188798
2974.22096924,0.00183543
2976.14977661,0.00191099
2978.07858398,0.00196701
2980.00739136,0.00206217
2981.93619873,0.00199612
2983.86500610,0.00198844
2985.79381348,0.00187348
2987.72262085,0.00181194
2989.65142822,0.00200458
2991.58023560,0.00195566
2993.50904297,0.00197464
2995.43785034,0.00192920
2997.36665771,0.00187498
2999.29546509,0.00194478
3001.22427246,0.00186102
3003.15307983,0.00188977
3005.08188721,0.00189722
3007.01069458,0.00188014
3008.93950195,0.00184844
3010.86830933,0.00183270
3012.79711670,0.00192893
3014.72592407,0.00192722
3016.65473145,0.00187755
3018.58353882,0.00189497
3020.51234619,0.00191676
3022.44115356,0.00181966
3024.36996094,0.00183353
3026.29876831,0.00185174
3028.22757568,0.00183922
3030.15638306,0.00188011
3032.08519043,0.00180593
3034.01399780,0.00186882
3035.94280518,0.00183423
3037.87161255,0.00179129
3039.80041992,0.00188222
3041.72922729,0.00183156
3043.65803467,0.00184267
3045.58684204,0.00189752
3047.51564941,0.00194311
3049.44445679,0.00189919
3051.37326416,0.00186083
3053.30207153,0.00187790
3055.23087891,0.00183984
3057.15968628,0.00187105
3059.08849365,0.00191755
3061.01730103,0.00188838
3062.94610840,0.00187563
3064.87491577,0.00195338
3066.80372314,0.00182563
3068.73253052,0.00179317
3070.66133789,0.00185446
3072.59014526,0.00170852
3074.51895264,0.00181743
3076.44776001,0.00180483
3078.37656738,0.00179172
3080.30537476,0.00187097
3082.23418213,0.00168972
3084.16298950,0.00174100
3086.09179687,0.00183349
3088.02060425,0.00182654
3089.94941162,0.00177050
3091.87821899,0.00175174
3093.80702637,0.00181932
3095.73583374,0.00176539
3097.66464111,0.00182588
3099.59344849,0.00175861
3101.52225586,0.00174004
3103.45106323,0.00190848
3105.37987061,0.00178178
3107.30867798,0.00175028
3109.23748535,0.00181231
3111.16629272,0.00174148
3113.09510010,0.00174183
3115.02390747,0.00179180
3116.95271484,0.00184648
3118.88152222,0.00176156
3120.81032959,0.00173120
3122.73913696,0.00176400
3124.66794434,0.00169839
3126.59675171,0.00175048
3128.52555908,0.00176580
3130.45436645,0.00178066
3132.38317383,0.00182486
3134.31198120,0.00184185
3136.24078857,0.00183110
3138.16959595,0.00170696
3140.09840332,0.00171166
3142.02721069,0.00169183
3143.95601807,0.00177133
3145.88482544,0.00181488
3147.81363281,0.00161026
3149.74244019,0.00168193
3151.67124756,0.00171593
3153.60005493,0.00170524
3155.52886230,0.00176301
3157.45766968,0.00169965
3159.38647705,0.00169401
3161.31528442,0.00170421
3163.24409180,0.00174015
3165.17289917,0.00170493
3167.10170654,0.00175783
3169.03051392,0.00185419
3170.95932129,0.00178901
3172.88812866,0.00178172
3174.81693604,0.00176637
3176.74574341,0.00170723
3178.67455078,0.00179858
3180.60335815,0.00183800
3182.53216553,0.00166190
3184.46097290,0.00181730
3186.38978027,0.00186475
3188.31858765,0.00162823
3190.24739502,0.00180121
3192.17620239,0.00179665
3194.10500977,0.00168826
3196.03381714,0.00180524
3197.96262451,0.00182675
3199.89143188,0.00174892
3201.82023926,0.00172823
3203.74904663,0.00177207
3205.67785400,0.00165380
3207.60666138,0.00166354
3209.53546875,0.00175136
3211.46427612,0.00178138
3213.39308350,0.00175135
3215.32189087,0.00167592
3217.25069824,0.00178027
3219.17950562,0.00185401
3221.10831299,0.00188952
3223.03712036,0.00179825
3224.96592773,0.00179796
3226.89473511,0.00180256
3228.82354248,0.00166751
3230.75234985,0.00182097
3232.68115723,0.00181415
3234.60996460,0.00176885
3236.53877197,0.00183703
3238.46757935,0.00178415
3240.39638672,0.00176054
3242.32519409,0.00171104
3244.25400146,0.00174648
3246.18280884,0.00181119
3248.11161621,0.00187185
3250.04042358,0.00186222
3251.96923096,0.00181235
3253.89803833,0.00177515
3255.82684570,0.00175689
3257.75565308,0.00184050
3259.68446045,0.00181876
3261.61326782,0.00185971
3263.54207520,0.00185874
3265.47088257,0.00176242
3267.39968994,0.00184209
3269.32849731,0.00190169
3271.25730469,0.00188249
3273.18611206,0.00186074
3275.11491943,0.00184664
3277.04372681,0.00174915
3278.97253418,0.00172162
3280.90134155,0.00184921
3282.83014893,0.00186500
3284.75895630,0.00178795
3286.68776367,0.00178467
3288.61657104,0.00185598
3290.54537842,0.00189995
3292.47418579,0.00187719
3294.40299316,0.00190493
3296.33180054,0.00198824
3298.26060791,0.00185554
3300.18941528,0.00185264
3302.11822266,0.00200769
3304.04703003,0.00195063
3305.97583740,0.00196483
3307.90464478,0.00186678
3309.83345215,0.00186566
3311.76225952,0.00197953
3313.69106689,0.00194230
3315.61987427,0.00200007
3317.54868164,0.00193876
3319.47748901,0.00197609
3321.40629639,0.00197313
3323.33510376,0.00192921
3325.26391113,0.00203233
3327.19271851,0.00188718
3329.12152588,0.00191357
3331.05033325,0.00201726
3332.97914062,0.00195311
3334.90794800,0.00198094
3336.83675537,0.00195957
3338.76556274,0.00192125
3340.69437012,0.00193691
3342.62317749,0.00195473
3344.55198486,0.00192277
3346.48079224,0.00191375
3348.40959961,0.00201092
3350.33840698,0.00203377
3352.26721436,0.00194333
3354.19602173,0.00201340
3356.12482910,0.00205944
3358.05363647,0.00193767
3359.98244385,0.00198876
3361.91125122,0.00201174
3363.84005859,0.00200760
3365.76886597,0.00206963
3367.69767334,0.00197071
3369.62648071,0.00198992
3371.55528809,0.00204284
3373.48409546,0.00196962
3375.41290283,0.00205335
3377.34171020,0.00207266
3379.27051758,0.00202956
3381.19932495,0.00212779
3383.12813232,0.00204341
3385.05693970,0.00196906
3386.98574707,0.00203817
3388.91455444,0.00204307
3390.84336182,0.00211728
3392.77216919,0.00212046
3394.70097656,0.00205854
3396.62978394,0.00205373
3398.55859131,0.00209974
3400.48739868,0.00207612
3402.41620605,0.00199263
3404.34501343,0.00215531
3406.27382080,0.00216560
3408.20262817,0.00203665
3410.13143555,0.00217485
3412.06024292,0.00214066
3413.98905029,0.00204105
3415.91785767,0.00218304
3417.84666504,0.00217477
3419.77547241,0.00210234
3421.70427979,0.00214011
3423.63308716,0.00206283
3425.56189453,0.00208016
3427.49070190,0.00215506
3429.41950928,0.00210288
3431.34831665,0.00211213
3433.27712402,0.00213925
3435.20593140,0.00215299
3437.13473877,0.00212264
3439.06354614,0.00208877
3440.99235352,0.00209349
3442.92116089,0.00213111
3444.84996826,0.00222308
3446.77877563,0.00214079
3448.70758301,0.00213028
3450.63639038,0.00224142
3452.56519775,0.00212684
3454.49400513,0.00210882
3456.42281250,0.00213726
3458.35161987,0.00205677
3460.28042725,0.00213470
3462.20923462,0.00215218
3464.13804199,0.00206408
3466.06684937,0.00208945
3467.99565674,0.00216489
3469.92446411,0.00215335
3471.85327148,0.00210394
3473.78207886,0.00213748
3475.71088623,0.00210998
3477.63969360,0.00210476
3479.56850098,0.00210124
3481.49730835,0.00204979
3483.42611572,0.00212827
3485.35492310,0.00213936
3487.28373047,0.00213243
3489.21253784,0.00213471
3491.14134521,0.00211875
3493.07015259,0.00208881
3494.99895996,0.00207405
3496.92776733,0.00227194
3498.85657471,0.00225225
3500.78538208,0.00211443
3502.71418945,0.00210693
3504.64299683,0.00205420
3506.57180420,0.00212544
3508.50061157,0.00217690
3510.42941895,0.00221403
3512.35822632,0.00218310
3514.28703369,0.00209488
3516.21584106,0.00214125
3518.14464844,0.00211393
3520.07345581,0.00209295
3522.00226318,0.00211964
3523.93107056,0.00209965
3525.85987793,0.00205552
3527.78868530,0.00205256
3529.71749268,0.00214808
3531.64630005,0.00219158
3533.57510742,0.00209598
3535.50391479,0.00203260
3537.43272217,0.00218208
3539.36152954,0.00218605
3541.29033691,0.00203218
3543.21914429,0.00208251
3545.14795166,0.00199291
3547.07675903,0.00196224
3549.00556641,0.00218964
3550.93437378,0.00213831
3552.86318115,0.00206274
3554.79198853,0.00217277
3556.72079590,0.00215733
3558.64960327,0.00202416
3560.57841064,0.00202668
3562.50721802,0.00210955
3564.43602539,0.00195844
3566.36483276,0.00184527
3568.29364014,0.00188842
3570.22244751,0.00205836
3572.15125488,0.00215158
3574.08006226,0.00202099
3576.00886963,0.00212142
3577.93767700,0.00207513
3579.86648437,0.00195875
3581.79529175,0.00205782
3583.72409912,0.00210803
3585.65290649,0.00208125
3587.58171387,0.00179676
3589.51052124,0.00185690
3591.43932861,0.00208776
3593.36813599,0.00196983
3595.29694336,0.00194495
3597.22575073,0.00199353
3599.15455811,0.00199316
3601.08336548,0.00203461
3603.01217285,0.00212041
3604.94098022,0.00202375
3606.86978760,0.00197716
3608.79859497,0.00184898
3610.72740234,0.00180237
3612.65620972,0.00199482
3614.58501709,0.00186158
3616.51382446,0.00192862
3618.44263184,0.00186041
3620.37143921,0.00185988
3622.30024658,0.00202822
3624.22905395,0.00196346
3626.15786133,0.00211614
3628.08666870,0.00163155
3630.01547607,0.00153478
3631.94428345,0.00193436
3633.87309082,0.00188884
3635.80189819,0.00202873
3637.73070557,0.00194181
3639.65951294,0.00197896
3641.58832031,0.00197466
3643.51712769,0.00194740
3645.44593506,0.00192335
3647.37474243,0.00164314
3649.30354980,0.00160100
3651.23235718,0.00162560
3653.16116455,0.00200607
3655.08997192,0.00187908
3657.01877930,0.00169804
3658.94758667,0.00196438
3660.87639404,0.00181298
3662.80520142,0.00197381
3664.73400879,0.00182198
3666.66281616,0.00179586
3668.59162354,0.00188541
3670.52043091,0.00153745
3672.44923828,0.00184769
3674.37804565,0.00168426
3676.30685303,0.00138730
3678.23566040,0.00177800
3680.16446777,0.00183140
3682.09327515,0.00174915
3684.02208252,0.00181824
3685.95088989,0.00185289
3687.87969727,0.00160615
3689.80850464,0.00149122
3691.73731201,0.00177750
3693.66611938,0.00179629
3695.59492676,0.00163273
3697.52373413,0.00171458
3699.45254150,0.00182401
3701.38134888,0.00169505
3703.31015625,0.00163121
3705.23896362,0.00175346
3707.16777100,0.00170420
3709.09657837,0.00165607
3711.02538574,0.00157972
3712.95419312,0.00147148
3714.88300049,0.00166333
3716.81180786,0.00171986
3718.74061523,0.00170403
3720.66942261,0.00168777
3722.59822998,0.00158193
3724.52703735,0.00169059
3726.45584473,0.00160370
3728.38465210,0.00155342
3730.31345947,0.00163470
3732.24226685,0.00150281
3734.17107422,0.00142771
3736.09988159,0.00143326
3738.02868896,0.00153474
3739.95749634,0.00159170
3741.88630371,0.00159945
3743.81511108,0.00141996
3745.74391846,0.00129652
3747.67272583,0.00152464
3749.60153320,0.00138574
3751.53034058,0.00128711
3753.45914795,0.00150661
3755.38795532,0.00160566
3757.31676270,0.00163580
3759.24557007,0.00145808
3761.17437744,0.00147983
3763.10318481,0.00161473
3765.03199219,0.00148441
3766.96079956,0.00150264
3768.88960693,0.00148835
3770.81841431,0.00141812
3772.74722168,0.00155887
3774.67602905,0.00161592
3776.60483643,0.00155253
3778.53364380,0.00145501
3780.46245117,0.00145102
3782.39125854,0.00156671
3784.32006592,0.00155031
3786.24887329,0.00148771
3788.17768066,0.00154645
3790.10648804,0.00155842
3792.03529541,0.00147657
3793.96410278,0.00154775
3795.89291016,0.00147049
3797.82171753,0.00147394
3799.75052490,0.00158647
3801.67933228,0.00126034
3803.60813965,0.00141206
3805.53694702,0.00156166
3807.46575439,0.00134517
3809.39456177,0.00145955
3811.32336914,0.00143192
3813.25217651,0.00156021
3815.18098389,0.00141340
3817.10979126,0.00130962
3819.03859863,0.00153467
3820.96740601,0.00119451
3822.89621338,0.00131924
3824.82502075,0.00152493
3826.75382812,0.00135529
3828.68263550,0.00151452
3830.61144287,0.00145665
3832.54025024,0.00134440
3834.46905762,0.00149647
3836.39786499,0.00140166
3838.32667236,0.00116217
3840.25547974,0.00130881
3842.18428711,0.00136158
3844.11309448,0.00131029
3846.04190186,0.00143092
3847.97070923,0.00139614
3849.89951660,0.00150357
3851.82832397,0.00136207
3853.75713135,0.00098045
3855.68593872,0.00112120
3857.61474609,0.00140884
3859.54355347,0.00144173
3861.47236084,0.00141101
3863.40116821,0.00132692
3865.32997559,0.00124346
3867.25878296,0.00137562
3869.18759033,0.00128466
3871.11639770,0.00119005
3873.04520508,0.00136826
3874.97401245,0.00127108
3876.90281982,0.00130389
3878.83162720,0.00138267
3880.76043457,0.00123425
3882.68924194,0.00135748
3884.61804932,0.00135864
3886.54685669,0.00120144
3888.47566406,0.00136826
3890.40447144,0.00133148
3892.33327881,0.00121810
3894.26208618,0.00141469
3896.19089355,0.00138558
3898.11970093,0.00129874
3900.04850830,0.00127819
3901.97731567,0.00121303
3903.90612305,0.00121043
3905.83493042,0.00127105
3907.76373779,0.00140670
3909.69254517,0.00134064
3911.62135254,0.00131296
3913.55015991,0.00128898
3915.47896728,0.00124954
3917.40777466,0.00138233
3919.33658203,0.00131228
3921.26538940,0.00128341
3923.19419678,0.00127978
3925.12300415,0.00127432
3927.05181152,0.00131537
3928.98061890,0.00130647
3930.90942627,0.00131595
3932.83823364,0.00117852
3934.76704102,0.00128529
3936.69584839,0.00131774
3938.62465576,0.00121620
3940.55346313,0.00133030
3942.48227051,0.00123152
3944.41107788,0.00130284
3946.33988525,0.00133503
3948.26869263,0.00119128
3950.19750000,0.00131772
3952.12630737,0.00137526
3954.05511475,0.00134181
3955.98392212,0.00122371
3957.91272949,0.00114894
3959.84153687,0.00123069
3961.77034424,0.00124886
3963.69915161,0.00125878
3965.62795898,0.00127380
3967.55676636,0.00128322
3969.48557373,0.00128718
3971.41438110,0.00131412
3973.34318848,0.00128698
3975.27199585,0.00117863
3977.20080322,0.00117743
3979.12961060,0.00122812
3981.05841797,0.00125649
3982.98722534,0.00123885
3984.91603271,0.00123157
3986.84484009,0.00124325
3988.77364746,0.00117137
3990.70245483,0.00119269
3992.63126221,0.00123029
3994.56006958,0.00122354
3996.48887695,0.00127801
3998.41768433,0.00119899
4000.34649170,0.00114663
4002.27529907,0.00119716
4004.20410645,0.00123216
4006.13291382,0.00127358
4008.06172119,0.00122755
4009.99052856,0.00121122
4011.91933594,0.00120025
4013.84814331,0.00122866
4015.77695068,0.00122110
4017.70575806,0.00113130
4019.63456543,0.00123472
4021.56337280,0.00114516
4023.49218018,0.00107153
4025.42098755,0.00124237
4027.34979492,0.00120777
4029.27860229,0.00121657
4031.20740967,0.00123464
4033.13621704,0.00118583
4035.06502441,0.00114581
4036.99383179,0.00110940
4038.92263916,0.00116961
4040.85144653,0.00112965
4042.78025391,0.00111467
4044.70906128,0.00117790
4046.63786865,0.00116864
4048.56667603,0.00113799
4050.49548340,0.00119831
4052.42429077,0.00119771
4054.35309814,0.00111208
4056.28190552,0.00122699
4058.21071289,0.00121004
4060.13952026,0.00111705
4062.06832764,0.00112099
4063.99713501,0.00114964
4065.92594238,0.00119692
4067.85474976,0.00099709
4069.78355713,0.00107033
4071.71236450,0.00122358
4073.64117187,0.00109172
4075.56997925,0.00110219
4077.49878662,0.00105517
4079.42759399,0.00107695
4081.35640137,0.00110840
4083.28520874,0.00106148
4085.21401611,0.00111140
4087.14282349,0.00111778
4089.07163086,0.00109742
4091.00043823,0.00102330
4092.92924561,0.00107118
4094.85805298,0.00109210
4096.78686035,0.00098952
4098.71566772,0.00102561
4100.64447510,0.00109151
4102.57328247,0.00110876
4104.50208984,0.00107780
4106.43089722,0.00108494
4108.35970459,0.00105841
4110.28851196,0.00105700
4112.21731934,0.00112680
4114.14612671,0.00109060
4116.07493408,0.00103675
4118.00374145,0.00100701
4119.93254883,0.00109213
4121.86135620,0.00110852
4123.79016357,0.00106750
4125.71897095,0.00112188
4127.64777832,0.00108751
4129.57658569,0.00107990
4131.50539307,0.00099842
4133.43420044,0.00102494
4135.36300781,0.00113851
4137.29181519,0.00098847
4139.22062256,0.00099113
4141.14942993,0.00106283
4143.07823730,0.00102944
4145.00704468,0.00112515
4146.93585205,0.00113393
4148.86465942,0.00099598
4150.79346680,0.00104024
4152.72227417,0.00108312
4154.65108154,0.00096800
4156.57988892,0.00108697
4158.50869629,0.00107879
4160.43750366,0.00094484
4162.36631103,0.00106890
4164.29511841,0.00104128
4166.22392578,0.00099560
4168.15273315,0.00103774
4170.08154053,0.00103107
4172.01034790,0.00099552
4173.93915527,0.00098342
4175.86796265,0.00104712
4177.79677002,0.00098442
4179.72557739,0.00101731
4181.65438477,0.00102887
4183.58319214,0.00097462
4185.51199951,0.00103867
4187.44080688,0.00098065
4189.36961426,0.00101465
4191.29842163,0.00101563
4193.22722900,0.00100905
4195.15603638,0.00106757
4197.08484375,0.00097187
4199.01365112,0.00093751
4200.94245850,0.00092154
4202.87126587,0.00100417
4204.80007324,0.00102508
4206.72888062,0.00094585
4208.65768799,0.00093871
4210.58649536,0.00095503
4212.51530273,0.00104149
4214.44411011,0.00094906
4216.37291748,0.00099346
4218.30172485,0.00102102
4220.23053223,0.00089788
4222.15933960,0.00094480
4224.08814697,0.00085791
4226.01695435,0.00097358
4227.94576172,0.00101178
4229.87456909,0.00089951
4231.80337646,0.00103053
4233.73218384,0.00099040
4235.66099121,0.00095974
4237.58979858,0.00088472
4239.51860596,0.00085304
4241.44741333,0.00098128
4243.37622070,0.00092806
4245.30502808,0.00089286
4247.23383545,0.00091483
4249.16264282,0.00095186
4251.09145020,0.00097698
4253.02025757,0.00095769
4254.94906494,0.00092461
4256.87787231,0.00089604
4258.80667969,0.00090631
4260.73548706,0.00087354
4262.66429443,0.00084466
4264.59310181,0.00085426
4266.52190918,0.00092049
4268.45071655,0.00089476
4270.37952393,0.00083585
4272.30833130,0.00090741
4274.23713867,0.00088557
4276.16594604,0.00090842
4278.09475342,0.00094819
4280.02356079,0.00088580
4281.95236816,0.00091960
4283.88117554,0.00089424
4285.80998291,0.00087532
4287.73879028,0.00093880
4289.66759766,0.00086213
4291.59640503,0.00080506
4293.52521240,0.00086166
4295.45401978,0.00091080
4297.38282715,0.00093597
4299.31163452,0.00089000
4301.24044189,0.00084744
4303.16924927,0.00091064
4305.09805664,0.00095345
4307.02686401,0.00086915
4308.95567139,0.00080056
4310.88447876,0.00082667
4312.81328613,0.00086915
4314.74209351,0.00085598
4316.67090088,0.00079579
4318.59970825,0.00082686
4320.52851562,0.00087908
4322.45732300,0.00085785
4324.38613037,0.00081939
4326.31493774,0.00083176
4328.24374512,0.00083932
4330.17255249,0.00081305
4332.10135986,0.00088229
4334.03016724,0.00081662
4335.95897461,0.00078703
4337.88778198,0.00091440
4339.81658936,0.00084076
4341.74539673,0.00077859
4343.67420410,0.00080114
4345.60301147,0.00081397
4347.53181885,0.00082594
4349.46062622,0.00087640
4351.38943359,0.00078971
4353.31824097,0.00073697
4355.24704834,0.00091152
4357.17585571,0.00076739
4359.10466309,0.00075390
4361.03347046,0.00076368
4362.96227783,0.00063368
4364.89108520,0.00084756
4366.81989258,0.00083825
4368.74869995,0.00085493
4370.67750732,0.00087277
4372.60631470,0.00081973
4374.53512207,0.00088633
4376.46392944,0.00081290
4378.39273682,0.00089308
4380.32154419,0.00085185
4382.25035156,0.00084341
4384.17915894,0.00084045
4386.10796631,0.00075013
4388.03677368,0.00082943
4389.96558105,0.00073239
4391.89438843,0.00080715
4393.82319580,0.00080560
4395.75200317,0.00074954
4397.68081055,0.00088793
4399.60961792,0.00076114
4401.53842529,0.00070596
4403.46723267,0.00073771
4405.39604004,0.00074382
4407.32484741,0.00074980
4409.25365478,0.00073137
4411.18246216,0.00070224
4413.11126953,0.00072085
4415.04007690,0.00084216
4416.96888428,0.00074008
4418.89769165,0.00066447
4420.82649902,0.00071671
4422.75530640,0.00074633
4424.68411377,0.00078187
4426.61292114,0.00076487
4428.54172852,0.00077233
4430.47053589,0.00066547
4432.39934326,0.00064878
4434.32815063,0.00072745
4436.25695801,0.00071674
4438.18576538,0.00074401
4440.11457275,0.00073590
4442.04338013,0.00076348
4443.97218750,0.00073830
4445.90099487,0.00067722
4447.82980225,0.00071661
4449.75860962,0.00071012
4451.68741699,0.00068327
4453.61622437,0.00069322
4455.54503174,0.00072595
4457.47383911,0.00075048
4459.40264648,0.00074321
4461.33145386,0.00069082
4463.26026123,0.00066319
4465.18906860,0.00074992
4467.11787598,0.00078023
4469.04668335,0.00068346
4470.97549072,0.00068993
4472.90429810,0.00075524
4474.83310547,0.00071692
4476.76191284,0.00071372
4478.69072021,0.00072674
4480.61952759,0.00070029
4482.54833496,0.00070843
4484.47714233,0.00070448
4486.40594971,0.00064280
4488.33475708,0.00066686
4490.26356445,0.00078163
4492.19237183,0.00069889
4494.12117920,0.00064989
4496.04998657,0.00071182
4497.97879395,0.00060875
4499.90760132,0.00062809
4501.83640869,0.00071201
4503.76521606,0.00069122
4505.69402344,0.00069039
4507.62283081,0.00063419
4509.55163818,0.00061744
4511.48044556,0.00064769
4513.40925293,0.00063881
4515.33806030,0.00065804
4517.26686768,0.00067012
4519.19567505,0.00065547
4521.12448242,0.00066076
4523.05328979,0.00068285
4524.98209717,0.00066456
4526.91090454,0.00060788
4528.83971191,0.00060577
4530.76851929,0.00067244
4532.69732666,0.00069736
4534.62613403,0.00065668
4536.55494141,0.00064926
4538.48374878,0.00064189
4540.41255615,0.00068271
4542.34136353,0.00076375
4544.27017090,0.00068011
4546.19897827,0.00060917
4548.12778564,0.00065015
4550.05659302,0.00066337
4551.98540039,0.00061408
4553.91420776,0.00059765
4555.84301514,0.00069601
4557.77182251,0.00061363
4559.70062988,0.00056715
4561.62943726,0.00065669
4563.55824463,0.00060227
4565.48705200,0.00067632
4567.41585937,0.00067824
4569.34466675,0.00060794
4571.27347412,0.00063564
4573.20228149,0.00062369
4575.13108887,0.00066515
4577.05989624,0.00060848
4578.98870361,0.00059878
4580.91751099,0.00065275
4582.84631836,0.00063361
4584.77512573,0.00057774
4586.70393311,0.00052333
4588.63274048,0.00062727
4590.56154785,0.00062677
4592.49035522,0.00059405
4594.41916260,0.00063193
4596.34796997,0.00061310
4598.27677734,0.00059061
4600.20558472,0.00056725
4602.13439209,0.00062873
4604.06319946,0.00063077
4605.99200684,0.00064293
4607.92081421,0.00059250
4609.84962158,0.00054368
4611.77842895,0.00065089
4613.70723633,0.00056849
4615.63604370,0.00055269
4617.56485107,0.00059746
4619.49365845,0.00056777
4621.42246582,0.00060639
4623.35127319,0.00062437
4625.28008057,0.00060574
4627.20888794,0.00053093
4629.13769531,0.00060876
4631.06650269,0.00064355
4632.99531006,0.00053986
4634.92411743,0.00054198
4636.85292480,0.00060116
4638.78173218,0.00062371
4640.71053955,0.00050668
4642.63934692,0.00053510
4644.56815430,0.00060111
4646.49696167,0.00054831
4648.42576904,0.00059830
4650.35457642,0.00059841
4652.28338379,0.00053380
4654.21219116,0.00051919
4656.14099853,0.00059939
4658.06980591,0.00060023
4659.99861328,0.00055905
4661.92742065,0.00057395
4663.85622803,0.00050855
4665.78503540,0.00051689
4667.71384277,0.00055517
4669.64265015,0.00054358
4671.57145752,0.00053248
4673.50026489,0.00056549
4675.42907227,0.00060074
4677.35787964,0.00057179
4679.28668701,0.00051685
4681.21549438,0.00048182
4683.14430176,0.00058472
4685.07310913,0.00056149
4687.00191650,0.00050830
4688.93072388,0.00058223
4690.85953125,0.00051687
4692.78833862,0.00050407
4694.71714600,0.00052962
4696.64595337,0.00055823
4698.57476074,0.00057889
4700.50356812,0.00052199
4702.43237549,0.00056109
4704.36118286,0.00058308
4706.28999023,0.00051389
4708.21879761,0.00044592
4710.14760498,0.00050792
4712.07641235,0.00054344
4714.00521973,0.00045558
4715.93402710,0.00050713
4717.86283447,0.00054620
4719.79164185,0.00052802
4721.72044922,0.00053460
4723.64925659,0.00050510
4725.57806396,0.00054448
4727.50687134,0.00052362
4729.43567871,0.00048424
4731.36448608,0.00055135
4733.29329346,0.00051242
4735.22210083,0.00047957
4737.15090820,0.00052254
4739.07971558,0.00053889
4741.00852295,0.00055610
4742.93733032,0.00052802
4744.86613770,0.00053526
4746.79494507,0.00046915
4748.72375244,0.00043742
4750.65255981,0.00055977
4752.58136719,0.00048489
4754.51017456,0.00046653
4756.43898193,0.00054082
4758.36778931,0.00046353
4760.29659668,0.00051760
4762.22540405,0.00052787
4764.15421143,0.00042545
4766.08301880,0.00051085
4768.01182617,0.00054805
4769.94063354,0.00045292
4771.86944092,0.00048254
4773.79824829,0.00050005
4775.72705566,0.00044469
4777.65586304,0.00047121
4779.58467041,0.00050112
4781.51347778,0.00047258
4783.44228516,0.00043259
4785.37109253,0.00047130
4787.29989990,0.00050713
4789.22870728,0.00047163
4791.15751465,0.00052808
4793.08632202,0.00051586
4795.01512939,0.00045945
4796.94393677,0.00054666
4798.87274414,0.00048056
4800.80155151,0.00041522
4802.73035889,0.00044280
4804.65916626,0.00043653
4806.58797363,0.00058191
4808.51678101,0.00050317
4810.44558838,0.00045253
4812.37439575,0.00058129
4814.30320312,0.00039404
4816.23201050,0.00038133
4818.16081787,0.00045592
4820.08962524,0.00041968
4822.01843262,0.00047249
4823.94723999,0.00041720
4825.87604736,0.00041715
4827.80485474,0.00044790
4829.73366211,0.00042890
4831.66246948,0.00042973
4833.59127686,0.00042813
4835.52008423,0.00039538
4837.44889160,0.00041094
4839.37769897,0.00043790
4841.30650635,0.00036439
4843.23531372,0.00040379
4845.16412109,0.00041617
4847.09292847,0.00044999
4849.02173584,0.00047286
4850.95054321,0.00036787
4852.87935059,0.00046901
4854.80815796,0.00047654
4856.73696533,0.00041680
4858.66577270,0.00045783
4860.59458008,0.00039192
4862.52338745,0.00037062
4864.45219482,0.00038235
4866.38100220,0.00038970
4868.30980957,0.00044414
4870.23861694,0.00044985
4872.16742432,0.00038074
4874.09623169,0.00044570
4876.02503906,0.00049985
4877.95384644,0.00042670
4879.88265381,0.00045755
4881.81146118,0.00044342
4883.74026855,0.00040655
4885.66907593,0.00037687
4887.59788330,0.00038751
4889.52669067,0.00051272
4891.45549805,0.00049859
4893.38430542,0.00046254
4895.31311279,0.00046720
4897.24192017,0.00039459
4899.17072754,0.00039291
4901.09953491,0.00045522
4903.02834228,0.00046138
4904.95714966,0.00043187
4906.88595703,0.00041417
4908.81476440,0.00042478
4910.74357178,0.00042887
4912.67237915,0.00043070
4914.60118652,0.00041886
4916.52999390,0.00036775
4918.45880127,0.00042422
4920.38760864,0.00046467
4922.31641602,0.00038542
4924.24522339,0.00037133
4926.17403076,0.00044028
4928.10283813,0.00045636
4930.03164551,0.00041280
4931.96045288,0.00044593
4933.88926025,0.00039764
4935.81806763,0.00036902
4937.74687500,0.00039169
4939.67568237,0.00030339
4941.60448975,0.00035251
4943.53329712,0.00041043
4945.46210449,0.00041330
4947.39091187,0.00041138
4949.31971924,0.00035982
4951.24852661,0.00038039
4953.17733398,0.00039503
4955.10614136,0.00031764
4957.03494873,0.00030475
4958.96375610,0.00037146
4960.89256348,0.00035580
4962.82137085,0.00042820
4964.75017822,0.00040487
4966.67898560,0.00033280
4968.60779297,0.00039529
4970.53660034,0.00033012
4972.46540771,0.00035817
4974.39421509,0.00038006
4976.32302246,0.00041565
4978.25182983,0.00042673
4980.18063721,0.00036079
4982.10944458,0.00041026
4984.03825195,0.00035731
4985.96705933,0.00042324
4987.89586670,0.00035866
4989.82467407,0.00026337
4991.75348145,0.00040951
4993.68228882,0.00040142
4995.61109619,0.00037109
4997.53990356,0.00037559
4999.46871094,0.00039875
5001.39751831,0.00030200
5003.32632568,0.00031438
5005.25513306,0.00037788
5007.18394043,0.00035483
5009.11274780,0.00043062
5011.04155518,0.00027194
5012.97036255,0.00031979
5014.89916992,0.00040873
5016.82797729,0.00034783
5018.75678467,0.00041073
5020.68559204,0.00033785
5022.61439941,0.00036051
5024.54320679,0.00033670
5026.47201416,0.00034650
5028.40082153,0.00040243
5030.32962891,0.00034904
5032.25843628,0.00034688
5034.18724365,0.00033660
5036.11605103,0.00039153
5038.04485840,0.00036359
5039.97366577,0.00034580
5041.90247314,0.00031965
5043.83128052,0.00033203
5045.76008789,0.00042322
5047.68889526,0.00035095
5049.61770264,0.00033324
5051.54651001,0.00031269
5053.47531738,0.00031098
5055.40412476,0.00035050
5057.33293213,0.00035272
5059.26173950,0.00033524
5061.19054687,0.00028904
5063.11935425,0.00030899
5065.04816162,0.00030346
5066.97696899,0.00029785
5068.90577637,0.00029612
5070.83458374,0.00035526
5072.76339111,0.00034586
5074.69219849,0.00027201
5076.62100586,0.00032867
5078.54981323,0.00035592
5080.47862061,0.00036214
5082.40742798,0.00028978
5084.33623535,0.00028840
5086.26504272,0.00035910
5088.19385010,0.00035538
5090.12265747,0.00032609
5092.05146484,0.00029481
5093.98027222,0.00036931
5095.90907959,0.00032166
5097.83788696,0.00026291
5099.76669434,0.00031523
5101.69550171,0.00036728
5103.62430908,0.00031509
5105.55311645,0.00023629
5107.48192383,0.00033510
5109.41073120,0.00027258
5111.33953857,0.00027815
5113.26834595,0.00032950
5115.19715332,0.00026411
5117.12596069,0.00038822
5119.05476807,0.00034972
5120.98357544,0.00027149
5122.91238281,0.00031651
5124.84119019,0.00026239
5126.76999756,0.00023717
5128.69880493,0.00031012
5130.62761230,0.00034573
5132.55641968,0.00030789
5134.48522705,0.00030364
5136.41403442,0.00030561
5138.34284180,0.00033173
5140.27164917,0.00031154
5142.20045654,0.00031099
5144.12926392,0.00038346
5146.05807129,0.00033982
5147.98687866,0.00027869
5149.91568603,0.00031147
5151.84449341,0.00034074
5153.77330078,0.00031169
5155.70210815,0.00031311
5157.63091553,0.00028130
5159.55972290,0.00030702
5161.48853027,0.00036760
5163.41733765,0.00030294
5165.34614502,0.00030036
5167.27495239,0.00031351
5169.20375977,0.00034087
5171.13256714,0.00029072
5173.06137451,0.00026802
5174.99018188,0.00034678
5176.91898926,0.00026640
5178.84779663,0.00027693
5180.77660400,0.00030834
5182.70541138,0.00030167
5184.63421875,0.00029954
5186.56302612,0.00026948
5188.49183350,0.00033731
5190.42064087,0.00028707
5192.34944824,0.00027572
5194.27825562,0.00032327
5196.20706299,0.00023436
5198.13587036,0.00023902
5200.06467773,0.00030005
5201.99348511,0.00026463
5203.92229248,0.00030639
5205.85109985,0.00036589
5207.77990723,0.00026074
5209.70871460,0.00022882
5211.63752197,0.00024695
5213.56632935,0.00028055
5215.49513672,0.00027467
5217.42394409,0.00020971
5219.35275146,0.00035319
5221.28155884,0.00029286
5223.21036621,0.00015028
5225.13917358,0.00028482
5227.06798096,0.00028996
5228.99678833,0.00025287
5230.92559570,0.00030129
5232.85440308,0.00030595
5234.78321045,0.00031849
5236.71201782,0.00028520
5238.64082520,0.00022674
5240.56963257,0.00033650
5242.49843994,0.00032937
5244.42724731,0.00020618
5246.35605469,0.00034890
5248.28486206,0.00029968
5250.21366943,0.00016937
5252.14247681,0.00032685
5254.07128418,0.00027005
5256.00009155,0.00017084
5257.92889893,0.00028253
5259.85770630,0.00028726
5261.78651367,0.00027754
5263.71532104,0.00027024
5265.64412842,0.00022175
5267.57293579,0.00024560
5269.50174316,0.00020596
5271.43055054,0.00023116
5273.35935791,0.00025534
5275.28816528,0.00022301
5277.21697266,0.00029881
5279.14578003,0.00016449
5281.07458740,0.00018335
5283.00339478,0.00036422
5284.93220215,0.00023886
5286.86100952,0.00026890
5288.78981689,0.00028288
5290.71862427,0.00023068
5292.64743164,0.00031147
5294.57623901,0.00022306
5296.50504639,0.00023991
5298.43385376,0.00026442
5300.36266113,0.00018108
5302.29146851,0.00025736
5304.22027588,0.00027917
5306.14908325,0.00023316
5308.07789062,0.00024997
5310.00669800,0.00029331
5311.93550537,0.00028900
5313.86431274,0.00025933
5315.79312012,0.00026255
5317.72192749,0.00024349
5319.65073486,0.00027282
5321.57954224,0.00026055
5323.50834961,0.00020524
5325.43715698,0.00024088
5327.36596436,0.00022911
5329.29477173,0.00019855
5331.22357910,0.00020549
5333.15238647,0.00023381
5335.08119385,0.00025998
5337.01000122,0.00025773
5338.93880859,0.00027276
5340.86761597,0.00026345
5342.79642334,0.00026449
5344.72523071,0.00020178
5346.65403809,0.00019540
5348.58284546,0.00028729
5350.51165283,0.00021530
5352.44046020,0.00019801
5354.36926758,0.00022254
5356.29807495,0.00023114
5358.22688232,0.00026805
5360.15568970,0.00020973
5362.08449707,0.00027880
5364.01330444,0.00031329
5365.94211182,0.00023568
5367.87091919,0.00024495
5369.79972656,0.00023991
5371.72853394,0.00022582
5373.65734131,0.00017730
5375.58614868,0.00020103
5377.51495605,0.00023684
5379.44376343,0.00017243
5381.37257080,0.00018564
5383.30137817,0.00020451
5385.23018555,0.00020201
5387.15899292,0.00019524
5389.08780029,0.00019788
5391.01660767,0.00021995
5392.94541504,0.00019374
5394.87422241,0.00016670
5396.80302978,0.00014913
5398.73183716,0.00017490
5400.66064453,0.00018377
5402.58945190,0.00021822
5404.51825928,0.00026023
5406.44706665,0.00018554
5408.37587402,0.00020369
5410.30468140,0.00021372
5412.23348877,0.00014679
5414.16229614,0.00017102
5416.09110352,0.00021108
5418.01991089,0.00022795
5419.94871826,0.00021767
5421.87752563,0.00024605
5423.80633301,0.00023957
5425.73514038,0.00018870
5427.66394775,0.00023379
5429.59275513,0.00020659
5431.52156250,0.00014136
5433.45036987,0.00020290
5435.37917725,0.00024999
5437.30798462,0.00022642
5439.23679199,0.00016743
5441.16559936,0.00014096
5443.09440674,0.00021388
5445.02321411,0.00024822
5446.95202148,0.00018179
5448.88082886,0.00010133
5450.80963623,0.00015308
5452.73844360,0.00026447
5454.66725098,0.00024112
5456.59605835,0.00023756
5458.52486572,0.00024228
5460.45367310,0.00021345
5462.38248047,0.00018854
5464.31128784,0.00010722
5466.24009521,0.00013451
5468.16890259,0.00017114
5470.09770996,0.00015479
5472.02651733,0.00023483
5473.95532471,0.00024774
5475.88413208,0.00017347
5477.81293945,0.00014678
5479.74174683,0.00017673
5481.67055420,0.00023004
5483.59936157,0.00020701
5485.52816895,0.00017424
5487.45697632,0.00021571
5489.38578369,0.00018383
5491.31459106,0.00016391
5493.24339844,0.00022579
5495.17220581,0.00022398
5497.10101318,0.00017595
5499.02982056,0.00018033
5500.95862793,0.00022803
5502.88743530,0.00018945
5504.81624268,0.00018899
5506.74505005,0.00019713
5508.67385742,0.00015959
5510.60266479,0.00016472
5512.53147217,0.00016032
5514.46027954,0.00025659
5516.38908691,0.00020342
5518.31789429,0.00011519
5520.24670166,0.00016728
5522.17550903,0.00016061
5524.10431641,0.00017639
5526.03312378,0.00011394
5527.96193115,0.00017680
5529.89073853,0.00023386
5531.81954590,0.00015639
5533.74835327,0.00019702
5535.67716064,0.00017367
5537.60596802,0.00013730
5539.53477539,0.00015227
5541.46358276,0.00019330
5543.39239014,0.00014514
5545.32119751,0.00009709
5547.25000488,0.00015258
5549.17881226,0.00019178
5551.10761963,0.00023699
5553.03642700,0.00015784
5554.96523437,0.00018902
5556.89404175,0.00018956
5558.82284912,0.00009656
5560.75165649,0.00016575
5562.68046387,0.00014956
5564.60927124,0.00018818
5566.53807861,0.00021523
5568.46688599,0.00018695
5570.39569336,0.00015446
5572.32450073,0.00013484
5574.25330811,0.00015933
5576.18211548,0.00010705
5578.11092285,0.00016711
5580.03973022,0.00016322
5581.96853760,0.00017124
5583.89734497,0.00018034
5585.82615234,0.00009344
5587.75495972,0.00015413
5589.68376709,0.00012037
5591.61257446,0.00012738
5593.54138184,0.00017447
5595.47018921,0.00013811
5597.39899658,0.00012737
5599.32780395,0.00013656
5601.25661133,0.00022345
5603.18541870,0.00016381
5605.11422607,0.00012798
5607.04303345,0.00021234
5608.97184082,0.00016898
5610.90064819,0.00014059
5612.82945557,0.00015230
5614.75826294,0.00011458
5616.68707031,0.00014767
5618.61587769,0.00020977
5620.54468506,0.00015556
5622.47349243,0.00011751
5624.40229980,0.00011717
5626.33110718,0.00017077
5628.25991455,0.00019305
5630.18872192,0.00012634
5632.11752930,0.00013795
5634.04633667,0.00011162
5635.97514404,0.00014088
5637.90395142,0.00018481
5639.83275879,0.00016242
5641.76156616,0.00016979
5643.69037353,0.00013325
5645.61918091,0.00018760
5647.54798828,0.00021075
5649.47679565,0.00014576
5651.40560303,0.00013331
5653.33441040,0.00009237
5655.26321777,0.00012467
5657.19202515,0.00017641
5659.12083252,0.00010283
5661.04963989,0.00014405
5662.97844727,0.00017683
5664.90725464,0.00010978
5666.83606201,0.00018976
5668.76486938,0.00017028
5670.69367676,0.00014955
5672.62248413,0.00018547
5674.55129150,0.00015607
5676.48009888,0.00022511
5678.40890625,0.00014094
5680.33771362,0.00007597
5682.26652100,0.00014582
5684.19532837,0.00013819
5686.12413574,0.00015521
5688.05294311,0.00011864
5689.98175049,0.00011216
5691.91055786,0.00019557
5693.83936523,0.00016526
5695.76817261,0.00010984
5697.69697998,0.00016471
5699.62578735,0.00014202
5701.55459473,0.00014923
5703.48340210,0.00020578
5705.41220947,0.00012999
5707.34101685,0.00017385
5709.26982422,0.00018604
5711.19863159,0.00012342
5713.12743896,0.00021420
5715.05624634,0.00019769
5716.98505371,0.00011099
5718.91386108,0.00015058
5720.84266846,0.00010790
5722.77147583,0.00004068
5724.70028320,0.00012758
5726.62909058,0.00012978
5728.55789795,0.00009938
5730.48670532,0.00008989
5732.41551270,0.00007960
5734.34432007,0.00013728
5736.27312744,0.00014197
5738.20193481,0.00019079
5740.13074219,0.00013280
5742.05954956,0.00008097
5743.98835693,0.00017628
5745.91716431,0.00014817
5747.84597168,0.00016232
5749.77477905,0.00013616
5751.70358643,0.00009250
5753.63239380,0.00017051
5755.56120117,0.00016830
5757.49000854,0.00015898
5759.41881592,0.00017125
5761.34762329,0.00012571
5763.27643066,0.00012362
5765.20523804,0.00015849
5767.13404541,0.00009882
5769.06285278,0.00011640
5770.99166016,0.00018236
5772.92046753,0.00014123
5774.84927490,0.00013430
5776.77808228,0.00013888
5778.70688965,0.00010038
5780.63569702,0.00006921
5782.56450439,0.00012840
5784.49331177,0.00016619
5786.42211914,0.00014084
5788.35092651,0.00011472
5790.27973389,0.00010858
5792.20854126,0.00010960
5794.13734863,0.00003596
5796.06615601,0.00012183
5797.99496338,0.00017919
5799.92377075,0.00011286
5801.85257812,0.00013901
5803.78138550,0.00010332
5805.71019287,0.00012403
5807.63900024,0.00014369
5809.56780762,0.00008569
5811.49661499,0.00011696
5813.42542236,0.00014434
5815.35422974,0.00005683
5817.28303711,0.00005772
5819.21184448,0.00013766
5821.14065186,0.00007440
5823.06945923,0.00012767
5824.99826660,0.00016712
5826.92707397,0.00011282
5828.85588135,0.00014774
5830.78468872,0.00012901
5832.71349609,0.00011061
5834.64230347,0.00005966
5836.57111084,0.00012427
5838.49991821,0.00017683
5840.42872559,0.00011168
5842.35753296,0.00014745
5844.28634033,0.00008346
5846.21514770,0.00009315
5848.14395508,0.00013593
5850.07276245,0.00010930
5852.00156982,0.00015197
5853.93037720,0.00012585
5855.85918457,0.00014674
5857.78799194,0.00010469
5859.71679932,0.00006101
5861.64560669,0.00015986
5863.57441406,0.00012858
5865.50322144,0.00010795
5867.43202881,0.00012716
5869.36083618,0.00003876
5871.28964355,0.00009277
5873.21845093,0.00017335
5875.14725830,0.00005682
5877.07606567,0.00004265
5879.00487305,0.00011183
5880.93368042,0.00011169
5882.86248779,0.00009662
5884.79129517,0.00005065
5886.72010254,0.00012584
5888.64890991,0.00012923
5890.57771728,0.00005479
5892.50652466,0.00015058
5894.43533203,0.00014854
5896.36413940,0.00012565
5898.29294678,0.00012693
5900.22175415,0.00013235
5902.15056152,0.00021252
5904.07936890,0.00012177
5906.00817627,0.00006460
5907.93698364,0.00008530
5909.86579102,0.00008902
5911.79459839,0.00013385
5913.72340576,0.00012928
5915.65221313,0.00013946
5917.58102051,0.00008174
5919.50982788,0.00010227
5921.43863525,0.00013136
5923.36744263,0.00006338
5925.29625000,0.00013104
5927.22505737,0.00012001
5929.15386475,0.00012160
5931.08267212,0.00017353
5933.01147949,0.00013342
5934.94028686,0.00011164
5936.86909424,0.00007842
5938.79790161,0.00006499
5940.72670898,0.00007798
5942.65551636,0.00011917
5944.58432373,0.00007142
5946.51313110,0.00003133
5948.44193848,0.00008457
5950.37074585,0.00006373
5952.29955322,0.00009230
5954.22836060,0.00012991
5956.15716797,0.00011637
5958.08597534,0.00008118
5960.01478271,0.00005089
5961.94359009,0.00003500
5963.87239746,0.00005898
5965.80120483,0.00011921
5967.73001221,0.00005956
5969.65881958,0.00012711
5971.58762695,0.00016383
5973.51643433,0.00003201
5975.44524170,0.00006917
5977.37404907,0.00007113
5979.30285645,0.00004919
5981.23166382,0.00008576
5983.16047119,0.00010032
5985.08927856,0.00013889
5987.01808594,0.00013092
5988.94689331,0.00010243
5990.87570068,0.00011810
5992.80450806,0.00015412
5994.73331543,0.00009281
5996.66212280,0.00006990
5998.59093018,0.00014907
6000.51973755,0.00011364
